 LCModel (Version 6.3-1L) Copyright: S.W. Provencher.          Ref.: Magn. Reson. Med. 30:672-679 (1993).                
 Slice#3 Row#3 Col#4  PD_05_press_2_raw_act
 36 lines in following concentration table = NCONC+1
    Conc.  %SD /Cr+PCr  Metabolite                                         
    0.000 999%   0.000 Ala                                                 
  187.423 151%   0.113 Asp                                                 
    0.000 999%   0.000 Cr                                                  
 1.66E+03   7%   1.000 PCr                                                 
   38.835 451% 2.3E-02 GABA                                                
  198.722  88%   0.120 Glc                                                 
 1.01E+03  43%   0.610 Gln                                                 
  609.023  81%   0.367 Glu                                                 
    0.000 999%   0.000 GPC                                                 
  645.691   7%   0.389 PCh                                                 
  202.555  74%   0.122 GSH                                                 
 1.54E+03  33%   0.930 Ins                                                 
    0.000 999%   0.000 Lac                                                 
 1.86E+03   7%   1.124 NAA                                                 
    0.000 999%   0.000 NAAG                                                
  155.809  29% 9.4E-02 Scyllo                                              
  793.295  34%   0.478 Tau                                                 
  738.255  28%   0.445 -CrCH2                                              
  645.691   7%   0.389 GPC+PCh                                             
 1.86E+03   7%   1.124 NAA+NAAG                                            
 1.66E+03   7%   1.000 Cr+PCr                                              
 1.62E+03  41%   0.977 Glu+Gln                                             
    0.000 999%   0.000 Lip13a                                              
    0.000 999%   0.000 Lip13b                                              
    0.000 999%   0.000 Lip09                                               
 2.25E+03  15%   1.359 MM09                                                
    0.000 999%   0.000 Lip20                                               
 3.53E+03  20%   2.126 MM20                                                
  303.923  91%   0.183 MM12                                                
 1.51E+03  32%   0.912 MM14                                                
 1.59E+03  27%   0.957 MM17                                                
    0.000 999%   0.000 Lip13a+Lip13b                                       
 1.82E+03  33%   1.095 MM14+Lip13a+Lip13b+MM12                             
 2.25E+03  15%   1.359 MM09+Lip09                                          
 3.53E+03  20%   2.126 MM20+Lip20                                          
   6 lines in following misc. output table
  FWHM = 0.054 ppm    S/N =   5                                            
  Data shift = 0.038 ppm                                                   
  Ph: -58 deg     -24.3 deg/ppm                                            
  alphaB,S = 1.4E+00,   5.1E+01                                            
   14 spline knots.   Ns = 6(1)                                            
  ( 8) 2 infls.   ( 5) 1 extrs.                                            
  498 points on ppm-axis = NY
      4.000000     3.992357     3.984714     3.977070     3.969427     3.961784     3.954141     3.946497     3.938854     3.931211
      3.923568     3.915925     3.908281     3.900638     3.892995     3.885352     3.877708     3.870065     3.862422     3.854779
      3.847136     3.839492     3.831849     3.824206     3.816563     3.808919     3.801276     3.793633     3.785990     3.778347
      3.770703     3.763060     3.755417     3.747774     3.740130     3.732487     3.724844     3.717201     3.709558     3.701914
      3.694271     3.686628     3.678985     3.671341     3.663698     3.656055     3.648412     3.640769     3.633125     3.625482
      3.617839     3.610196     3.602552     3.594909     3.587266     3.579623     3.571980     3.564336     3.556693     3.549050
      3.541407     3.533763     3.526120     3.518477     3.510834     3.503191     3.495547     3.487904     3.480261     3.472618
      3.464974     3.457331     3.449688     3.442045     3.434402     3.426758     3.419115     3.411472     3.403829     3.396185
      3.388542     3.380899     3.373256     3.365613     3.357969     3.350326     3.342683     3.335040     3.327396     3.319753
      3.312110     3.304467     3.296824     3.289180     3.281537     3.273894     3.266251     3.258607     3.250964     3.243321
      3.235678     3.228034     3.220391     3.212748     3.205105     3.197462     3.189818     3.182175     3.174532     3.166889
      3.159245     3.151602     3.143959     3.136316     3.128673     3.121029     3.113386     3.105743     3.098100     3.090456
      3.082813     3.075170     3.067527     3.059884     3.052240     3.044597     3.036954     3.029311     3.021667     3.014024
      3.006381     2.998738     2.991095     2.983451     2.975808     2.968165     2.960522     2.952878     2.945235     2.937592
      2.929949     2.922306     2.914662     2.907019     2.899376     2.891733     2.884089     2.876446     2.868803     2.861160
      2.853517     2.845873     2.838230     2.830587     2.822944     2.815300     2.807657     2.800014     2.792371     2.784728
      2.777084     2.769441     2.761798     2.754155     2.746511     2.738868     2.731225     2.723582     2.715939     2.708295
      2.700652     2.693009     2.685366     2.677722     2.670079     2.662436     2.654793     2.647150     2.639506     2.631863
      2.624220     2.616577     2.608933     2.601290     2.593647     2.586004     2.578361     2.570717     2.563074     2.555431
      2.547788     2.540144     2.532501     2.524858     2.517215     2.509572     2.501928     2.494285     2.486642     2.478999
      2.471355     2.463712     2.456069     2.448426     2.440783     2.433139     2.425496     2.417853     2.410210     2.402566
      2.394923     2.387280     2.379637     2.371994     2.364350     2.356707     2.349064     2.341421     2.333777     2.326134
      2.318491     2.310848     2.303205     2.295561     2.287918     2.280275     2.272632     2.264988     2.257345     2.249702
      2.242059     2.234416     2.226772     2.219129     2.211486     2.203843     2.196199     2.188556     2.180913     2.173270
      2.165627     2.157983     2.150340     2.142697     2.135054     2.127410     2.119767     2.112124     2.104481     2.096838
      2.089194     2.081551     2.073908     2.066265     2.058621     2.050978     2.043335     2.035692     2.028049     2.020405
      2.012762     2.005119     1.997476     1.989833     1.982190     1.974546     1.966903     1.959260     1.951617     1.943974
      1.936331     1.928688     1.921045     1.913402     1.905759     1.898115     1.890472     1.882829     1.875186     1.867543
      1.859900     1.852257     1.844614     1.836971     1.829327     1.821684     1.814041     1.806398     1.798755     1.791112
      1.783469     1.775826     1.768183     1.760540     1.752896     1.745253     1.737610     1.729967     1.722324     1.714681
      1.707038     1.699395     1.691752     1.684108     1.676465     1.668822     1.661179     1.653536     1.645893     1.638250
      1.630607     1.622964     1.615321     1.607677     1.600034     1.592391     1.584748     1.577105     1.569462     1.561819
      1.554176     1.546533     1.538890     1.531246     1.523603     1.515960     1.508317     1.500674     1.493031     1.485388
      1.477745     1.470102     1.462458     1.454815     1.447172     1.439529     1.431886     1.424243     1.416600     1.408957
      1.401314     1.393671     1.386027     1.378384     1.370741     1.363098     1.355455     1.347812     1.340169     1.332526
      1.324883     1.317240     1.309596     1.301953     1.294310     1.286667     1.279024     1.271381     1.263738     1.256095
      1.248452     1.240808     1.233165     1.225522     1.217879     1.210236     1.202593     1.194950     1.187307     1.179664
      1.172021     1.164377     1.156734     1.149091     1.141448     1.133805     1.126162     1.118519     1.110876     1.103233
      1.095590     1.087946     1.080303     1.072660     1.065017     1.057374     1.049731     1.042088     1.034445     1.026802
      1.019158     1.011515     1.003872     0.996229     0.988586     0.980943     0.973300     0.965657     0.958014     0.950371
      0.942727     0.935084     0.927441     0.919798     0.912155     0.904512     0.896869     0.889226     0.881583     0.873940
      0.866296     0.858653     0.851010     0.843367     0.835724     0.828081     0.820438     0.812795     0.805152     0.797508
      0.789865     0.782222     0.774579     0.766936     0.759293     0.751650     0.744007     0.736364     0.728721     0.721077
      0.713434     0.705791     0.698148     0.690505     0.682862     0.675219     0.667576     0.659933     0.652290     0.644646
      0.637003     0.629360     0.621717     0.614074     0.606431     0.598788     0.591145     0.583502     0.575858     0.568215
      0.560572     0.552929     0.545286     0.537643     0.530000     0.522357     0.514714     0.507071     0.499427     0.491784
      0.484141     0.476498     0.468855     0.461212     0.453569     0.445925     0.438282     0.430639     0.422996     0.415353
      0.407710     0.400067     0.392424     0.384780     0.377137     0.369494     0.361851     0.354208     0.346565     0.338922
      0.331278     0.323635     0.315992     0.308349     0.300706     0.293063     0.285420     0.277777     0.270133     0.262490
      0.254847     0.247204     0.239561     0.231918     0.224275     0.216631     0.208988     0.201345
 NY phased data points follow
  -1.38878E+02 -1.16506E+02 -1.30058E+02 -1.29272E+02 -1.30376E+02 -1.14493E+02 -1.11167E+02 -1.02140E+02 -8.68648E+01 -8.67728E+01
  -9.24872E+01 -9.44895E+01 -8.49496E+01 -9.86069E+01 -1.15322E+02 -1.25234E+02 -1.12722E+02 -1.23025E+02 -1.09967E+02 -1.09042E+02
  -1.17997E+02 -9.75253E+01 -1.13826E+02 -1.05183E+02 -1.06758E+02 -1.14438E+02 -1.01866E+02 -1.01305E+02 -9.81714E+01 -8.40773E+01
  -9.31215E+01 -9.60650E+01 -9.37598E+01 -9.61329E+01 -7.58617E+01 -8.37563E+01 -7.87262E+01 -8.91374E+01 -9.59556E+01 -9.66774E+01
  -9.09435E+01 -8.20475E+01 -8.80282E+01 -8.63296E+01 -7.97731E+01 -7.32894E+01 -8.19321E+01 -7.72171E+01 -7.13060E+01 -7.00257E+01
  -7.72321E+01 -9.18409E+01 -7.25600E+01 -8.95661E+01 -8.02901E+01 -8.00799E+01 -6.65204E+01 -6.21601E+01 -7.47474E+01 -6.23271E+01
  -5.59791E+01 -7.31846E+01 -7.04562E+01 -7.11207E+01 -7.92706E+01 -8.42767E+01 -5.78873E+01 -6.14731E+01 -7.49951E+01 -7.24035E+01
  -7.36477E+01 -5.58489E+01 -5.11653E+01 -5.81323E+01 -5.87412E+01 -4.89711E+01 -6.01401E+01 -5.51864E+01 -6.87109E+01 -4.39903E+01
  -5.71206E+01 -5.27081E+01 -4.84345E+01 -5.23190E+01 -4.85824E+01 -4.95573E+01 -5.56409E+01 -4.68855E+01 -4.79822E+01 -3.98943E+01
  -4.40050E+01 -4.08266E+01 -5.12396E+01 -4.22782E+01 -4.81124E+01 -3.90257E+01 -4.17714E+01 -4.05920E+01 -1.99685E+01 -2.59126E+01
  -1.16610E+01  1.40903E+00  1.18256E+01  1.75420E+01  1.08259E+01  7.59940E+00  7.34443E-01 -1.88196E+01 -3.20317E+01 -3.92390E+01
  -3.98692E+01 -2.99013E+01 -2.69788E+01 -3.96039E+01 -3.47086E+01 -2.12441E+01 -3.48277E+01 -5.14207E+01 -3.51263E+01 -1.65746E+01
  -2.90112E+01 -3.85333E+01 -4.26260E+01 -1.34978E+01 -3.22687E+00  5.56519E-01  1.99992E+01  1.96343E+01  2.32308E+01  2.71050E+01
   2.52722E+00  1.05245E+00 -1.71339E+01 -1.13026E+01 -2.96056E+01 -1.90806E+01 -2.24055E+01 -2.61221E+01 -2.58889E+01 -3.71035E+01
  -2.29974E+01 -3.59501E+01 -2.43679E+01 -2.35871E+01 -2.71820E+01 -2.08506E+01 -1.72401E+01 -2.09931E+01 -2.04902E+01 -2.29740E+01
  -2.14899E+01 -2.00688E+01 -2.95295E+01 -4.70428E+01 -2.44615E+01 -3.54449E+01 -2.23148E+01 -2.60902E+01 -3.14052E+01 -2.68292E+01
  -2.66112E+01 -2.83744E+01 -2.27209E+01 -2.09987E+01 -3.45119E+01 -1.93658E+01 -1.71742E+01 -1.97004E+01 -1.90568E+01 -1.35892E+01
  -2.15293E+01 -2.75296E+01 -2.09039E+01 -2.00682E+01 -1.75625E+01 -1.88912E+01 -9.14179E+00 -2.61200E+01 -2.30378E+01 -2.17134E+01
  -2.46705E+01 -3.54033E+01 -3.20943E+01 -3.03728E+01 -3.04135E+01 -2.19684E+01 -1.66101E+01 -1.86506E+01 -2.00025E+01 -1.55501E+01
  -2.33795E+01 -1.49309E+01  4.27346E+00  9.82668E+00 -6.58675E+00 -3.47681E+00 -1.47806E+01 -2.86005E+00 -9.71692E+00 -1.56485E+01
  -1.54850E+01  8.43961E+00 -4.12626E+00  2.67085E-01 -4.36030E+00 -2.78352E+00 -1.66280E+01 -1.82939E+01 -1.08309E+01 -4.32680E+00
  -8.05886E+00 -2.02979E+01 -1.20065E+00 -5.25662E+00 -2.53785E+00  5.28103E+00  1.35271E+01  2.39519E+01  8.72080E+00  1.37891E+01
   1.04347E+01  7.71182E+00 -2.47254E+00  1.07204E+00  4.84488E+00  9.08170E-01 -1.79684E+00  1.12776E+01  5.57703E-01  2.82837E+00
   6.00498E+00  1.87019E+00  1.43992E+01  4.94065E+00  1.05489E+01  1.28539E+01  1.25931E+01 -1.13227E+00  4.51746E+00  2.31638E+01
   6.58868E+00  2.17055E+00  1.32695E+01 -1.00521E+00  1.72512E+00  1.33694E+01  4.95991E+00  1.28903E+01  1.82478E+01  1.41518E+01
   1.39775E+01  1.72964E+01  2.61778E+01  1.59901E+01  1.85585E+01  2.13040E+01  3.50006E+01  4.25008E+01  5.15335E+01  7.78768E+01
   7.91516E+01  8.99680E+01  8.30585E+01  5.89430E+01  5.59034E+01  2.91843E+01  2.93729E+01  2.92854E+01  3.81462E+01  1.89079E+01
   1.52896E+01  1.06251E+01  1.48979E+01  2.16499E+01  1.82870E+01  2.48106E+01  8.40091E+00  1.53594E+01  2.06729E+01  7.96506E+00
   2.44966E+01  1.83256E+01  2.16740E+01  3.85927E+00  2.40843E+01  1.40984E+01  1.75207E+01  2.38538E+01  1.33245E+01  3.80071E+00
   1.15625E+01  3.05397E+00  1.50639E+01  2.45988E+01  1.17725E+01  1.73680E+01  3.63107E+01  1.35657E+01  2.48998E+01  1.31256E+01
   3.12488E+01  2.98853E+01  2.72466E+01  1.26757E+01  2.64250E+01  1.71556E+01  2.64656E+01  2.23060E+01  2.41744E+01  1.81488E+01
   3.44687E+01  2.74495E+01  2.42235E+01  3.88312E+01  1.91355E+01  2.83679E+01  2.04768E+01  2.83634E+01  2.25657E+01  1.50783E+01
   1.88726E+01  2.95957E+01  2.82529E+01  3.52763E+01  2.73519E+01  2.27715E+01  2.99577E+01  1.80808E+01  4.20648E+01  3.50292E+01
   3.62249E+01  3.15760E+01  2.89159E+01  3.14663E+01  3.32126E+01  3.56175E+01  2.35102E+01  2.04864E+01  1.31477E+01  9.75205E+00
   8.79350E+00  2.27435E+01  3.11548E+01  1.91266E+01  2.29435E+01  1.60142E+01  1.80754E+01  1.62858E+01  3.29636E+01  2.09876E+01
   1.04786E+01  1.97483E+01  1.22076E+01  1.05944E+01  1.44638E+01  2.36541E+01  2.56958E+01  1.29906E+01  3.18063E+01  1.46736E+01
   1.34327E+01  1.03751E+01  1.91537E+01  9.50998E+00  1.07665E+01  5.54666E+00  8.25674E+00  2.33736E+01  2.38155E+01  2.33173E+01
   2.29541E+01  1.34732E+01  2.33962E+01  2.67005E+01  3.38959E+01  2.97391E+01  3.13835E+01  2.84813E+01  3.02646E+01  4.18493E+01
   4.79377E+01  4.07132E+01  3.53603E+01  3.22798E+01  4.42859E+01  2.83924E+01  3.28667E+01  4.31959E+01  2.79880E+01  3.18871E+01
   4.51339E+01  4.19244E+01  4.92440E+01  4.15652E+01  4.28480E+01  3.49957E+01  4.02152E+01  4.52147E+01  3.20938E+01  4.57830E+01
   2.97184E+01  3.93753E+01  2.63952E+01  3.85118E+01  2.83970E+01  3.50831E+01  3.69001E+01  3.32031E+01  3.61963E+01  2.92565E+01
   4.47199E+01  2.89719E+01  3.09185E+01  4.05366E+01  2.80170E+01  2.95496E+01  2.23303E+01  2.75534E+01  3.07471E+01  3.62971E+01
   2.56726E+01  3.67375E+01  2.04370E+01  4.80928E+01  3.14390E+01  2.64088E+01  3.24482E+01  2.25243E+01  3.51025E+01  2.96324E+01
   2.50284E+01  3.53787E+01  2.92017E+01  3.17345E+01  2.73677E+01  2.98411E+01  2.32801E+01  3.51267E+01  3.21756E+01  3.00260E+01
   2.02053E+01  3.08676E+01  2.94368E+01  2.77595E+01  2.44592E+01  1.97961E+01  1.52798E+01  2.49752E+01  2.37107E+01  2.32196E+01
   2.98305E+01  3.78894E+01  2.92993E+01  3.35195E+01  3.04716E+01  3.30456E+01  3.16478E+01  2.10284E+01  3.97724E+01  2.73490E+01
   3.42552E+01  3.01079E+01  2.22084E+01  2.48158E+01  2.00330E+01  2.45490E+01  1.84365E+01  3.10371E+01  2.30463E+01  3.21561E+01
   3.43536E+01  2.41907E+01  3.19639E+01  2.20810E+01  2.41119E+01  2.45026E+01  2.86433E+01  2.57149E+01  2.70173E+01  2.47435E+01
   2.52909E+01  2.49903E+01  3.79728E+01  3.72843E+01  2.58031E+01  2.42459E+01  2.61555E+01  3.31273E+01  4.82238E+01  3.13505E+01
   2.68501E+01  2.17187E+01  3.42687E+01  3.05964E+01  2.39835E+01  2.89466E+01  2.32238E+01  2.91194E+01
 NY points of the fit to the data follow
  -1.17214E+02 -1.17138E+02 -1.16783E+02 -1.16007E+02 -1.14093E+02 -1.10590E+02 -1.05975E+02 -1.00823E+02 -9.57771E+01 -9.18574E+01
  -8.98978E+01 -9.03373E+01 -9.30565E+01 -9.71920E+01 -1.01383E+02 -1.04320E+02 -1.05832E+02 -1.06280E+02 -1.05775E+02 -1.04898E+02
  -1.03852E+02 -1.02778E+02 -1.01810E+02 -1.01057E+02 -1.00488E+02 -9.98526E+01 -9.88421E+01 -9.72325E+01 -9.49794E+01 -9.22773E+01
  -8.95217E+01 -8.72582E+01 -8.59620E+01 -8.58198E+01 -8.67291E+01 -8.81819E+01 -8.95826E+01 -9.05783E+01 -9.09867E+01 -9.08513E+01
  -9.02550E+01 -8.90963E+01 -8.71687E+01 -8.44684E+01 -8.13243E+01 -7.81857E+01 -7.55365E+01 -7.38975E+01 -7.36378E+01 -7.47543E+01
  -7.68284E+01 -7.90811E+01 -8.06774E+01 -8.11513E+01 -8.05113E+01 -7.90339E+01 -7.70976E+01 -7.50366E+01 -7.31285E+01 -7.15787E+01
  -7.05029E+01 -6.99286E+01 -6.97831E+01 -6.98818E+01 -6.99071E+01 -6.96467E+01 -6.90250E+01 -6.80333E+01 -6.68726E+01 -6.56874E+01
  -6.44092E+01 -6.29995E+01 -6.15496E+01 -6.02139E+01 -5.91728E+01 -5.86272E+01 -5.86778E+01 -5.91391E+01 -5.98071E+01 -6.03751E+01
  -6.03410E+01 -5.92601E+01 -5.72308E+01 -5.47881E+01 -5.24338E+01 -5.06247E+01 -4.96504E+01 -4.95263E+01 -5.01555E+01 -5.13243E+01
  -5.26035E+01 -5.35490E+01 -5.39210E+01 -5.37504E+01 -5.30907E+01 -5.19046E+01 -4.97576E+01 -4.49848E+01 -3.61401E+01 -2.40261E+01
  -1.04506E+01  2.71043E+00  1.28975E+01  1.77821E+01  1.61048E+01  7.95204E+00 -4.61119E+00 -1.80465E+01 -2.88533E+01 -3.57676E+01
  -3.96799E+01 -4.11667E+01 -4.15300E+01 -4.15445E+01 -4.13753E+01 -4.11059E+01 -4.07429E+01 -4.03006E+01 -3.97663E+01 -3.90720E+01
  -3.79352E+01 -3.51702E+01 -2.89558E+01 -1.90685E+01 -6.98566E+00  5.67040E+00  1.67056E+01  2.35645E+01  2.45288E+01  1.91536E+01
   8.73751E+00 -3.81238E+00 -1.49692E+01 -2.26170E+01 -2.72291E+01 -2.94886E+01 -3.02199E+01 -3.04390E+01 -3.03257E+01 -2.99158E+01
  -2.92957E+01 -2.86042E+01 -2.79662E+01 -2.74720E+01 -2.71413E+01 -2.69304E+01 -2.67905E+01 -2.66799E+01 -2.65657E+01 -2.64401E+01
  -2.62826E+01 -2.60823E+01 -2.58322E+01 -2.55409E+01 -2.52236E+01 -2.49323E+01 -2.47464E+01 -2.46860E+01 -2.47075E+01 -2.47283E+01
  -2.46370E+01 -2.43666E+01 -2.39007E+01 -2.32558E+01 -2.25311E+01 -2.18801E+01 -2.14437E+01 -2.12728E+01 -2.12854E+01 -2.13677E+01
  -2.14315E+01 -2.14724E+01 -2.15176E+01 -2.14975E+01 -2.13788E+01 -2.11659E+01 -2.08538E+01 -2.04395E+01 -1.99186E+01 -1.93361E+01
  -1.87796E+01 -1.83386E+01 -1.80352E+01 -1.77291E+01 -1.72695E+01 -1.66256E+01 -1.57752E+01 -1.47405E+01 -1.35678E+01 -1.23631E+01
  -1.12854E+01 -1.05112E+01 -1.01693E+01 -1.02569E+01 -1.06019E+01 -1.09377E+01 -1.09972E+01 -1.05789E+01 -9.61428E+00 -8.11784E+00
  -6.21351E+00 -4.18942E+00 -2.43405E+00 -1.35513E+00 -1.37909E+00 -2.63848E+00 -4.81223E+00 -7.36438E+00 -9.77373E+00 -1.14162E+01
  -1.17557E+01 -1.06171E+01 -8.20496E+00 -5.07760E+00 -1.93298E+00  6.06833E-01  2.18997E+00  2.75715E+00  2.30403E+00  1.18030E+00
  -7.10555E-02 -1.01950E+00 -1.33471E+00 -8.95919E-01  2.05758E-01  1.74743E+00  3.35661E+00  4.69624E+00  5.58243E+00  6.00840E+00
   6.03800E+00  5.80040E+00  5.57309E+00  5.62511E+00  6.08456E+00  7.04071E+00  8.47001E+00  1.01245E+01  1.16758E+01  1.28467E+01
   1.33832E+01  1.31860E+01  1.24739E+01  1.16485E+01  1.10568E+01  1.10135E+01  1.16427E+01  1.28023E+01  1.42173E+01  1.56875E+01
   1.70711E+01  1.82510E+01  1.92360E+01  2.01761E+01  2.19939E+01  2.67446E+01  3.55653E+01  4.72898E+01  6.02528E+01  7.24236E+01
   8.09363E+01  8.34574E+01  7.89285E+01  6.80894E+01  5.37036E+01  3.96757E+01  2.91940E+01  2.25572E+01  1.87834E+01  1.72181E+01
   1.64390E+01  1.59391E+01  1.56096E+01  1.54080E+01  1.52836E+01  1.51968E+01  1.51110E+01  1.50016E+01  1.48646E+01  1.47181E+01
   1.45874E+01  1.44964E+01  1.44632E+01  1.44955E+01  1.45924E+01  1.47488E+01  1.49559E+01  1.52060E+01  1.54966E+01  1.58255E+01
   1.61931E+01  1.66018E+01  1.70515E+01  1.75408E+01  1.80671E+01  1.86258E+01  1.92101E+01  1.98115E+01  2.04204E+01  2.10263E+01
   2.16177E+01  2.21837E+01  2.27135E+01  2.31978E+01  2.36285E+01  2.39997E+01  2.43075E+01  2.45505E+01  2.47301E+01  2.48507E+01
   2.49187E+01  2.49426E+01  2.49325E+01  2.48989E+01  2.48528E+01  2.48050E+01  2.47654E+01  2.47425E+01  2.47426E+01  2.47703E+01
   2.48275E+01  2.49143E+01  2.50282E+01  2.51651E+01  2.53187E+01  2.54820E+01  2.56467E+01  2.58047E+01  2.59477E+01  2.60679E+01
   2.61585E+01  2.62141E+01  2.62305E+01  2.62055E+01  2.61382E+01  2.60296E+01  2.58820E+01  2.56993E+01  2.54864E+01  2.52491E+01
   2.49940E+01  2.47275E+01  2.44564E+01  2.41873E+01  2.39262E+01  2.36785E+01  2.34488E+01  2.32411E+01  2.30581E+01  2.29020E+01
   2.27740E+01  2.26747E+01  2.26036E+01  2.25598E+01  2.25421E+01  2.25486E+01  2.25775E+01  2.26265E+01  2.26934E+01  2.27760E+01
   2.28724E+01  2.29808E+01  2.30997E+01  2.32281E+01  2.33653E+01  2.35111E+01  2.36659E+01  2.38309E+01  2.40073E+01  2.41974E+01
   2.44038E+01  2.46299E+01  2.48794E+01  2.51566E+01  2.54660E+01  2.58125E+01  2.62009E+01  2.66359E+01  2.71219E+01  2.76627E+01
   2.82609E+01  2.89179E+01  2.96333E+01  3.04051E+01  3.12285E+01  3.20965E+01  3.29994E+01  3.39247E+01  3.48576E+01  3.57813E+01
   3.66769E+01  3.75250E+01  3.83055E+01  3.89994E+01  3.95889E+01  4.00590E+01  4.03976E+01  4.05966E+01  4.06521E+01  4.05648E+01
   4.03399E+01  3.99865E+01  3.95174E+01  3.89484E+01  3.82973E+01  3.75830E+01  3.68251E+01  3.60422E+01  3.52518E+01  3.44699E+01
   3.37100E+01  3.29834E+01  3.22985E+01  3.16615E+01  3.10763E+01  3.05447E+01  3.00668E+01  2.96413E+01  2.92658E+01  2.89371E+01
   2.86517E+01  2.84058E+01  2.81953E+01  2.80166E+01  2.78659E+01  2.77400E+01  2.76357E+01  2.75503E+01  2.74814E+01  2.74269E+01
   2.73848E+01  2.73536E+01  2.73318E+01  2.73183E+01  2.73120E+01  2.73121E+01  2.73178E+01  2.73284E+01  2.73433E+01  2.73622E+01
   2.73845E+01  2.74099E+01  2.74380E+01  2.74687E+01  2.75015E+01  2.75364E+01  2.75731E+01  2.76115E+01  2.76513E+01  2.76926E+01
   2.77350E+01  2.77786E+01  2.78233E+01  2.78689E+01  2.79153E+01  2.79626E+01  2.80106E+01  2.80594E+01  2.81087E+01  2.81586E+01
   2.82091E+01  2.82600E+01  2.83115E+01  2.83634E+01  2.84157E+01  2.84683E+01  2.85213E+01  2.85747E+01  2.86284E+01  2.86824E+01
   2.87366E+01  2.87911E+01  2.88458E+01  2.89008E+01  2.89560E+01  2.90115E+01  2.90671E+01  2.91229E+01  2.91790E+01  2.92352E+01
   2.92916E+01  2.93482E+01  2.94049E+01  2.94618E+01  2.95188E+01  2.95761E+01  2.96334E+01  2.96910E+01  2.97486E+01  2.98065E+01
   2.98645E+01  2.99227E+01  2.99810E+01  3.00394E+01  3.00980E+01  3.01568E+01  3.02157E+01  3.02749E+01
 NY background values follow
    -1.208E+02   -1.201E+02   -1.194E+02   -1.186E+02   -1.179E+02   -1.172E+02   -1.165E+02   -1.157E+02   -1.150E+02   -1.143E+02
    -1.136E+02   -1.129E+02   -1.121E+02   -1.114E+02   -1.107E+02   -1.100E+02   -1.093E+02   -1.085E+02   -1.078E+02   -1.071E+02
    -1.064E+02   -1.057E+02   -1.049E+02   -1.042E+02   -1.035E+02   -1.028E+02   -1.021E+02   -1.014E+02   -1.006E+02   -9.993E+01
    -9.922E+01   -9.851E+01   -9.780E+01   -9.708E+01   -9.637E+01   -9.567E+01   -9.496E+01   -9.425E+01   -9.354E+01   -9.284E+01
    -9.213E+01   -9.143E+01   -9.073E+01   -9.003E+01   -8.933E+01   -8.863E+01   -8.793E+01   -8.723E+01   -8.654E+01   -8.584E+01
    -8.515E+01   -8.446E+01   -8.377E+01   -8.308E+01   -8.240E+01   -8.171E+01   -8.103E+01   -8.035E+01   -7.967E+01   -7.899E+01
    -7.831E+01   -7.764E+01   -7.696E+01   -7.629E+01   -7.562E+01   -7.496E+01   -7.429E+01   -7.363E+01   -7.297E+01   -7.231E+01
    -7.165E+01   -7.099E+01   -7.034E+01   -6.969E+01   -6.904E+01   -6.840E+01   -6.775E+01   -6.711E+01   -6.647E+01   -6.584E+01
    -6.520E+01   -6.457E+01   -6.394E+01   -6.332E+01   -6.270E+01   -6.208E+01   -6.146E+01   -6.084E+01   -6.023E+01   -5.962E+01
    -5.901E+01   -5.841E+01   -5.781E+01   -5.721E+01   -5.662E+01   -5.603E+01   -5.544E+01   -5.485E+01   -5.427E+01   -5.369E+01
    -5.311E+01   -5.254E+01   -5.197E+01   -5.140E+01   -5.084E+01   -5.027E+01   -4.971E+01   -4.916E+01   -4.861E+01   -4.806E+01
    -4.751E+01   -4.696E+01   -4.642E+01   -4.588E+01   -4.535E+01   -4.482E+01   -4.429E+01   -4.376E+01   -4.324E+01   -4.272E+01
    -4.220E+01   -4.168E+01   -4.117E+01   -4.066E+01   -4.016E+01   -3.965E+01   -3.915E+01   -3.866E+01   -3.816E+01   -3.767E+01
    -3.718E+01   -3.670E+01   -3.622E+01   -3.574E+01   -3.526E+01   -3.479E+01   -3.432E+01   -3.385E+01   -3.338E+01   -3.292E+01
    -3.246E+01   -3.201E+01   -3.155E+01   -3.110E+01   -3.066E+01   -3.021E+01   -2.977E+01   -2.933E+01   -2.890E+01   -2.846E+01
    -2.803E+01   -2.760E+01   -2.718E+01   -2.676E+01   -2.634E+01   -2.592E+01   -2.550E+01   -2.509E+01   -2.468E+01   -2.428E+01
    -2.387E+01   -2.347E+01   -2.307E+01   -2.267E+01   -2.228E+01   -2.189E+01   -2.150E+01   -2.111E+01   -2.073E+01   -2.035E+01
    -1.997E+01   -1.959E+01   -1.921E+01   -1.884E+01   -1.847E+01   -1.810E+01   -1.774E+01   -1.738E+01   -1.701E+01   -1.666E+01
    -1.630E+01   -1.595E+01   -1.559E+01   -1.524E+01   -1.490E+01   -1.455E+01   -1.421E+01   -1.387E+01   -1.353E+01   -1.319E+01
    -1.286E+01   -1.252E+01   -1.219E+01   -1.187E+01   -1.154E+01   -1.122E+01   -1.089E+01   -1.057E+01   -1.026E+01   -9.942E+00
    -9.629E+00   -9.319E+00   -9.010E+00   -8.703E+00   -8.398E+00   -8.096E+00   -7.796E+00   -7.497E+00   -7.201E+00   -6.907E+00
    -6.615E+00   -6.325E+00   -6.037E+00   -5.751E+00   -5.468E+00   -5.186E+00   -4.906E+00   -4.629E+00   -4.353E+00   -4.080E+00
    -3.808E+00   -3.539E+00   -3.271E+00   -3.006E+00   -2.743E+00   -2.481E+00   -2.222E+00   -1.965E+00   -1.709E+00   -1.456E+00
    -1.205E+00   -9.552E-01   -7.078E-01   -4.623E-01   -2.187E-01    2.303E-02    2.628E-01    5.007E-01    7.367E-01    9.709E-01
     1.203E+00    1.434E+00    1.662E+00    1.889E+00    2.114E+00    2.337E+00    2.559E+00    2.778E+00    2.996E+00    3.212E+00
     3.427E+00    3.639E+00    3.850E+00    4.060E+00    4.267E+00    4.473E+00    4.677E+00    4.880E+00    5.081E+00    5.280E+00
     5.478E+00    5.674E+00    5.868E+00    6.061E+00    6.253E+00    6.442E+00    6.631E+00    6.817E+00    7.002E+00    7.186E+00
     7.368E+00    7.549E+00    7.728E+00    7.906E+00    8.082E+00    8.257E+00    8.430E+00    8.602E+00    8.773E+00    8.942E+00
     9.110E+00    9.276E+00    9.441E+00    9.605E+00    9.767E+00    9.928E+00    1.009E+01    1.025E+01    1.040E+01    1.056E+01
     1.071E+01    1.087E+01    1.102E+01    1.117E+01    1.132E+01    1.147E+01    1.162E+01    1.176E+01    1.191E+01    1.205E+01
     1.219E+01    1.234E+01    1.248E+01    1.261E+01    1.275E+01    1.289E+01    1.303E+01    1.316E+01    1.330E+01    1.343E+01
     1.356E+01    1.369E+01    1.382E+01    1.395E+01    1.408E+01    1.421E+01    1.433E+01    1.446E+01    1.458E+01    1.470E+01
     1.483E+01    1.495E+01    1.507E+01    1.519E+01    1.531E+01    1.543E+01    1.554E+01    1.566E+01    1.578E+01    1.589E+01
     1.601E+01    1.612E+01    1.623E+01    1.634E+01    1.646E+01    1.657E+01    1.668E+01    1.679E+01    1.690E+01    1.701E+01
     1.711E+01    1.722E+01    1.733E+01    1.743E+01    1.754E+01    1.765E+01    1.775E+01    1.786E+01    1.796E+01    1.806E+01
     1.817E+01    1.827E+01    1.837E+01    1.847E+01    1.858E+01    1.868E+01    1.878E+01    1.888E+01    1.898E+01    1.908E+01
     1.918E+01    1.928E+01    1.938E+01    1.948E+01    1.958E+01    1.968E+01    1.977E+01    1.987E+01    1.997E+01    2.007E+01
     2.017E+01    2.026E+01    2.036E+01    2.046E+01    2.055E+01    2.065E+01    2.075E+01    2.084E+01    2.094E+01    2.103E+01
     2.113E+01    2.122E+01    2.132E+01    2.141E+01    2.150E+01    2.160E+01    2.169E+01    2.178E+01    2.187E+01    2.197E+01
     2.206E+01    2.215E+01    2.224E+01    2.233E+01    2.242E+01    2.251E+01    2.260E+01    2.268E+01    2.277E+01    2.286E+01
     2.295E+01    2.303E+01    2.312E+01    2.320E+01    2.329E+01    2.337E+01    2.346E+01    2.354E+01    2.363E+01    2.371E+01
     2.379E+01    2.387E+01    2.395E+01    2.404E+01    2.412E+01    2.420E+01    2.428E+01    2.436E+01    2.443E+01    2.451E+01
     2.459E+01    2.467E+01    2.475E+01    2.482E+01    2.490E+01    2.497E+01    2.505E+01    2.513E+01    2.520E+01    2.528E+01
     2.535E+01    2.542E+01    2.550E+01    2.557E+01    2.564E+01    2.572E+01    2.579E+01    2.586E+01    2.593E+01    2.600E+01
     2.607E+01    2.614E+01    2.622E+01    2.629E+01    2.636E+01    2.642E+01    2.649E+01    2.656E+01    2.663E+01    2.670E+01
     2.677E+01    2.684E+01    2.691E+01    2.697E+01    2.704E+01    2.711E+01    2.718E+01    2.724E+01    2.731E+01    2.738E+01
     2.744E+01    2.751E+01    2.758E+01    2.764E+01    2.771E+01    2.777E+01    2.784E+01    2.791E+01    2.797E+01    2.804E+01
     2.810E+01    2.817E+01    2.823E+01    2.830E+01    2.836E+01    2.843E+01    2.849E+01    2.856E+01    2.862E+01    2.868E+01
     2.875E+01    2.881E+01    2.888E+01    2.894E+01    2.901E+01    2.907E+01    2.914E+01    2.920E+01    2.926E+01    2.933E+01
     2.939E+01    2.946E+01    2.952E+01    2.958E+01    2.965E+01    2.971E+01    2.978E+01    2.984E+01
 Asp      Conc. = 1.87E+02
