 LCModel (Version 6.3-1L) Copyright: S.W. Provencher.          Ref.: Magn. Reson. Med. 30:672-679 (1993).                
 Slice#1 Row#2 Col#8  PD_05_press_2_raw_act
 36 lines in following concentration table = NCONC+1
    Conc.  %SD /Cr+PCr  Metabolite                                         
  499.599  32%   1.893 Ala                                                 
   84.259  56%   0.319 Asp                                                 
  263.875  33%   1.000 Cr                                                  
    0.000 999%   0.000 PCr                                                 
   50.928  55%   0.193 GABA                                                
   52.249  54%   0.198 Glc                                                 
   87.266 283%   0.331 Gln                                                 
  491.015  59%   1.861 Glu                                                 
  119.747  29%   0.454 GPC                                                 
    0.000 999%   0.000 PCh                                                 
  185.385  57%   0.703 GSH                                                 
   57.044 536%   0.216 Ins                                                 
    0.000 999%   0.000 Lac                                                 
  685.696  20%   2.599 NAA                                                 
  458.633  22%   1.738 NAAG                                                
   13.653  68% 5.2E-02 Scyllo                                              
   76.485  61%   0.290 Tau                                                 
   20.834 162% 7.9E-02 -CrCH2                                              
  119.747  29%   0.454 GPC+PCh                                             
 1.14E+03  15%   4.337 NAA+NAAG                                            
  263.875  33%   1.000 Cr+PCr                                              
  578.281  60%   2.191 Glu+Gln                                             
    0.000 999%   0.000 Lip13a                                              
 1.46E+03  19%   5.515 Lip13b                                              
  219.716  91%   0.833 Lip09                                               
 1.38E+03  26%   5.232 MM09                                                
  255.326  54%   0.968 Lip20                                               
 2.42E+03  24%   9.174 MM20                                                
  394.733  37%   1.496 MM12                                                
  717.176  60%   2.718 MM14                                                
 1.36E+03  20%   5.151 MM17                                                
 1.46E+03  19%   5.515 Lip13a+Lip13b                                       
 2.57E+03  20%   9.729 MM14+Lip13a+Lip13b+MM12                             
 1.60E+03  21%   6.065 MM09+Lip09                                          
 2.68E+03  21%  10.142 MM20+Lip20                                          
   6 lines in following misc. output table
  FWHM = 0.031 ppm    S/N =   3                                            
  Data shift = 0.046 ppm                                                   
  Ph:  -8 deg       0.5 deg/ppm                                            
  alphaB,S = 8.5E+01,   1.3E+01                                            
   14 spline knots.   Ns = 5(1)                                            
   1 inflections.     2 extrema                                            
  498 points on ppm-axis = NY
      4.000000     3.992357     3.984714     3.977070     3.969427     3.961784     3.954141     3.946497     3.938854     3.931211
      3.923568     3.915925     3.908281     3.900638     3.892995     3.885352     3.877708     3.870065     3.862422     3.854779
      3.847136     3.839492     3.831849     3.824206     3.816563     3.808919     3.801276     3.793633     3.785990     3.778347
      3.770703     3.763060     3.755417     3.747774     3.740130     3.732487     3.724844     3.717201     3.709558     3.701914
      3.694271     3.686628     3.678985     3.671341     3.663698     3.656055     3.648412     3.640769     3.633125     3.625482
      3.617839     3.610196     3.602552     3.594909     3.587266     3.579623     3.571980     3.564336     3.556693     3.549050
      3.541407     3.533763     3.526120     3.518477     3.510834     3.503191     3.495547     3.487904     3.480261     3.472618
      3.464974     3.457331     3.449688     3.442045     3.434402     3.426758     3.419115     3.411472     3.403829     3.396185
      3.388542     3.380899     3.373256     3.365613     3.357969     3.350326     3.342683     3.335040     3.327396     3.319753
      3.312110     3.304467     3.296824     3.289180     3.281537     3.273894     3.266251     3.258607     3.250964     3.243321
      3.235678     3.228034     3.220391     3.212748     3.205105     3.197462     3.189818     3.182175     3.174532     3.166889
      3.159245     3.151602     3.143959     3.136316     3.128673     3.121029     3.113386     3.105743     3.098100     3.090456
      3.082813     3.075170     3.067527     3.059884     3.052240     3.044597     3.036954     3.029311     3.021667     3.014024
      3.006381     2.998738     2.991095     2.983451     2.975808     2.968165     2.960522     2.952878     2.945235     2.937592
      2.929949     2.922306     2.914662     2.907019     2.899376     2.891733     2.884089     2.876446     2.868803     2.861160
      2.853517     2.845873     2.838230     2.830587     2.822944     2.815300     2.807657     2.800014     2.792371     2.784728
      2.777084     2.769441     2.761798     2.754155     2.746511     2.738868     2.731225     2.723582     2.715939     2.708295
      2.700652     2.693009     2.685366     2.677722     2.670079     2.662436     2.654793     2.647150     2.639506     2.631863
      2.624220     2.616577     2.608933     2.601290     2.593647     2.586004     2.578361     2.570717     2.563074     2.555431
      2.547788     2.540144     2.532501     2.524858     2.517215     2.509572     2.501928     2.494285     2.486642     2.478999
      2.471355     2.463712     2.456069     2.448426     2.440783     2.433139     2.425496     2.417853     2.410210     2.402566
      2.394923     2.387280     2.379637     2.371994     2.364350     2.356707     2.349064     2.341421     2.333777     2.326134
      2.318491     2.310848     2.303205     2.295561     2.287918     2.280275     2.272632     2.264988     2.257345     2.249702
      2.242059     2.234416     2.226772     2.219129     2.211486     2.203843     2.196199     2.188556     2.180913     2.173270
      2.165627     2.157983     2.150340     2.142697     2.135054     2.127410     2.119767     2.112124     2.104481     2.096838
      2.089194     2.081551     2.073908     2.066265     2.058621     2.050978     2.043335     2.035692     2.028049     2.020405
      2.012762     2.005119     1.997476     1.989833     1.982190     1.974546     1.966903     1.959260     1.951617     1.943974
      1.936331     1.928688     1.921045     1.913402     1.905759     1.898115     1.890472     1.882829     1.875186     1.867543
      1.859900     1.852257     1.844614     1.836971     1.829327     1.821684     1.814041     1.806398     1.798755     1.791112
      1.783469     1.775826     1.768183     1.760540     1.752896     1.745253     1.737610     1.729967     1.722324     1.714681
      1.707038     1.699395     1.691752     1.684108     1.676465     1.668822     1.661179     1.653536     1.645893     1.638250
      1.630607     1.622964     1.615321     1.607677     1.600034     1.592391     1.584748     1.577105     1.569462     1.561819
      1.554176     1.546533     1.538890     1.531246     1.523603     1.515960     1.508317     1.500674     1.493031     1.485388
      1.477745     1.470102     1.462458     1.454815     1.447172     1.439529     1.431886     1.424243     1.416600     1.408957
      1.401314     1.393671     1.386027     1.378384     1.370741     1.363098     1.355455     1.347812     1.340169     1.332526
      1.324883     1.317240     1.309596     1.301953     1.294310     1.286667     1.279024     1.271381     1.263738     1.256095
      1.248452     1.240808     1.233165     1.225522     1.217879     1.210236     1.202593     1.194950     1.187307     1.179664
      1.172021     1.164377     1.156734     1.149091     1.141448     1.133805     1.126162     1.118519     1.110876     1.103233
      1.095590     1.087946     1.080303     1.072660     1.065017     1.057374     1.049731     1.042088     1.034445     1.026802
      1.019158     1.011515     1.003872     0.996229     0.988586     0.980943     0.973300     0.965657     0.958014     0.950371
      0.942727     0.935084     0.927441     0.919798     0.912155     0.904512     0.896869     0.889226     0.881583     0.873940
      0.866296     0.858653     0.851010     0.843367     0.835724     0.828081     0.820438     0.812795     0.805152     0.797508
      0.789865     0.782222     0.774579     0.766936     0.759293     0.751650     0.744007     0.736364     0.728721     0.721077
      0.713434     0.705791     0.698148     0.690505     0.682862     0.675219     0.667576     0.659933     0.652290     0.644646
      0.637003     0.629360     0.621717     0.614074     0.606431     0.598788     0.591145     0.583502     0.575858     0.568215
      0.560572     0.552929     0.545286     0.537643     0.530000     0.522357     0.514714     0.507071     0.499427     0.491784
      0.484141     0.476498     0.468855     0.461212     0.453569     0.445925     0.438282     0.430639     0.422996     0.415353
      0.407710     0.400067     0.392424     0.384780     0.377137     0.369494     0.361851     0.354208     0.346565     0.338922
      0.331278     0.323635     0.315992     0.308349     0.300706     0.293063     0.285420     0.277777     0.270133     0.262490
      0.254847     0.247204     0.239561     0.231918     0.224275     0.216631     0.208988     0.201345
 NY phased data points follow
   9.42429E+00  1.06566E+01  7.23948E+00  5.40542E+00 -6.55858E+00  4.18806E-01 -1.63072E+01 -7.27365E+00 -3.18230E+00 -7.36357E+00
   6.38182E-01  4.85461E+00  1.33101E+01  3.22336E+01  4.35726E+00  1.55159E-01  2.20468E+00  1.23043E+01 -1.83779E+01  1.24838E+00
  -7.05543E+00 -1.09692E+01  5.38881E+00 -4.76266E-01  2.25030E+00  3.99374E+00 -9.03378E+00 -6.69122E+00 -1.36577E+00  1.22708E+01
   5.47808E+00  6.52220E+00 -7.64278E-01  9.80456E+00 -3.95462E+00  3.12704E+00 -4.44777E-01 -1.64047E+01  3.44956E+00  7.53204E-01
   5.30632E+00 -5.33004E+00  7.78265E+00 -1.25373E+00  1.07745E+01  3.35059E+00 -7.08023E+00 -1.44174E+01  1.48727E+01 -1.02837E+01
   9.86029E+00  4.75803E+00 -1.97448E+01  4.96899E+00 -7.06170E+00  2.02449E+00  1.60870E+01  2.70793E+00 -2.26892E+00  1.00987E+01
  -2.98995E+00 -6.77088E-01 -1.01764E+01  6.37434E+00  3.90098E+00 -1.27164E+00  8.19176E+00  5.17481E+00  2.05713E+01 -1.12119E+01
   1.71405E+01 -2.65905E+00  7.55040E+00 -3.60635E+00 -2.26064E+00 -5.66402E+00 -6.81207E+00  7.52982E-01 -7.35708E+00 -1.29012E+01
  -5.62273E+00 -5.87506E+00  5.05397E+00  5.47497E+00  2.32261E+00 -1.18619E+01 -7.35378E+00 -7.02471E+00 -1.97590E+01 -3.36678E+00
  -6.49923E+00 -6.63687E+00 -6.24173E-01  4.47751E-01 -1.36196E+01  1.84033E+00  5.64563E+00  4.77432E-01  5.07523E+00 -9.86988E+00
  -2.16682E+01 -5.86006E-01  1.04353E+01  1.70227E+01  3.89235E+01  1.43214E+01  1.01971E+01  1.24943E+01  2.80819E+00 -1.80268E+01
  -1.08081E+00 -1.97220E+01  4.39591E+00 -2.38871E+00 -8.94662E+00  1.16551E+01 -1.13180E+01 -2.21348E+01 -1.48512E+01 -8.78680E+00
   6.20638E+00  6.93963E+00 -2.02237E+01 -7.47829E+00 -1.63437E+01 -3.26562E-01  1.05795E+01  1.76667E+01  1.27252E+01  1.95010E+00
   1.77660E+01  1.58620E+00 -2.27807E+00  3.96839E+00 -7.73008E+00  1.07157E+01  6.68557E+00 -1.48152E+01 -4.19560E+00  9.67386E-01
  -3.92577E+00 -2.57513E+00  1.14617E+01  1.87257E+00 -5.89746E+00  7.08311E+00 -6.26993E+00 -2.46114E+00 -4.56693E+00 -5.35297E+00
   1.30676E+01  1.84281E+00 -1.64891E+00 -1.82374E+00  1.57717E+01 -7.46569E+00  1.10346E+01  3.69783E+00 -8.61061E+00 -1.12275E+01
  -1.71362E+00 -2.65356E+01  3.31422E-01 -4.44039E+00 -3.98899E+00  1.53189E+01  6.39855E+00 -2.05797E+00 -7.85792E+00 -5.54689E+00
  -5.05313E+00 -1.25988E+01 -1.04938E+01 -1.22405E+01 -4.37333E+00 -2.26685E+01 -1.37182E+01 -1.61343E+00 -3.93875E+00 -2.31760E+00
   2.93758E+00  2.24315E+00 -1.63576E+01 -8.97437E+00 -1.30716E+01 -1.49890E+01 -1.01952E+01 -1.90165E-01 -4.77049E+00 -2.65205E+01
   1.12507E+01  1.90749E+00 -8.12722E+00 -6.08192E+00 -1.34081E+00  8.75687E+00  5.96849E+00  9.82342E+00  4.64648E-01 -9.83003E+00
  -7.85931E+00 -7.74574E+00  3.35668E-01 -1.55900E+00  1.42324E+01  5.90041E+00 -3.39838E+00 -7.49087E-01  9.43783E-01  5.64835E+00
   6.56092E+00 -4.27878E+00 -1.59470E+00  3.26808E+00 -4.79922E+00  3.36087E+00 -5.81337E-01  2.37267E+01  3.40113E-01 -1.68148E+00
  -1.11133E-01 -1.04476E+01  6.95017E+00 -1.33423E+01  3.24967E+00 -7.23113E+00  9.40938E+00 -7.53942E+00  1.87511E+01  1.12951E+01
   1.80283E+01  1.00172E+01  8.61076E+00  3.00925E+01  6.16069E+00  7.95925E+00  9.29094E+00  1.01344E+01  5.58887E-01  2.34468E+01
   2.69177E+01 -8.01217E+00  2.58193E+01  6.24630E+00 -4.12691E+00  8.98355E+00  1.09967E+01  9.27943E+00  8.30289E+00  5.68313E+00
   9.82608E+00 -1.55020E+01 -7.89941E+00 -2.07646E+00  3.12043E+01  1.55094E+01  5.71754E+00  2.46990E+01  4.43814E+01  1.34484E+01
   5.78461E+01  6.11917E+01  4.07039E+01  4.95762E+01  3.85549E+01  2.79609E+01  7.13403E+00  2.80284E+01  2.32217E+01  1.84890E+01
   3.06752E-01  1.44483E+01 -9.74774E+00  6.28963E+00  1.55199E+01  1.46819E+01  1.01740E+01  1.50063E+01  2.27539E+01  3.66581E+00
   1.88586E+01  1.09000E+01  3.85181E+00  7.18013E+00  8.71928E+00  4.89986E+00  2.02437E+01  6.18726E+00  1.17394E+01 -4.88505E+00
   1.25751E+01 -7.57252E-01 -1.51319E+00  1.92440E+01  1.77518E+01  4.82768E+00  1.67574E+01  2.37900E+01 -8.09672E+00  9.78451E+00
   3.33492E+01  2.08294E+01  1.27164E+01  1.82314E+01  2.44807E+01  1.84796E+01 -3.67811E+00  2.80300E+01  1.22986E+01  1.32902E+01
   3.31684E+01  8.88195E+00  3.12134E+01  1.65121E+01  1.43428E+01  2.95273E+01  7.24644E+00  3.20753E+00 -1.81750E+00 -1.44328E+01
  -9.91387E+00 -2.70476E+01 -2.56720E+01 -1.75078E+01 -5.52601E+00  2.89736E+01  9.93348E-01  1.35871E+01  2.33236E+01  3.94176E+01
   1.57913E+01 -2.60121E+00 -1.46170E+01 -7.10970E-01 -1.76628E+01 -7.23741E+00 -1.26496E+01 -4.55955E+00  4.04869E-01 -1.71973E-01
   2.28164E+00  1.23718E+01 -1.64811E+00 -3.78159E-01 -1.27187E+00 -9.22835E+00  1.32196E+01 -1.76403E+00  3.26967E+01  9.38886E-01
   2.85517E+01  2.41951E+01  1.72583E+01  1.68775E+01  3.59433E+01  2.61477E+01  3.01194E+01  1.90641E+01  9.36400E+00  2.02397E+01
   8.15643E+00 -2.15087E-01  1.17900E+00  9.04780E+00 -4.54784E+00 -1.13653E+00 -4.77843E+00 -2.63766E+00 -5.62417E+00 -2.18539E+00
   3.96471E+00  5.68137E+00  2.83477E+00  5.83742E+00  8.32249E+00  1.15341E+01 -1.37763E+01 -7.96615E+00 -4.73855E+00 -4.06111E+00
   3.03339E+00  5.05371E+00  1.72565E+01  5.39968E+00 -4.41578E+00 -3.68400E+00  1.35417E+01  5.99264E+00 -7.42418E+00 -6.71766E+00
   5.71932E+00  1.69344E+01  1.18122E+00  3.30805E+00 -4.40799E+00  1.52472E+01 -7.60147E+00 -6.29291E-01  6.20218E+00  7.52803E+00
  -5.04196E+00  1.37915E+01 -3.15273E+00  1.45825E+00  1.36246E-01 -4.06424E+00  4.74970E+00  2.95366E+01  1.04867E+01  1.01041E+01
  -5.19280E-01  1.36736E+01  2.55761E-01  7.04625E+00  5.58100E-01  1.77556E+00  1.85027E+01 -2.77677E+00  5.03098E+00  1.33029E+01
   6.71410E+00  1.72112E+00  1.25808E+01 -1.53742E+01 -5.67979E+00  2.72950E+00 -7.71558E-01 -1.50721E+00  3.55799E+00  4.18203E+00
  -6.30584E+00 -6.11670E-01 -1.43257E+00 -2.41943E+01  3.95361E+00  3.00718E+00  1.21302E+01  2.53365E+00 -7.25588E+00 -6.99441E+00
  -2.16830E+01 -1.20891E+01 -1.73393E+01  1.27393E+01 -1.30457E+01 -7.38664E+00  3.62506E+00 -6.83887E+00 -5.70036E-01  7.86518E+00
  -1.38638E+01 -8.67104E-01  2.48394E+00  2.27467E+00  9.23272E+00 -4.54533E+00 -6.54579E+00 -3.78450E+00 -2.15661E+01  1.57966E+00
   3.83103E+00  1.73923E+01 -7.09001E+00  1.95551E+00  2.72091E+00 -1.46892E-02  1.53718E+01 -4.91538E+00 -5.10678E+00 -4.69852E+00
  -3.47510E+00  1.18363E+01 -1.23703E+01 -1.08744E+01  8.96795E+00 -6.70605E-01 -8.11748E+00 -3.84111E+00  5.13354E+00 -2.51301E+00
   1.04482E+00  5.96168E-01  3.31724E+00  1.86014E+01  1.15419E+01 -9.01132E+00 -1.08936E+00 -1.49643E+01 -1.27116E+01 -7.45374E+00
   8.34533E-01  1.19200E+01  6.33984E+00  6.69126E+00 -7.24414E+00 -1.13609E+01  8.75531E+00 -9.74460E+00
 NY points of the fit to the data follow
  -1.77556E+00 -1.93362E+00 -2.06401E+00 -2.01638E+00 -1.72764E+00 -1.81946E+00 -3.54071E+00 -5.21712E+00 -4.81250E+00 -2.30543E+00
   1.49250E+00  5.48856E+00  8.29237E+00  9.07830E+00  8.23081E+00  6.39917E+00  3.84991E+00  1.15050E+00 -6.65460E-01 -1.61458E+00
  -2.14582E+00 -2.37635E+00 -1.57447E+00  3.17743E-01  1.94545E+00  1.51431E+00 -1.81662E-01 -1.48627E+00 -1.94007E+00 -1.64470E+00
  -3.56164E-01  1.67574E+00  3.51361E+00  4.82449E+00  5.33676E+00  4.56630E+00  3.10299E+00  1.91545E+00  9.17703E-01  6.41114E-02
  -5.06545E-01 -8.12333E-01 -9.80675E-01 -1.00637E+00 -8.81361E-01 -8.29613E-01 -7.33270E-01 -4.37074E-01 -1.90586E-01 -7.24369E-02
   5.87965E-03 -1.66148E-02 -1.67259E-01 -3.26351E-01 -4.79373E-01 -6.77311E-01 -8.88409E-01 -1.03760E+00 -1.11018E+00 -1.10908E+00
  -1.06872E+00 -1.05070E+00 -1.09073E+00 -1.13334E+00 -1.19507E+00 -1.23763E+00 -1.21712E+00 -1.20588E+00 -1.23969E+00 -1.29163E+00
  -1.44243E+00 -1.69345E+00 -1.79725E+00 -1.61835E+00 -1.23493E+00 -7.82010E-01 -4.00748E-01 -3.17097E-01 -5.71104E-01 -9.67359E-01
  -1.37032E+00 -1.85589E+00 -2.19405E+00 -2.04287E+00 -1.51771E+00 -8.68731E-01 -2.94528E-01  2.74158E-03 -3.30419E-02 -2.51945E-01
  -5.07482E-01 -7.89695E-01 -1.11370E+00 -1.45086E+00 -1.84277E+00 -2.16524E+00 -2.41764E+00 -3.69285E+00 -7.60850E+00 -9.90645E+00
  -7.33425E+00 -8.13752E-01  7.67574E+00  1.56962E+01  2.04390E+01  2.04240E+01  1.68873E+01  1.19904E+01  6.83536E+00  2.66241E+00
   8.89096E-01  3.55440E-01  1.15831E-01 -1.96090E-02 -8.94897E-02 -4.44736E-02  4.39826E-02  9.03337E-02  9.70408E-02  2.71140E-02
  -2.67492E-01 -1.54343E+00 -4.74906E+00 -6.52989E+00 -4.50683E+00  5.70805E-01  7.09982E+00  1.31549E+01  1.65538E+01  1.63150E+01
   1.38670E+01  1.09406E+01  8.01248E+00  5.66390E+00  4.46116E+00  3.22681E+00  1.56313E+00 -1.07816E-01 -1.16644E+00 -1.39305E+00
  -8.59287E-01  1.11818E-01  1.03331E+00  1.64846E+00  1.85584E+00  1.71751E+00  1.43036E+00  1.11278E+00  8.26596E-01  7.22257E-01
   6.96265E-01  4.96845E-01  5.98802E-02 -5.26403E-01 -1.13068E+00 -1.37759E+00 -1.01949E+00 -3.78032E-01  3.41612E-02 -2.99507E-02
  -6.37931E-01 -1.44794E+00 -2.00137E+00 -2.09781E+00 -1.80019E+00 -1.29143E+00 -1.00798E+00 -1.26252E+00 -1.88277E+00 -2.48204E+00
  -2.69005E+00 -2.35617E+00 -1.82126E+00 -1.76162E+00 -2.24678E+00 -2.90573E+00 -3.31145E+00 -3.31431E+00 -3.06670E+00 -3.02342E+00
  -3.25596E+00 -3.49429E+00 -3.52491E+00 -3.48066E+00 -3.54518E+00 -3.66736E+00 -3.82915E+00 -3.85885E+00 -3.30542E+00 -1.99618E+00
  -3.25706E-01  1.23938E+00  2.30006E+00  2.75319E+00  2.22380E+00  8.18526E-01 -7.12732E-01 -1.89308E+00 -2.55109E+00 -2.64350E+00
  -2.13809E+00 -1.19869E+00  5.27325E-02  1.43164E+00  2.75092E+00  3.65630E+00  3.71123E+00  2.81524E+00  1.33830E+00 -5.30240E-01
  -2.60359E+00 -4.50533E+00 -4.97064E+00 -3.55534E+00 -9.07442E-01  2.24429E+00  5.10969E+00  6.97399E+00  7.13195E+00  5.17292E+00
   1.71881E+00 -1.88418E+00 -4.50983E+00 -5.22361E+00 -4.10796E+00 -1.75756E+00  1.18273E+00  3.86413E+00  5.43426E+00  5.51956E+00
   4.43357E+00  3.06035E+00  2.09370E+00  1.92393E+00  2.86281E+00  4.67316E+00  6.71326E+00  8.45143E+00  9.38977E+00  9.00303E+00
   7.43920E+00  5.44799E+00  3.92155E+00  3.32624E+00  3.93991E+00  5.65422E+00  7.73259E+00  9.32514E+00  9.99966E+00  9.61898E+00
   7.13180E+00  1.34953E+00 -1.84865E+00  1.63457E+00  9.51504E+00  1.54929E+01  1.77441E+01  2.23984E+01  3.01494E+01  3.93522E+01
   4.88168E+01  5.47619E+01  5.38517E+01  4.72506E+01  3.73835E+01  2.65256E+01  1.62340E+01  9.41424E+00  6.76506E+00  5.36280E+00
   4.36088E+00  3.78147E+00  3.59710E+00  3.65892E+00  3.78157E+00  3.80402E+00  3.64076E+00  3.26139E+00  2.72779E+00  2.18869E+00
   1.78312E+00  1.55155E+00  1.51318E+00  1.64170E+00  1.84820E+00  2.08706E+00  2.33562E+00  2.53500E+00  2.70361E+00  2.93270E+00
   3.30558E+00  3.84603E+00  4.53922E+00  5.36075E+00  6.25511E+00  7.12752E+00  7.92595E+00  8.62787E+00  9.23018E+00  9.76558E+00
   1.02488E+01  1.06728E+01  1.10105E+01  1.12289E+01  1.13073E+01  1.12280E+01  1.09793E+01  1.05829E+01  1.00648E+01  9.45130E+00
   8.77030E+00  8.04811E+00  7.31017E+00  6.58050E+00  5.88023E+00  5.22695E+00  4.63380E+00  4.10795E+00  3.64893E+00  3.24514E+00
   2.86058E+00  2.38756E+00  1.48966E+00  5.08409E-01  2.46319E+00  7.21320E+00  1.20723E+01  1.51310E+01  1.53152E+01  1.23513E+01
   6.93332E+00 -1.07097E+00 -9.34811E+00 -1.45674E+01 -1.50702E+01 -1.08917E+01 -4.16932E+00  2.89667E+00  8.20368E+00  1.08306E+01
   1.13467E+01  1.03042E+01  8.34315E+00  7.07370E+00  6.86974E+00  7.33475E+00  8.33072E+00  9.80349E+00  1.16920E+01  1.38935E+01
   1.62511E+01  1.85579E+01  2.05786E+01  2.20813E+01  2.28770E+01  2.28532E+01  2.19967E+01  2.03950E+01  1.82202E+01  1.56958E+01
   1.30572E+01  1.05157E+01  8.23155E+00  6.30203E+00  4.76255E+00  3.59855E+00  2.76222E+00  2.18988E+00  1.81590E+00  1.58196E+00
   1.44147E+00  1.36046E+00  1.31629E+00  1.29532E+00  1.29042E+00  1.29871E+00  1.31988E+00  1.35507E+00  1.40629E+00  1.47606E+00
   1.56715E+00  1.68237E+00  1.82442E+00  1.99593E+00  2.19944E+00  2.43731E+00  2.71158E+00  3.02369E+00  3.37438E+00  3.76354E+00
   4.19008E+00  4.65176E+00  5.14486E+00  5.66411E+00  6.20256E+00  6.75176E+00  7.30184E+00  7.84167E+00  8.35909E+00  8.84134E+00
   9.27559E+00  9.64958E+00  9.95210E+00  1.01736E+01  1.03065E+01  1.03457E+01  1.02889E+01  1.01369E+01  9.89325E+00  9.56428E+00
   9.15856E+00  8.68659E+00  8.16033E+00  7.59262E+00  6.99651E+00  6.38472E+00  5.76912E+00  5.16046E+00  4.56805E+00  3.99965E+00
   3.46124E+00  2.95709E+00  2.48989E+00  2.06098E+00  1.67052E+00  1.31772E+00  1.00097E+00  7.18031E-01  4.66352E-01  2.43245E-01
   4.59817E-02 -1.28121E-01 -2.81703E-01 -4.17230E-01 -5.36950E-01 -6.42814E-01 -7.36564E-01 -8.19760E-01 -8.93828E-01 -9.59988E-01
  -1.01926E+00 -1.07248E+00 -1.12038E+00 -1.16363E+00 -1.20285E+00 -1.23853E+00 -1.27106E+00 -1.30074E+00 -1.32788E+00 -1.35278E+00
  -1.37573E+00 -1.39692E+00 -1.41649E+00 -1.43456E+00 -1.45129E+00 -1.46681E+00 -1.48129E+00 -1.49478E+00 -1.50733E+00 -1.51900E+00
  -1.52990E+00 -1.54013E+00 -1.54975E+00 -1.55876E+00 -1.56719E+00 -1.57506E+00 -1.58246E+00 -1.58946E+00 -1.59607E+00 -1.60228E+00
  -1.60809E+00 -1.61355E+00 -1.61872E+00 -1.62363E+00 -1.62827E+00 -1.63260E+00 -1.63666E+00 -1.64047E+00 -1.64411E+00 -1.64756E+00
  -1.65082E+00 -1.65384E+00 -1.65666E+00 -1.65932E+00 -1.66186E+00 -1.66425E+00 -1.66647E+00 -1.66850E+00 -1.67038E+00 -1.67215E+00
  -1.67383E+00 -1.67537E+00 -1.67675E+00 -1.67797E+00 -1.67907E+00 -1.68008E+00 -1.68100E+00 -1.68177E+00
 NY background values follow
    -1.339E+00   -1.339E+00   -1.339E+00   -1.340E+00   -1.340E+00   -1.340E+00   -1.340E+00   -1.341E+00   -1.341E+00   -1.341E+00
    -1.341E+00   -1.342E+00   -1.342E+00   -1.342E+00   -1.343E+00   -1.343E+00   -1.343E+00   -1.343E+00   -1.344E+00   -1.344E+00
    -1.344E+00   -1.344E+00   -1.345E+00   -1.345E+00   -1.345E+00   -1.345E+00   -1.346E+00   -1.346E+00   -1.346E+00   -1.346E+00
    -1.347E+00   -1.347E+00   -1.347E+00   -1.347E+00   -1.348E+00   -1.348E+00   -1.348E+00   -1.348E+00   -1.349E+00   -1.349E+00
    -1.349E+00   -1.349E+00   -1.350E+00   -1.350E+00   -1.350E+00   -1.350E+00   -1.351E+00   -1.351E+00   -1.351E+00   -1.351E+00
    -1.352E+00   -1.352E+00   -1.352E+00   -1.352E+00   -1.352E+00   -1.353E+00   -1.353E+00   -1.353E+00   -1.353E+00   -1.354E+00
    -1.354E+00   -1.354E+00   -1.354E+00   -1.355E+00   -1.355E+00   -1.355E+00   -1.355E+00   -1.356E+00   -1.356E+00   -1.356E+00
    -1.356E+00   -1.356E+00   -1.357E+00   -1.357E+00   -1.357E+00   -1.357E+00   -1.358E+00   -1.358E+00   -1.358E+00   -1.358E+00
    -1.359E+00   -1.359E+00   -1.359E+00   -1.359E+00   -1.359E+00   -1.360E+00   -1.360E+00   -1.360E+00   -1.360E+00   -1.361E+00
    -1.361E+00   -1.361E+00   -1.361E+00   -1.361E+00   -1.362E+00   -1.362E+00   -1.362E+00   -1.362E+00   -1.363E+00   -1.363E+00
    -1.363E+00   -1.363E+00   -1.363E+00   -1.364E+00   -1.364E+00   -1.364E+00   -1.364E+00   -1.364E+00   -1.365E+00   -1.365E+00
    -1.365E+00   -1.365E+00   -1.366E+00   -1.366E+00   -1.366E+00   -1.366E+00   -1.366E+00   -1.367E+00   -1.367E+00   -1.367E+00
    -1.367E+00   -1.367E+00   -1.368E+00   -1.368E+00   -1.368E+00   -1.368E+00   -1.368E+00   -1.369E+00   -1.369E+00   -1.369E+00
    -1.369E+00   -1.369E+00   -1.370E+00   -1.370E+00   -1.370E+00   -1.370E+00   -1.370E+00   -1.371E+00   -1.371E+00   -1.371E+00
    -1.371E+00   -1.371E+00   -1.372E+00   -1.372E+00   -1.372E+00   -1.372E+00   -1.372E+00   -1.373E+00   -1.373E+00   -1.373E+00
    -1.373E+00   -1.373E+00   -1.374E+00   -1.374E+00   -1.374E+00   -1.374E+00   -1.374E+00   -1.374E+00   -1.375E+00   -1.375E+00
    -1.375E+00   -1.375E+00   -1.375E+00   -1.376E+00   -1.376E+00   -1.376E+00   -1.376E+00   -1.376E+00   -1.377E+00   -1.377E+00
    -1.377E+00   -1.377E+00   -1.377E+00   -1.377E+00   -1.378E+00   -1.378E+00   -1.378E+00   -1.378E+00   -1.378E+00   -1.378E+00
    -1.379E+00   -1.379E+00   -1.379E+00   -1.379E+00   -1.379E+00   -1.380E+00   -1.380E+00   -1.380E+00   -1.380E+00   -1.380E+00
    -1.380E+00   -1.381E+00   -1.381E+00   -1.381E+00   -1.381E+00   -1.381E+00   -1.381E+00   -1.382E+00   -1.382E+00   -1.382E+00
    -1.382E+00   -1.382E+00   -1.382E+00   -1.383E+00   -1.383E+00   -1.383E+00   -1.383E+00   -1.383E+00   -1.383E+00   -1.384E+00
    -1.384E+00   -1.384E+00   -1.384E+00   -1.384E+00   -1.384E+00   -1.384E+00   -1.385E+00   -1.385E+00   -1.385E+00   -1.385E+00
    -1.385E+00   -1.385E+00   -1.386E+00   -1.386E+00   -1.386E+00   -1.386E+00   -1.386E+00   -1.386E+00   -1.386E+00   -1.387E+00
    -1.387E+00   -1.387E+00   -1.387E+00   -1.387E+00   -1.387E+00   -1.388E+00   -1.388E+00   -1.388E+00   -1.388E+00   -1.388E+00
    -1.388E+00   -1.388E+00   -1.389E+00   -1.389E+00   -1.389E+00   -1.389E+00   -1.389E+00   -1.389E+00   -1.389E+00   -1.390E+00
    -1.390E+00   -1.390E+00   -1.390E+00   -1.390E+00   -1.390E+00   -1.390E+00   -1.390E+00   -1.391E+00   -1.391E+00   -1.391E+00
    -1.391E+00   -1.391E+00   -1.391E+00   -1.391E+00   -1.392E+00   -1.392E+00   -1.392E+00   -1.392E+00   -1.392E+00   -1.392E+00
    -1.392E+00   -1.392E+00   -1.393E+00   -1.393E+00   -1.393E+00   -1.393E+00   -1.393E+00   -1.393E+00   -1.393E+00   -1.393E+00
    -1.394E+00   -1.394E+00   -1.394E+00   -1.394E+00   -1.394E+00   -1.394E+00   -1.394E+00   -1.394E+00   -1.395E+00   -1.395E+00
    -1.395E+00   -1.395E+00   -1.395E+00   -1.395E+00   -1.395E+00   -1.395E+00   -1.396E+00   -1.396E+00   -1.396E+00   -1.396E+00
    -1.396E+00   -1.396E+00   -1.396E+00   -1.396E+00   -1.396E+00   -1.397E+00   -1.397E+00   -1.397E+00   -1.397E+00   -1.397E+00
    -1.397E+00   -1.397E+00   -1.397E+00   -1.397E+00   -1.398E+00   -1.398E+00   -1.398E+00   -1.398E+00   -1.398E+00   -1.398E+00
    -1.398E+00   -1.398E+00   -1.398E+00   -1.398E+00   -1.399E+00   -1.399E+00   -1.399E+00   -1.399E+00   -1.399E+00   -1.399E+00
    -1.399E+00   -1.399E+00   -1.399E+00   -1.399E+00   -1.400E+00   -1.400E+00   -1.400E+00   -1.400E+00   -1.400E+00   -1.400E+00
    -1.400E+00   -1.400E+00   -1.400E+00   -1.400E+00   -1.400E+00   -1.401E+00   -1.401E+00   -1.401E+00   -1.401E+00   -1.401E+00
    -1.401E+00   -1.401E+00   -1.401E+00   -1.401E+00   -1.401E+00   -1.401E+00   -1.402E+00   -1.402E+00   -1.402E+00   -1.402E+00
    -1.402E+00   -1.402E+00   -1.402E+00   -1.402E+00   -1.402E+00   -1.402E+00   -1.402E+00   -1.402E+00   -1.403E+00   -1.403E+00
    -1.403E+00   -1.403E+00   -1.403E+00   -1.403E+00   -1.403E+00   -1.403E+00   -1.403E+00   -1.403E+00   -1.403E+00   -1.403E+00
    -1.403E+00   -1.403E+00   -1.404E+00   -1.404E+00   -1.404E+00   -1.404E+00   -1.404E+00   -1.404E+00   -1.404E+00   -1.404E+00
    -1.404E+00   -1.404E+00   -1.404E+00   -1.404E+00   -1.404E+00   -1.404E+00   -1.404E+00   -1.405E+00   -1.405E+00   -1.405E+00
    -1.405E+00   -1.405E+00   -1.405E+00   -1.405E+00   -1.405E+00   -1.405E+00   -1.405E+00   -1.405E+00   -1.405E+00   -1.405E+00
    -1.405E+00   -1.405E+00   -1.405E+00   -1.405E+00   -1.406E+00   -1.406E+00   -1.406E+00   -1.406E+00   -1.406E+00   -1.406E+00
    -1.406E+00   -1.406E+00   -1.406E+00   -1.406E+00   -1.406E+00   -1.406E+00   -1.406E+00   -1.406E+00   -1.406E+00   -1.406E+00
    -1.406E+00   -1.406E+00   -1.406E+00   -1.406E+00   -1.406E+00   -1.407E+00   -1.407E+00   -1.407E+00   -1.407E+00   -1.407E+00
    -1.407E+00   -1.407E+00   -1.407E+00   -1.407E+00   -1.407E+00   -1.407E+00   -1.407E+00   -1.407E+00   -1.407E+00   -1.407E+00
    -1.407E+00   -1.407E+00   -1.407E+00   -1.407E+00   -1.407E+00   -1.407E+00   -1.407E+00   -1.407E+00   -1.407E+00   -1.407E+00
    -1.407E+00   -1.407E+00   -1.407E+00   -1.407E+00   -1.407E+00   -1.408E+00   -1.408E+00   -1.408E+00   -1.408E+00   -1.408E+00
    -1.408E+00   -1.408E+00   -1.408E+00   -1.408E+00   -1.408E+00   -1.408E+00   -1.408E+00   -1.408E+00   -1.408E+00   -1.408E+00
    -1.408E+00   -1.408E+00   -1.408E+00   -1.408E+00   -1.408E+00   -1.408E+00   -1.408E+00   -1.408E+00   -1.408E+00   -1.408E+00
    -1.408E+00   -1.408E+00   -1.408E+00   -1.408E+00   -1.408E+00   -1.408E+00   -1.408E+00   -1.408E+00
 Ala      Conc. = 5.00E+02
