 LCModel (Version 6.3-1L) Copyright: S.W. Provencher.          Ref.: Magn. Reson. Med. 30:672-679 (1993).                
 Slice#2 Row#8 Col#10  PD_05_press_2_raw_act
 36 lines in following concentration table = NCONC+1
    Conc.  %SD /Cr+PCr  Metabolite                                         
  320.158  66%   0.127 Ala                                                 
    0.000 999%   0.000 Asp                                                 
  440.252 116%   0.174 Cr                                                  
 2.08E+03  25%   0.826 PCr                                                 
    0.000 999%   0.000 GABA                                                
  109.850 277% 4.4E-02 Glc                                                 
 1.62E+03  28%   0.642 Gln                                                 
 3.16E+03  16%   1.253 Glu                                                 
 1.03E+03   4%   0.409 GPC                                                 
    0.000 999%   0.000 PCh                                                 
  555.396  26%   0.220 GSH                                                 
 1.65E+03  30%   0.655 Ins                                                 
    0.000 999%   0.000 Lac                                                 
 4.98E+03   6%   1.972 NAA                                                 
  543.916  53%   0.215 NAAG                                                
  214.477  26% 8.5E-02 Scyllo                                              
    0.000 999%   0.000 Tau                                                 
 1.69E+03  13%   0.668 -CrCH2                                              
 1.03E+03   4%   0.409 GPC+PCh                                             
 5.52E+03   3%   2.187 NAA+NAAG                                            
 2.52E+03   5%   1.000 Cr+PCr                                              
 4.78E+03  15%   1.895 Glu+Gln                                             
 2.87E+03  35%   1.138 Lip13a                                              
    0.000 999%   0.000 Lip13b                                              
   73.121 752% 2.9E-02 Lip09                                               
 3.19E+03  21%   1.264 MM09                                                
  552.386  70%   0.219 Lip20                                               
 7.85E+03  12%   3.111 MM20                                                
 1.09E+03  39%   0.433 MM12                                                
 1.64E+03  45%   0.650 MM14                                                
 1.91E+03  29%   0.758 MM17                                                
 2.87E+03  35%   1.138 Lip13a+Lip13b                                       
 5.60E+03  16%   2.220 MM14+Lip13a+Lip13b+MM12                             
 3.26E+03  14%   1.293 MM09+Lip09                                          
 8.40E+03  11%   3.330 MM20+Lip20                                          
   6 lines in following misc. output table
  FWHM = 0.046 ppm    S/N =  15                                            
  Data shift = 0.023 ppm                                                   
  Ph: -34 deg     -11.4 deg/ppm                                            
  alphaB,S = 6.7E-01,   9.4E+01                                            
   14 spline knots.   Ns = 7(1)                                            
  (13) 3 infls.   (11) 1 extrs.                                            
  498 points on ppm-axis = NY
      4.000000     3.992357     3.984714     3.977070     3.969427     3.961784     3.954141     3.946497     3.938854     3.931211
      3.923568     3.915925     3.908281     3.900638     3.892995     3.885352     3.877708     3.870065     3.862422     3.854779
      3.847136     3.839492     3.831849     3.824206     3.816563     3.808919     3.801276     3.793633     3.785990     3.778347
      3.770703     3.763060     3.755417     3.747774     3.740130     3.732487     3.724844     3.717201     3.709558     3.701914
      3.694271     3.686628     3.678985     3.671341     3.663698     3.656055     3.648412     3.640769     3.633125     3.625482
      3.617839     3.610196     3.602552     3.594909     3.587266     3.579623     3.571980     3.564336     3.556693     3.549050
      3.541407     3.533763     3.526120     3.518477     3.510834     3.503191     3.495547     3.487904     3.480261     3.472618
      3.464974     3.457331     3.449688     3.442045     3.434402     3.426758     3.419115     3.411472     3.403829     3.396185
      3.388542     3.380899     3.373256     3.365613     3.357969     3.350326     3.342683     3.335040     3.327396     3.319753
      3.312110     3.304467     3.296824     3.289180     3.281537     3.273894     3.266251     3.258607     3.250964     3.243321
      3.235678     3.228034     3.220391     3.212748     3.205105     3.197462     3.189818     3.182175     3.174532     3.166889
      3.159245     3.151602     3.143959     3.136316     3.128673     3.121029     3.113386     3.105743     3.098100     3.090456
      3.082813     3.075170     3.067527     3.059884     3.052240     3.044597     3.036954     3.029311     3.021667     3.014024
      3.006381     2.998738     2.991095     2.983451     2.975808     2.968165     2.960522     2.952878     2.945235     2.937592
      2.929949     2.922306     2.914662     2.907019     2.899376     2.891733     2.884089     2.876446     2.868803     2.861160
      2.853517     2.845873     2.838230     2.830587     2.822944     2.815300     2.807657     2.800014     2.792371     2.784728
      2.777084     2.769441     2.761798     2.754155     2.746511     2.738868     2.731225     2.723582     2.715939     2.708295
      2.700652     2.693009     2.685366     2.677722     2.670079     2.662436     2.654793     2.647150     2.639506     2.631863
      2.624220     2.616577     2.608933     2.601290     2.593647     2.586004     2.578361     2.570717     2.563074     2.555431
      2.547788     2.540144     2.532501     2.524858     2.517215     2.509572     2.501928     2.494285     2.486642     2.478999
      2.471355     2.463712     2.456069     2.448426     2.440783     2.433139     2.425496     2.417853     2.410210     2.402566
      2.394923     2.387280     2.379637     2.371994     2.364350     2.356707     2.349064     2.341421     2.333777     2.326134
      2.318491     2.310848     2.303205     2.295561     2.287918     2.280275     2.272632     2.264988     2.257345     2.249702
      2.242059     2.234416     2.226772     2.219129     2.211486     2.203843     2.196199     2.188556     2.180913     2.173270
      2.165627     2.157983     2.150340     2.142697     2.135054     2.127410     2.119767     2.112124     2.104481     2.096838
      2.089194     2.081551     2.073908     2.066265     2.058621     2.050978     2.043335     2.035692     2.028049     2.020405
      2.012762     2.005119     1.997476     1.989833     1.982190     1.974546     1.966903     1.959260     1.951617     1.943974
      1.936331     1.928688     1.921045     1.913402     1.905759     1.898115     1.890472     1.882829     1.875186     1.867543
      1.859900     1.852257     1.844614     1.836971     1.829327     1.821684     1.814041     1.806398     1.798755     1.791112
      1.783469     1.775826     1.768183     1.760540     1.752896     1.745253     1.737610     1.729967     1.722324     1.714681
      1.707038     1.699395     1.691752     1.684108     1.676465     1.668822     1.661179     1.653536     1.645893     1.638250
      1.630607     1.622964     1.615321     1.607677     1.600034     1.592391     1.584748     1.577105     1.569462     1.561819
      1.554176     1.546533     1.538890     1.531246     1.523603     1.515960     1.508317     1.500674     1.493031     1.485388
      1.477745     1.470102     1.462458     1.454815     1.447172     1.439529     1.431886     1.424243     1.416600     1.408957
      1.401314     1.393671     1.386027     1.378384     1.370741     1.363098     1.355455     1.347812     1.340169     1.332526
      1.324883     1.317240     1.309596     1.301953     1.294310     1.286667     1.279024     1.271381     1.263738     1.256095
      1.248452     1.240808     1.233165     1.225522     1.217879     1.210236     1.202593     1.194950     1.187307     1.179664
      1.172021     1.164377     1.156734     1.149091     1.141448     1.133805     1.126162     1.118519     1.110876     1.103233
      1.095590     1.087946     1.080303     1.072660     1.065017     1.057374     1.049731     1.042088     1.034445     1.026802
      1.019158     1.011515     1.003872     0.996229     0.988586     0.980943     0.973300     0.965657     0.958014     0.950371
      0.942727     0.935084     0.927441     0.919798     0.912155     0.904512     0.896869     0.889226     0.881583     0.873940
      0.866296     0.858653     0.851010     0.843367     0.835724     0.828081     0.820438     0.812795     0.805152     0.797508
      0.789865     0.782222     0.774579     0.766936     0.759293     0.751650     0.744007     0.736364     0.728721     0.721077
      0.713434     0.705791     0.698148     0.690505     0.682862     0.675219     0.667576     0.659933     0.652290     0.644646
      0.637003     0.629360     0.621717     0.614074     0.606431     0.598788     0.591145     0.583502     0.575858     0.568215
      0.560572     0.552929     0.545286     0.537643     0.530000     0.522357     0.514714     0.507071     0.499427     0.491784
      0.484141     0.476498     0.468855     0.461212     0.453569     0.445925     0.438282     0.430639     0.422996     0.415353
      0.407710     0.400067     0.392424     0.384780     0.377137     0.369494     0.361851     0.354208     0.346565     0.338922
      0.331278     0.323635     0.315992     0.308349     0.300706     0.293063     0.285420     0.277777     0.270133     0.262490
      0.254847     0.247204     0.239561     0.231918     0.224275     0.216631     0.208988     0.201345
 NY phased data points follow
   3.97460E+01  4.86618E+01  3.83197E+01  3.61922E+01  3.62489E+01  4.71529E+01  4.35156E+01  6.16138E+01  4.39704E+01  5.40498E+01
   5.02006E+01  4.69896E+01  4.78449E+01  4.89262E+01  4.40304E+01  4.09153E+01  3.32937E+01  3.94003E+01  3.28123E+01  3.96303E+01
   3.62328E+01  3.70617E+01  3.00467E+01  3.95700E+01  3.35061E+01  4.02609E+01  3.82677E+01  3.61018E+01  4.03829E+01  3.76257E+01
   3.40919E+01  3.80035E+01  4.05336E+01  4.27891E+01  4.24653E+01  3.92656E+01  3.50202E+01  3.50261E+01  3.76238E+01  3.55058E+01
   3.61677E+01  3.72863E+01  2.54604E+01  3.73159E+01  3.89911E+01  4.28988E+01  4.25066E+01  5.02814E+01  4.26458E+01  4.31271E+01
   3.85867E+01  3.55592E+01  3.24343E+01  3.79849E+01  3.26053E+01  3.67222E+01  2.94086E+01  3.36899E+01  2.54007E+01  2.33793E+01
   1.68863E+01  2.52743E+01  1.56394E+01  9.37148E+00  1.71276E+01  1.29245E+01  1.74667E+01  9.41317E+00  1.42477E+01  1.99613E+01
   1.19576E+01  2.24698E+01  2.30558E+01  2.11765E+01  1.53754E+01  1.75961E+01  2.22492E+01  2.10802E+01  1.68817E+01  2.70791E+01
   2.24476E+01  2.17038E+01  2.15558E+01  2.19966E+01  2.37334E+01  2.40699E+01  3.24640E+01  2.68755E+01  2.13918E+01  2.93929E+01
   1.71403E+01  2.44377E+01  2.77749E+01  2.74837E+01  3.33548E+01  3.57954E+01  3.50521E+01  4.47763E+01  4.21418E+01  6.10866E+01
   8.61346E+01  1.06856E+02  1.16926E+02  1.06419E+02  8.37562E+01  7.24229E+01  6.25747E+01  5.47947E+01  3.81272E+01  2.79330E+01
   3.38159E+01  2.39727E+01  2.32646E+01  1.80528E+01  2.37931E+01  2.01570E+01  2.27540E+01  1.77055E+01  2.23601E+01  2.54431E+01
   2.25067E+01  2.08985E+01  4.05195E+01  4.58981E+01  6.20346E+01  8.38803E+01  1.00574E+02  1.06283E+02  9.59340E+01  7.51767E+01
   6.33200E+01  3.52471E+01  3.91784E+01  2.04653E+01  2.43841E+01  2.09660E+01  2.36020E+01  1.29885E+01  1.58708E+01  1.40341E+01
   2.07326E+01  1.53127E+01  9.42243E+00  8.74564E+00  4.08513E+00  1.26773E+01  1.23236E+01  9.10099E+00  8.84820E+00  1.38095E+01
   6.67014E+00  9.35957E+00  1.55684E+01  1.31674E+01  3.39675E+00  1.16749E+01  5.09677E+00  9.17649E+00  1.01152E+01  5.82831E+00
   1.11839E+01  3.57177E+00  1.12037E+01  6.99218E+00  4.16604E+00  3.56587E+00  5.69338E+00 -1.08552E+01 -9.45327E+00 -1.53313E+01
  -2.26493E+01 -2.28535E+01 -2.42947E+01 -2.48454E+01 -2.59570E+01 -2.86564E+01 -2.58861E+01 -2.85712E+01 -2.14865E+01 -1.58642E+01
  -1.55830E+01 -1.35740E+01 -5.69078E+00 -4.64362E+00 -1.29792E+01 -1.24310E+01 -2.09798E+01 -1.45564E+01 -1.77812E+00  1.46860E+00
   1.94470E+00  7.26799E+00  8.92607E+00  1.53099E+00  2.38864E+00 -5.64838E-01 -7.97483E+00 -5.53524E+00 -8.51087E+00 -9.06992E+00
  -2.14238E+00 -5.50366E+00 -3.23001E+00  1.22857E+01  1.47038E+01  1.79077E+01  1.11691E+01  2.91190E+00  5.18223E+00 -4.46077E+00
   6.40145E+00  9.63234E+00  1.29338E+01  2.31090E+01  3.06985E+01  3.22446E+01  3.44751E+01  3.69731E+01  2.28894E+01  1.39136E+01
   1.34381E+01  7.04516E+00 -8.69232E+00  7.10327E+00  1.53904E+01  2.04127E+01  2.21054E+01  2.40321E+01  2.56642E+01  2.25879E+01
   3.29733E+01  2.37182E+01  2.17566E+01  1.65636E+01  2.70054E+01  2.02034E+01  2.33183E+01  2.52729E+01  2.95091E+01  2.64188E+01
   1.84000E+01  1.37951E+01  1.25646E+01  1.21365E+01  1.80706E+01  2.43266E+01  3.00364E+01  2.96110E+01  3.27828E+01  2.49869E+01
   3.71098E+01  3.21961E+01  5.01394E+01  6.82030E+01  7.64489E+01  9.57608E+01  1.01939E+02  1.17849E+02  1.48539E+02  2.00549E+02
   2.20780E+02  2.04861E+02  1.62419E+02  1.32838E+02  1.03374E+02  7.89973E+01  5.36524E+01  4.18621E+01  3.06579E+01  2.53845E+01
   2.78014E+01  3.00862E+01  2.43412E+01  1.71297E+01  2.17239E+01  1.63166E+01  1.88843E+01  1.17918E+01  1.14109E+01  1.41936E+01
   1.70232E+01  1.78138E+01  7.77829E+00  1.18614E+01  1.00444E+01 -1.64344E-01  1.76514E+01  1.15325E+01  1.14414E+01  1.47397E+01
   1.92990E+01  2.18591E+01  1.11637E+01  1.72804E+01  1.93454E+01  1.22888E+01  1.47312E+01  8.83161E+00  1.03971E+01  1.35166E+01
   1.70829E+01  1.30276E+01  1.16048E+01  1.08275E+01  1.42326E+01  1.27199E+01  9.39701E+00  1.70056E+01  2.13708E+01  1.10881E+01
   1.18830E+01  1.86002E+01  1.73260E+01  1.85866E+01  2.20452E+01  1.12069E+01  1.61670E+01  1.90665E+01  1.22460E+01  1.69722E+01
   9.56878E+00  1.37177E+01  1.91827E+01  1.70924E+01  1.55169E+01  2.12102E+01  1.79181E+01  9.94351E+00  9.55731E+00  1.15753E+01
   1.57288E+01  1.07018E+01  1.54770E+01  1.08397E+01  1.28862E+01  1.14952E+01  1.45576E+01  1.66604E+01  2.00815E+01  1.22358E+01
   1.57232E+01  1.72543E+01  1.64951E+01  1.84731E+01  2.86655E+01  2.63465E+01  3.13687E+01  2.31444E+01  2.10850E+01  3.26600E+01
   2.10160E+01  1.81469E+01  2.46702E+01  2.80134E+01  2.33880E+01  2.54211E+01  1.96531E+01  1.98348E+01  3.06476E+01  2.01407E+01
   2.43284E+01  2.16336E+01  1.67445E+01  2.36741E+01  1.95873E+01  1.72036E+01  2.12592E+01  2.29881E+01  2.25003E+01  1.29214E+01
   2.46342E+01  2.84294E+01  1.61623E+01  2.07667E+01  2.32588E+01  1.22500E+01  1.87731E+01  2.32060E+01  1.07806E+01  1.88022E+01
   1.57231E+01  9.85649E+00  8.43551E+00  8.86356E+00  2.19488E+01  1.48253E+01  1.59907E+01  1.74814E+01  1.67620E+01  1.87026E+01
   1.62631E+01  1.33812E+01  1.92328E+01  1.55087E+01  1.98509E+01  2.34247E+01  2.43611E+01  1.89932E+01  2.70145E+01  2.56448E+01
   2.61625E+01  2.37388E+01  2.46719E+01  1.78189E+01  2.78131E+01  2.83111E+01  3.05923E+01  3.04182E+01  2.62044E+01  2.50618E+01
   2.20109E+01  2.04541E+01  2.65126E+01  2.44213E+01  2.55352E+01  2.25595E+01  2.14752E+01  2.98426E+01  1.87443E+01  1.38152E+01
   1.79779E+01  9.90334E+00  1.37567E+01  9.44723E+00  8.91290E+00  1.33696E+01  1.52149E+01  1.47063E+01  1.01348E+01  2.16703E+01
   7.66292E+00  5.53546E+00  1.71059E+01  1.06661E+01  1.72532E+01 -1.16703E-01  3.27861E+00  1.65577E+01  1.00169E+01  6.91879E+00
   1.01943E+01  6.53465E+00  9.78076E+00  1.42076E+00  1.74387E+01  7.67796E+00  1.85049E+01  5.12542E+00  9.74701E+00  5.94615E+00
   1.01925E+01  9.37791E+00  1.03808E+01  1.15939E+01  2.54996E+00  7.59920E+00  2.61350E+00  7.17081E+00  8.65014E+00  1.03429E+01
   6.19449E+00  6.96876E+00  2.71220E+00  1.90215E+00  2.83545E+00  8.78061E+00  1.33014E+01  7.86847E+00  6.13121E+00  6.16766E+00
   7.65129E+00  3.18232E+00  7.11268E+00  5.91503E+00  8.64092E+00  1.05299E+01  1.99897E+01  2.08413E+00  4.99116E+00  5.94498E+00
   1.54342E+00  2.99083E+00  8.63847E+00  1.21983E+01  1.00410E+01  4.73651E+00  3.38728E+00  6.24114E+00  7.21047E+00  9.39678E+00
   7.73682E+00  6.71027E+00  1.56193E+00  2.34014E+00  1.37069E+01  5.52440E+00  4.67042E+00  6.08626E+00
 NY points of the fit to the data follow
   3.64250E+01  3.69615E+01  3.83260E+01  3.92602E+01  4.10360E+01  4.43554E+01  4.83603E+01  5.16072E+01  5.29475E+01  5.25721E+01
   5.15612E+01  5.03365E+01  4.85226E+01  4.60712E+01  4.35982E+01  4.15109E+01  3.95620E+01  3.79530E+01  3.70685E+01  3.61700E+01
   3.55035E+01  3.48949E+01  3.45530E+01  3.47639E+01  3.46525E+01  3.40246E+01  3.34913E+01  3.42389E+01  3.70191E+01  4.10464E+01
   4.49356E+01  4.74873E+01  4.81161E+01  4.65543E+01  4.31004E+01  3.87253E+01  3.47159E+01  3.15950E+01  2.98417E+01  2.97689E+01
   3.08281E+01  3.24064E+01  3.38569E+01  3.50789E+01  3.66434E+01  3.87811E+01  4.09241E+01  4.19531E+01  4.10743E+01  3.84234E+01
   3.49150E+01  3.15763E+01  2.90861E+01  2.73988E+01  2.62661E+01  2.55282E+01  2.51608E+01  2.53191E+01  2.59502E+01  2.65786E+01
   2.67039E+01  2.60643E+01  2.48164E+01  2.33534E+01  2.21244E+01  2.14558E+01  2.12848E+01  2.13747E+01  2.16287E+01  2.20258E+01
   2.25040E+01  2.28986E+01  2.30020E+01  2.27584E+01  2.23071E+01  2.18010E+01  2.13437E+01  2.09503E+01  2.06903E+01  2.08472E+01
   2.14663E+01  2.18722E+01  2.22469E+01  2.33130E+01  2.53634E+01  2.76036E+01  2.85522E+01  2.74011E+01  2.48318E+01  2.22945E+01
   2.06043E+01  1.96729E+01  1.93002E+01  1.95118E+01  2.09815E+01  2.63472E+01  3.42166E+01  4.06397E+01  4.83972E+01  6.25897E+01
   8.40778E+01  1.05642E+02  1.16188E+02  1.10586E+02  9.38006E+01  7.47620E+01  5.85223E+01  4.55316E+01  3.51203E+01  2.68065E+01
   2.00706E+01  1.60525E+01  1.48995E+01  1.46042E+01  1.45577E+01  1.46544E+01  1.48711E+01  1.52550E+01  1.61024E+01  1.90151E+01
   2.57148E+01  3.23355E+01  3.83981E+01  4.78444E+01  6.38788E+01  8.39387E+01  9.92607E+01  1.01731E+02  9.12950E+01  7.51385E+01
   6.00330E+01  4.79326E+01  3.81122E+01  2.96567E+01  2.20224E+01  1.56513E+01  1.24239E+01  1.13334E+01  1.12846E+01  1.18050E+01
   1.24379E+01  1.27872E+01  1.27372E+01  1.23685E+01  1.17992E+01  1.11644E+01  1.05409E+01  9.89519E+00  9.25431E+00  8.65473E+00
   8.10744E+00  7.61842E+00  7.16691E+00  6.68882E+00  6.07297E+00  5.63121E+00  5.46588E+00  5.27982E+00  4.72438E+00  3.38407E+00
   1.80811E+00  1.06600E+00  1.57165E+00  2.63563E+00  3.15215E+00  2.54311E+00  1.08059E+00 -5.50855E-01 -1.90735E+00 -3.02803E+00
  -3.94314E+00 -4.50242E+00 -5.16586E+00 -6.33196E+00 -7.79024E+00 -8.66615E+00 -8.26201E+00 -6.98537E+00 -6.04627E+00 -6.17148E+00
  -6.95475E+00 -7.13242E+00 -6.32520E+00 -5.27898E+00 -4.61665E+00 -4.19314E+00 -3.20725E+00 -9.93757E-01  2.16024E+00  5.24636E+00
   7.33795E+00  7.94661E+00  7.48663E+00  6.56321E+00  5.67502E+00  4.97764E+00  4.42929E+00  4.46999E+00  5.43670E+00  7.34448E+00
   9.83335E+00  1.24415E+01  1.45572E+01  1.52033E+01  1.43997E+01  1.18404E+01  7.30383E+00  1.70868E+00 -3.29248E+00 -5.77467E+00
  -5.47503E+00 -3.09973E+00  1.19742E+00  7.43687E+00  1.45186E+01  1.97084E+01  2.07830E+01  1.81257E+01  1.33890E+01  7.26046E+00
   8.54316E-01 -4.15097E+00 -5.90174E+00 -3.45976E+00  1.77537E+00  7.80415E+00  1.31651E+01  1.71450E+01  1.95186E+01  2.03044E+01
   2.03427E+01  2.01899E+01  2.00157E+01  2.00441E+01  2.05864E+01  2.16451E+01  2.30721E+01  2.47352E+01  2.60404E+01  2.63887E+01
   2.55048E+01  2.39105E+01  2.26901E+01  2.27520E+01  2.41123E+01  2.59978E+01  2.79802E+01  2.98299E+01  3.16718E+01  3.39988E+01
   3.64168E+01  3.91406E+01  4.42328E+01  5.81885E+01  7.72634E+01  9.14490E+01  1.04214E+02  1.25609E+02  1.59967E+02  1.96031E+02
   2.13400E+02  2.01721E+02  1.69992E+02  1.34672E+02  1.04679E+02  8.08017E+01  6.16165E+01  4.60483E+01  3.27301E+01  2.41763E+01
   2.09830E+01  1.93618E+01  1.84070E+01  1.78435E+01  1.73544E+01  1.66988E+01  1.59366E+01  1.51477E+01  1.43718E+01  1.36306E+01
   1.29794E+01  1.24558E+01  1.20704E+01  1.17935E+01  1.15838E+01  1.14223E+01  1.13023E+01  1.12249E+01  1.12086E+01  1.12726E+01
   1.14261E+01  1.16653E+01  1.19678E+01  1.23081E+01  1.26666E+01  1.30291E+01  1.33879E+01  1.37344E+01  1.40733E+01  1.44081E+01
   1.47349E+01  1.50406E+01  1.53101E+01  1.55277E+01  1.56859E+01  1.57776E+01  1.58043E+01  1.57671E+01  1.56710E+01  1.55242E+01
   1.53392E+01  1.51236E+01  1.48905E+01  1.46511E+01  1.44214E+01  1.42144E+01  1.40461E+01  1.39309E+01  1.38936E+01  1.39783E+01
   1.42616E+01  1.45660E+01  1.47416E+01  1.50128E+01  1.54989E+01  1.59680E+01  1.59077E+01  1.49574E+01  1.34957E+01  1.22885E+01
   1.15477E+01  1.12255E+01  1.13977E+01  1.23355E+01  1.41030E+01  1.62364E+01  1.81138E+01  1.93484E+01  1.99718E+01  2.02973E+01
   2.05090E+01  2.06672E+01  2.08046E+01  2.09000E+01  2.09953E+01  2.12142E+01  2.15127E+01  2.18472E+01  2.21985E+01  2.25504E+01
   2.28919E+01  2.32099E+01  2.34960E+01  2.37392E+01  2.39327E+01  2.40665E+01  2.41354E+01  2.41326E+01  2.40567E+01  2.39053E+01
   2.36804E+01  2.33825E+01  2.30171E+01  2.25882E+01  2.21054E+01  2.15757E+01  2.10096E+01  2.04151E+01  1.98036E+01  1.91840E+01
   1.85685E+01  1.79652E+01  1.73846E+01  1.68331E+01  1.63203E+01  1.58523E+01  1.54372E+01  1.50794E+01  1.47851E+01  1.45573E+01
   1.44019E+01  1.43216E+01  1.43213E+01  1.44022E+01  1.45680E+01  1.48189E+01  1.51580E+01  1.55845E+01  1.60988E+01  1.66968E+01
   1.73758E+01  1.81285E+01  1.89484E+01  1.98238E+01  2.07428E+01  2.16880E+01  2.26433E+01  2.35877E+01  2.45019E+01  2.53628E+01
   2.61496E+01  2.68396E+01  2.74153E+01  2.78586E+01  2.81578E+01  2.83020E+01  2.82871E+01  2.81111E+01  2.77799E+01  2.73008E+01
   2.66878E+01  2.59548E+01  2.51212E+01  2.42055E+01  2.32298E+01  2.22135E+01  2.11776E+01  2.01384E+01  1.91134E+01  1.81151E+01
   1.71567E+01  1.62455E+01  1.53890E+01  1.45897E+01  1.38509E+01  1.31717E+01  1.25526E+01  1.19899E+01  1.14818E+01  1.10231E+01
   1.06114E+01  1.02417E+01  9.91143E+00  9.61533E+00  9.35086E+00  9.11325E+00  8.90101E+00  8.71027E+00  8.53989E+00  8.38607E+00
   8.24801E+00  8.12273E+00  8.01032E+00  7.90828E+00  7.81663E+00  7.73278E+00  7.65706E+00  7.58754E+00  7.52510E+00  7.46785E+00
   7.41634E+00  7.36858E+00  7.32549E+00  7.28563E+00  7.25016E+00  7.21738E+00  7.18809E+00  7.16062E+00  7.13620E+00  7.11358E+00
   7.09394E+00  7.07566E+00  7.05966E+00  7.04453E+00  7.03164E+00  7.01980E+00  7.01014E+00  7.00103E+00  6.99354E+00  6.98641E+00
   6.98110E+00  6.97637E+00  6.97327E+00  6.97026E+00  6.96851E+00  6.96692E+00  6.96689E+00  6.96711E+00  6.96857E+00  6.96982E+00
   6.97215E+00  6.97452E+00  6.97827E+00  6.98202E+00  6.98673E+00  6.99107E+00  6.99644E+00  7.00180E+00  7.00839E+00  7.01475E+00
   7.02189E+00  7.02861E+00  7.03636E+00  7.04407E+00  7.05284E+00  7.06123E+00  7.07030E+00  7.07898E+00
 NY background values follow
     2.874E+01    2.856E+01    2.839E+01    2.821E+01    2.803E+01    2.785E+01    2.768E+01    2.750E+01    2.732E+01    2.714E+01
     2.697E+01    2.679E+01    2.661E+01    2.643E+01    2.626E+01    2.608E+01    2.590E+01    2.572E+01    2.555E+01    2.537E+01
     2.519E+01    2.501E+01    2.484E+01    2.466E+01    2.448E+01    2.430E+01    2.413E+01    2.395E+01    2.377E+01    2.360E+01
     2.342E+01    2.324E+01    2.307E+01    2.289E+01    2.271E+01    2.254E+01    2.236E+01    2.219E+01    2.201E+01    2.183E+01
     2.166E+01    2.148E+01    2.131E+01    2.113E+01    2.096E+01    2.078E+01    2.060E+01    2.043E+01    2.025E+01    2.008E+01
     1.991E+01    1.973E+01    1.956E+01    1.938E+01    1.921E+01    1.903E+01    1.886E+01    1.869E+01    1.851E+01    1.834E+01
     1.817E+01    1.799E+01    1.782E+01    1.765E+01    1.748E+01    1.730E+01    1.713E+01    1.696E+01    1.679E+01    1.662E+01
     1.644E+01    1.627E+01    1.610E+01    1.593E+01    1.576E+01    1.559E+01    1.542E+01    1.525E+01    1.508E+01    1.491E+01
     1.474E+01    1.457E+01    1.440E+01    1.423E+01    1.406E+01    1.390E+01    1.373E+01    1.356E+01    1.339E+01    1.322E+01
     1.306E+01    1.289E+01    1.272E+01    1.255E+01    1.239E+01    1.222E+01    1.206E+01    1.189E+01    1.173E+01    1.156E+01
     1.140E+01    1.123E+01    1.107E+01    1.090E+01    1.074E+01    1.058E+01    1.042E+01    1.025E+01    1.009E+01    9.931E+00
     9.771E+00    9.611E+00    9.451E+00    9.292E+00    9.134E+00    8.976E+00    8.819E+00    8.662E+00    8.506E+00    8.351E+00
     8.196E+00    8.042E+00    7.888E+00    7.735E+00    7.583E+00    7.431E+00    7.281E+00    7.131E+00    6.981E+00    6.833E+00
     6.685E+00    6.538E+00    6.392E+00    6.246E+00    6.102E+00    5.958E+00    5.815E+00    5.673E+00    5.532E+00    5.392E+00
     5.253E+00    5.114E+00    4.977E+00    4.841E+00    4.707E+00    4.573E+00    4.441E+00    4.309E+00    4.180E+00    4.051E+00
     3.924E+00    3.798E+00    3.674E+00    3.551E+00    3.430E+00    3.311E+00    3.193E+00    3.076E+00    2.962E+00    2.849E+00
     2.738E+00    2.628E+00    2.521E+00    2.415E+00    2.311E+00    2.210E+00    2.110E+00    2.012E+00    1.916E+00    1.823E+00
     1.732E+00    1.642E+00    1.555E+00    1.471E+00    1.388E+00    1.308E+00    1.231E+00    1.156E+00    1.083E+00    1.013E+00
     9.448E-01    8.797E-01    8.172E-01    7.572E-01    6.997E-01    6.446E-01    5.920E-01    5.417E-01    4.937E-01    4.480E-01
     4.044E-01    3.630E-01    3.238E-01    2.866E-01    2.513E-01    2.181E-01    1.868E-01    1.573E-01    1.296E-01    1.037E-01
     7.955E-02    5.703E-02    3.613E-02    1.681E-02   -1.001E-03   -1.734E-02   -3.225E-02   -4.579E-02   -5.801E-02   -6.895E-02
    -7.866E-02   -8.719E-02   -9.459E-02   -1.009E-01   -1.062E-01   -1.105E-01   -1.139E-01   -1.164E-01   -1.180E-01   -1.189E-01
    -1.190E-01   -1.185E-01   -1.173E-01   -1.155E-01   -1.131E-01   -1.103E-01   -1.070E-01   -1.033E-01   -9.924E-02   -9.476E-02
    -8.989E-02   -8.463E-02   -7.897E-02   -7.294E-02   -6.651E-02   -5.971E-02   -5.253E-02   -4.498E-02   -3.705E-02   -2.875E-02
    -2.008E-02   -1.105E-02   -1.648E-03    8.109E-03    1.822E-02    2.870E-02    3.952E-02    5.069E-02    6.222E-02    7.409E-02
     8.630E-02    9.885E-02    1.117E-01    1.250E-01    1.385E-01    1.524E-01    1.666E-01    1.812E-01    1.960E-01    2.112E-01
     2.267E-01    2.425E-01    2.587E-01    2.751E-01    2.919E-01    3.089E-01    3.263E-01    3.439E-01    3.619E-01    3.801E-01
     3.987E-01    4.175E-01    4.366E-01    4.560E-01    4.757E-01    4.957E-01    5.159E-01    5.363E-01    5.571E-01    5.780E-01
     5.992E-01    6.207E-01    6.424E-01    6.642E-01    6.864E-01    7.087E-01    7.312E-01    7.539E-01    7.768E-01    7.999E-01
     8.232E-01    8.466E-01    8.702E-01    8.940E-01    9.180E-01    9.420E-01    9.663E-01    9.906E-01    1.015E+00    1.040E+00
     1.064E+00    1.089E+00    1.114E+00    1.139E+00    1.165E+00    1.190E+00    1.215E+00    1.240E+00    1.266E+00    1.292E+00
     1.317E+00    1.343E+00    1.368E+00    1.394E+00    1.420E+00    1.446E+00    1.472E+00    1.497E+00    1.523E+00    1.549E+00
     1.575E+00    1.601E+00    1.627E+00    1.653E+00    1.679E+00    1.705E+00    1.731E+00    1.757E+00    1.783E+00    1.809E+00
     1.835E+00    1.861E+00    1.887E+00    1.913E+00    1.939E+00    1.965E+00    1.991E+00    2.017E+00    2.043E+00    2.069E+00
     2.095E+00    2.121E+00    2.147E+00    2.173E+00    2.199E+00    2.225E+00    2.251E+00    2.277E+00    2.303E+00    2.329E+00
     2.354E+00    2.380E+00    2.406E+00    2.432E+00    2.458E+00    2.484E+00    2.510E+00    2.536E+00    2.562E+00    2.588E+00
     2.613E+00    2.639E+00    2.665E+00    2.691E+00    2.717E+00    2.742E+00    2.768E+00    2.794E+00    2.820E+00    2.845E+00
     2.871E+00    2.897E+00    2.922E+00    2.948E+00    2.974E+00    2.999E+00    3.025E+00    3.051E+00    3.076E+00    3.102E+00
     3.128E+00    3.153E+00    3.179E+00    3.205E+00    3.231E+00    3.256E+00    3.282E+00    3.308E+00    3.333E+00    3.359E+00
     3.385E+00    3.411E+00    3.437E+00    3.462E+00    3.488E+00    3.514E+00    3.540E+00    3.566E+00    3.592E+00    3.618E+00
     3.644E+00    3.670E+00    3.696E+00    3.722E+00    3.748E+00    3.774E+00    3.801E+00    3.827E+00    3.853E+00    3.879E+00
     3.906E+00    3.932E+00    3.958E+00    3.985E+00    4.011E+00    4.037E+00    4.064E+00    4.090E+00    4.117E+00    4.143E+00
     4.170E+00    4.196E+00    4.222E+00    4.249E+00    4.275E+00    4.301E+00    4.328E+00    4.354E+00    4.380E+00    4.406E+00
     4.432E+00    4.458E+00    4.484E+00    4.510E+00    4.536E+00    4.562E+00    4.588E+00    4.614E+00    4.639E+00    4.665E+00
     4.691E+00    4.716E+00    4.741E+00    4.767E+00    4.792E+00    4.817E+00    4.842E+00    4.867E+00    4.892E+00    4.916E+00
     4.941E+00    4.965E+00    4.989E+00    5.014E+00    5.038E+00    5.062E+00    5.086E+00    5.109E+00    5.133E+00    5.156E+00
     5.180E+00    5.203E+00    5.226E+00    5.250E+00    5.273E+00    5.296E+00    5.319E+00    5.341E+00    5.364E+00    5.387E+00
     5.409E+00    5.432E+00    5.454E+00    5.477E+00    5.499E+00    5.521E+00    5.544E+00    5.566E+00    5.588E+00    5.610E+00
     5.632E+00    5.654E+00    5.676E+00    5.698E+00    5.720E+00    5.742E+00    5.764E+00    5.786E+00    5.808E+00    5.830E+00
     5.851E+00    5.873E+00    5.895E+00    5.917E+00    5.939E+00    5.961E+00    5.983E+00    6.004E+00
 Ala      Conc. = 3.20E+02
