 LCModel (Version 6.3-1L) Copyright: S.W. Provencher.          Ref.: Magn. Reson. Med. 30:672-679 (1993).                
 Slice#2 Row#8 Col#9  PD_05_press_2_raw_act
 36 lines in following concentration table = NCONC+1
    Conc.  %SD /Cr+PCr  Metabolite                                         
  457.958  45%   0.158 Ala                                                 
    0.000 999%   0.000 Asp                                                 
    1.787 999% 6.2E-04 Cr                                                  
 2.89E+03  16%   0.999 PCr                                                 
    0.000 999%   0.000 GABA                                                
    0.000 999%   0.000 Glc                                                 
 1.19E+03  36%   0.412 Gln                                                 
 4.07E+03  12%   1.408 Glu                                                 
 1.30E+03   3%   0.448 GPC                                                 
    0.000 999%   0.000 PCh                                                 
  921.688  15%   0.319 GSH                                                 
 2.44E+03  20%   0.845 Ins                                                 
  321.114  70%   0.111 Lac                                                 
 5.30E+03   5%   1.834 NAA                                                 
  224.475 119% 7.8E-02 NAAG                                                
  314.181  18%   0.109 Scyllo                                              
    0.000 999%   0.000 Tau                                                 
  731.393  29%   0.253 -CrCH2                                              
 1.30E+03   3%   0.448 GPC+PCh                                             
 5.53E+03   3%   1.912 NAA+NAAG                                            
 2.89E+03   4%   1.000 Cr+PCr                                              
 5.26E+03  13%   1.820 Glu+Gln                                             
 3.64E+03  25%   1.258 Lip13a                                              
    0.000 999%   0.000 Lip13b                                              
    0.000 999%   0.000 Lip09                                               
 2.09E+03  19%   0.723 MM09                                                
  816.294  54%   0.282 Lip20                                               
 6.15E+03  13%   2.128 MM20                                                
  786.172  39%   0.272 MM12                                                
  324.784 187%   0.112 MM14                                                
 1.60E+03  29%   0.555 MM17                                                
 3.64E+03  25%   1.258 Lip13a+Lip13b                                       
 4.75E+03  20%   1.643 MM14+Lip13a+Lip13b+MM12                             
 2.09E+03  19%   0.723 MM09+Lip09                                          
 6.97E+03  12%   2.410 MM20+Lip20                                          
   6 lines in following misc. output table
  FWHM = 0.054 ppm    S/N =  15                                            
  Data shift = 0.015 ppm                                                   
  Ph: -50 deg     -17.3 deg/ppm                                            
  alphaB,S = 7.8E-01,   1.4E+02                                            
   14 spline knots.   Ns = 7(1)                                            
  (12) 2 infls.   ( 5) 1 extrs.                                            
  498 points on ppm-axis = NY
      4.000000     3.992357     3.984714     3.977070     3.969427     3.961784     3.954141     3.946497     3.938854     3.931211
      3.923568     3.915925     3.908281     3.900638     3.892995     3.885352     3.877708     3.870065     3.862422     3.854779
      3.847136     3.839492     3.831849     3.824206     3.816563     3.808919     3.801276     3.793633     3.785990     3.778347
      3.770703     3.763060     3.755417     3.747774     3.740130     3.732487     3.724844     3.717201     3.709558     3.701914
      3.694271     3.686628     3.678985     3.671341     3.663698     3.656055     3.648412     3.640769     3.633125     3.625482
      3.617839     3.610196     3.602552     3.594909     3.587266     3.579623     3.571980     3.564336     3.556693     3.549050
      3.541407     3.533763     3.526120     3.518477     3.510834     3.503191     3.495547     3.487904     3.480261     3.472618
      3.464974     3.457331     3.449688     3.442045     3.434402     3.426758     3.419115     3.411472     3.403829     3.396185
      3.388542     3.380899     3.373256     3.365613     3.357969     3.350326     3.342683     3.335040     3.327396     3.319753
      3.312110     3.304467     3.296824     3.289180     3.281537     3.273894     3.266251     3.258607     3.250964     3.243321
      3.235678     3.228034     3.220391     3.212748     3.205105     3.197462     3.189818     3.182175     3.174532     3.166889
      3.159245     3.151602     3.143959     3.136316     3.128673     3.121029     3.113386     3.105743     3.098100     3.090456
      3.082813     3.075170     3.067527     3.059884     3.052240     3.044597     3.036954     3.029311     3.021667     3.014024
      3.006381     2.998738     2.991095     2.983451     2.975808     2.968165     2.960522     2.952878     2.945235     2.937592
      2.929949     2.922306     2.914662     2.907019     2.899376     2.891733     2.884089     2.876446     2.868803     2.861160
      2.853517     2.845873     2.838230     2.830587     2.822944     2.815300     2.807657     2.800014     2.792371     2.784728
      2.777084     2.769441     2.761798     2.754155     2.746511     2.738868     2.731225     2.723582     2.715939     2.708295
      2.700652     2.693009     2.685366     2.677722     2.670079     2.662436     2.654793     2.647150     2.639506     2.631863
      2.624220     2.616577     2.608933     2.601290     2.593647     2.586004     2.578361     2.570717     2.563074     2.555431
      2.547788     2.540144     2.532501     2.524858     2.517215     2.509572     2.501928     2.494285     2.486642     2.478999
      2.471355     2.463712     2.456069     2.448426     2.440783     2.433139     2.425496     2.417853     2.410210     2.402566
      2.394923     2.387280     2.379637     2.371994     2.364350     2.356707     2.349064     2.341421     2.333777     2.326134
      2.318491     2.310848     2.303205     2.295561     2.287918     2.280275     2.272632     2.264988     2.257345     2.249702
      2.242059     2.234416     2.226772     2.219129     2.211486     2.203843     2.196199     2.188556     2.180913     2.173270
      2.165627     2.157983     2.150340     2.142697     2.135054     2.127410     2.119767     2.112124     2.104481     2.096838
      2.089194     2.081551     2.073908     2.066265     2.058621     2.050978     2.043335     2.035692     2.028049     2.020405
      2.012762     2.005119     1.997476     1.989833     1.982190     1.974546     1.966903     1.959260     1.951617     1.943974
      1.936331     1.928688     1.921045     1.913402     1.905759     1.898115     1.890472     1.882829     1.875186     1.867543
      1.859900     1.852257     1.844614     1.836971     1.829327     1.821684     1.814041     1.806398     1.798755     1.791112
      1.783469     1.775826     1.768183     1.760540     1.752896     1.745253     1.737610     1.729967     1.722324     1.714681
      1.707038     1.699395     1.691752     1.684108     1.676465     1.668822     1.661179     1.653536     1.645893     1.638250
      1.630607     1.622964     1.615321     1.607677     1.600034     1.592391     1.584748     1.577105     1.569462     1.561819
      1.554176     1.546533     1.538890     1.531246     1.523603     1.515960     1.508317     1.500674     1.493031     1.485388
      1.477745     1.470102     1.462458     1.454815     1.447172     1.439529     1.431886     1.424243     1.416600     1.408957
      1.401314     1.393671     1.386027     1.378384     1.370741     1.363098     1.355455     1.347812     1.340169     1.332526
      1.324883     1.317240     1.309596     1.301953     1.294310     1.286667     1.279024     1.271381     1.263738     1.256095
      1.248452     1.240808     1.233165     1.225522     1.217879     1.210236     1.202593     1.194950     1.187307     1.179664
      1.172021     1.164377     1.156734     1.149091     1.141448     1.133805     1.126162     1.118519     1.110876     1.103233
      1.095590     1.087946     1.080303     1.072660     1.065017     1.057374     1.049731     1.042088     1.034445     1.026802
      1.019158     1.011515     1.003872     0.996229     0.988586     0.980943     0.973300     0.965657     0.958014     0.950371
      0.942727     0.935084     0.927441     0.919798     0.912155     0.904512     0.896869     0.889226     0.881583     0.873940
      0.866296     0.858653     0.851010     0.843367     0.835724     0.828081     0.820438     0.812795     0.805152     0.797508
      0.789865     0.782222     0.774579     0.766936     0.759293     0.751650     0.744007     0.736364     0.728721     0.721077
      0.713434     0.705791     0.698148     0.690505     0.682862     0.675219     0.667576     0.659933     0.652290     0.644646
      0.637003     0.629360     0.621717     0.614074     0.606431     0.598788     0.591145     0.583502     0.575858     0.568215
      0.560572     0.552929     0.545286     0.537643     0.530000     0.522357     0.514714     0.507071     0.499427     0.491784
      0.484141     0.476498     0.468855     0.461212     0.453569     0.445925     0.438282     0.430639     0.422996     0.415353
      0.407710     0.400067     0.392424     0.384780     0.377137     0.369494     0.361851     0.354208     0.346565     0.338922
      0.331278     0.323635     0.315992     0.308349     0.300706     0.293063     0.285420     0.277777     0.270133     0.262490
      0.254847     0.247204     0.239561     0.231918     0.224275     0.216631     0.208988     0.201345
 NY phased data points follow
  -2.74463E+01 -3.51040E+01 -1.96184E+01 -2.03779E+01 -1.94740E+01 -4.23813E-02  3.68460E+00  6.11555E+00  3.06838E+01  2.44789E+01
   3.01878E+01  1.69125E+01  9.52092E+00 -3.41908E+00  1.13760E+00 -1.22872E+01 -5.49493E+00 -2.46306E+01 -1.99469E+01 -2.12650E+01
  -2.16780E+01 -1.88720E+01 -1.78460E+01 -2.01558E+01 -9.93672E+00 -1.71577E+01 -1.18866E+01 -9.04296E+00 -5.22430E+00 -6.42605E+00
  -5.60058E+00 -1.15108E+01 -6.21555E+00 -1.03611E+01 -7.46190E+00 -1.19164E+01 -1.18005E+01 -1.09847E+01 -9.95771E+00 -1.27045E+01
  -1.61606E+01 -1.27936E+01 -8.92065E+00 -5.47983E+00 -1.17064E+00  1.29102E+00  4.51337E+00  2.27050E+00  8.60540E+00  2.54501E+00
  -6.29315E+00 -4.47970E+00 -1.09795E+01 -1.92535E+01 -1.18032E+01 -7.17548E+00 -5.95340E+00 -2.13320E+01 -1.10513E+01 -2.06378E+01
  -1.81048E+01 -2.73046E+01 -2.56227E+01 -2.90536E+01 -3.60788E+01 -3.56653E+01 -3.34025E+01 -2.05569E+01 -2.97728E+01 -2.37035E+01
  -2.59575E+01 -2.47060E+01 -2.12758E+01 -2.15392E+01 -2.48133E+01 -1.77333E+01 -1.75502E+01 -1.54494E+01 -2.20477E+01 -1.74067E+01
  -1.28542E+01 -1.63189E+01 -1.52880E+01 -4.70679E+00 -8.35997E+00 -1.48424E+01 -1.13312E+01 -3.20142E+00 -1.08361E+01 -1.46384E+00
  -1.48629E+00 -8.92564E+00 -7.91677E+00 -5.46117E+00  1.39795E+00 -6.78704E+00  5.43539E+00  5.21741E+00  2.37158E+01  2.88480E+01
   5.31769E+01  8.27246E+01  1.04683E+02  9.76651E+01  9.40440E+01  6.53910E+01  4.48517E+01  3.59601E+01  1.19211E+01  2.66298E+00
  -5.36879E+00  1.65933E+00 -4.36126E+00 -1.13586E+01 -8.15852E+00 -2.02626E+00 -9.33184E+00 -7.03001E+00 -9.28460E+00  6.03442E-01
  -8.04608E-01  8.55538E+00  5.36199E+00  1.68411E+01  4.32193E+01  6.00849E+01  7.70003E+01  8.82255E+01  8.33236E+01  6.87253E+01
   4.80068E+01  2.59402E+01  4.91298E+00 -2.57796E-02 -3.54636E+00 -2.62161E+00 -6.76446E+00 -7.77642E+00 -1.19959E+01 -1.65040E+01
  -7.55217E+00 -8.74583E+00 -1.06924E+01 -1.17608E+01 -6.30385E+00 -1.26995E+01 -1.44186E+01 -6.89714E+00 -9.06150E+00 -1.43684E+01
  -1.00366E+01 -1.14072E+01 -1.66036E+01 -1.04902E+01 -2.80753E+00 -2.03391E+01 -1.34772E+01 -1.53123E+01 -2.02066E+01 -1.17922E+01
  -2.05313E+01 -1.29550E+01 -1.26250E+01 -1.48209E+01 -1.92034E+01 -1.22612E+01 -1.69302E+01 -1.92222E+01 -2.36669E+01 -2.52718E+01
  -3.00664E+01 -3.43873E+01 -2.68802E+01 -3.99267E+01 -3.96231E+01 -4.43645E+01 -3.68832E+01 -3.52103E+01 -3.26914E+01 -2.84441E+01
  -2.94851E+01 -2.91791E+01 -2.62115E+01 -2.69135E+01 -2.24528E+01 -2.60544E+01 -3.21248E+01 -2.37750E+01 -1.78104E+01 -7.78227E+00
  -1.19965E+01  3.04955E+00  7.80477E+00  5.04404E+00 -4.89853E+00 -7.49510E+00 -1.20295E+01 -1.63750E+01 -1.17711E+01 -7.84802E+00
  -6.55964E+00 -6.53783E+00  1.65126E+00 -3.87567E+00  2.80666E+00 -2.02796E+00 -9.27588E-01 -7.96592E+00 -8.30119E+00 -4.29850E+00
  -6.99851E+00 -3.24125E+00  6.93096E+00  7.25932E+00  1.80329E+01  2.87607E+01  2.68445E+01  2.37905E+01  1.59807E+01  9.26555E+00
  -4.88674E+00 -1.53109E+01  1.89643E+00 -1.47707E+01 -1.79755E+00  5.14997E+00  1.22335E+01  1.79136E+01  2.14029E+01  1.88340E+01
   2.70041E+01  2.24299E+01  1.47404E+01  1.34684E+01  1.72433E+01  2.53715E+01  2.30586E+01  1.93102E+01  1.65595E+01  1.46130E+01
   1.05118E+01  1.01794E+01  6.90743E+00  1.04114E+01  1.19438E+01  1.74734E+01  1.91990E+01  3.79092E+01  3.04304E+01  2.94477E+01
   2.10956E+01  3.28919E+01  3.27535E+01  4.27802E+01  5.86407E+01  7.85624E+01  9.08138E+01  1.18227E+02  1.47299E+02  1.72757E+02
   2.07723E+02  1.97361E+02  1.81771E+02  1.45843E+02  1.08756E+02  8.31566E+01  6.99324E+01  4.29827E+01  2.71880E+01  2.06626E+01
   2.52296E+01  1.67060E+01  1.85946E+01  2.43499E+01  1.41207E+01  2.08092E+01  1.29474E+01  1.61330E+01  1.87049E+01  6.80455E+00
   9.16016E+00  1.28127E+01  1.29048E+01  6.70684E+00  1.27623E+01  1.20452E+01  9.30444E-01  1.29118E+01  1.50337E+01  1.01246E+01
   8.51780E+00  1.46956E+01  1.57246E+01  1.31178E+01  1.78024E+01  1.07612E+01  1.61462E+01  7.69450E+00  9.86474E+00  1.11967E+01
   1.05093E+01  2.14314E+01  1.60420E+01  1.10779E+01  1.73227E+01  1.49361E+01  1.59009E+01  1.25558E+01  2.22249E+01  2.23957E+01
   1.24743E+01  1.44117E+01  1.62918E+01  1.60653E+01  2.44842E+01  1.75323E+01  1.74409E+01  1.95727E+01  2.28968E+01  2.22893E+01
   1.77087E+01  1.47130E+01  1.65683E+01  2.41806E+01  1.73122E+01  1.97367E+01  2.23368E+01  6.00063E+00  1.62339E+01  1.28622E+01
   7.81917E+00  1.31046E+01  5.33991E+00  1.18389E+01  1.60075E+01  1.65719E+01  1.23352E+01  1.29518E+01  1.86243E+01  2.05866E+01
   2.35071E+01  1.98106E+01  2.01601E+01  1.92677E+01  2.49384E+01  2.79593E+01  2.68058E+01  2.78803E+01  3.02122E+01  1.74572E+01
   3.02403E+01  2.25060E+01  1.91896E+01  1.95449E+01  2.40820E+01  3.28197E+01  2.25423E+01  3.46257E+01  2.23715E+01  3.23902E+01
   2.84835E+01  3.07586E+01  2.67937E+01  2.93938E+01  3.06650E+01  2.29639E+01  2.93082E+01  3.36892E+01  2.77814E+01  3.82538E+01
   2.16411E+01  2.55661E+01  2.95965E+01  2.02495E+01  1.52079E+01  2.12964E+01  2.35011E+01  2.37104E+01  2.96860E+01  2.33870E+01
   1.34047E+01  1.30992E+01  1.46628E+01  1.03008E+01  1.37211E+01  1.73591E+01  1.63860E+01  1.83938E+01  1.53058E+01  1.52958E+01
   2.18713E+01  2.16285E+01  1.68312E+01  1.88037E+01  1.57443E+01  1.64114E+01  2.17155E+01  2.29238E+01  2.10786E+01  2.41093E+01
   1.44898E+01  2.15171E+01  1.75694E+01  1.87739E+01  1.04276E+01  2.63564E+01  2.39791E+01  2.93346E+01  1.94811E+01  2.77055E+01
   2.32495E+01  2.85867E+01  2.02506E+01  2.57357E+01  2.69457E+01  2.95033E+01  2.12970E+01  1.72675E+01  2.58353E+01  2.51048E+01
   1.54401E+01  2.31343E+01  1.91975E+01  1.12115E+01  9.64676E+00  1.47316E+01  1.76064E+01  1.34092E+01  1.41833E+01  1.31001E+01
   2.05815E+01  1.32618E+01  1.06781E+01  1.49016E+01  1.26100E+01  1.16615E+01  9.05419E+00  6.70731E+00  1.77763E+01  1.61482E+01
   7.78336E+00  1.60621E+01  9.31182E+00  1.64295E+01  1.07866E+01  1.32112E+01  7.93867E+00  1.73916E+01  1.42358E+01  1.79306E+01
   1.00859E+01  1.33848E+01  1.60467E+01  1.74473E+01  1.50011E+01  1.39559E+01  7.42174E+00  8.33209E+00  1.20730E+01  8.50665E+00
   2.27384E+01  1.48700E+01  9.24741E+00  1.30929E+01  9.78815E+00  1.15003E+01  1.23592E+01  1.07347E+01  1.26614E+01  5.20579E+00
   1.17658E+01  1.03359E+01  1.11133E+01  8.84822E+00  5.54235E+00  7.79839E+00  4.23964E+00  2.66966E+01  1.23575E+01  1.14725E+01
   8.32359E+00  1.21066E+01  8.69973E+00  8.57044E+00  1.18064E+01  1.69121E+01  4.92638E+00  1.09512E+01  1.60850E+01  7.13921E+00
   1.32532E+01  1.20428E+01  5.49734E+00  1.38444E+01  6.49256E+00  1.17557E+01  1.72141E+01  5.45250E+00
 NY points of the fit to the data follow
  -2.52827E+01 -2.46932E+01 -2.17366E+01 -1.70159E+01 -1.15660E+01 -4.75886E+00  3.98725E+00  1.38504E+01  2.24717E+01  2.69376E+01
   2.56518E+01  1.93161E+01  1.04336E+01  1.82866E+00 -4.90319E+00 -9.80129E+00 -1.36789E+01 -1.68606E+01 -1.85275E+01 -1.90456E+01
  -1.93114E+01 -1.96270E+01 -1.95485E+01 -1.88656E+01 -1.81207E+01 -1.70840E+01 -1.51601E+01 -1.20602E+01 -8.12186E+00 -4.27125E+00
  -1.32037E+00  1.95881E-01 -7.81161E-02 -1.94308E+00 -5.04258E+00 -8.96343E+00 -1.30998E+01 -1.69720E+01 -1.95040E+01 -1.99233E+01
  -1.85839E+01 -1.61653E+01 -1.33339E+01 -1.02091E+01 -6.78630E+00 -3.42485E+00 -8.68165E-01 -6.51756E-02 -1.55352E+00 -4.94006E+00
  -9.26975E+00 -1.33501E+01 -1.63106E+01 -1.81636E+01 -1.91776E+01 -1.94060E+01 -1.88537E+01 -1.77595E+01 -1.65749E+01 -1.57273E+01
  -1.55581E+01 -1.62323E+01 -1.75805E+01 -1.91626E+01 -2.03918E+01 -2.09098E+01 -2.07939E+01 -2.02359E+01 -1.93630E+01 -1.83584E+01
  -1.74135E+01 -1.67305E+01 -1.64566E+01 -1.65841E+01 -1.69911E+01 -1.74847E+01 -1.78824E+01 -1.81190E+01 -1.81865E+01 -1.80441E+01
  -1.72356E+01 -1.59647E+01 -1.46111E+01 -1.29077E+01 -1.05952E+01 -7.94448E+00 -5.74507E+00 -4.88879E+00 -5.73019E+00 -7.78477E+00
  -1.01818E+01 -1.20868E+01 -1.31096E+01 -1.33408E+01 -1.27812E+01 -9.72492E+00 -1.84458E+00  8.32939E+00  2.03957E+01  3.68059E+01
   5.81978E+01  8.08197E+01  9.75789E+01  1.01962E+02  9.23898E+01  7.27860E+01  4.98939E+01  2.95139E+01  1.38592E+01  2.06357E+00
  -7.21547E+00 -1.34323E+01 -1.55817E+01 -1.59581E+01 -1.58824E+01 -1.56194E+01 -1.52317E+01 -1.46754E+01 -1.37542E+01 -1.13889E+01
  -5.10806E+00  3.51802E+00  1.32936E+01  2.59417E+01  4.26689E+01  6.14694E+01  7.72003E+01  8.39787E+01  7.92713E+01  6.53838E+01
   4.75522E+01  3.07719E+01  1.73032E+01  6.51384E+00 -2.77008E+00 -1.01696E+01 -1.37136E+01 -1.44305E+01 -1.37788E+01 -1.24441E+01
  -1.10589E+01 -1.00548E+01 -9.56641E+00 -9.60849E+00 -1.00493E+01 -1.06412E+01 -1.12462E+01 -1.18364E+01 -1.23664E+01 -1.28328E+01
  -1.31862E+01 -1.34491E+01 -1.36247E+01 -1.37268E+01 -1.38913E+01 -1.40832E+01 -1.42415E+01 -1.44590E+01 -1.48262E+01 -1.54893E+01
  -1.62808E+01 -1.67011E+01 -1.64555E+01 -1.57364E+01 -1.50709E+01 -1.49747E+01 -1.56195E+01 -1.67549E+01 -1.79691E+01 -1.90586E+01
  -2.00404E+01 -2.08163E+01 -2.15442E+01 -2.23660E+01 -2.31844E+01 -2.37004E+01 -2.35597E+01 -2.28251E+01 -2.19715E+01 -2.14384E+01
  -2.14079E+01 -2.14948E+01 -2.11873E+01 -2.04326E+01 -1.93982E+01 -1.81482E+01 -1.64435E+01 -1.38596E+01 -1.05029E+01 -7.08684E+00
  -4.51250E+00 -3.33108E+00 -3.42042E+00 -4.31180E+00 -5.41552E+00 -6.29145E+00 -6.68156E+00 -6.18977E+00 -4.74884E+00 -2.61089E+00
  -1.00389E-01  2.39543E+00  4.42181E+00  5.34022E+00  4.94291E+00  2.99275E+00 -5.95855E-01 -5.06535E+00 -9.06747E+00 -1.11767E+01
  -1.09282E+01 -8.66288E+00 -4.37048E+00  1.75881E+00  8.44784E+00  1.35214E+01  1.50276E+01  1.25100E+01  6.75843E+00 -1.11652E+00
  -9.06434E+00 -1.50140E+01 -1.75506E+01 -1.60131E+01 -1.09634E+01 -3.73769E+00  3.68751E+00  9.45437E+00  1.29411E+01  1.45879E+01
   1.52997E+01  1.54553E+01  1.53649E+01  1.56732E+01  1.66881E+01  1.79847E+01  1.89598E+01  1.93621E+01  1.91367E+01  1.82103E+01
   1.66668E+01  1.52399E+01  1.48333E+01  1.58262E+01  1.79429E+01  2.06340E+01  2.34035E+01  2.56388E+01  2.71040E+01  2.81905E+01
   2.93229E+01  3.08838E+01  3.39845E+01  4.27226E+01  5.81192E+01  7.51501E+01  9.42844E+01  1.19212E+02  1.50051E+02  1.80342E+02
   1.99649E+02  1.99791E+02  1.80420E+02  1.48542E+02  1.14252E+02  8.50681E+01  6.27362E+01  4.51634E+01  3.08120E+01  2.16516E+01
   1.81178E+01  1.64964E+01  1.56170E+01  1.52243E+01  1.50483E+01  1.48153E+01  1.44600E+01  1.39595E+01  1.33529E+01  1.27199E+01
   1.21286E+01  1.16060E+01  1.11853E+01  1.08967E+01  1.07186E+01  1.06045E+01  1.05261E+01  1.04844E+01  1.04927E+01  1.05567E+01
   1.06732E+01  1.08523E+01  1.10953E+01  1.13947E+01  1.17391E+01  1.21197E+01  1.25318E+01  1.29714E+01  1.34337E+01  1.39146E+01
   1.44077E+01  1.49048E+01  1.53938E+01  1.58598E+01  1.62880E+01  1.66661E+01  1.69854E+01  1.72400E+01  1.74267E+01  1.75454E+01
   1.75981E+01  1.75881E+01  1.75218E+01  1.74090E+01  1.72613E+01  1.70929E+01  1.69208E+01  1.67666E+01  1.66611E+01  1.66617E+01
   1.68662E+01  1.71593E+01  1.73628E+01  1.75680E+01  1.77890E+01  1.77901E+01  1.72008E+01  1.57690E+01  1.37447E+01  1.17630E+01
   1.02174E+01  9.41465E+00  9.58348E+00  1.07717E+01  1.28117E+01  1.53400E+01  1.78877E+01  1.99312E+01  2.11913E+01  2.18897E+01
   2.24338E+01  2.30201E+01  2.35428E+01  2.40074E+01  2.45323E+01  2.51153E+01  2.54120E+01  2.51471E+01  2.44398E+01  2.36434E+01
   2.30257E+01  2.28638E+01  2.33608E+01  2.45260E+01  2.61663E+01  2.79526E+01  2.95489E+01  3.06506E+01  3.10795E+01  3.09899E+01
   3.06186E+01  3.01114E+01  2.94924E+01  2.87468E+01  2.79707E+01  2.72454E+01  2.65271E+01  2.57962E+01  2.50517E+01  2.42993E+01
   2.35468E+01  2.28033E+01  2.20776E+01  2.13776E+01  2.07109E+01  2.00841E+01  1.95030E+01  1.89722E+01  1.84954E+01  1.80754E+01
   1.77143E+01  1.74141E+01  1.71760E+01  1.70010E+01  1.68897E+01  1.68426E+01  1.68601E+01  1.69426E+01  1.70901E+01  1.73022E+01
   1.75778E+01  1.79153E+01  1.83122E+01  1.87649E+01  1.92684E+01  1.98159E+01  2.03993E+01  2.10085E+01  2.16323E+01  2.22578E+01
   2.28707E+01  2.34560E+01  2.39985E+01  2.44832E+01  2.48964E+01  2.52255E+01  2.54598E+01  2.55913E+01  2.56152E+01  2.55297E+01
   2.53364E+01  2.50400E+01  2.46479E+01  2.41701E+01  2.36187E+01  2.30074E+01  2.23504E+01  2.16620E+01  2.09561E+01  2.02456E+01
   1.95426E+01  1.88571E+01  1.81976E+01  1.75704E+01  1.69805E+01  1.64309E+01  1.59235E+01  1.54584E+01  1.50351E+01  1.46517E+01
   1.43063E+01  1.39963E+01  1.37191E+01  1.34716E+01  1.32511E+01  1.30545E+01  1.28795E+01  1.27236E+01  1.25847E+01  1.24608E+01
   1.23499E+01  1.22506E+01  1.21615E+01  1.20814E+01  1.20094E+01  1.19444E+01  1.18856E+01  1.18322E+01  1.17837E+01  1.17397E+01
   1.16997E+01  1.16631E+01  1.16295E+01  1.15988E+01  1.15707E+01  1.15450E+01  1.15214E+01  1.14997E+01  1.14796E+01  1.14612E+01
   1.14443E+01  1.14288E+01  1.14145E+01  1.14012E+01  1.13889E+01  1.13777E+01  1.13675E+01  1.13581E+01  1.13494E+01  1.13414E+01
   1.13340E+01  1.13273E+01  1.13214E+01  1.13159E+01  1.13109E+01  1.13064E+01  1.13024E+01  1.12988E+01  1.12958E+01  1.12931E+01
   1.12907E+01  1.12887E+01  1.12871E+01  1.12858E+01  1.12850E+01  1.12843E+01  1.12839E+01  1.12839E+01  1.12842E+01  1.12849E+01
   1.12858E+01  1.12869E+01  1.12883E+01  1.12900E+01  1.12921E+01  1.12945E+01  1.12971E+01  1.13000E+01
 NY background values follow
    -3.502E+01   -3.488E+01   -3.474E+01   -3.460E+01   -3.447E+01   -3.433E+01   -3.419E+01   -3.405E+01   -3.392E+01   -3.378E+01
    -3.364E+01   -3.351E+01   -3.337E+01   -3.323E+01   -3.310E+01   -3.296E+01   -3.282E+01   -3.269E+01   -3.255E+01   -3.242E+01
    -3.228E+01   -3.214E+01   -3.201E+01   -3.187E+01   -3.174E+01   -3.160E+01   -3.147E+01   -3.134E+01   -3.120E+01   -3.107E+01
    -3.093E+01   -3.080E+01   -3.067E+01   -3.053E+01   -3.040E+01   -3.027E+01   -3.014E+01   -3.000E+01   -2.987E+01   -2.974E+01
    -2.961E+01   -2.948E+01   -2.935E+01   -2.921E+01   -2.908E+01   -2.895E+01   -2.882E+01   -2.869E+01   -2.856E+01   -2.844E+01
    -2.831E+01   -2.818E+01   -2.805E+01   -2.792E+01   -2.779E+01   -2.767E+01   -2.754E+01   -2.741E+01   -2.729E+01   -2.716E+01
    -2.703E+01   -2.691E+01   -2.678E+01   -2.666E+01   -2.653E+01   -2.641E+01   -2.629E+01   -2.616E+01   -2.604E+01   -2.592E+01
    -2.580E+01   -2.567E+01   -2.555E+01   -2.543E+01   -2.531E+01   -2.519E+01   -2.507E+01   -2.495E+01   -2.483E+01   -2.471E+01
    -2.459E+01   -2.448E+01   -2.436E+01   -2.424E+01   -2.413E+01   -2.401E+01   -2.389E+01   -2.378E+01   -2.366E+01   -2.355E+01
    -2.344E+01   -2.332E+01   -2.321E+01   -2.310E+01   -2.298E+01   -2.287E+01   -2.276E+01   -2.265E+01   -2.254E+01   -2.243E+01
    -2.232E+01   -2.221E+01   -2.210E+01   -2.199E+01   -2.188E+01   -2.178E+01   -2.167E+01   -2.156E+01   -2.145E+01   -2.135E+01
    -2.124E+01   -2.113E+01   -2.103E+01   -2.092E+01   -2.081E+01   -2.071E+01   -2.060E+01   -2.050E+01   -2.039E+01   -2.029E+01
    -2.018E+01   -2.008E+01   -1.997E+01   -1.987E+01   -1.976E+01   -1.966E+01   -1.955E+01   -1.945E+01   -1.934E+01   -1.924E+01
    -1.913E+01   -1.903E+01   -1.893E+01   -1.882E+01   -1.872E+01   -1.861E+01   -1.851E+01   -1.840E+01   -1.830E+01   -1.819E+01
    -1.809E+01   -1.798E+01   -1.788E+01   -1.777E+01   -1.767E+01   -1.756E+01   -1.745E+01   -1.734E+01   -1.724E+01   -1.713E+01
    -1.702E+01   -1.691E+01   -1.680E+01   -1.668E+01   -1.657E+01   -1.646E+01   -1.634E+01   -1.623E+01   -1.611E+01   -1.600E+01
    -1.588E+01   -1.576E+01   -1.564E+01   -1.552E+01   -1.539E+01   -1.527E+01   -1.514E+01   -1.502E+01   -1.489E+01   -1.476E+01
    -1.463E+01   -1.449E+01   -1.436E+01   -1.422E+01   -1.409E+01   -1.395E+01   -1.381E+01   -1.366E+01   -1.352E+01   -1.337E+01
    -1.322E+01   -1.307E+01   -1.292E+01   -1.277E+01   -1.261E+01   -1.245E+01   -1.229E+01   -1.213E+01   -1.197E+01   -1.180E+01
    -1.164E+01   -1.147E+01   -1.130E+01   -1.113E+01   -1.096E+01   -1.079E+01   -1.062E+01   -1.045E+01   -1.027E+01   -1.010E+01
    -9.920E+00   -9.744E+00   -9.567E+00   -9.389E+00   -9.212E+00   -9.033E+00   -8.855E+00   -8.676E+00   -8.498E+00   -8.319E+00
    -8.140E+00   -7.961E+00   -7.782E+00   -7.604E+00   -7.426E+00   -7.248E+00   -7.071E+00   -6.894E+00   -6.718E+00   -6.542E+00
    -6.368E+00   -6.194E+00   -6.020E+00   -5.848E+00   -5.677E+00   -5.507E+00   -5.338E+00   -5.170E+00   -5.003E+00   -4.838E+00
    -4.674E+00   -4.510E+00   -4.349E+00   -4.188E+00   -4.028E+00   -3.870E+00   -3.713E+00   -3.557E+00   -3.402E+00   -3.249E+00
    -3.096E+00   -2.945E+00   -2.795E+00   -2.645E+00   -2.498E+00   -2.351E+00   -2.205E+00   -2.061E+00   -1.917E+00   -1.775E+00
    -1.634E+00   -1.494E+00   -1.355E+00   -1.217E+00   -1.080E+00   -9.442E-01   -8.096E-01   -6.761E-01   -5.436E-01   -4.123E-01
    -2.820E-01   -1.527E-01   -2.458E-02    1.025E-01    2.286E-01    3.536E-01    4.776E-01    6.005E-01    7.224E-01    8.432E-01
     9.630E-01    1.082E+00    1.200E+00    1.316E+00    1.432E+00    1.547E+00    1.661E+00    1.773E+00    1.885E+00    1.996E+00
     2.105E+00    2.214E+00    2.322E+00    2.428E+00    2.534E+00    2.639E+00    2.742E+00    2.845E+00    2.947E+00    3.047E+00
     3.147E+00    3.246E+00    3.343E+00    3.440E+00    3.536E+00    3.630E+00    3.724E+00    3.817E+00    3.909E+00    3.999E+00
     4.089E+00    4.178E+00    4.266E+00    4.353E+00    4.439E+00    4.523E+00    4.607E+00    4.690E+00    4.772E+00    4.853E+00
     4.933E+00    5.013E+00    5.091E+00    5.168E+00    5.244E+00    5.319E+00    5.394E+00    5.467E+00    5.539E+00    5.611E+00
     5.681E+00    5.751E+00    5.820E+00    5.887E+00    5.954E+00    6.020E+00    6.085E+00    6.149E+00    6.213E+00    6.275E+00
     6.337E+00    6.397E+00    6.457E+00    6.516E+00    6.575E+00    6.632E+00    6.689E+00    6.744E+00    6.799E+00    6.854E+00
     6.907E+00    6.960E+00    7.011E+00    7.063E+00    7.113E+00    7.162E+00    7.211E+00    7.259E+00    7.307E+00    7.354E+00
     7.399E+00    7.445E+00    7.489E+00    7.533E+00    7.576E+00    7.619E+00    7.661E+00    7.702E+00    7.743E+00    7.783E+00
     7.822E+00    7.861E+00    7.899E+00    7.936E+00    7.973E+00    8.009E+00    8.045E+00    8.080E+00    8.115E+00    8.149E+00
     8.182E+00    8.216E+00    8.248E+00    8.280E+00    8.312E+00    8.343E+00    8.373E+00    8.404E+00    8.433E+00    8.463E+00
     8.492E+00    8.520E+00    8.549E+00    8.576E+00    8.604E+00    8.631E+00    8.658E+00    8.684E+00    8.710E+00    8.736E+00
     8.762E+00    8.787E+00    8.812E+00    8.837E+00    8.862E+00    8.886E+00    8.910E+00    8.934E+00    8.958E+00    8.981E+00
     9.005E+00    9.028E+00    9.051E+00    9.074E+00    9.097E+00    9.120E+00    9.142E+00    9.165E+00    9.187E+00    9.210E+00
     9.232E+00    9.254E+00    9.277E+00    9.299E+00    9.321E+00    9.342E+00    9.364E+00    9.386E+00    9.407E+00    9.429E+00
     9.450E+00    9.471E+00    9.492E+00    9.513E+00    9.534E+00    9.555E+00    9.575E+00    9.595E+00    9.616E+00    9.636E+00
     9.656E+00    9.675E+00    9.695E+00    9.714E+00    9.733E+00    9.753E+00    9.771E+00    9.790E+00    9.809E+00    9.827E+00
     9.845E+00    9.863E+00    9.881E+00    9.898E+00    9.915E+00    9.932E+00    9.949E+00    9.966E+00    9.982E+00    9.998E+00
     1.001E+01    1.003E+01    1.005E+01    1.006E+01    1.008E+01    1.009E+01    1.010E+01    1.012E+01    1.013E+01    1.015E+01
     1.016E+01    1.017E+01    1.019E+01    1.020E+01    1.021E+01    1.023E+01    1.024E+01    1.025E+01    1.026E+01    1.028E+01
     1.029E+01    1.030E+01    1.031E+01    1.032E+01    1.034E+01    1.035E+01    1.036E+01    1.037E+01    1.038E+01    1.039E+01
     1.040E+01    1.041E+01    1.042E+01    1.044E+01    1.045E+01    1.046E+01    1.047E+01    1.048E+01    1.049E+01    1.050E+01
     1.051E+01    1.052E+01    1.053E+01    1.054E+01    1.055E+01    1.056E+01    1.057E+01    1.058E+01
 Ala      Conc. = 4.58E+02
