 LCModel (Version 6.3-1L) Copyright: S.W. Provencher.          Ref.: Magn. Reson. Med. 30:672-679 (1993).                
 Slice#3 Row#5 Col#2  PD_05_press_2_raw_act
 36 lines in following concentration table = NCONC+1
    Conc.  %SD /Cr+PCr  Metabolite                                         
  261.335  73%   0.136 Ala                                                 
    0.000 999%   0.000 Asp                                                 
  979.942  40%   0.510 Cr                                                  
  941.924  44%   0.490 PCr                                                 
   65.010 320% 3.4E-02 GABA                                                
  146.530 141% 7.6E-02 Glc                                                 
  471.662  83%   0.245 Gln                                                 
 1.78E+03  26%   0.928 Glu                                                 
  531.180   8%   0.276 GPC                                                 
    0.000 999%   0.000 PCh                                                 
  673.369  20%   0.350 GSH                                                 
  793.341  58%   0.413 Ins                                                 
  114.758 181% 6.0E-02 Lac                                                 
 2.93E+03   7%   1.526 NAA                                                 
  129.786 180% 6.8E-02 NAAG                                                
  100.557  45% 5.2E-02 Scyllo                                              
  144.243 217% 7.5E-02 Tau                                                 
   48.255 412% 2.5E-02 -CrCH2                                              
  531.180   8%   0.276 GPC+PCh                                             
 3.06E+03   5%   1.593 NAA+NAAG                                            
 1.92E+03   6%   1.000 Cr+PCr                                              
 2.25E+03  28%   1.173 Glu+Gln                                             
    0.000 999%   0.000 Lip13a                                              
    0.000 999%   0.000 Lip13b                                              
    0.000 999%   0.000 Lip09                                               
 2.37E+03  16%   1.232 MM09                                                
 7.85E-03 999% 4.1E-06 Lip20                                               
 5.17E+03  15%   2.688 MM20                                                
    0.000 999%   0.000 MM12                                                
 4.41E+03  18%   2.293 MM14                                                
 4.11E+03  16%   2.136 MM17                                                
    0.000 999%   0.000 Lip13a+Lip13b                                       
 4.41E+03  18%   2.293 MM14+Lip13a+Lip13b+MM12                             
 2.37E+03  16%   1.232 MM09+Lip09                                          
 5.17E+03  15%   2.688 MM20+Lip20                                          
   6 lines in following misc. output table
  FWHM = 0.054 ppm    S/N =   9                                            
  Data shift = 0.008 ppm                                                   
  Ph: -20 deg      -9.7 deg/ppm                                            
  alphaB,S = 3.9E-01,   4.9E+01                                            
   14 spline knots.   Ns = 7(1)                                            
  ( 7) 2 infls.   ( 1) 1 extrs.                                            
  498 points on ppm-axis = NY
      4.000000     3.992357     3.984714     3.977070     3.969427     3.961784     3.954141     3.946497     3.938854     3.931211
      3.923568     3.915925     3.908281     3.900638     3.892995     3.885352     3.877708     3.870065     3.862422     3.854779
      3.847136     3.839492     3.831849     3.824206     3.816563     3.808919     3.801276     3.793633     3.785990     3.778347
      3.770703     3.763060     3.755417     3.747774     3.740130     3.732487     3.724844     3.717201     3.709558     3.701914
      3.694271     3.686628     3.678985     3.671341     3.663698     3.656055     3.648412     3.640769     3.633125     3.625482
      3.617839     3.610196     3.602552     3.594909     3.587266     3.579623     3.571980     3.564336     3.556693     3.549050
      3.541407     3.533763     3.526120     3.518477     3.510834     3.503191     3.495547     3.487904     3.480261     3.472618
      3.464974     3.457331     3.449688     3.442045     3.434402     3.426758     3.419115     3.411472     3.403829     3.396185
      3.388542     3.380899     3.373256     3.365613     3.357969     3.350326     3.342683     3.335040     3.327396     3.319753
      3.312110     3.304467     3.296824     3.289180     3.281537     3.273894     3.266251     3.258607     3.250964     3.243321
      3.235678     3.228034     3.220391     3.212748     3.205105     3.197462     3.189818     3.182175     3.174532     3.166889
      3.159245     3.151602     3.143959     3.136316     3.128673     3.121029     3.113386     3.105743     3.098100     3.090456
      3.082813     3.075170     3.067527     3.059884     3.052240     3.044597     3.036954     3.029311     3.021667     3.014024
      3.006381     2.998738     2.991095     2.983451     2.975808     2.968165     2.960522     2.952878     2.945235     2.937592
      2.929949     2.922306     2.914662     2.907019     2.899376     2.891733     2.884089     2.876446     2.868803     2.861160
      2.853517     2.845873     2.838230     2.830587     2.822944     2.815300     2.807657     2.800014     2.792371     2.784728
      2.777084     2.769441     2.761798     2.754155     2.746511     2.738868     2.731225     2.723582     2.715939     2.708295
      2.700652     2.693009     2.685366     2.677722     2.670079     2.662436     2.654793     2.647150     2.639506     2.631863
      2.624220     2.616577     2.608933     2.601290     2.593647     2.586004     2.578361     2.570717     2.563074     2.555431
      2.547788     2.540144     2.532501     2.524858     2.517215     2.509572     2.501928     2.494285     2.486642     2.478999
      2.471355     2.463712     2.456069     2.448426     2.440783     2.433139     2.425496     2.417853     2.410210     2.402566
      2.394923     2.387280     2.379637     2.371994     2.364350     2.356707     2.349064     2.341421     2.333777     2.326134
      2.318491     2.310848     2.303205     2.295561     2.287918     2.280275     2.272632     2.264988     2.257345     2.249702
      2.242059     2.234416     2.226772     2.219129     2.211486     2.203843     2.196199     2.188556     2.180913     2.173270
      2.165627     2.157983     2.150340     2.142697     2.135054     2.127410     2.119767     2.112124     2.104481     2.096838
      2.089194     2.081551     2.073908     2.066265     2.058621     2.050978     2.043335     2.035692     2.028049     2.020405
      2.012762     2.005119     1.997476     1.989833     1.982190     1.974546     1.966903     1.959260     1.951617     1.943974
      1.936331     1.928688     1.921045     1.913402     1.905759     1.898115     1.890472     1.882829     1.875186     1.867543
      1.859900     1.852257     1.844614     1.836971     1.829327     1.821684     1.814041     1.806398     1.798755     1.791112
      1.783469     1.775826     1.768183     1.760540     1.752896     1.745253     1.737610     1.729967     1.722324     1.714681
      1.707038     1.699395     1.691752     1.684108     1.676465     1.668822     1.661179     1.653536     1.645893     1.638250
      1.630607     1.622964     1.615321     1.607677     1.600034     1.592391     1.584748     1.577105     1.569462     1.561819
      1.554176     1.546533     1.538890     1.531246     1.523603     1.515960     1.508317     1.500674     1.493031     1.485388
      1.477745     1.470102     1.462458     1.454815     1.447172     1.439529     1.431886     1.424243     1.416600     1.408957
      1.401314     1.393671     1.386027     1.378384     1.370741     1.363098     1.355455     1.347812     1.340169     1.332526
      1.324883     1.317240     1.309596     1.301953     1.294310     1.286667     1.279024     1.271381     1.263738     1.256095
      1.248452     1.240808     1.233165     1.225522     1.217879     1.210236     1.202593     1.194950     1.187307     1.179664
      1.172021     1.164377     1.156734     1.149091     1.141448     1.133805     1.126162     1.118519     1.110876     1.103233
      1.095590     1.087946     1.080303     1.072660     1.065017     1.057374     1.049731     1.042088     1.034445     1.026802
      1.019158     1.011515     1.003872     0.996229     0.988586     0.980943     0.973300     0.965657     0.958014     0.950371
      0.942727     0.935084     0.927441     0.919798     0.912155     0.904512     0.896869     0.889226     0.881583     0.873940
      0.866296     0.858653     0.851010     0.843367     0.835724     0.828081     0.820438     0.812795     0.805152     0.797508
      0.789865     0.782222     0.774579     0.766936     0.759293     0.751650     0.744007     0.736364     0.728721     0.721077
      0.713434     0.705791     0.698148     0.690505     0.682862     0.675219     0.667576     0.659933     0.652290     0.644646
      0.637003     0.629360     0.621717     0.614074     0.606431     0.598788     0.591145     0.583502     0.575858     0.568215
      0.560572     0.552929     0.545286     0.537643     0.530000     0.522357     0.514714     0.507071     0.499427     0.491784
      0.484141     0.476498     0.468855     0.461212     0.453569     0.445925     0.438282     0.430639     0.422996     0.415353
      0.407710     0.400067     0.392424     0.384780     0.377137     0.369494     0.361851     0.354208     0.346565     0.338922
      0.331278     0.323635     0.315992     0.308349     0.300706     0.293063     0.285420     0.277777     0.270133     0.262490
      0.254847     0.247204     0.239561     0.231918     0.224275     0.216631     0.208988     0.201345
 NY phased data points follow
  -3.43677E+01 -4.48259E+01 -3.67032E+01 -3.52099E+01 -3.01172E+01 -1.59899E+01 -6.67026E+00 -1.58209E+01  4.01648E+00  9.95742E+00
   1.03162E+01  1.01875E+01  1.59157E+01 -2.13697E+00 -2.71486E+00 -1.73390E+01 -1.71617E+01 -3.25285E+01 -1.62807E+01 -3.39233E+01
  -1.96891E+01 -2.75837E+01 -1.94250E+01 -2.54596E+01 -1.43914E+01 -2.32325E+01 -3.22805E+00 -1.70931E+01 -1.94307E+01 -1.98460E+01
  -1.17526E+01 -1.62943E+01 -6.07608E+00 -1.13668E+01 -1.35211E+01 -1.96418E+01 -1.56003E+01 -2.86656E+01 -1.24876E+01 -3.37403E+01
  -1.31655E+01 -1.93070E+01 -2.02661E+01 -1.46462E+01 -1.18713E+01 -1.77301E+01 -1.22234E+01 -1.35585E+01 -1.33226E+01 -1.69685E+01
  -1.05523E+01 -1.63139E+01 -2.06581E+01 -2.00517E+01 -1.83343E+01 -1.60277E+01 -1.56353E+01 -2.01275E+01 -1.78699E+01 -2.06908E+01
  -1.86404E+01 -1.71054E+01 -2.73997E+01 -2.83816E+01 -2.84093E+01 -2.15220E+01 -2.09486E+01 -2.87133E+01 -2.83353E+01 -2.79992E+01
  -3.04194E+01 -2.58242E+01 -2.53644E+01 -1.54887E+01 -1.86079E+01 -2.53532E+01 -1.34091E+01 -1.87860E+01 -2.02785E+01 -2.85123E+01
  -1.89559E+01 -1.81966E+01 -2.20912E+01 -2.36920E+01 -1.80087E+01 -1.46108E+01 -1.58484E+01 -1.84700E+01 -1.50945E+01 -4.14480E+00
  -2.15617E+01 -2.56749E+01 -1.43341E+01 -2.08589E+01 -1.35146E+01 -1.78396E+01 -1.14577E+01 -1.12355E+01 -2.42740E+00  4.43147E-01
   1.68287E+01  1.92715E+01  3.82244E+01  2.29721E+01  2.91067E+01  2.47597E+01  1.21281E+01  6.69781E+00 -5.20849E+00 -4.09983E+00
  -1.75541E+01 -1.16568E+01 -6.49328E+00 -1.07666E+01 -1.26112E+01 -1.93947E+01 -1.22761E+01 -1.05297E+01 -1.23751E+01 -1.65711E+01
  -1.19931E+01 -7.23236E+00  6.33158E+00  8.09937E+00  2.17070E+01  3.54953E+01  4.71206E+01  5.24684E+01  5.31088E+01  4.17251E+01
   3.55543E+01  2.38722E+01  1.03164E+01 -3.92255E+00 -6.74139E+00 -1.85402E+01 -9.66501E+00 -9.17550E+00 -9.06354E+00 -1.57921E+01
  -1.23517E+01 -1.26877E+01 -8.36819E+00 -1.35742E+01 -1.72580E+01 -1.06783E+01 -1.46666E+01 -1.54876E+01 -1.49372E+01 -1.83510E+01
  -1.29847E+01 -1.51415E+01 -1.25064E+01 -1.49865E+01 -1.39262E+01 -1.10013E+01 -7.52358E+00 -1.03556E+01 -3.74651E+00 -1.77627E+01
  -5.47195E+00 -1.67589E+01 -2.32207E+01 -1.65061E+01 -1.24524E+01 -1.60656E+01 -8.00148E+00 -1.08616E+01 -1.09929E+01 -2.31803E+01
  -1.35100E+01 -1.80406E+01 -1.24938E+01 -1.86079E+01 -1.82240E+01 -3.03798E+01 -2.55739E+01 -3.17765E+01 -2.45029E+01 -2.01458E+01
  -2.83951E+01 -3.23883E+01 -2.47675E+01 -2.53077E+01 -1.79281E+01 -2.82059E+01 -2.83893E+01 -1.97054E+01 -9.59236E+00 -9.01466E+00
  -3.39691E+00 -1.19394E+01  4.52201E+00  1.25827E+00 -5.99191E+00 -9.50884E+00 -9.26639E+00 -1.21620E+01 -1.46003E+01 -8.05897E+00
  -5.01427E+00 -1.29160E+01  6.55240E-01 -1.38243E+01  1.52414E-01 -1.02526E+01 -1.97382E+00 -1.67483E+01 -7.21501E+00 -1.98740E+01
  -1.32148E+01 -3.99360E+00 -2.69979E+00 -1.11419E+01 -1.54585E+00 -6.06941E+00  4.85597E+00  1.16484E+00  1.15979E+00 -8.39920E+00
  -3.73893E+00 -1.44649E+01 -6.63230E+00 -1.64932E+01 -1.13102E+01 -8.52448E+00 -9.04725E-01 -1.82640E+00  2.28581E+00 -4.05401E+00
   1.08912E+01 -6.87766E+00 -1.00927E+01 -5.71043E+00 -3.61947E+00 -1.02400E+01 -2.08233E+00  3.75784E+00 -6.23824E+00 -5.29464E+00
  -1.74207E+00 -1.43619E+01 -9.09275E+00 -1.05048E+01 -5.67666E+00  1.22655E+00  1.57046E+00  8.11902E+00  6.42729E+00  1.05561E+01
   6.97493E+00  5.12747E+00  1.38724E+01  1.72252E+01  2.03795E+01  2.60192E+01  3.45378E+01  4.87847E+01  7.08303E+01  9.15190E+01
   9.81144E+01  1.03925E+02  9.49520E+01  7.95156E+01  5.31678E+01  4.52994E+01  2.62022E+01  1.09523E+01  1.39025E+01  5.13864E+00
   7.86271E+00  6.76955E+00  5.21428E+00  4.22102E+00  4.18443E+00 -3.96750E+00  8.24779E+00 -1.01194E-01 -3.62584E+00  6.16029E+00
   7.48204E+00  5.84923E-01 -3.92429E+00 -7.86598E+00  6.39948E+00 -3.51519E+00 -1.52242E+00 -9.80688E-01  2.72575E+00  9.92260E+00
   6.49194E+00  3.85375E+00  3.25056E+00 -5.75231E-01  8.83604E-01  6.20345E+00  1.35243E+00  5.52922E+00  5.87557E+00  4.85457E+00
   6.81286E+00  4.94595E+00  8.06417E+00  2.61891E+00  6.79509E+00  1.17117E+01 -1.19960E+00  2.69571E+00 -1.41324E+00  5.74191E+00
   8.60451E+00  9.60128E+00  1.15879E+01  1.65104E+01  4.36746E+00  1.04399E+01  1.25333E+01  2.26236E+01  1.67979E+01  6.59731E+00
   8.95090E+00  1.13332E+01  1.17500E+01 -4.13601E-01  7.83947E+00 -6.80789E+00  4.49282E+00 -6.15668E+00  8.00335E+00 -2.29524E+00
  -9.78921E+00 -4.07692E+00 -2.20011E+00 -3.40355E+00 -5.28599E+00 -6.38224E+00 -1.11515E+00 -9.25477E+00 -4.84529E+00 -9.19228E+00
  -7.84662E+00 -9.46606E+00 -1.27738E+01 -1.38931E+01 -1.32969E+01 -1.01078E+01 -1.80531E+01 -1.52655E+01 -2.26664E+01 -1.62411E+01
  -2.00812E+01 -2.84398E+01 -2.90420E+01 -3.04812E+01 -1.95956E+01 -2.60996E+01 -2.75141E+01 -2.42634E+01 -2.27520E+01 -2.00431E+01
  -2.08897E+01 -3.13452E+01 -2.72052E+01 -4.07121E+01 -2.92406E+01 -3.59514E+01 -3.66968E+01 -3.23697E+01 -4.38580E+01 -3.63493E+01
  -3.91934E+01 -3.71178E+01 -2.80893E+01 -2.68039E+01 -2.77232E+01 -3.56234E+01 -3.54134E+01 -2.80871E+01 -2.44646E+01 -3.65710E+01
  -2.15798E+01 -2.29258E+01 -1.92444E+01 -1.98960E+01 -2.68656E+01 -2.06231E+01 -2.35421E+01 -1.17209E+01 -7.81340E+00 -1.35441E+01
  -1.44018E+01 -1.08135E+01 -7.76703E+00 -1.63628E+01 -9.52558E+00 -1.05303E+01 -1.40720E+01 -5.09642E+00 -9.39619E+00 -1.17747E+01
  -1.39479E+01 -1.33836E+01 -6.18452E+00 -1.08070E+01 -4.69601E-01 -3.83955E+00 -6.15436E+00 -9.70615E+00 -4.12520E+00 -1.00486E+01
  -5.19393E+00 -6.92638E+00 -5.06900E+00 -4.42547E+00 -8.63588E+00 -1.12874E+01 -3.67226E+00 -6.69607E+00 -8.12375E+00 -8.43160E+00
  -2.56015E+00 -6.54811E+00 -9.24631E+00 -5.20473E+00 -4.32471E+00 -2.22066E+00 -1.18810E+00 -5.06380E+00  2.46101E+00 -5.85144E+00
  -4.65783E+00 -9.97623E+00 -4.24907E+00 -1.00001E+01 -7.62961E-01 -1.02289E+01 -1.73990E+00 -1.10875E+01 -5.05964E+00 -7.62656E+00
  -7.13365E+00 -7.42248E+00 -1.22447E+01 -3.12955E+00 -9.01009E+00 -3.79202E+00 -1.37212E+00 -7.06631E+00 -4.79565E+00 -7.65578E+00
  -6.65290E+00 -1.06018E+01  3.16353E+00 -8.00775E+00  1.15625E-01 -4.79117E+00 -9.02100E-01 -5.96385E+00 -8.78867E+00 -9.80356E+00
  -1.23654E+00 -8.30326E+00 -2.69879E+00 -1.94327E+00 -3.75799E+00  1.38533E+00 -8.21077E+00 -2.81936E+00 -7.06421E+00  8.29112E-01
   2.53160E+00 -3.22167E+00 -1.52141E+00 -6.39689E+00 -4.55804E+00 -1.11450E+01  8.83698E-01 -2.99699E+00 -3.94775E+00 -8.05595E+00
  -7.31578E-02 -5.98658E+00 -2.38058E+00 -3.10978E+00 -1.28754E+00 -2.33470E+00 -6.61131E+00 -5.18287E+00  3.03247E+00 -6.25795E-01
  -3.47469E+00 -3.71519E+00 -1.32499E+01 -6.62148E+00 -4.03313E+00 -9.44901E+00 -2.02415E+00 -3.00665E+00
 NY points of the fit to the data follow
  -3.21753E+01 -3.18594E+01 -3.06200E+01 -2.83225E+01 -2.47742E+01 -1.99719E+01 -1.39011E+01 -6.58813E+00  1.21443E+00  7.88533E+00
   1.17028E+01  1.16810E+01  8.04663E+00  1.95069E+00 -5.20567E+00 -1.20339E+01 -1.75334E+01 -2.13363E+01 -2.34256E+01 -2.43068E+01
  -2.46244E+01 -2.48617E+01 -2.49229E+01 -2.43965E+01 -2.36834E+01 -2.28236E+01 -2.12715E+01 -1.86573E+01 -1.53719E+01 -1.22419E+01
  -9.91241E+00 -8.81971E+00 -9.24461E+00 -1.10391E+01 -1.37778E+01 -1.70111E+01 -2.00244E+01 -2.22421E+01 -2.35498E+01 -2.39420E+01
  -2.35222E+01 -2.25517E+01 -2.13638E+01 -2.01233E+01 -1.88547E+01 -1.76455E+01 -1.66946E+01 -1.61997E+01 -1.63042E+01 -1.69851E+01
  -1.80803E+01 -1.93786E+01 -2.06025E+01 -2.15182E+01 -2.20283E+01 -2.21588E+01 -2.20017E+01 -2.16506E+01 -2.12250E+01 -2.08580E+01
  -2.06630E+01 -2.07173E+01 -2.09869E+01 -2.13773E+01 -2.17586E+01 -2.19964E+01 -2.20347E+01 -2.18863E+01 -2.15685E+01 -2.11240E+01
  -2.06570E+01 -2.02437E+01 -1.99077E+01 -1.96493E+01 -1.94924E+01 -1.94564E+01 -1.95405E+01 -1.97318E+01 -1.99514E+01 -1.99784E+01
  -1.97352E+01 -1.93689E+01 -1.88199E+01 -1.79728E+01 -1.69425E+01 -1.60831E+01 -1.57219E+01 -1.59660E+01 -1.67011E+01 -1.76785E+01
  -1.86339E+01 -1.94013E+01 -1.98955E+01 -2.00416E+01 -1.97543E+01 -1.83859E+01 -1.49610E+01 -1.05780E+01 -5.18878E+00  2.37485E+00
   1.23771E+01  2.27120E+01  3.03293E+01  3.30542E+01  3.04527E+01  2.34436E+01  1.40602E+01  4.45936E+00 -4.01440E+00 -1.01970E+01
  -1.35659E+01 -1.49837E+01 -1.54833E+01 -1.56623E+01 -1.57139E+01 -1.56899E+01 -1.56255E+01 -1.55144E+01 -1.52465E+01 -1.41703E+01
  -1.05498E+01 -5.21059E+00  1.23334E+00  1.00719E+01  2.22184E+01  3.57704E+01  4.69961E+01  5.26477E+01  5.15059E+01  4.43375E+01
   3.34131E+01  2.14552E+01  1.01785E+01  8.79770E-01 -5.35547E+00 -8.97439E+00 -1.10250E+01 -1.20278E+01 -1.21410E+01 -1.15481E+01
  -1.05585E+01 -9.56746E+00 -8.92731E+00 -8.78600E+00 -9.10255E+00 -9.70983E+00 -1.04073E+01 -1.10706E+01 -1.16325E+01 -1.20688E+01
  -1.24211E+01 -1.27291E+01 -1.29913E+01 -1.31928E+01 -1.33888E+01 -1.35762E+01 -1.37205E+01 -1.38877E+01 -1.41456E+01 -1.45504E+01
  -1.50177E+01 -1.53137E+01 -1.52977E+01 -1.50432E+01 -1.47705E+01 -1.46914E+01 -1.48855E+01 -1.53321E+01 -1.59795E+01 -1.67332E+01
  -1.74774E+01 -1.80467E+01 -1.84733E+01 -1.89022E+01 -1.94021E+01 -1.97960E+01 -1.98665E+01 -1.96467E+01 -1.93665E+01 -1.91760E+01
  -1.91383E+01 -1.91669E+01 -1.91108E+01 -1.89867E+01 -1.87657E+01 -1.82556E+01 -1.72503E+01 -1.56817E+01 -1.36957E+01 -1.16281E+01
  -9.86718E+00 -8.80731E+00 -8.54378E+00 -8.99399E+00 -9.97241E+00 -1.11465E+01 -1.20682E+01 -1.23625E+01 -1.19391E+01 -1.09112E+01
  -9.49117E+00 -7.91564E+00 -6.44918E+00 -5.52211E+00 -5.34094E+00 -5.99703E+00 -7.52667E+00 -9.66416E+00 -1.18286E+01 -1.33536E+01
  -1.39557E+01 -1.35627E+01 -1.19743E+01 -9.28005E+00 -6.19236E+00 -3.78065E+00 -2.86964E+00 -3.66867E+00 -5.92556E+00 -9.28006E+00
  -1.29693E+01 -1.59409E+01 -1.72631E+01 -1.65436E+01 -1.41936E+01 -1.10136E+01 -7.75238E+00 -5.07538E+00 -3.40122E+00 -2.81053E+00
  -2.89564E+00 -3.08030E+00 -2.99941E+00 -2.49104E+00 -1.54257E+00 -3.87235E-01  4.94273E-01  8.39399E-01  5.99737E-01 -1.42755E-01
  -1.18647E+00 -2.05288E+00 -2.29520E+00 -1.73579E+00 -4.57344E-01  1.25518E+00  3.01297E+00  4.42679E+00  5.33887E+00  5.89509E+00
   6.23907E+00  6.63501E+00  7.74662E+00  1.15429E+01  1.92073E+01  2.82402E+01  3.89127E+01  5.33128E+01  7.13776E+01  8.88298E+01
   1.00355E+02  1.02517E+02  9.49798E+01  7.97880E+01  6.08547E+01  4.19108E+01  2.53305E+01  1.32845E+01  6.40431E+00  2.90552E+00
   1.02702E+00 -1.22777E-01 -8.47387E-01 -1.30487E+00 -1.60829E+00 -1.84063E+00 -2.06551E+00 -2.31558E+00 -2.58574E+00 -2.84112E+00
  -3.02785E+00 -3.09384E+00 -3.01219E+00 -2.78129E+00 -2.41944E+00 -1.95192E+00 -1.40167E+00 -7.91159E-01 -1.39884E-01  5.41510E-01
   1.24464E+00  1.95581E+00  2.65596E+00  3.32657E+00  3.94904E+00  4.50492E+00  4.98032E+00  5.36702E+00  5.66119E+00  5.86417E+00
   5.98117E+00  6.01986E+00  5.99017E+00  5.90443E+00  5.77799E+00  5.62827E+00  5.47390E+00  5.33419E+00  5.22717E+00  5.16785E+00
   5.16740E+00  5.23236E+00  5.36424E+00  5.55957E+00  5.81039E+00  6.10500E+00  6.42946E+00  6.76996E+00  7.11829E+00  7.48767E+00
   7.89689E+00  8.20424E+00  8.35260E+00  8.37832E+00  8.21313E+00  7.63625E+00  6.44595E+00  4.61973E+00  2.43513E+00  1.66651E-01
  -2.01371E+00 -3.88074E+00 -5.21757E+00 -5.92550E+00 -6.14121E+00 -6.21286E+00 -6.45743E+00 -7.04548E+00 -8.00598E+00 -9.23343E+00
  -1.05840E+01 -1.19690E+01 -1.32765E+01 -1.43911E+01 -1.53253E+01 -1.61965E+01 -1.71423E+01 -1.82194E+01 -1.93416E+01 -2.04112E+01
  -2.13616E+01 -2.20892E+01 -2.24984E+01 -2.25654E+01 -2.23610E+01 -2.20445E+01 -2.17767E+01 -2.16490E+01 -2.16833E+01 -2.18426E+01
  -2.20805E+01 -2.23490E+01 -2.25846E+01 -2.27536E+01 -2.28633E+01 -2.29307E+01 -2.29680E+01 -2.29812E+01 -2.29735E+01 -2.29468E+01
  -2.29022E+01 -2.28404E+01 -2.27616E+01 -2.26658E+01 -2.25527E+01 -2.24217E+01 -2.22723E+01 -2.21033E+01 -2.19137E+01 -2.17019E+01
  -2.14664E+01 -2.12051E+01 -2.09161E+01 -2.05969E+01 -2.02449E+01 -1.98576E+01 -1.94321E+01 -1.89657E+01 -1.84560E+01 -1.79006E+01
  -1.72979E+01 -1.66467E+01 -1.59469E+01 -1.51997E+01 -1.44074E+01 -1.35740E+01 -1.27051E+01 -1.18083E+01 -1.08929E+01 -9.96984E+00
  -9.05168E+00 -8.15216E+00 -7.28579E+00 -6.46739E+00 -5.71152E+00 -5.03185E+00 -4.44055E+00 -3.94775E+00 -3.56106E+00 -3.28524E+00
  -3.12191E+00 -3.06953E+00 -3.12344E+00 -3.27615E+00 -3.51775E+00 -3.83638E+00 -4.21877E+00 -4.65085E+00 -5.11835E+00 -5.60734E+00
  -6.10473E+00 -6.59866E+00 -7.07871E+00 -7.53616E+00 -7.96400E+00 -8.35698E+00 -8.71148E+00 -9.02539E+00 -9.29784E+00 -9.52908E+00
  -9.72021E+00 -9.87302E+00 -9.98975E+00 -1.00730E+01 -1.01253E+01 -1.01496E+01 -1.01485E+01 -1.01247E+01 -1.00806E+01 -1.00184E+01
  -9.94031E+00 -9.84814E+00 -9.74362E+00 -9.62828E+00 -9.50348E+00 -9.37046E+00 -9.23027E+00 -9.08389E+00 -8.93216E+00 -8.77589E+00
  -8.61573E+00 -8.45230E+00 -8.28614E+00 -8.11772E+00 -7.94736E+00 -7.77536E+00 -7.60194E+00 -7.42732E+00 -7.25167E+00 -7.07518E+00
  -6.89797E+00 -6.72019E+00 -6.54192E+00 -6.36326E+00 -6.18428E+00 -6.00507E+00 -5.82567E+00 -5.64615E+00 -5.46654E+00 -5.28687E+00
  -5.10717E+00 -4.92748E+00 -4.74780E+00 -4.56815E+00 -4.38853E+00 -4.20894E+00 -4.02939E+00 -3.84989E+00 -3.67042E+00 -3.49099E+00
  -3.31158E+00 -3.13217E+00 -2.95276E+00 -2.77333E+00 -2.59387E+00 -2.41435E+00 -2.23474E+00 -2.05504E+00 -1.87521E+00 -1.69525E+00
  -1.51511E+00 -1.33477E+00 -1.15420E+00 -9.73372E-01 -7.92259E-01 -6.10840E-01 -4.29067E-01 -2.46912E-01
 NY background values follow
    -3.376E+01   -3.359E+01   -3.342E+01   -3.325E+01   -3.309E+01   -3.292E+01   -3.275E+01   -3.258E+01   -3.242E+01   -3.225E+01
    -3.208E+01   -3.192E+01   -3.175E+01   -3.158E+01   -3.142E+01   -3.125E+01   -3.109E+01   -3.093E+01   -3.076E+01   -3.060E+01
    -3.044E+01   -3.027E+01   -3.011E+01   -2.995E+01   -2.979E+01   -2.963E+01   -2.947E+01   -2.931E+01   -2.915E+01   -2.900E+01
    -2.884E+01   -2.868E+01   -2.853E+01   -2.838E+01   -2.822E+01   -2.807E+01   -2.792E+01   -2.777E+01   -2.762E+01   -2.747E+01
    -2.732E+01   -2.717E+01   -2.702E+01   -2.688E+01   -2.673E+01   -2.659E+01   -2.645E+01   -2.630E+01   -2.616E+01   -2.602E+01
    -2.589E+01   -2.575E+01   -2.561E+01   -2.548E+01   -2.534E+01   -2.521E+01   -2.508E+01   -2.494E+01   -2.481E+01   -2.468E+01
    -2.455E+01   -2.443E+01   -2.430E+01   -2.417E+01   -2.405E+01   -2.392E+01   -2.380E+01   -2.368E+01   -2.356E+01   -2.344E+01
    -2.332E+01   -2.320E+01   -2.308E+01   -2.296E+01   -2.284E+01   -2.273E+01   -2.261E+01   -2.250E+01   -2.239E+01   -2.227E+01
    -2.216E+01   -2.205E+01   -2.194E+01   -2.183E+01   -2.172E+01   -2.162E+01   -2.151E+01   -2.140E+01   -2.130E+01   -2.119E+01
    -2.109E+01   -2.099E+01   -2.088E+01   -2.078E+01   -2.068E+01   -2.058E+01   -2.048E+01   -2.038E+01   -2.028E+01   -2.018E+01
    -2.009E+01   -1.999E+01   -1.989E+01   -1.980E+01   -1.970E+01   -1.961E+01   -1.952E+01   -1.942E+01   -1.933E+01   -1.924E+01
    -1.915E+01   -1.906E+01   -1.897E+01   -1.888E+01   -1.879E+01   -1.870E+01   -1.861E+01   -1.853E+01   -1.844E+01   -1.835E+01
    -1.827E+01   -1.818E+01   -1.810E+01   -1.801E+01   -1.793E+01   -1.785E+01   -1.776E+01   -1.768E+01   -1.760E+01   -1.752E+01
    -1.744E+01   -1.736E+01   -1.727E+01   -1.720E+01   -1.712E+01   -1.704E+01   -1.696E+01   -1.688E+01   -1.680E+01   -1.672E+01
    -1.665E+01   -1.657E+01   -1.649E+01   -1.642E+01   -1.634E+01   -1.627E+01   -1.619E+01   -1.612E+01   -1.604E+01   -1.597E+01
    -1.590E+01   -1.583E+01   -1.575E+01   -1.568E+01   -1.561E+01   -1.554E+01   -1.547E+01   -1.540E+01   -1.534E+01   -1.527E+01
    -1.520E+01   -1.514E+01   -1.507E+01   -1.500E+01   -1.494E+01   -1.488E+01   -1.481E+01   -1.475E+01   -1.469E+01   -1.463E+01
    -1.457E+01   -1.451E+01   -1.445E+01   -1.439E+01   -1.433E+01   -1.428E+01   -1.422E+01   -1.417E+01   -1.411E+01   -1.406E+01
    -1.400E+01   -1.395E+01   -1.390E+01   -1.385E+01   -1.380E+01   -1.375E+01   -1.371E+01   -1.366E+01   -1.361E+01   -1.357E+01
    -1.353E+01   -1.348E+01   -1.344E+01   -1.340E+01   -1.336E+01   -1.333E+01   -1.329E+01   -1.325E+01   -1.322E+01   -1.319E+01
    -1.316E+01   -1.313E+01   -1.310E+01   -1.308E+01   -1.305E+01   -1.303E+01   -1.301E+01   -1.299E+01   -1.297E+01   -1.295E+01
    -1.294E+01   -1.292E+01   -1.291E+01   -1.290E+01   -1.290E+01   -1.289E+01   -1.289E+01   -1.289E+01   -1.289E+01   -1.289E+01
    -1.289E+01   -1.290E+01   -1.291E+01   -1.292E+01   -1.293E+01   -1.295E+01   -1.297E+01   -1.299E+01   -1.301E+01   -1.303E+01
    -1.306E+01   -1.309E+01   -1.312E+01   -1.316E+01   -1.319E+01   -1.323E+01   -1.327E+01   -1.331E+01   -1.336E+01   -1.341E+01
    -1.346E+01   -1.351E+01   -1.356E+01   -1.362E+01   -1.368E+01   -1.374E+01   -1.380E+01   -1.386E+01   -1.393E+01   -1.400E+01
    -1.407E+01   -1.415E+01   -1.422E+01   -1.430E+01   -1.438E+01   -1.446E+01   -1.455E+01   -1.463E+01   -1.472E+01   -1.481E+01
    -1.490E+01   -1.500E+01   -1.510E+01   -1.519E+01   -1.530E+01   -1.540E+01   -1.550E+01   -1.561E+01   -1.572E+01   -1.583E+01
    -1.594E+01   -1.606E+01   -1.618E+01   -1.630E+01   -1.642E+01   -1.654E+01   -1.666E+01   -1.679E+01   -1.692E+01   -1.705E+01
    -1.718E+01   -1.731E+01   -1.745E+01   -1.758E+01   -1.772E+01   -1.786E+01   -1.800E+01   -1.814E+01   -1.828E+01   -1.842E+01
    -1.857E+01   -1.871E+01   -1.885E+01   -1.900E+01   -1.915E+01   -1.930E+01   -1.944E+01   -1.959E+01   -1.974E+01   -1.989E+01
    -2.004E+01   -2.019E+01   -2.034E+01   -2.049E+01   -2.064E+01   -2.079E+01   -2.094E+01   -2.109E+01   -2.125E+01   -2.140E+01
    -2.155E+01   -2.170E+01   -2.185E+01   -2.200E+01   -2.214E+01   -2.229E+01   -2.244E+01   -2.259E+01   -2.273E+01   -2.288E+01
    -2.302E+01   -2.317E+01   -2.331E+01   -2.345E+01   -2.359E+01   -2.373E+01   -2.386E+01   -2.400E+01   -2.413E+01   -2.426E+01
    -2.439E+01   -2.451E+01   -2.463E+01   -2.475E+01   -2.487E+01   -2.499E+01   -2.510E+01   -2.521E+01   -2.531E+01   -2.541E+01
    -2.551E+01   -2.560E+01   -2.570E+01   -2.578E+01   -2.586E+01   -2.594E+01   -2.602E+01   -2.609E+01   -2.615E+01   -2.621E+01
    -2.627E+01   -2.632E+01   -2.637E+01   -2.641E+01   -2.644E+01   -2.647E+01   -2.650E+01   -2.652E+01   -2.653E+01   -2.654E+01
    -2.654E+01   -2.654E+01   -2.653E+01   -2.651E+01   -2.648E+01   -2.645E+01   -2.642E+01   -2.638E+01   -2.633E+01   -2.628E+01
    -2.622E+01   -2.615E+01   -2.608E+01   -2.601E+01   -2.593E+01   -2.584E+01   -2.575E+01   -2.565E+01   -2.555E+01   -2.544E+01
    -2.533E+01   -2.522E+01   -2.510E+01   -2.497E+01   -2.484E+01   -2.471E+01   -2.457E+01   -2.442E+01   -2.428E+01   -2.413E+01
    -2.397E+01   -2.381E+01   -2.365E+01   -2.348E+01   -2.331E+01   -2.314E+01   -2.296E+01   -2.278E+01   -2.259E+01   -2.241E+01
    -2.222E+01   -2.202E+01   -2.183E+01   -2.163E+01   -2.142E+01   -2.122E+01   -2.101E+01   -2.080E+01   -2.059E+01   -2.037E+01
    -2.015E+01   -1.993E+01   -1.971E+01   -1.949E+01   -1.926E+01   -1.903E+01   -1.880E+01   -1.857E+01   -1.834E+01   -1.811E+01
    -1.787E+01   -1.763E+01   -1.740E+01   -1.716E+01   -1.692E+01   -1.668E+01   -1.644E+01   -1.619E+01   -1.595E+01   -1.571E+01
    -1.546E+01   -1.522E+01   -1.498E+01   -1.473E+01   -1.449E+01   -1.424E+01   -1.400E+01   -1.375E+01   -1.351E+01   -1.327E+01
    -1.302E+01   -1.278E+01   -1.254E+01   -1.230E+01   -1.206E+01   -1.182E+01   -1.158E+01   -1.135E+01   -1.111E+01   -1.088E+01
    -1.065E+01   -1.042E+01   -1.019E+01   -9.959E+00   -9.733E+00   -9.509E+00   -9.286E+00   -9.065E+00   -8.846E+00   -8.628E+00
    -8.411E+00   -8.196E+00   -7.983E+00   -7.770E+00   -7.559E+00   -7.349E+00   -7.140E+00   -6.932E+00   -6.726E+00   -6.520E+00
    -6.316E+00   -6.112E+00   -5.909E+00   -5.708E+00   -5.507E+00   -5.307E+00   -5.107E+00   -4.909E+00   -4.711E+00   -4.513E+00
    -4.317E+00   -4.120E+00   -3.925E+00   -3.730E+00   -3.535E+00   -3.340E+00   -3.146E+00   -2.953E+00   -2.759E+00   -2.566E+00
    -2.373E+00   -2.180E+00   -1.987E+00   -1.794E+00   -1.601E+00   -1.408E+00   -1.216E+00   -1.023E+00
 Ala      Conc. = 2.61E+02
