 LCModel (Version 6.3-1L) Copyright: S.W. Provencher.          Ref.: Magn. Reson. Med. 30:672-679 (1993).                
 Slice#2 Row#2 Col#2  PD_05_press_2_raw_act
 36 lines in following concentration table = NCONC+1
    Conc.  %SD /Cr+PCr  Metabolite                                         
    0.000 999%   0.000 Ala                                                 
   48.945  83%   0.452 Asp                                                 
  108.305  73%   1.000 Cr                                                  
    0.000 999%   0.000 PCr                                                 
   27.541  89%   0.254 GABA                                                
   28.921  85%   0.267 Glc                                                 
    0.000 999%   0.000 Gln                                                 
  214.927 170%   1.984 Glu                                                 
    0.000 999%   0.000 GPC                                                 
  109.427  28%   1.010 PCh                                                 
   33.189 342%   0.306 GSH                                                 
    0.000 999%   0.000 Ins                                                 
    0.000 999%   0.000 Lac                                                 
  469.558  25%   4.336 NAA                                                 
   38.154 312%   0.352 NAAG                                                
   10.460  77% 9.7E-02 Scyllo                                              
   56.351  72%   0.520 Tau                                                 
   76.288  67%   0.704 -CrCH2                                              
  109.427  28%   1.010 GPC+PCh                                             
  507.712  21%   4.688 NAA+NAAG                                            
  108.305  73%   1.000 Cr+PCr                                              
  214.927 170%   1.984 Glu+Gln                                             
 3.04E+03  14%  28.038 Lip13a                                              
    0.000 999%   0.000 Lip13b                                              
  768.334  17%   7.094 Lip09                                               
    0.000 999%   0.000 MM09                                                
  469.785  19%   4.338 Lip20                                               
 4.22E-02 999% 3.9E-04 MM20                                                
 1.45E-03 999% 1.3E-05 MM12                                                
    0.000 999%   0.000 MM14                                                
    0.000 999%   0.000 MM17                                                
 3.04E+03  14%  28.038 Lip13a+Lip13b                                       
 3.04E+03  14%  28.038 MM14+Lip13a+Lip13b+MM12                             
  768.334  17%   7.094 MM09+Lip09                                          
  469.827  19%   4.338 MM20+Lip20                                          
   6 lines in following misc. output table
  FWHM = 0.046 ppm    S/N =   1                                            
  Data shift = 0.031 ppm                                                   
  Ph:  76 deg       4.4 deg/ppm                                            
  alphaB,S = 1.9E+00,   1.6E+01                                            
   14 spline knots.   Ns = 5(1)                                            
  ( 9) 3 infls.   ( 8) 1 extrs.                                            
  498 points on ppm-axis = NY
      4.000000     3.992357     3.984714     3.977070     3.969427     3.961784     3.954141     3.946497     3.938854     3.931211
      3.923568     3.915925     3.908281     3.900638     3.892995     3.885352     3.877708     3.870065     3.862422     3.854779
      3.847136     3.839492     3.831849     3.824206     3.816563     3.808919     3.801276     3.793633     3.785990     3.778347
      3.770703     3.763060     3.755417     3.747774     3.740130     3.732487     3.724844     3.717201     3.709558     3.701914
      3.694271     3.686628     3.678985     3.671341     3.663698     3.656055     3.648412     3.640769     3.633125     3.625482
      3.617839     3.610196     3.602552     3.594909     3.587266     3.579623     3.571980     3.564336     3.556693     3.549050
      3.541407     3.533763     3.526120     3.518477     3.510834     3.503191     3.495547     3.487904     3.480261     3.472618
      3.464974     3.457331     3.449688     3.442045     3.434402     3.426758     3.419115     3.411472     3.403829     3.396185
      3.388542     3.380899     3.373256     3.365613     3.357969     3.350326     3.342683     3.335040     3.327396     3.319753
      3.312110     3.304467     3.296824     3.289180     3.281537     3.273894     3.266251     3.258607     3.250964     3.243321
      3.235678     3.228034     3.220391     3.212748     3.205105     3.197462     3.189818     3.182175     3.174532     3.166889
      3.159245     3.151602     3.143959     3.136316     3.128673     3.121029     3.113386     3.105743     3.098100     3.090456
      3.082813     3.075170     3.067527     3.059884     3.052240     3.044597     3.036954     3.029311     3.021667     3.014024
      3.006381     2.998738     2.991095     2.983451     2.975808     2.968165     2.960522     2.952878     2.945235     2.937592
      2.929949     2.922306     2.914662     2.907019     2.899376     2.891733     2.884089     2.876446     2.868803     2.861160
      2.853517     2.845873     2.838230     2.830587     2.822944     2.815300     2.807657     2.800014     2.792371     2.784728
      2.777084     2.769441     2.761798     2.754155     2.746511     2.738868     2.731225     2.723582     2.715939     2.708295
      2.700652     2.693009     2.685366     2.677722     2.670079     2.662436     2.654793     2.647150     2.639506     2.631863
      2.624220     2.616577     2.608933     2.601290     2.593647     2.586004     2.578361     2.570717     2.563074     2.555431
      2.547788     2.540144     2.532501     2.524858     2.517215     2.509572     2.501928     2.494285     2.486642     2.478999
      2.471355     2.463712     2.456069     2.448426     2.440783     2.433139     2.425496     2.417853     2.410210     2.402566
      2.394923     2.387280     2.379637     2.371994     2.364350     2.356707     2.349064     2.341421     2.333777     2.326134
      2.318491     2.310848     2.303205     2.295561     2.287918     2.280275     2.272632     2.264988     2.257345     2.249702
      2.242059     2.234416     2.226772     2.219129     2.211486     2.203843     2.196199     2.188556     2.180913     2.173270
      2.165627     2.157983     2.150340     2.142697     2.135054     2.127410     2.119767     2.112124     2.104481     2.096838
      2.089194     2.081551     2.073908     2.066265     2.058621     2.050978     2.043335     2.035692     2.028049     2.020405
      2.012762     2.005119     1.997476     1.989833     1.982190     1.974546     1.966903     1.959260     1.951617     1.943974
      1.936331     1.928688     1.921045     1.913402     1.905759     1.898115     1.890472     1.882829     1.875186     1.867543
      1.859900     1.852257     1.844614     1.836971     1.829327     1.821684     1.814041     1.806398     1.798755     1.791112
      1.783469     1.775826     1.768183     1.760540     1.752896     1.745253     1.737610     1.729967     1.722324     1.714681
      1.707038     1.699395     1.691752     1.684108     1.676465     1.668822     1.661179     1.653536     1.645893     1.638250
      1.630607     1.622964     1.615321     1.607677     1.600034     1.592391     1.584748     1.577105     1.569462     1.561819
      1.554176     1.546533     1.538890     1.531246     1.523603     1.515960     1.508317     1.500674     1.493031     1.485388
      1.477745     1.470102     1.462458     1.454815     1.447172     1.439529     1.431886     1.424243     1.416600     1.408957
      1.401314     1.393671     1.386027     1.378384     1.370741     1.363098     1.355455     1.347812     1.340169     1.332526
      1.324883     1.317240     1.309596     1.301953     1.294310     1.286667     1.279024     1.271381     1.263738     1.256095
      1.248452     1.240808     1.233165     1.225522     1.217879     1.210236     1.202593     1.194950     1.187307     1.179664
      1.172021     1.164377     1.156734     1.149091     1.141448     1.133805     1.126162     1.118519     1.110876     1.103233
      1.095590     1.087946     1.080303     1.072660     1.065017     1.057374     1.049731     1.042088     1.034445     1.026802
      1.019158     1.011515     1.003872     0.996229     0.988586     0.980943     0.973300     0.965657     0.958014     0.950371
      0.942727     0.935084     0.927441     0.919798     0.912155     0.904512     0.896869     0.889226     0.881583     0.873940
      0.866296     0.858653     0.851010     0.843367     0.835724     0.828081     0.820438     0.812795     0.805152     0.797508
      0.789865     0.782222     0.774579     0.766936     0.759293     0.751650     0.744007     0.736364     0.728721     0.721077
      0.713434     0.705791     0.698148     0.690505     0.682862     0.675219     0.667576     0.659933     0.652290     0.644646
      0.637003     0.629360     0.621717     0.614074     0.606431     0.598788     0.591145     0.583502     0.575858     0.568215
      0.560572     0.552929     0.545286     0.537643     0.530000     0.522357     0.514714     0.507071     0.499427     0.491784
      0.484141     0.476498     0.468855     0.461212     0.453569     0.445925     0.438282     0.430639     0.422996     0.415353
      0.407710     0.400067     0.392424     0.384780     0.377137     0.369494     0.361851     0.354208     0.346565     0.338922
      0.331278     0.323635     0.315992     0.308349     0.300706     0.293063     0.285420     0.277777     0.270133     0.262490
      0.254847     0.247204     0.239561     0.231918     0.224275     0.216631     0.208988     0.201345
 NY phased data points follow
  -4.55510E+01 -3.44733E+01 -3.15341E+01 -3.82231E+01 -4.57586E+01 -4.67008E+01 -2.58839E+01 -3.25531E+01 -2.68145E+01 -2.89832E+01
  -3.87148E+01 -2.93079E+01 -1.82738E+01 -2.10091E+01 -3.31644E+01 -3.01172E+01 -2.91528E+01 -3.11450E+01 -2.51873E+01 -3.26139E+01
  -3.78755E+01 -2.37073E+01 -2.68929E+01 -2.58044E+01 -1.85340E+01 -2.82425E+01 -2.95183E+01 -1.79174E+01 -2.54787E+01 -1.32025E+01
  -1.65283E+01 -3.38014E+01 -1.67228E+01 -2.00917E+01 -2.21437E+01 -3.72319E+01 -2.81488E+01 -3.29487E+01 -2.77607E+01 -2.02727E+01
  -1.55016E+01 -3.01799E+01 -1.08069E+01 -2.31256E+01 -1.35635E+01 -2.66176E+01 -2.63461E+01 -2.64801E+01 -1.43314E+01 -1.51809E+01
  -2.51955E+01 -2.59397E+01 -2.20362E+01 -1.35619E+01 -2.21118E+01 -2.75055E+01 -1.83510E+01 -1.01310E+01 -1.26244E+01 -1.18347E+01
  -1.92066E+01 -9.86306E+00 -1.84810E+01 -3.16338E+01 -1.69400E+01 -1.58870E+01 -1.89687E+01 -1.56007E+01 -1.97949E+01 -2.33575E+01
  -1.74046E+01 -1.16454E+01 -7.00146E+00 -1.80372E+01 -2.10985E+01 -1.33613E+01 -2.29175E+01 -1.11070E+01 -1.86541E+01 -1.72098E+01
  -1.03416E+01 -1.42980E+01 -2.26156E+01 -2.07435E+01 -1.77380E+01 -1.20127E+01 -2.90476E+01 -5.37048E+00 -1.18336E+01 -2.10272E+01
  -1.53679E+01 -1.45112E+01 -1.69193E+01 -1.95969E+01 -1.75028E+01 -1.52794E+01 -1.11302E+01 -1.29145E+01 -1.52624E+01 -8.08283E+00
  -2.03735E+01 -1.87229E+00 -1.07391E+01 -2.51974E+00 -4.25027E-01 -1.56026E+01 -1.66477E+01 -9.46016E+00 -8.42191E+00 -2.17197E+01
  -2.44853E+01 -1.40935E+01 -1.25476E+01 -1.02194E+01 -8.16236E+00 -1.46961E+01 -1.75613E+01 -1.54884E+01 -2.61304E+01 -7.88208E+00
  -8.93791E+00 -1.00085E+01 -7.77338E+00 -6.23886E+00 -8.32842E+00 -1.57117E+01 -5.72303E+00 -7.79388E+00 -7.85392E+00 -1.58556E+01
  -8.41730E+00 -1.57979E+01 -1.98043E+01 -2.16229E+01 -6.72153E+00 -1.58765E+01 -3.84555E+00 -1.06008E+01 -1.32412E+01 -9.89724E+00
  -1.01412E+01 -1.82579E+01 -1.20612E+01 -9.93501E+00 -2.00186E+01 -1.73828E+01 -9.26255E+00 -8.05643E+00 -1.01228E+01 -1.51710E+01
  -5.58331E+00 -1.05456E+01 -3.66754E+00 -1.63967E+01 -1.99041E+00 -2.33072E+01 -1.33568E+01 -1.87769E+01 -8.49354E+00 -1.13044E+01
  -1.64012E+01 -1.78944E+01 -2.23975E+01 -1.15876E+01 -1.20280E+01 -1.53453E+01 -1.37061E+01 -1.18445E+01 -1.17992E+01 -9.45298E+00
  -9.32777E+00 -9.70800E+00 -5.63317E+00 -1.45507E+01 -9.73560E+00  1.18758E+00 -6.38308E+00 -8.89348E+00 -9.11046E+00 -5.99852E+00
  -3.32143E+00 -1.20040E+01 -7.43196E+00 -1.45254E+00 -7.84693E+00 -1.25159E+01 -2.02125E+01 -5.36421E+00 -2.00699E+01 -2.16680E+01
  -1.95836E+01 -1.70682E+01 -1.41233E+00 -1.04089E+01 -1.43987E+01 -1.64433E+01 -9.66286E+00 -1.32489E+01 -1.42833E+01 -1.39568E+01
  -1.29760E+01 -7.63506E+00 -1.32993E+01 -1.15342E+01 -1.13567E+01 -1.08133E+01 -1.14373E+01 -1.89885E+01 -2.09715E+01 -1.09511E+01
  -1.39151E+01 -7.09906E+00 -1.28799E+01 -1.75559E+01 -1.56387E+01 -1.22315E+01 -1.41058E+01 -1.83646E+00 -1.60912E+01 -1.41750E+01
  -4.65107E+00 -1.97274E+01 -1.64736E+01 -1.46950E+01 -8.79416E+00 -1.74449E+01 -1.00841E+01 -1.96914E+01 -1.03085E+01 -4.68230E+00
  -1.40676E+01 -2.00380E+01 -5.06750E+00 -1.60989E+00 -1.22251E+00 -8.22685E+00 -2.14195E+00 -2.90357E+00 -1.61826E+01 -5.66342E+00
  -9.56503E+00 -1.32318E+01 -1.97363E+01 -1.86277E+01 -1.23810E+01 -2.27686E+00 -8.89542E+00 -2.45388E+00 -1.28049E+01 -1.29835E+01
  -6.65465E+00 -1.00608E+01 -4.80777E+00 -1.26991E+01  1.84920E+00 -4.76270E+00  1.04852E+01 -1.23058E+01  9.07177E+00  8.89502E+00
   1.61811E+01  7.08405E+00  9.11147E+00 -3.81394E+00  6.63303E+00 -3.84601E+00 -4.43407E+00 -6.07511E+00 -8.89698E+00 -5.86709E+00
   1.84689E-01 -9.99999E+00 -9.06153E+00 -7.63794E+00 -2.21913E-01 -9.11394E+00 -6.59793E+00  2.39026E+00 -1.01678E+01 -3.53526E+00
   4.51687E+00 -5.61261E+00 -3.54446E-01  7.53757E-01 -3.75008E+00 -2.17869E+00 -1.32481E+01 -9.12972E+00  3.73997E+00 -1.48921E+01
  -2.62024E+00  1.64569E+00 -4.60657E+00 -1.03831E+01 -5.26561E+00 -1.41437E+01 -9.57147E+00 -9.38453E+00 -5.09204E+00 -8.36217E+00
  -1.38611E+01 -5.32500E+00 -1.83840E+00 -1.21918E+01  3.49152E+00 -7.98141E+00  7.84642E+00 -2.02189E+01 -1.83954E+01 -7.70788E+00
  -7.48353E+00 -4.30265E+00 -1.17788E+01  7.22059E-01 -1.62487E+01 -2.54260E+00 -1.93482E+01 -2.09569E+01 -1.55327E+01 -1.03675E+01
  -1.99695E+01 -1.39423E+01 -9.77649E+00 -1.88300E+01 -2.14293E+01 -7.73696E+00 -2.32045E+00 -1.06099E+01  2.58355E+00 -1.34153E+01
  -4.66918E+00 -1.02106E+01 -2.85843E+00 -6.54774E+00  5.23811E+00  5.88097E+00  5.28755E+00  7.81150E+00  1.54885E+00  2.30734E+00
   1.13971E+00  1.32862E+01  1.44675E+01  9.45333E+00  3.91365E+00 -2.31796E-01  9.75924E+00  8.82901E+00  2.03511E+00  1.47697E+01
   3.21099E+00  1.67817E+01  5.81923E+00  9.39507E+00  5.34650E+00  4.50321E+00 -6.29745E+00 -2.41848E+00  3.04823E-01 -2.49005E+00
   1.69663E+01  9.13446E+00 -2.44554E+00  6.71630E+00  1.11937E+01  9.93680E+00  1.37684E+01  5.72014E+00  3.80591E+00 -5.87162E-01
   1.37354E+01  7.64403E-01 -2.31404E+00  9.81276E+00 -8.28193E-01 -1.98943E+00  9.54204E-01 -1.64435E-01 -2.74226E+00  1.03599E+01
  -9.52686E+00  2.67617E+00  9.75014E+00  1.99833E+00 -1.12918E+01 -9.32544E+00 -6.78135E+00  3.75059E+00 -7.51710E+00 -2.03160E+00
  -3.22280E+00 -2.56066E+00 -5.10394E+00 -6.91221E-01 -4.61901E-01  2.30943E+00 -5.72670E+00  2.29394E-01  9.92285E-01 -1.83576E+01
   4.55188E+00 -3.85463E+00  5.98235E+00 -5.15113E+00 -5.70736E-01  1.64852E+00  6.59555E+00 -2.96133E+00  3.47361E+00 -9.36572E-01
  -6.37248E+00  2.47906E+00  1.86410E+00  3.51346E+00 -3.65818E+00 -5.80933E+00 -9.52251E+00 -5.41318E+00 -6.05248E-01 -5.58141E+00
  -9.12233E+00  5.78116E+00  7.33565E+00 -1.69607E+00  1.95943E+00 -9.89242E+00 -1.14224E+00  2.28766E+00 -5.39782E+00  1.51089E+00
  -1.58847E+00  3.63283E-01 -3.66510E+00  5.58125E-01 -9.81222E+00 -8.72588E+00 -2.80323E+00 -7.93363E+00 -1.22576E+01 -2.05889E+00
  -1.08676E+01  3.22240E+00  2.63115E+00 -1.22245E+00  5.14101E+00  1.55396E+00 -8.51451E-01 -9.45876E-01 -4.03252E+00  7.64308E+00
  -3.03461E+00  9.00846E-01  6.47598E-01  6.80191E+00  4.55574E+00 -1.15792E+01  7.34960E+00  9.44042E+00 -4.21502E+00 -1.59976E+01
  -4.78209E+00 -1.14429E+01 -5.16921E+00 -1.36162E+01  1.20338E+00 -5.65532E+00 -5.64507E+00  3.87064E-01  4.98093E+00 -8.17404E-01
   6.00050E+00  2.36103E+00  1.17537E+00 -2.23195E+00 -2.87943E+00 -5.03287E+00 -1.67824E+00 -1.60554E+01 -4.37670E+00 -6.01466E+00
  -7.18807E+00 -5.66625E+00  1.40902E+00  1.81522E+00 -3.56354E+00 -9.32078E-01  9.83377E+00 -2.82500E+00 -4.65090E+00  1.45873E+00
  -2.45338E+00 -6.11341E+00 -2.89437E+00  1.12122E+01 -1.20391E+01  9.29826E+00  6.96589E-01 -5.36273E+00
 NY points of the fit to the data follow
  -2.46477E+01 -2.45701E+01 -2.45009E+01 -2.45133E+01 -2.46994E+01 -2.48817E+01 -2.48821E+01 -2.48119E+01 -2.46322E+01 -2.40478E+01
  -2.31373E+01 -2.23844E+01 -2.21769E+01 -2.23802E+01 -2.26155E+01 -2.28108E+01 -2.30707E+01 -2.33095E+01 -2.33924E+01 -2.33398E+01
  -2.32164E+01 -2.30501E+01 -2.28915E+01 -2.27976E+01 -2.27072E+01 -2.25523E+01 -2.24183E+01 -2.22986E+01 -2.20761E+01 -2.17441E+01
  -2.14402E+01 -2.12945E+01 -2.12801E+01 -2.13496E+01 -2.15328E+01 -2.17912E+01 -2.20148E+01 -2.21146E+01 -2.20917E+01 -2.19623E+01
  -2.17976E+01 -2.16750E+01 -2.16145E+01 -2.15901E+01 -2.15612E+01 -2.15232E+01 -2.14977E+01 -2.14529E+01 -2.13800E+01 -2.13026E+01
  -2.12110E+01 -2.10954E+01 -2.09742E+01 -2.08689E+01 -2.07932E+01 -2.07432E+01 -2.07006E+01 -2.06619E+01 -2.06248E+01 -2.05752E+01
  -2.05096E+01 -2.04315E+01 -2.03443E+01 -2.02583E+01 -2.01629E+01 -2.00787E+01 -2.00180E+01 -1.99717E+01 -1.99356E+01 -1.99024E+01
  -1.98319E+01 -1.97126E+01 -1.95743E+01 -1.94195E+01 -1.92666E+01 -1.91619E+01 -1.91364E+01 -1.91752E+01 -1.92236E+01 -1.92295E+01
  -1.91707E+01 -1.90084E+01 -1.87773E+01 -1.85398E+01 -1.82944E+01 -1.80682E+01 -1.79346E+01 -1.79366E+01 -1.80373E+01 -1.81455E+01
  -1.82195E+01 -1.82890E+01 -1.83559E+01 -1.83622E+01 -1.82730E+01 -1.81050E+01 -1.78247E+01 -1.72756E+01 -1.58072E+01 -1.35937E+01
  -1.13574E+01 -8.74539E+00 -6.14851E+00 -4.85378E+00 -5.72575E+00 -8.20796E+00 -1.08347E+01 -1.28818E+01 -1.46326E+01 -1.60849E+01
  -1.68408E+01 -1.70282E+01 -1.70586E+01 -1.70487E+01 -1.70203E+01 -1.69828E+01 -1.69373E+01 -1.68862E+01 -1.68370E+01 -1.67773E+01
  -1.66784E+01 -1.64425E+01 -1.58218E+01 -1.50286E+01 -1.41747E+01 -1.31655E+01 -1.22668E+01 -1.19285E+01 -1.23133E+01 -1.31105E+01
  -1.38693E+01 -1.44681E+01 -1.50209E+01 -1.54719E+01 -1.56967E+01 -1.57733E+01 -1.57805E+01 -1.57151E+01 -1.55939E+01 -1.54343E+01
  -1.52642E+01 -1.51107E+01 -1.49884E+01 -1.48881E+01 -1.47976E+01 -1.47231E+01 -1.46699E+01 -1.46304E+01 -1.45907E+01 -1.45451E+01
  -1.44977E+01 -1.44471E+01 -1.43908E+01 -1.43256E+01 -1.42531E+01 -1.41913E+01 -1.41763E+01 -1.41944E+01 -1.42383E+01 -1.43083E+01
  -1.43424E+01 -1.43148E+01 -1.41962E+01 -1.40119E+01 -1.38673E+01 -1.38245E+01 -1.38606E+01 -1.39274E+01 -1.39927E+01 -1.40496E+01
  -1.41089E+01 -1.41826E+01 -1.42516E+01 -1.42873E+01 -1.43236E+01 -1.43396E+01 -1.43039E+01 -1.41917E+01 -1.40522E+01 -1.39804E+01
  -1.39721E+01 -1.39432E+01 -1.38704E+01 -1.37622E+01 -1.36458E+01 -1.35390E+01 -1.33773E+01 -1.31090E+01 -1.27796E+01 -1.24739E+01
  -1.22596E+01 -1.21278E+01 -1.20294E+01 -1.19933E+01 -1.19897E+01 -1.19784E+01 -1.19862E+01 -1.20306E+01 -1.20574E+01 -1.19920E+01
  -1.18644E+01 -1.16952E+01 -1.15016E+01 -1.13082E+01 -1.11905E+01 -1.12352E+01 -1.13854E+01 -1.15711E+01 -1.17900E+01 -1.19653E+01
  -1.20143E+01 -1.18570E+01 -1.15679E+01 -1.11708E+01 -1.06939E+01 -1.03200E+01 -1.02668E+01 -1.05885E+01 -1.10821E+01 -1.15161E+01
  -1.18471E+01 -1.20466E+01 -1.19397E+01 -1.14734E+01 -1.08395E+01 -1.02833E+01 -9.92304E+00 -9.71090E+00 -9.60105E+00 -9.61386E+00
  -9.68413E+00 -9.69339E+00 -9.59139E+00 -9.41702E+00 -9.23967E+00 -9.11014E+00 -9.04309E+00 -9.05599E+00 -9.17359E+00 -9.32083E+00
  -9.41526E+00 -9.41478E+00 -9.30752E+00 -9.08534E+00 -8.79433E+00 -8.52462E+00 -8.34109E+00 -8.24159E+00 -8.18696E+00 -8.15415E+00
  -8.06305E+00 -7.76019E+00 -7.29750E+00 -6.71370E+00 -5.79980E+00 -3.70306E+00 -5.79345E-01  2.35945E+00  5.70537E+00  9.17111E+00
   1.09305E+01  9.59493E+00  5.84899E+00  1.81936E+00 -1.34440E+00 -4.04615E+00 -6.33895E+00 -7.62858E+00 -8.04380E+00 -8.20374E+00
  -8.27431E+00 -8.27771E+00 -8.23835E+00 -8.18084E+00 -8.12354E+00 -8.08623E+00 -8.07803E+00 -8.09008E+00 -8.11271E+00 -8.13942E+00
  -8.15859E+00 -8.15952E+00 -8.14166E+00 -8.10927E+00 -8.06710E+00 -8.01971E+00 -7.97156E+00 -7.92492E+00 -7.88027E+00 -7.83586E+00
  -7.78968E+00 -7.74207E+00 -7.69331E+00 -7.64418E+00 -7.59636E+00 -7.54827E+00 -7.49847E+00 -7.44774E+00 -7.39548E+00 -7.33974E+00
  -7.27988E+00 -7.21695E+00 -7.15206E+00 -7.08565E+00 -7.01775E+00 -6.94871E+00 -6.87850E+00 -6.80654E+00 -6.73237E+00 -6.65576E+00
  -6.57639E+00 -6.49408E+00 -6.40857E+00 -6.31957E+00 -6.22666E+00 -6.12942E+00 -6.02737E+00 -5.92005E+00 -5.80681E+00 -5.68694E+00
  -5.55961E+00 -5.42398E+00 -5.27905E+00 -5.12368E+00 -4.95650E+00 -4.77608E+00 -4.58078E+00 -4.36893E+00 -4.13861E+00 -3.88779E+00
  -3.61430E+00 -3.31597E+00 -2.99063E+00 -2.63629E+00 -2.25106E+00 -1.83343E+00 -1.38226E+00 -8.97139E-01 -3.78380E-01  1.72703E-01
   7.53802E-01  1.36135E+00  1.99053E+00  2.63508E+00  3.28748E+00  3.93889E+00  4.57952E+00  5.19866E+00  5.78508E+00  6.32734E+00
   6.81426E+00  7.23534E+00  7.58128E+00  7.84423E+00  8.01830E+00  8.09968E+00  8.08703E+00  7.98139E+00  7.78629E+00  7.50747E+00
   7.15268E+00  6.73128E+00  6.25400E+00  5.73235E+00  5.17828E+00  4.60360E+00  4.01971E+00  3.43717E+00  2.86558E+00  2.31322E+00
   1.78708E+00  1.29266E+00  8.34140E-01  4.14395E-01  3.52106E-02 -3.02681E-01 -5.99334E-01 -8.55540E-01 -1.07251E+00 -1.25184E+00
  -1.39524E+00 -1.50461E+00 -1.58180E+00 -1.62870E+00 -1.64705E+00 -1.63855E+00 -1.60477E+00 -1.54731E+00 -1.46772E+00 -1.36767E+00
  -1.24884E+00 -1.11314E+00 -9.62617E-01 -7.99658E-01 -6.26886E-01 -4.47272E-01 -2.63987E-01 -8.05139E-02  9.95179E-02  2.72277E-01
   4.33975E-01  5.80873E-01  7.09536E-01  8.16805E-01  9.00045E-01  9.57120E-01  9.86637E-01  9.87882E-01  9.60969E-01  9.06684E-01
   8.26570E-01  7.22734E-01  5.97896E-01  4.55144E-01  2.97910E-01  1.29692E-01 -4.59462E-02 -2.25619E-01 -4.06073E-01 -5.84414E-01
  -7.58055E-01 -9.24895E-01 -1.08319E+00 -1.23167E+00 -1.36938E+00 -1.49579E+00 -1.61062E+00 -1.71397E+00 -1.80607E+00 -1.88737E+00
  -1.95838E+00 -2.01976E+00 -2.07217E+00 -2.11637E+00 -2.15302E+00 -2.18284E+00 -2.20643E+00 -2.22443E+00 -2.23739E+00 -2.24585E+00
  -2.25027E+00 -2.25107E+00 -2.24860E+00 -2.24322E+00 -2.23522E+00 -2.22491E+00 -2.21248E+00 -2.19816E+00 -2.18209E+00 -2.16449E+00
  -2.14549E+00 -2.12523E+00 -2.10381E+00 -2.08133E+00 -2.05786E+00 -2.03352E+00 -2.00838E+00 -1.98251E+00 -1.95594E+00 -1.92875E+00
  -1.90096E+00 -1.87265E+00 -1.84384E+00 -1.81459E+00 -1.78488E+00 -1.75478E+00 -1.72430E+00 -1.69350E+00 -1.66236E+00 -1.63094E+00
  -1.59920E+00 -1.56721E+00 -1.53496E+00 -1.50251E+00 -1.46981E+00 -1.43692E+00 -1.40381E+00 -1.37052E+00 -1.33706E+00 -1.30345E+00
  -1.26967E+00 -1.23574E+00 -1.20165E+00 -1.16744E+00 -1.13310E+00 -1.09866E+00 -1.06408E+00 -1.02938E+00 -9.94561E-01 -9.59660E-01
  -9.24649E-01 -8.89558E-01 -8.54341E-01 -8.19039E-01 -7.83629E-01 -7.48157E-01 -7.12582E-01 -6.76929E-01
 NY background values follow
    -2.475E+01   -2.468E+01   -2.461E+01   -2.455E+01   -2.448E+01   -2.441E+01   -2.435E+01   -2.428E+01   -2.421E+01   -2.415E+01
    -2.408E+01   -2.401E+01   -2.394E+01   -2.388E+01   -2.381E+01   -2.374E+01   -2.368E+01   -2.361E+01   -2.354E+01   -2.348E+01
    -2.341E+01   -2.334E+01   -2.328E+01   -2.321E+01   -2.314E+01   -2.307E+01   -2.301E+01   -2.294E+01   -2.287E+01   -2.281E+01
    -2.274E+01   -2.267E+01   -2.261E+01   -2.254E+01   -2.247E+01   -2.241E+01   -2.234E+01   -2.227E+01   -2.221E+01   -2.214E+01
    -2.208E+01   -2.201E+01   -2.194E+01   -2.188E+01   -2.181E+01   -2.174E+01   -2.168E+01   -2.161E+01   -2.155E+01   -2.148E+01
    -2.141E+01   -2.135E+01   -2.128E+01   -2.122E+01   -2.115E+01   -2.109E+01   -2.102E+01   -2.095E+01   -2.089E+01   -2.082E+01
    -2.076E+01   -2.069E+01   -2.063E+01   -2.056E+01   -2.050E+01   -2.043E+01   -2.037E+01   -2.030E+01   -2.024E+01   -2.017E+01
    -2.011E+01   -2.004E+01   -1.998E+01   -1.992E+01   -1.985E+01   -1.979E+01   -1.972E+01   -1.966E+01   -1.959E+01   -1.953E+01
    -1.947E+01   -1.940E+01   -1.934E+01   -1.928E+01   -1.921E+01   -1.915E+01   -1.909E+01   -1.902E+01   -1.896E+01   -1.890E+01
    -1.883E+01   -1.877E+01   -1.871E+01   -1.865E+01   -1.858E+01   -1.852E+01   -1.846E+01   -1.840E+01   -1.833E+01   -1.827E+01
    -1.821E+01   -1.815E+01   -1.809E+01   -1.803E+01   -1.796E+01   -1.790E+01   -1.784E+01   -1.778E+01   -1.772E+01   -1.766E+01
    -1.760E+01   -1.754E+01   -1.748E+01   -1.742E+01   -1.736E+01   -1.730E+01   -1.724E+01   -1.718E+01   -1.712E+01   -1.706E+01
    -1.700E+01   -1.694E+01   -1.688E+01   -1.682E+01   -1.676E+01   -1.670E+01   -1.664E+01   -1.659E+01   -1.653E+01   -1.647E+01
    -1.641E+01   -1.635E+01   -1.629E+01   -1.624E+01   -1.618E+01   -1.612E+01   -1.606E+01   -1.601E+01   -1.595E+01   -1.589E+01
    -1.583E+01   -1.578E+01   -1.572E+01   -1.566E+01   -1.561E+01   -1.555E+01   -1.549E+01   -1.544E+01   -1.538E+01   -1.533E+01
    -1.527E+01   -1.522E+01   -1.516E+01   -1.510E+01   -1.505E+01   -1.499E+01   -1.494E+01   -1.488E+01   -1.483E+01   -1.477E+01
    -1.472E+01   -1.467E+01   -1.461E+01   -1.456E+01   -1.450E+01   -1.445E+01   -1.440E+01   -1.434E+01   -1.429E+01   -1.424E+01
    -1.418E+01   -1.413E+01   -1.408E+01   -1.402E+01   -1.397E+01   -1.392E+01   -1.387E+01   -1.381E+01   -1.376E+01   -1.371E+01
    -1.366E+01   -1.361E+01   -1.355E+01   -1.350E+01   -1.345E+01   -1.340E+01   -1.335E+01   -1.330E+01   -1.325E+01   -1.319E+01
    -1.314E+01   -1.309E+01   -1.304E+01   -1.299E+01   -1.294E+01   -1.289E+01   -1.284E+01   -1.279E+01   -1.274E+01   -1.269E+01
    -1.264E+01   -1.259E+01   -1.254E+01   -1.249E+01   -1.244E+01   -1.240E+01   -1.235E+01   -1.230E+01   -1.225E+01   -1.220E+01
    -1.215E+01   -1.210E+01   -1.206E+01   -1.201E+01   -1.196E+01   -1.191E+01   -1.186E+01   -1.181E+01   -1.177E+01   -1.172E+01
    -1.167E+01   -1.162E+01   -1.158E+01   -1.153E+01   -1.148E+01   -1.144E+01   -1.139E+01   -1.134E+01   -1.129E+01   -1.125E+01
    -1.120E+01   -1.115E+01   -1.111E+01   -1.106E+01   -1.102E+01   -1.097E+01   -1.092E+01   -1.088E+01   -1.083E+01   -1.079E+01
    -1.074E+01   -1.069E+01   -1.065E+01   -1.060E+01   -1.056E+01   -1.051E+01   -1.047E+01   -1.042E+01   -1.038E+01   -1.033E+01
    -1.029E+01   -1.024E+01   -1.020E+01   -1.015E+01   -1.011E+01   -1.006E+01   -1.002E+01   -9.976E+00   -9.932E+00   -9.888E+00
    -9.844E+00   -9.800E+00   -9.756E+00   -9.712E+00   -9.669E+00   -9.625E+00   -9.582E+00   -9.538E+00   -9.495E+00   -9.452E+00
    -9.409E+00   -9.365E+00   -9.323E+00   -9.280E+00   -9.237E+00   -9.194E+00   -9.151E+00   -9.109E+00   -9.066E+00   -9.024E+00
    -8.981E+00   -8.939E+00   -8.897E+00   -8.855E+00   -8.813E+00   -8.771E+00   -8.729E+00   -8.687E+00   -8.645E+00   -8.603E+00
    -8.562E+00   -8.520E+00   -8.479E+00   -8.437E+00   -8.396E+00   -8.354E+00   -8.313E+00   -8.272E+00   -8.231E+00   -8.190E+00
    -8.149E+00   -8.108E+00   -8.067E+00   -8.026E+00   -7.985E+00   -7.944E+00   -7.904E+00   -7.863E+00   -7.823E+00   -7.782E+00
    -7.742E+00   -7.701E+00   -7.661E+00   -7.620E+00   -7.580E+00   -7.540E+00   -7.500E+00   -7.460E+00   -7.420E+00   -7.380E+00
    -7.340E+00   -7.300E+00   -7.260E+00   -7.220E+00   -7.180E+00   -7.140E+00   -7.100E+00   -7.061E+00   -7.021E+00   -6.982E+00
    -6.942E+00   -6.902E+00   -6.863E+00   -6.824E+00   -6.784E+00   -6.745E+00   -6.706E+00   -6.666E+00   -6.627E+00   -6.588E+00
    -6.549E+00   -6.510E+00   -6.470E+00   -6.431E+00   -6.392E+00   -6.353E+00   -6.315E+00   -6.276E+00   -6.237E+00   -6.198E+00
    -6.159E+00   -6.120E+00   -6.082E+00   -6.043E+00   -6.004E+00   -5.966E+00   -5.927E+00   -5.889E+00   -5.850E+00   -5.812E+00
    -5.773E+00   -5.735E+00   -5.696E+00   -5.658E+00   -5.620E+00   -5.581E+00   -5.543E+00   -5.505E+00   -5.467E+00   -5.429E+00
    -5.391E+00   -5.352E+00   -5.314E+00   -5.276E+00   -5.238E+00   -5.200E+00   -5.162E+00   -5.124E+00   -5.086E+00   -5.049E+00
    -5.011E+00   -4.973E+00   -4.935E+00   -4.897E+00   -4.859E+00   -4.822E+00   -4.784E+00   -4.746E+00   -4.708E+00   -4.671E+00
    -4.633E+00   -4.595E+00   -4.558E+00   -4.520E+00   -4.483E+00   -4.445E+00   -4.407E+00   -4.370E+00   -4.332E+00   -4.295E+00
    -4.257E+00   -4.220E+00   -4.182E+00   -4.145E+00   -4.107E+00   -4.070E+00   -4.033E+00   -3.995E+00   -3.958E+00   -3.920E+00
    -3.883E+00   -3.846E+00   -3.808E+00   -3.771E+00   -3.733E+00   -3.696E+00   -3.659E+00   -3.621E+00   -3.584E+00   -3.547E+00
    -3.510E+00   -3.472E+00   -3.435E+00   -3.398E+00   -3.360E+00   -3.323E+00   -3.286E+00   -3.249E+00   -3.212E+00   -3.174E+00
    -3.137E+00   -3.100E+00   -3.063E+00   -3.025E+00   -2.988E+00   -2.951E+00   -2.914E+00   -2.877E+00   -2.840E+00   -2.802E+00
    -2.765E+00   -2.728E+00   -2.691E+00   -2.654E+00   -2.617E+00   -2.580E+00   -2.543E+00   -2.505E+00   -2.468E+00   -2.431E+00
    -2.394E+00   -2.357E+00   -2.320E+00   -2.283E+00   -2.246E+00   -2.209E+00   -2.172E+00   -2.135E+00   -2.098E+00   -2.061E+00
    -2.023E+00   -1.986E+00   -1.949E+00   -1.912E+00   -1.875E+00   -1.838E+00   -1.801E+00   -1.764E+00   -1.727E+00   -1.690E+00
    -1.653E+00   -1.616E+00   -1.579E+00   -1.542E+00   -1.505E+00   -1.468E+00   -1.431E+00   -1.394E+00   -1.357E+00   -1.320E+00
    -1.283E+00   -1.246E+00   -1.209E+00   -1.172E+00   -1.135E+00   -1.098E+00   -1.061E+00   -1.024E+00   -9.872E-01   -9.502E-01
    -9.133E-01   -8.763E-01   -8.393E-01   -8.023E-01   -7.653E-01   -7.284E-01   -6.914E-01   -6.544E-01
 Asp      Conc. = 4.89E+01
