 LCModel (Version 6.3-1L) Copyright: S.W. Provencher.          Ref.: Magn. Reson. Med. 30:672-679 (1993).                
 Slice#1 Row#7 Col#7  PD_05_press_2_raw_act
 Data of: Institute of Biomedical Engineering, Bogazici University, Istanbul
 05-January-2018  18:59
 36 lines in following concentration table = NCONC+1
    Conc.  %SD /Cr+PCr  Metabolite                                         
  177.541 185% 7.8E-02 Ala                                                 
  550.726  74%   0.242 Asp                                                 
 1.22E+03  38%   0.535 Cr                                                  
 1.06E+03  43%   0.465 PCr                                                 
  102.649 244% 4.5E-02 GABA                                                
  295.188  86%   0.130 Glc                                                 
  741.025  87%   0.325 Gln                                                 
 3.44E+03  22%   1.510 Glu                                                 
  555.570  11%   0.244 GPC                                                 
    0.000 999%   0.000 PCh                                                 
  904.079  24%   0.397 GSH                                                 
 3.96E+03  17%   1.737 Ins                                                 
  463.691  79%   0.204 Lac                                                 
 3.91E+03   5%   1.717 NAA                                                 
    0.000 999%   0.000 NAAG                                                
  114.233  55% 5.0E-02 Scyllo                                              
  136.264 281% 6.0E-02 Tau                                                 
    0.000 999%   0.000 -CrCH2                                              
  555.570  11%   0.244 GPC+PCh                                             
 3.91E+03   5%   1.717 NAA+NAAG                                            
 2.28E+03   7%   1.000 Cr+PCr                                              
 4.18E+03  24%   1.836 Glu+Gln                                             
 2.21E+04   7%   9.698 Lip13a                                              
    0.000 999%   0.000 Lip13b                                              
    0.000 999%   0.000-Lip09                                               
 3.36E+03  14%   1.475 MM09                                                
 2.39E+03  30%   1.048 Lip20                                               
 5.46E+03  15%   2.396 MM20                                                
 1.06E+03  23%   0.466 MM12                                                
 6.11E+03  12%   2.682+MM14                                                
 1.24E+03  38%   0.546 MM17                                                
 2.21E+04   7%   9.698 Lip13a+Lip13b                                       
 2.93E+04   4%  12.846 MM14+Lip13a+Lip13b+MM12                             
 3.36E+03  14%   1.475 MM09+Lip09                                          
 7.84E+03  11%   3.444 MM20+Lip20                                          
   6 lines in following misc. output table
  FWHM = 0.046 ppm    S/N =   7                                            
  Data shift = 0.000 ppm                                                   
  Ph: -28 deg       2.6 deg/ppm                                            
  alphaB,S = 8.5E+01,   6.7E+01                                            
   14 spline knots.   Ns = 6(1)                                            
   5 inflections.     1 extrema                                            
  498 points on ppm-axis = NY
      4.000000     3.992357     3.984714     3.977070     3.969427     3.961784     3.954141     3.946497     3.938854     3.931211
      3.923568     3.915925     3.908281     3.900638     3.892995     3.885352     3.877708     3.870065     3.862422     3.854779
      3.847136     3.839492     3.831849     3.824206     3.816563     3.808919     3.801276     3.793633     3.785990     3.778347
      3.770703     3.763060     3.755417     3.747774     3.740130     3.732487     3.724844     3.717201     3.709558     3.701914
      3.694271     3.686628     3.678985     3.671341     3.663698     3.656055     3.648412     3.640769     3.633125     3.625482
      3.617839     3.610196     3.602552     3.594909     3.587266     3.579623     3.571980     3.564336     3.556693     3.549050
      3.541407     3.533763     3.526120     3.518477     3.510834     3.503191     3.495547     3.487904     3.480261     3.472618
      3.464974     3.457331     3.449688     3.442045     3.434402     3.426758     3.419115     3.411472     3.403829     3.396185
      3.388542     3.380899     3.373256     3.365613     3.357969     3.350326     3.342683     3.335040     3.327396     3.319753
      3.312110     3.304467     3.296824     3.289180     3.281537     3.273894     3.266251     3.258607     3.250964     3.243321
      3.235678     3.228034     3.220391     3.212748     3.205105     3.197462     3.189818     3.182175     3.174532     3.166889
      3.159245     3.151602     3.143959     3.136316     3.128673     3.121029     3.113386     3.105743     3.098100     3.090456
      3.082813     3.075170     3.067527     3.059884     3.052240     3.044597     3.036954     3.029311     3.021667     3.014024
      3.006381     2.998738     2.991095     2.983451     2.975808     2.968165     2.960522     2.952878     2.945235     2.937592
      2.929949     2.922306     2.914662     2.907019     2.899376     2.891733     2.884089     2.876446     2.868803     2.861160
      2.853517     2.845873     2.838230     2.830587     2.822944     2.815300     2.807657     2.800014     2.792371     2.784728
      2.777084     2.769441     2.761798     2.754155     2.746511     2.738868     2.731225     2.723582     2.715939     2.708295
      2.700652     2.693009     2.685366     2.677722     2.670079     2.662436     2.654793     2.647150     2.639506     2.631863
      2.624220     2.616577     2.608933     2.601290     2.593647     2.586004     2.578361     2.570717     2.563074     2.555431
      2.547788     2.540144     2.532501     2.524858     2.517215     2.509572     2.501928     2.494285     2.486642     2.478999
      2.471355     2.463712     2.456069     2.448426     2.440783     2.433139     2.425496     2.417853     2.410210     2.402566
      2.394923     2.387280     2.379637     2.371994     2.364350     2.356707     2.349064     2.341421     2.333777     2.326134
      2.318491     2.310848     2.303205     2.295561     2.287918     2.280275     2.272632     2.264988     2.257345     2.249702
      2.242059     2.234416     2.226772     2.219129     2.211486     2.203843     2.196199     2.188556     2.180913     2.173270
      2.165627     2.157983     2.150340     2.142697     2.135054     2.127410     2.119767     2.112124     2.104481     2.096838
      2.089194     2.081551     2.073908     2.066265     2.058621     2.050978     2.043335     2.035692     2.028049     2.020405
      2.012762     2.005119     1.997476     1.989833     1.982190     1.974546     1.966903     1.959260     1.951617     1.943974
      1.936331     1.928688     1.921045     1.913402     1.905759     1.898115     1.890472     1.882829     1.875186     1.867543
      1.859900     1.852257     1.844614     1.836971     1.829327     1.821684     1.814041     1.806398     1.798755     1.791112
      1.783469     1.775826     1.768183     1.760540     1.752896     1.745253     1.737610     1.729967     1.722324     1.714681
      1.707038     1.699395     1.691752     1.684108     1.676465     1.668822     1.661179     1.653536     1.645893     1.638250
      1.630607     1.622964     1.615321     1.607677     1.600034     1.592391     1.584748     1.577105     1.569462     1.561819
      1.554176     1.546533     1.538890     1.531246     1.523603     1.515960     1.508317     1.500674     1.493031     1.485388
      1.477745     1.470102     1.462458     1.454815     1.447172     1.439529     1.431886     1.424243     1.416600     1.408957
      1.401314     1.393671     1.386027     1.378384     1.370741     1.363098     1.355455     1.347812     1.340169     1.332526
      1.324883     1.317240     1.309596     1.301953     1.294310     1.286667     1.279024     1.271381     1.263738     1.256095
      1.248452     1.240808     1.233165     1.225522     1.217879     1.210236     1.202593     1.194950     1.187307     1.179664
      1.172021     1.164377     1.156734     1.149091     1.141448     1.133805     1.126162     1.118519     1.110876     1.103233
      1.095590     1.087946     1.080303     1.072660     1.065017     1.057374     1.049731     1.042088     1.034445     1.026802
      1.019158     1.011515     1.003872     0.996229     0.988586     0.980943     0.973300     0.965657     0.958014     0.950371
      0.942727     0.935084     0.927441     0.919798     0.912155     0.904512     0.896869     0.889226     0.881583     0.873940
      0.866296     0.858653     0.851010     0.843367     0.835724     0.828081     0.820438     0.812795     0.805152     0.797508
      0.789865     0.782222     0.774579     0.766936     0.759293     0.751650     0.744007     0.736364     0.728721     0.721077
      0.713434     0.705791     0.698148     0.690505     0.682862     0.675219     0.667576     0.659933     0.652290     0.644646
      0.637003     0.629360     0.621717     0.614074     0.606431     0.598788     0.591145     0.583502     0.575858     0.568215
      0.560572     0.552929     0.545286     0.537643     0.530000     0.522357     0.514714     0.507071     0.499427     0.491784
      0.484141     0.476498     0.468855     0.461212     0.453569     0.445925     0.438282     0.430639     0.422996     0.415353
      0.407710     0.400067     0.392424     0.384780     0.377137     0.369494     0.361851     0.354208     0.346565     0.338922
      0.331278     0.323635     0.315992     0.308349     0.300706     0.293063     0.285420     0.277777     0.270133     0.262490
      0.254847     0.247204     0.239561     0.231918     0.224275     0.216631     0.208988     0.201345
 NY phased data points follow
   3.68813E+01  3.61258E+01  1.55932E+01  2.96921E+01  4.04909E+01  4.03729E+01  5.11179E+01  3.35835E+01  7.12144E+01  7.08785E+01
   7.02108E+01  5.53597E+01  7.41776E+01  5.41429E+01  5.32751E+01  2.46063E+01  3.52297E+01  1.62166E+01  3.10897E+01  1.42728E+01
   3.87965E+01  3.30450E+01  4.30252E+01  3.03047E+01  4.57173E+01  3.14503E+01  4.27108E+01  3.61917E+01  4.44701E+01  1.88941E+01
   4.23460E+01  5.05385E+01  5.92933E+01  3.52263E+01  2.21069E+01  2.29027E+01  2.35873E+01  2.09163E+01  3.28072E+01  2.17669E+01
   4.19306E+01  3.44704E+01  2.35493E+01  3.95797E+01  3.03593E+01  5.41791E+01  3.46038E+01  2.95876E+01  4.60661E+01  6.67581E+01
   1.67876E+01  2.28933E+01  3.42455E+01  2.25366E+01  3.15598E+01  2.82156E+01  2.43462E+01  4.64887E+01  3.07688E+01  4.11975E+01
   2.03524E+01  1.97455E+01  3.19766E+01  1.81106E+01  7.08786E+00  3.63442E+00  9.24310E+00  2.12911E+01  1.93451E+01  2.00353E+01
   1.52751E+01  1.20933E+01  1.26732E+01  1.98455E+01  1.19679E+01  1.42172E+01  1.72061E+01  3.88196E+00  3.55917E+01  1.30553E+01
   1.40561E+01  1.67093E+01  1.26978E+01  8.21358E+00  2.87535E+01 -2.68812E+00  2.28458E+01  1.75350E+01  6.91289E+00  2.77425E+01
   1.67320E+01  2.44836E+01  1.50226E+01  2.50709E+01  1.44049E+01  3.09487E+01  1.74836E+01  2.94092E+01  1.41224E+01  2.66485E+01
   3.39966E+01  4.72335E+01  6.38842E+01  6.23935E+01  7.80552E+01  4.70241E+01  2.82297E+01  3.43747E+01  2.79280E+01  2.22938E+01
   7.94046E+00  3.81867E+01  1.70542E+01  1.59571E+01  2.66790E+01  1.92363E+01  1.19911E+01  2.13454E+01  2.08996E+01  2.44461E+01
   1.48871E+01  2.56499E+01  3.23625E+01  3.96381E+01  4.22199E+01  7.51703E+01  9.29822E+01  9.74008E+01  8.68041E+01  1.00280E+02
   5.87284E+01  2.88133E+01  2.53766E+01  3.70632E+01  4.31094E+01  2.63916E+01  3.36537E+01  1.88182E+01  3.02253E+01  8.04957E+00
   9.95817E-01  7.12167E+00  2.08688E+01  3.59318E+00  1.00558E+01  1.98339E+01  1.87507E+01  5.78076E+00 -2.26909E+00  1.44440E+01
   1.35886E+01 -1.95784E+01  1.62899E+01 -6.00754E+00  1.86482E+01  1.55778E+01  3.02319E+00  2.36907E-01 -4.22478E+00  1.07240E+01
   1.91118E+01 -1.34926E+01  6.34026E+00  7.11864E+00  1.89130E+01  2.94895E+00  1.06012E+01 -7.28576E+00  3.89148E+00  4.43583E-01
  -9.33119E+00 -8.27630E+00  1.14399E+01 -1.78004E+01  3.68330E+00 -1.26437E+01 -8.89973E+00 -8.49598E+00 -8.51516E+00 -1.27600E+00
  -1.43486E+01  3.86453E+00  4.79267E+00  1.14476E+01  7.33914E+00 -1.38862E+00 -2.72069E+00  2.31356E+00 -9.53678E+00  7.23629E+00
   2.70341E+01  1.75530E+01  4.83050E+00 -4.40798E+00  6.43226E+00 -6.16858E-01 -6.99799E+00  1.84377E+01 -1.65834E+00 -2.27764E+01
  -1.01474E+01  1.36083E+01 -8.54998E-01  2.34663E+01  2.00883E+01  1.44149E+01  2.40659E+01 -2.33826E+00  1.00530E+01  4.70958E+00
   6.37129E+00  1.13162E+01  2.09231E+01  2.93304E+01  1.25489E+01  2.08977E+01  4.09888E+01  3.25121E+01  1.02068E+01  8.11572E+00
   1.01153E+01 -7.49879E+00 -4.25142E+00  6.04130E+00  9.79661E+00  2.74978E+01  1.95133E+01  3.75407E+01  3.07359E+01  3.37936E+01
   1.94547E+01  2.26785E+01  3.06345E+01  3.32636E+01  2.45950E+01  1.92735E+01  3.57368E+01  3.90383E+01  3.42429E+01  2.65039E+01
   1.84251E+01  2.73081E+01  3.62576E+01  3.95134E+01  3.86506E+01  3.15789E+01  3.20906E+01  6.99091E+01  3.30457E+01  5.25314E+01
   4.96248E+01  4.10678E+01  4.44287E+01  4.22164E+01  7.21770E+01  9.29175E+01  8.73123E+01  9.18015E+01  1.45915E+02  1.74905E+02
   1.86074E+02  1.71930E+02  1.46023E+02  8.45935E+01  5.05107E+01  4.68262E+01  5.38697E+01  3.59411E+01  3.20075E+01  4.15072E+01
   1.49537E+01  4.75997E+01  2.01842E+01  1.05393E+01  3.36260E+01  8.28898E+00  9.46447E+00  1.26876E+01  3.40743E+00  1.24924E+01
   1.98483E+01  1.71364E+00  2.12724E+00  1.07161E+01  1.11328E+01 -2.63111E+00  1.44811E+01 -1.91058E+00  7.19578E+00  1.64276E+01
   1.75823E+01  1.24212E+01  1.59331E+01  1.32154E+01  1.33401E+01  9.69313E+00  1.68138E+01  1.43406E+01  2.74541E+01  1.27532E+01
   1.86132E+01  6.18010E+00  1.27673E+01  2.98177E+01  1.59591E+01  2.61864E+01  2.98276E+01  2.64678E+01  2.62166E+01  9.42980E+00
   2.34992E+01  1.71167E+01  1.76180E+01  3.10120E+01  2.99519E+01  4.46805E+01  2.34663E+01  1.79641E+01  1.64990E+01  2.19477E+01
   2.87278E+01  4.56052E+01  2.62296E+01  2.74483E+01  3.22285E+01  5.69036E+01  4.86639E+01  7.87020E+01  4.85978E+01  5.50926E+01
   7.65819E+01  8.42428E+01  1.00694E+02  1.02521E+02  1.02376E+02  1.24805E+02  1.32409E+02  1.13742E+02  1.24557E+02  1.46634E+02
   1.32003E+02  1.37481E+02  1.39842E+02  1.53775E+02  1.24498E+02  1.40771E+02  1.40489E+02  1.36012E+02  1.19337E+02  1.37351E+02
   1.17957E+02  1.13688E+02  1.20830E+02  1.04316E+02  1.16447E+02  8.97575E+01  1.01726E+02  8.33736E+01  7.89755E+01  8.16328E+01
   7.08990E+01  7.68608E+01  7.83334E+01  6.02161E+01  7.03706E+01  7.26732E+01  5.97417E+01  5.51413E+01  3.43055E+01  3.88994E+01
   4.24871E+01  4.37787E+01  4.08508E+01  2.40173E+01  1.78366E+01  3.65802E+01  2.36428E+01  1.63483E+01  1.90627E+01  1.37068E+01
   6.03432E+00  1.03561E+01  5.49909E+00  7.68959E+00  1.32527E+01  2.11089E+00  1.99515E+01  8.94151E+00  7.68595E+00  2.20872E+01
   4.45218E+00  1.24772E+01  7.43338E+00  2.65371E+01  8.13758E+00  1.91319E+01 -4.21707E+00  3.27371E+01  1.58804E+01  7.18233E+00
   1.51739E+01  1.45070E+01  2.82539E+01  2.07614E+01  2.14908E+01  2.01693E+01  2.42489E+01  2.62777E+01  2.35754E+01  1.32968E+01
   2.13333E+01  2.43424E+01  1.42058E+01  3.22160E+01  7.68861E+00 -3.71584E+00  3.23458E+00  1.06099E+01 -1.25878E+00  7.16879E-01
  -3.46695E+00  8.46619E+00 -1.00806E+01  9.53659E+00  7.34390E-01 -8.86695E-01 -2.48786E+00 -2.63544E+00 -3.45155E+00  1.46596E+01
   5.59749E+00 -1.07721E+01  1.10051E+01  4.25081E+00  5.85448E+00 -1.66561E+00  3.49678E+00  6.43883E+00 -6.19457E+00  3.18223E+00
   2.53465E+00  3.93721E+00  1.71962E+00 -6.68649E+00  2.93895E+00  1.00222E+01  6.18973E+00 -1.73349E+01  4.56327E+00  1.77251E+00
   3.29501E+00 -1.12482E+01  1.09117E+01  2.32365E+01  1.06114E+01 -2.59131E+00  8.68584E+00  2.07282E+00 -4.07135E+00  1.19927E+01
   7.22895E+00  1.91099E-03  4.32335E+00 -3.01328E+00  4.90556E+00 -1.39543E+01 -1.60323E+01  7.97692E+00  3.48161E+00  7.93314E+00
   5.25903E+00 -6.55205E+00  1.97586E+00  4.21207E+00 -8.06006E+00  1.57493E+01  2.94530E+00 -1.16100E+01  1.38688E+01 -8.96841E+00
   9.98619E+00 -6.02200E+00  2.45081E+00  5.37898E+00 -5.64430E+00 -7.28741E+00  7.73593E+00 -6.75135E+00  1.36115E+01  5.68615E-01
  -7.82259E+00 -5.02512E-02  3.55878E+00 -7.27862E+00  7.94613E+00  1.80609E+00 -7.42371E+00  7.03877E+00
 NY points of the fit to the data follow
   2.35913E+01  2.34459E+01  2.40353E+01  2.61760E+01  3.00824E+01  3.50183E+01  4.21306E+01  5.02586E+01  5.82295E+01  6.53299E+01
   6.97429E+01  6.90473E+01  6.27940E+01  5.31142E+01  4.28734E+01  3.42763E+01  2.83138E+01  2.50549E+01  2.28525E+01  2.08903E+01
   2.09043E+01  2.17703E+01  2.22235E+01  2.26400E+01  2.40707E+01  2.56020E+01  2.70920E+01  3.00560E+01  3.50564E+01  4.10530E+01
   4.62842E+01  4.87537E+01  4.66988E+01  4.09469E+01  3.47409E+01  2.93288E+01  2.40155E+01  1.94775E+01  1.75137E+01  1.74268E+01
   1.86813E+01  2.19996E+01  2.66871E+01  3.12574E+01  3.59180E+01  4.15075E+01  4.65668E+01  4.82411E+01  4.50084E+01  3.70803E+01
   2.73728E+01  1.98803E+01  1.64396E+01  1.58314E+01  1.60854E+01  1.71719E+01  1.95018E+01  2.23615E+01  2.49760E+01  2.68290E+01
   2.72896E+01  2.59142E+01  2.28729E+01  1.94923E+01  1.72004E+01  1.66026E+01  1.74212E+01  1.89660E+01  2.06282E+01  2.22351E+01
   2.36972E+01  2.46732E+01  2.50103E+01  2.46287E+01  2.35981E+01  2.23845E+01  2.13660E+01  2.06113E+01  1.97646E+01  1.89482E+01
   1.86401E+01  1.84918E+01  1.79579E+01  1.72612E+01  1.66130E+01  1.56144E+01  1.39380E+01  1.18506E+01  1.00707E+01  9.42064E+00
   1.05086E+01  1.26999E+01  1.47206E+01  1.59724E+01  1.67794E+01  1.74141E+01  1.82550E+01  2.16938E+01  2.71281E+01  3.26984E+01
   4.05708E+01  5.16842E+01  6.26099E+01  6.82110E+01  6.53313E+01  5.41257E+01  3.93603E+01  2.78779E+01  2.23002E+01  1.93135E+01
   1.55171E+01  1.30196E+01  1.29450E+01  1.33691E+01  1.38087E+01  1.42359E+01  1.47226E+01  1.52715E+01  1.59784E+01  1.71160E+01
   1.94740E+01  2.58090E+01  3.60666E+01  4.62933E+01  5.80468E+01  7.34636E+01  8.92569E+01  9.88426E+01  9.70334E+01  8.28260E+01
   6.19178E+01  4.39848E+01  3.39471E+01  2.80509E+01  2.07320E+01  1.36373E+01  1.04370E+01  9.55373E+00  1.04459E+01  1.24526E+01
   1.45164E+01  1.59504E+01  1.66615E+01  1.66717E+01  1.62477E+01  1.56994E+01  1.50585E+01  1.43083E+01  1.35068E+01  1.27454E+01
   1.22548E+01  1.19211E+01  1.16252E+01  1.13561E+01  1.10930E+01  1.06651E+01  1.02220E+01  9.75420E+00  9.07154E+00  8.25265E+00
   7.40963E+00  7.12670E+00  7.78228E+00  8.98911E+00  9.89871E+00  9.88726E+00  9.02686E+00  7.96316E+00  7.18663E+00  6.55976E+00
   5.77519E+00  4.87495E+00  4.14808E+00  3.56110E+00  2.79683E+00  2.07464E+00  2.00782E+00  2.64006E+00  3.44587E+00  3.72207E+00
   3.19794E+00  2.42642E+00  2.56374E+00  3.64347E+00  4.61815E+00  5.24064E+00  6.23647E+00  8.19521E+00  1.11414E+01  1.41740E+01
   1.62639E+01  1.66960E+01  1.55636E+01  1.40197E+01  1.26352E+01  1.12644E+01  1.02358E+01  1.00027E+01  1.07921E+01  1.26767E+01
   1.55812E+01  1.86086E+01  2.08812E+01  2.18500E+01  2.10982E+01  1.89508E+01  1.55084E+01  1.12915E+01  7.71147E+00  5.98775E+00
   6.98861E+00  9.96879E+00  1.47744E+01  2.11676E+01  2.74478E+01  3.08189E+01  2.94970E+01  2.37484E+01  1.54059E+01  7.21970E+00
   1.18434E+00 -1.74411E+00 -1.06489E+00  3.38818E+00  1.14890E+01  2.00018E+01  2.57952E+01  2.83491E+01  2.90355E+01  2.90368E+01
   2.82228E+01  2.71109E+01  2.70441E+01  2.82497E+01  2.99631E+01  3.17296E+01  3.29195E+01  3.29518E+01  3.22504E+01  3.09808E+01
   2.92329E+01  2.79402E+01  2.83545E+01  3.04922E+01  3.33337E+01  3.63674E+01  3.92344E+01  4.11092E+01  4.16035E+01  4.15620E+01
   4.19043E+01  4.27981E+01  4.47125E+01  4.96254E+01  6.30670E+01  7.99903E+01  9.52511E+01  1.15092E+02  1.42221E+02  1.67993E+02
   1.80003E+02  1.70179E+02  1.39124E+02  9.97604E+01  6.96234E+01  5.42481E+01  4.39682E+01  3.10013E+01  2.24437E+01  1.98868E+01
   1.85059E+01  1.76097E+01  1.73340E+01  1.73857E+01  1.73865E+01  1.71866E+01  1.66959E+01  1.59888E+01  1.52296E+01  1.45138E+01
   1.38338E+01  1.32578E+01  1.28784E+01  1.26835E+01  1.26072E+01  1.25897E+01  1.26139E+01  1.26980E+01  1.28294E+01  1.29906E+01
   1.32026E+01  1.34699E+01  1.37801E+01  1.41306E+01  1.45287E+01  1.49708E+01  1.54387E+01  1.59238E+01  1.64235E+01  1.69271E+01
   1.74243E+01  1.79096E+01  1.83744E+01  1.88126E+01  1.92205E+01  1.95971E+01  1.99461E+01  2.02766E+01  2.06014E+01  2.09355E+01
   2.12967E+01  2.17085E+01  2.21965E+01  2.27889E+01  2.35184E+01  2.44210E+01  2.55344E+01  2.68973E+01  2.85508E+01  3.05424E+01
   3.29401E+01  3.58020E+01  3.89673E+01  4.24145E+01  4.62543E+01  5.03882E+01  5.45707E+01  5.86578E+01  6.27167E+01  6.71419E+01
   7.22599E+01  7.80376E+01  8.42924E+01  9.08257E+01  9.75235E+01  1.04285E+02  1.10661E+02  1.16223E+02  1.20920E+02  1.25028E+02
   1.28887E+02  1.32587E+02  1.35532E+02  1.37467E+02  1.38786E+02  1.39325E+02  1.38445E+02  1.35687E+02  1.31227E+02  1.26174E+02
   1.21484E+02  1.17551E+02  1.14402E+02  1.11673E+02  1.09024E+02  1.06400E+02  1.03115E+02  9.82954E+01  9.21347E+01  8.55677E+01
   7.93795E+01  7.35241E+01  6.75993E+01  6.19173E+01  5.67248E+01  5.19271E+01  4.74878E+01  4.33958E+01  3.96430E+01  3.62205E+01
   3.31168E+01  3.03189E+01  2.78113E+01  2.55773E+01  2.35996E+01  2.18610E+01  2.03456E+01  1.90387E+01  1.79262E+01  1.69952E+01
   1.62342E+01  1.56336E+01  1.51850E+01  1.48810E+01  1.47145E+01  1.46788E+01  1.47673E+01  1.49738E+01  1.52911E+01  1.57111E+01
   1.62235E+01  1.68167E+01  1.74774E+01  1.81902E+01  1.89378E+01  1.97005E+01  2.04569E+01  2.11845E+01  2.18608E+01  2.24636E+01
   2.29712E+01  2.33639E+01  2.36244E+01  2.37394E+01  2.37000E+01  2.35016E+01  2.31441E+01  2.26319E+01  2.19739E+01  2.11837E+01
   2.02780E+01  1.92758E+01  1.81974E+01  1.70640E+01  1.58966E+01  1.47158E+01  1.35404E+01  1.23867E+01  1.12685E+01  1.01969E+01
   9.18083E+00  8.22655E+00  7.33786E+00  6.51611E+00  5.76081E+00  5.07027E+00  4.44196E+00  3.87246E+00  3.35759E+00  2.89267E+00
   2.47304E+00  2.09443E+00  1.75288E+00  1.44450E+00  1.16543E+00  9.12078E-01  6.81392E-01  4.70931E-01  2.78551E-01  1.02127E-01
  -6.04222E-02 -2.10878E-01 -3.50529E-01 -4.80331E-01 -6.01224E-01 -7.14299E-01 -8.20623E-01 -9.20962E-01 -1.01573E+00 -1.10525E+00
  -1.19000E+00 -1.27063E+00 -1.34772E+00 -1.42152E+00 -1.49209E+00 -1.55953E+00 -1.62421E+00 -1.68659E+00 -1.74698E+00 -1.80536E+00
  -1.86167E+00 -1.91601E+00 -1.96871E+00 -2.02010E+00 -2.07025E+00 -2.11903E+00 -2.16635E+00 -2.21240E+00 -2.25749E+00 -2.30181E+00
  -2.34526E+00 -2.38768E+00 -2.42903E+00 -2.46956E+00 -2.50953E+00 -2.54898E+00 -2.58774E+00 -2.62566E+00 -2.66282E+00 -2.69950E+00
  -2.73587E+00 -2.77183E+00 -2.80716E+00 -2.84179E+00 -2.87590E+00 -2.90973E+00 -2.94334E+00 -2.97654E+00 -3.00912E+00 -3.04112E+00
  -3.07278E+00 -3.10425E+00 -3.13548E+00 -3.16620E+00 -3.19628E+00 -3.22584E+00 -3.25511E+00 -3.28415E+00
 NY background values follow
     1.044E+01    1.041E+01    1.039E+01    1.036E+01    1.033E+01    1.030E+01    1.028E+01    1.025E+01    1.022E+01    1.019E+01
     1.017E+01    1.014E+01    1.011E+01    1.008E+01    1.006E+01    1.003E+01    1.000E+01    9.973E+00    9.946E+00    9.918E+00
     9.891E+00    9.863E+00    9.836E+00    9.808E+00    9.781E+00    9.753E+00    9.726E+00    9.698E+00    9.671E+00    9.643E+00
     9.616E+00    9.588E+00    9.561E+00    9.533E+00    9.505E+00    9.478E+00    9.450E+00    9.423E+00    9.395E+00    9.368E+00
     9.340E+00    9.313E+00    9.285E+00    9.257E+00    9.230E+00    9.202E+00    9.175E+00    9.147E+00    9.120E+00    9.092E+00
     9.064E+00    9.037E+00    9.009E+00    8.982E+00    8.954E+00    8.926E+00    8.899E+00    8.871E+00    8.844E+00    8.816E+00
     8.788E+00    8.761E+00    8.733E+00    8.706E+00    8.678E+00    8.650E+00    8.623E+00    8.595E+00    8.567E+00    8.540E+00
     8.512E+00    8.485E+00    8.457E+00    8.429E+00    8.402E+00    8.374E+00    8.346E+00    8.319E+00    8.291E+00    8.263E+00
     8.236E+00    8.208E+00    8.180E+00    8.153E+00    8.125E+00    8.097E+00    8.070E+00    8.042E+00    8.014E+00    7.987E+00
     7.959E+00    7.931E+00    7.904E+00    7.876E+00    7.848E+00    7.821E+00    7.793E+00    7.765E+00    7.738E+00    7.710E+00
     7.682E+00    7.655E+00    7.627E+00    7.599E+00    7.571E+00    7.544E+00    7.516E+00    7.488E+00    7.461E+00    7.433E+00
     7.405E+00    7.377E+00    7.350E+00    7.322E+00    7.294E+00    7.267E+00    7.239E+00    7.211E+00    7.183E+00    7.156E+00
     7.128E+00    7.100E+00    7.072E+00    7.045E+00    7.017E+00    6.989E+00    6.961E+00    6.934E+00    6.906E+00    6.878E+00
     6.850E+00    6.823E+00    6.795E+00    6.767E+00    6.739E+00    6.712E+00    6.684E+00    6.656E+00    6.628E+00    6.601E+00
     6.573E+00    6.545E+00    6.517E+00    6.490E+00    6.462E+00    6.434E+00    6.406E+00    6.378E+00    6.351E+00    6.323E+00
     6.295E+00    6.267E+00    6.239E+00    6.212E+00    6.184E+00    6.156E+00    6.128E+00    6.101E+00    6.073E+00    6.045E+00
     6.017E+00    5.989E+00    5.962E+00    5.934E+00    5.906E+00    5.878E+00    5.850E+00    5.822E+00    5.795E+00    5.767E+00
     5.739E+00    5.711E+00    5.683E+00    5.656E+00    5.628E+00    5.600E+00    5.572E+00    5.544E+00    5.517E+00    5.489E+00
     5.461E+00    5.433E+00    5.405E+00    5.377E+00    5.350E+00    5.322E+00    5.294E+00    5.266E+00    5.238E+00    5.210E+00
     5.183E+00    5.155E+00    5.127E+00    5.099E+00    5.071E+00    5.043E+00    5.015E+00    4.988E+00    4.960E+00    4.932E+00
     4.904E+00    4.876E+00    4.848E+00    4.821E+00    4.793E+00    4.765E+00    4.737E+00    4.709E+00    4.681E+00    4.653E+00
     4.625E+00    4.598E+00    4.570E+00    4.542E+00    4.514E+00    4.486E+00    4.458E+00    4.430E+00    4.403E+00    4.375E+00
     4.347E+00    4.319E+00    4.291E+00    4.263E+00    4.235E+00    4.207E+00    4.180E+00    4.152E+00    4.124E+00    4.096E+00
     4.068E+00    4.040E+00    4.012E+00    3.984E+00    3.956E+00    3.929E+00    3.901E+00    3.873E+00    3.845E+00    3.817E+00
     3.789E+00    3.761E+00    3.733E+00    3.705E+00    3.677E+00    3.650E+00    3.622E+00    3.594E+00    3.566E+00    3.538E+00
     3.510E+00    3.482E+00    3.454E+00    3.426E+00    3.398E+00    3.370E+00    3.343E+00    3.315E+00    3.287E+00    3.259E+00
     3.231E+00    3.203E+00    3.175E+00    3.147E+00    3.119E+00    3.091E+00    3.063E+00    3.035E+00    3.008E+00    2.980E+00
     2.952E+00    2.924E+00    2.896E+00    2.868E+00    2.840E+00    2.812E+00    2.784E+00    2.756E+00    2.728E+00    2.700E+00
     2.672E+00    2.644E+00    2.616E+00    2.588E+00    2.561E+00    2.533E+00    2.505E+00    2.477E+00    2.449E+00    2.421E+00
     2.393E+00    2.365E+00    2.337E+00    2.309E+00    2.281E+00    2.253E+00    2.225E+00    2.197E+00    2.169E+00    2.141E+00
     2.113E+00    2.085E+00    2.057E+00    2.029E+00    2.001E+00    1.973E+00    1.946E+00    1.918E+00    1.890E+00    1.862E+00
     1.834E+00    1.806E+00    1.778E+00    1.750E+00    1.722E+00    1.694E+00    1.666E+00    1.638E+00    1.610E+00    1.582E+00
     1.554E+00    1.526E+00    1.498E+00    1.470E+00    1.442E+00    1.414E+00    1.386E+00    1.358E+00    1.330E+00    1.302E+00
     1.274E+00    1.246E+00    1.218E+00    1.190E+00    1.162E+00    1.134E+00    1.106E+00    1.078E+00    1.050E+00    1.022E+00
     9.941E-01    9.661E-01    9.381E-01    9.101E-01    8.821E-01    8.541E-01    8.261E-01    7.981E-01    7.701E-01    7.421E-01
     7.141E-01    6.861E-01    6.581E-01    6.300E-01    6.020E-01    5.740E-01    5.460E-01    5.180E-01    4.900E-01    4.620E-01
     4.340E-01    4.059E-01    3.779E-01    3.499E-01    3.219E-01    2.939E-01    2.659E-01    2.378E-01    2.098E-01    1.818E-01
     1.538E-01    1.257E-01    9.771E-02    6.969E-02    4.166E-02    1.363E-02   -1.439E-02   -4.242E-02   -7.045E-02   -9.848E-02
    -1.265E-01   -1.545E-01   -1.826E-01   -2.106E-01   -2.386E-01   -2.667E-01   -2.947E-01   -3.228E-01   -3.508E-01   -3.788E-01
    -4.069E-01   -4.349E-01   -4.629E-01   -4.910E-01   -5.190E-01   -5.471E-01   -5.751E-01   -6.032E-01   -6.312E-01   -6.593E-01
    -6.873E-01   -7.153E-01   -7.434E-01   -7.714E-01   -7.995E-01   -8.275E-01   -8.556E-01   -8.836E-01   -9.117E-01   -9.397E-01
    -9.678E-01   -9.958E-01   -1.024E+00   -1.052E+00   -1.080E+00   -1.108E+00   -1.136E+00   -1.164E+00   -1.192E+00   -1.220E+00
    -1.248E+00   -1.276E+00   -1.304E+00   -1.333E+00   -1.361E+00   -1.389E+00   -1.417E+00   -1.445E+00   -1.473E+00   -1.501E+00
    -1.529E+00   -1.557E+00   -1.585E+00   -1.613E+00   -1.641E+00   -1.669E+00   -1.697E+00   -1.725E+00   -1.754E+00   -1.782E+00
    -1.810E+00   -1.838E+00   -1.866E+00   -1.894E+00   -1.922E+00   -1.950E+00   -1.978E+00   -2.006E+00   -2.034E+00   -2.062E+00
    -2.090E+00   -2.119E+00   -2.147E+00   -2.175E+00   -2.203E+00   -2.231E+00   -2.259E+00   -2.287E+00   -2.315E+00   -2.343E+00
    -2.371E+00   -2.399E+00   -2.427E+00   -2.456E+00   -2.484E+00   -2.512E+00   -2.540E+00   -2.568E+00   -2.596E+00   -2.624E+00
    -2.652E+00   -2.680E+00   -2.708E+00   -2.736E+00   -2.765E+00   -2.793E+00   -2.821E+00   -2.849E+00   -2.877E+00   -2.905E+00
    -2.933E+00   -2.961E+00   -2.989E+00   -3.017E+00   -3.046E+00   -3.074E+00   -3.102E+00   -3.130E+00   -3.158E+00   -3.186E+00
    -3.214E+00   -3.242E+00   -3.270E+00   -3.298E+00   -3.327E+00   -3.355E+00   -3.383E+00   -3.411E+00
