 LCModel (Version 6.3-1L) Copyright: S.W. Provencher.          Ref.: Magn. Reson. Med. 30:672-679 (1993).                
 Slice#1 Row#6 Col#11  PD_05_press_2_raw_act
 36 lines in following concentration table = NCONC+1
    Conc.  %SD /Cr+PCr  Metabolite                                         
    0.000 999%   0.000 Ala                                                 
    9.112 999% 2.6E-02 Asp                                                 
  357.125  26%   1.000 Cr                                                  
    0.000 999%   0.000 PCr                                                 
  112.524 115%   0.315 GABA                                                
  107.100 119%   0.300 Glc                                                 
    0.000 999%   0.000 Gln                                                 
 1.11E+03  54%   3.116 Glu                                                 
  105.592  33%   0.296 GPC                                                 
    0.000 999%   0.000 PCh                                                 
   46.089 300%   0.129 GSH                                                 
  977.582  44%   2.737 Ins                                                 
  716.315  44%   2.006 Lac                                                 
 1.06E+03  33%   2.967 NAA                                                 
 2.49E+03  12%   6.964 NAAG                                                
   87.031  39%   0.244 Scyllo                                              
  214.245  92%   0.600 Tau                                                 
   64.624 167%   0.181 -CrCH2                                              
  105.592  33%   0.296 GPC+PCh                                             
 3.55E+03   5%   9.932 NAA+NAAG                                            
  357.125  26%   1.000 Cr+PCr                                              
 1.11E+03  54%   3.116 Glu+Gln                                             
 4.37E+03  26%  12.227 Lip13a                                              
    0.000 999%   0.000 Lip13b                                              
 1.11E+03  43%   3.115 Lip09                                               
 1.70E+03  29%   4.746 MM09                                                
 1.09E+03  28%   3.047 Lip20                                               
 3.43E+03  21%   9.595 MM20                                                
  348.466  95%   0.976 MM12                                                
 1.52E+03  52%   4.268 MM14                                                
  950.130  34%   2.660 MM17                                                
 4.37E+03  26%  12.227 Lip13a+Lip13b                                       
 6.24E+03  10%  17.471 MM14+Lip13a+Lip13b+MM12                             
 2.81E+03  11%   7.862 MM09+Lip09                                          
 4.51E+03  15%  12.642 MM20+Lip20                                          
   6 lines in following misc. output table
  FWHM = 0.076 ppm    S/N =   8                                            
  Data shift =-0.015 ppm                                                   
  Ph: -31 deg      -6.5 deg/ppm                                            
  alphaB,S = 8.5E+01,   2.0E+02                                            
   14 spline knots.   Ns =10(1)                                            
   2 inflections.     1 extrema                                            
  498 points on ppm-axis = NY
      4.000000     3.992357     3.984714     3.977070     3.969427     3.961784     3.954141     3.946497     3.938854     3.931211
      3.923568     3.915925     3.908281     3.900638     3.892995     3.885352     3.877708     3.870065     3.862422     3.854779
      3.847136     3.839492     3.831849     3.824206     3.816563     3.808919     3.801276     3.793633     3.785990     3.778347
      3.770703     3.763060     3.755417     3.747774     3.740130     3.732487     3.724844     3.717201     3.709558     3.701914
      3.694271     3.686628     3.678985     3.671341     3.663698     3.656055     3.648412     3.640769     3.633125     3.625482
      3.617839     3.610196     3.602552     3.594909     3.587266     3.579623     3.571980     3.564336     3.556693     3.549050
      3.541407     3.533763     3.526120     3.518477     3.510834     3.503191     3.495547     3.487904     3.480261     3.472618
      3.464974     3.457331     3.449688     3.442045     3.434402     3.426758     3.419115     3.411472     3.403829     3.396185
      3.388542     3.380899     3.373256     3.365613     3.357969     3.350326     3.342683     3.335040     3.327396     3.319753
      3.312110     3.304467     3.296824     3.289180     3.281537     3.273894     3.266251     3.258607     3.250964     3.243321
      3.235678     3.228034     3.220391     3.212748     3.205105     3.197462     3.189818     3.182175     3.174532     3.166889
      3.159245     3.151602     3.143959     3.136316     3.128673     3.121029     3.113386     3.105743     3.098100     3.090456
      3.082813     3.075170     3.067527     3.059884     3.052240     3.044597     3.036954     3.029311     3.021667     3.014024
      3.006381     2.998738     2.991095     2.983451     2.975808     2.968165     2.960522     2.952878     2.945235     2.937592
      2.929949     2.922306     2.914662     2.907019     2.899376     2.891733     2.884089     2.876446     2.868803     2.861160
      2.853517     2.845873     2.838230     2.830587     2.822944     2.815300     2.807657     2.800014     2.792371     2.784728
      2.777084     2.769441     2.761798     2.754155     2.746511     2.738868     2.731225     2.723582     2.715939     2.708295
      2.700652     2.693009     2.685366     2.677722     2.670079     2.662436     2.654793     2.647150     2.639506     2.631863
      2.624220     2.616577     2.608933     2.601290     2.593647     2.586004     2.578361     2.570717     2.563074     2.555431
      2.547788     2.540144     2.532501     2.524858     2.517215     2.509572     2.501928     2.494285     2.486642     2.478999
      2.471355     2.463712     2.456069     2.448426     2.440783     2.433139     2.425496     2.417853     2.410210     2.402566
      2.394923     2.387280     2.379637     2.371994     2.364350     2.356707     2.349064     2.341421     2.333777     2.326134
      2.318491     2.310848     2.303205     2.295561     2.287918     2.280275     2.272632     2.264988     2.257345     2.249702
      2.242059     2.234416     2.226772     2.219129     2.211486     2.203843     2.196199     2.188556     2.180913     2.173270
      2.165627     2.157983     2.150340     2.142697     2.135054     2.127410     2.119767     2.112124     2.104481     2.096838
      2.089194     2.081551     2.073908     2.066265     2.058621     2.050978     2.043335     2.035692     2.028049     2.020405
      2.012762     2.005119     1.997476     1.989833     1.982190     1.974546     1.966903     1.959260     1.951617     1.943974
      1.936331     1.928688     1.921045     1.913402     1.905759     1.898115     1.890472     1.882829     1.875186     1.867543
      1.859900     1.852257     1.844614     1.836971     1.829327     1.821684     1.814041     1.806398     1.798755     1.791112
      1.783469     1.775826     1.768183     1.760540     1.752896     1.745253     1.737610     1.729967     1.722324     1.714681
      1.707038     1.699395     1.691752     1.684108     1.676465     1.668822     1.661179     1.653536     1.645893     1.638250
      1.630607     1.622964     1.615321     1.607677     1.600034     1.592391     1.584748     1.577105     1.569462     1.561819
      1.554176     1.546533     1.538890     1.531246     1.523603     1.515960     1.508317     1.500674     1.493031     1.485388
      1.477745     1.470102     1.462458     1.454815     1.447172     1.439529     1.431886     1.424243     1.416600     1.408957
      1.401314     1.393671     1.386027     1.378384     1.370741     1.363098     1.355455     1.347812     1.340169     1.332526
      1.324883     1.317240     1.309596     1.301953     1.294310     1.286667     1.279024     1.271381     1.263738     1.256095
      1.248452     1.240808     1.233165     1.225522     1.217879     1.210236     1.202593     1.194950     1.187307     1.179664
      1.172021     1.164377     1.156734     1.149091     1.141448     1.133805     1.126162     1.118519     1.110876     1.103233
      1.095590     1.087946     1.080303     1.072660     1.065017     1.057374     1.049731     1.042088     1.034445     1.026802
      1.019158     1.011515     1.003872     0.996229     0.988586     0.980943     0.973300     0.965657     0.958014     0.950371
      0.942727     0.935084     0.927441     0.919798     0.912155     0.904512     0.896869     0.889226     0.881583     0.873940
      0.866296     0.858653     0.851010     0.843367     0.835724     0.828081     0.820438     0.812795     0.805152     0.797508
      0.789865     0.782222     0.774579     0.766936     0.759293     0.751650     0.744007     0.736364     0.728721     0.721077
      0.713434     0.705791     0.698148     0.690505     0.682862     0.675219     0.667576     0.659933     0.652290     0.644646
      0.637003     0.629360     0.621717     0.614074     0.606431     0.598788     0.591145     0.583502     0.575858     0.568215
      0.560572     0.552929     0.545286     0.537643     0.530000     0.522357     0.514714     0.507071     0.499427     0.491784
      0.484141     0.476498     0.468855     0.461212     0.453569     0.445925     0.438282     0.430639     0.422996     0.415353
      0.407710     0.400067     0.392424     0.384780     0.377137     0.369494     0.361851     0.354208     0.346565     0.338922
      0.331278     0.323635     0.315992     0.308349     0.300706     0.293063     0.285420     0.277777     0.270133     0.262490
      0.254847     0.247204     0.239561     0.231918     0.224275     0.216631     0.208988     0.201345
 NY phased data points follow
   1.72553E+00  8.71718E+00  4.53552E+00 -6.89507E+00 -7.24857E+00  2.61681E+00  9.88433E+00  9.68148E-01 -1.88607E+00 -6.21695E+00
  -1.52003E+00 -3.60750E-01  6.31879E+00  1.93238E+01  7.33734E+00 -3.04410E+00 -7.71267E+00  7.74045E+00  8.07891E+00 -4.12996E+00
   7.48065E-01  4.96228E+00  4.11759E+00 -9.07320E+00 -2.00170E+00 -6.77136E-01 -3.18300E+00  4.09217E+00 -1.92829E+00  2.16743E+00
   3.08427E+00 -4.00167E+00  4.79831E+00 -2.24663E+00  4.80429E+00 -2.82559E+00 -3.29223E+00  1.79369E+00 -2.67754E-01 -3.04556E+00
  -6.55407E+00 -4.54505E-01  2.14599E+00  1.09052E+00 -2.24630E+00 -2.69300E+00  3.95033E+00  4.69468E-01  8.13574E+00  1.13596E+01
   9.81615E+00  2.75838E+00  6.19166E+00  7.03683E+00  3.54989E+00  6.40232E-01 -4.09014E+00 -2.03498E-01  5.89131E+00  1.51968E+00
   2.18646E+00 -6.58858E-01  9.77956E+00  6.00337E+00  1.44398E+00  6.86001E+00 -4.96151E+00  1.53720E+00 -2.76849E+00 -1.96486E+00
   9.00000E-01  2.69174E+00 -6.94099E-02 -3.24491E+00 -1.09448E+00  6.70394E+00  2.32281E+00  3.86058E+00 -3.11074E-01  7.36851E-01
   3.74590E+00 -4.23625E+00  6.22590E-01  3.26653E+00  3.20746E+00 -2.68758E+00  4.93753E+00  1.29354E+01  6.99894E+00  3.54782E+00
   2.85236E+00  8.55391E+00  6.60588E-01  3.40558E+00 -5.11746E+00  5.78628E+00  6.31686E-01  1.24711E+00  1.75409E+00  4.01349E-01
   8.81490E+00  1.22449E+00  6.52192E+00  8.16663E+00  7.78322E+00  9.32893E+00  7.87034E+00  1.30817E+01  9.49536E+00 -1.31124E+00
  -3.53634E+00  1.85946E+00 -2.88338E+00 -1.46114E+00 -2.35905E-01 -2.58559E-02 -1.24095E+00  5.65897E-01  2.84479E+00 -4.93952E+00
   1.41316E+00  4.36573E+00  1.07519E+01  6.89193E+00  1.15135E+01 -7.44121E-01 -1.20534E+00  5.54346E+00  1.15795E+01  3.64528E+00
   1.44831E+01  1.78589E+01  1.86540E+01  7.65761E+00  1.97705E+00  1.24412E+01  8.46224E+00  1.46958E+01  3.59792E+00  5.40439E+00
  -5.23628E-01  5.29264E+00  9.35244E+00  2.86719E+00  1.00157E+00 -4.00082E+00  3.90103E+00  1.71888E+00  1.83243E-01  5.24299E+00
   1.25559E+00  3.50459E+00  4.91850E+00  1.82846E-01  6.17558E+00  1.10907E+01  1.11972E+01  3.85555E+00  6.03027E+00  6.72185E+00
   1.23744E+01  1.03041E+01  1.42695E+01 -4.37478E+00 -2.67219E+00  5.52946E-01  1.02908E+01  2.07395E+00  5.84629E+00  6.94188E-01
   4.34544E+00  2.61700E+00 -7.98995E+00 -4.68189E+00 -1.25352E+01  3.75705E+00 -7.56000E+00  5.86102E+00 -1.15413E+01 -6.94332E+00
   3.45022E-01 -8.84644E+00 -6.38311E+00 -1.71086E+00 -7.46950E+00 -5.93874E+00 -1.13484E+00  6.82948E-01  9.60200E-01 -9.85366E-01
   6.39729E-01 -7.36467E+00 -7.32923E-01  1.19921E+00 -5.92646E+00 -6.21599E+00 -7.07706E+00 -7.08314E+00 -3.41484E+00 -3.89541E+00
  -1.14420E+01 -7.73945E+00 -5.80574E+00 -3.38394E+00 -5.24019E+00 -1.51056E+00 -4.81311E+00 -6.29243E+00 -7.15067E+00  6.61674E+00
   2.68633E+00  1.36714E-01  3.44850E+00  1.25751E+01  1.63779E+00  1.47026E+01  1.67057E+01  1.13295E+01  1.42631E+01  6.91647E+00
   3.13449E+00  3.29576E+00  1.18816E+00  7.28744E+00  7.43578E+00  1.29842E+01 -1.65955E+00  1.00983E+01  5.94986E-01  1.40506E+01
   7.24953E+00 -1.89114E+00  6.47730E+00  1.19744E+01  1.34590E+01  2.45285E+01  1.61672E+01  1.86874E+01  1.01628E+01  5.61905E+00
   1.56547E+01  2.37086E+01  2.16884E+01  1.15927E+01  1.53548E+01  1.14662E+01  9.40980E+00  8.83873E+00  1.43443E+01  1.72839E+01
   2.36861E+01  1.97359E+01  3.61881E+01  4.02490E+01  5.31922E+01  8.19848E+01  7.56284E+01  1.01116E+02  1.02325E+02  9.68752E+01
   9.53040E+01  8.54427E+01  8.93530E+01  8.93763E+01  8.00219E+01  6.68456E+01  4.66127E+01  2.52351E+01  3.67362E+01  3.16524E+01
   1.75864E+01  4.33155E+00  6.64190E+00  3.78158E+00  1.26471E+00  3.32308E+00  1.19095E+01 -2.34596E+00  7.69698E+00 -4.25486E-01
   8.48044E+00  7.38275E+00  3.30116E+00  2.02496E+01  1.65151E+00  4.66688E+00  4.43070E+00  7.10353E+00  7.28649E+00  9.43366E+00
   5.80665E+00  4.31297E+00  7.84388E+00  2.01098E-01 -4.13264E+00  4.06765E+00  1.26985E+01  1.42328E+01  9.04647E+00  1.55169E+01
   1.63506E+01  1.92330E+01  2.74247E+00  8.37901E+00  1.07486E+01  1.29027E+01  1.59725E+01  1.04864E+01  1.10870E+01  4.08049E+00
   8.12372E+00  9.33588E+00 -6.22756E+00  4.30034E+00  3.48689E+00  7.82301E+00  1.72615E+00 -7.30338E-01  1.32850E+01  1.04131E+01
   1.33852E+01  1.13065E+00  1.12966E+01  4.53699E+00  2.91342E-01  1.86920E+00  6.57123E+00  5.25742E+00  2.87828E+00  7.01329E+00
   9.63281E+00  2.95191E+00  1.49839E+01  1.99365E+01  1.73394E+01  1.23067E+01  1.47066E+01  1.89805E+01  2.02456E+01  3.73671E+01
   2.32264E+01  3.15911E+01  3.20980E+01  3.75558E+01  2.66293E+01  4.08115E+01  2.74874E+01  3.34440E+01  4.04713E+01  4.11233E+01
   3.37662E+01  2.46777E+01  4.01129E+01  2.73771E+01  2.17504E+01  2.13270E+01  2.99530E+01  2.03976E+01  1.34266E+01  3.13971E+01
   1.59527E+01  1.31256E+01  2.70429E+01  2.32653E+01  1.91929E+01  2.00677E+01  2.14468E+01  1.72233E+01  1.72631E+01  1.28230E+01
   1.50402E+01  1.78974E+01  1.95726E+01  1.03111E+01  9.20290E+00  8.14493E+00  8.41724E+00  1.66372E+01  3.72762E+00  8.67028E-01
  -2.58065E+00  5.49045E+00  8.84024E+00  1.14368E+01  1.05892E+01  3.99537E+00  1.01363E+01  1.86159E+01  1.26399E+01  1.37371E+01
   1.61456E+01  2.09166E+01  2.04790E+01  2.80600E+01  9.13603E+00  2.43643E+01  1.66370E+01  1.73270E+01  1.44201E+01  5.58588E+00
   8.97628E+00  2.03629E+01  8.91604E+00  1.50479E+01  2.40167E+01  1.79300E+01  2.22680E+01  2.58204E+01  1.95509E+01  2.16089E+01
   1.85642E+01  2.73321E+01  6.34544E+00  1.08747E+01  1.17527E+01  1.77418E+01  1.19891E+01  9.16416E+00  8.29012E+00  9.23343E+00
   1.21667E+01  1.17177E+01  3.98521E+00  5.42214E+00  9.80544E+00  1.29529E+01  4.75742E+00 -2.11189E+00  4.42991E+00  6.27678E+00
   5.51477E+00  1.91174E+00  8.05353E-01  9.83879E+00  3.77090E+00  9.15059E-01  8.62280E+00  1.10824E+01 -1.09053E+00  3.69392E+00
   3.97535E+00  5.03054E+00 -5.16972E+00  2.25881E+00  2.78665E+00  2.62737E+00  6.50597E+00 -3.94487E+00  2.70723E+00 -4.76541E+00
   1.77631E-01  5.29416E+00 -1.13342E+00  2.42992E+00  3.73715E+00 -1.56062E+00  4.29763E+00  7.84809E+00 -7.12780E+00 -2.48244E+00
   1.82509E+00 -5.56084E+00 -2.42801E+00  8.69644E+00  8.24513E+00  3.39986E+00  2.77015E+00 -1.75526E+00 -4.99801E+00 -2.67405E+00
   2.33614E+00  2.77798E-01 -1.29326E+00 -4.72679E-01  1.32217E+00 -2.49782E+00 -4.19132E+00  8.99573E+00  2.71078E+00 -5.95608E+00
   3.82952E-01 -2.87748E+00  8.20095E+00 -4.80070E+00 -6.71480E+00  1.22574E+01  1.89693E+00  7.47422E-01  2.63287E+00  7.31305E+00
   1.75321E+00  5.85016E+00  9.72892E-02  4.12780E+00 -4.08243E+00 -5.46796E-01  4.88261E+00 -6.43486E-01
 NY points of the fit to the data follow
   3.45812E+00  2.57299E+00  1.49923E+00  5.00107E-01 -1.75766E-01 -4.71598E-01 -4.68227E-01 -1.84655E-01  3.98147E-01  1.19381E+00
   2.08176E+00  2.96792E+00  3.75608E+00  4.32361E+00  4.57471E+00  4.50477E+00  4.20084E+00  3.79400E+00  3.40057E+00  2.98592E+00
   2.41308E+00  1.65138E+00  8.93394E-01  3.89345E-01  1.67861E-01  4.12715E-02 -1.76654E-02  2.62397E-03  1.04699E-01  3.06611E-01
   6.02264E-01  9.69585E-01  1.36792E+00  1.72819E+00  1.97659E+00  2.05764E+00  1.95960E+00  1.70258E+00  1.33355E+00  9.39650E-01
   6.01782E-01  4.27457E-01  4.63361E-01  6.95406E-01  1.14324E+00  1.83159E+00  2.69589E+00  3.59227E+00  4.34761E+00  4.81153E+00
   4.86485E+00  4.50640E+00  3.90199E+00  3.25479E+00  2.68129E+00  2.18404E+00  1.69243E+00  1.19181E+00  8.04087E-01  6.96492E-01
   9.04248E-01  1.25256E+00  1.52697E+00  1.64902E+00  1.64583E+00  1.56178E+00  1.44780E+00  1.36167E+00  1.32762E+00  1.32721E+00
   1.35396E+00  1.45336E+00  1.64785E+00  1.90585E+00  2.17444E+00  2.36642E+00  2.38706E+00  2.25515E+00  2.10358E+00  2.02891E+00
   2.04682E+00  2.14593E+00  2.30178E+00  2.50886E+00  2.76404E+00  3.00439E+00  3.16408E+00  3.22129E+00  3.14875E+00  2.90946E+00
   2.55187E+00  2.14683E+00  1.68170E+00  1.09243E+00  5.06671E-01  6.24146E-02 -1.23358E-01  9.15800E-02  7.93133E-01  1.83647E+00
   2.99920E+00  4.18256E+00  5.31484E+00  6.28963E+00  6.97962E+00  7.26805E+00  7.14574E+00  6.72302E+00  6.15220E+00  5.52256E+00
   4.81412E+00  3.95253E+00  2.92561E+00  1.93507E+00  1.29338E+00  1.08795E+00  1.01162E+00  8.38782E-01  5.58676E-01  3.99879E-01
   5.37987E-01  1.01512E+00  1.81756E+00  2.92484E+00  4.30315E+00  5.88592E+00  7.56036E+00  9.15755E+00  1.04788E+01  1.13366E+01
   1.16222E+01  1.13767E+01  1.07532E+01  9.91914E+00  8.94411E+00  7.78050E+00  6.38562E+00  4.87783E+00  3.57806E+00  2.83003E+00
   2.57377E+00  2.48000E+00  2.44723E+00  2.45251E+00  2.50459E+00  2.59959E+00  2.67976E+00  2.69200E+00  2.60869E+00  2.41712E+00
   2.17773E+00  1.96178E+00  1.78006E+00  1.61001E+00  1.44375E+00  1.28699E+00  1.17061E+00  1.11405E+00  1.08561E+00  1.02538E+00
   8.91734E-01  6.27581E-01  2.21682E-01 -2.42857E-01 -6.94824E-01 -1.13322E+00 -1.63287E+00 -2.25373E+00 -2.94109E+00 -3.56889E+00
  -3.99201E+00 -4.17194E+00 -4.23648E+00 -4.31256E+00 -4.50953E+00 -4.82491E+00 -5.15031E+00 -5.35253E+00 -5.39483E+00 -5.32836E+00
  -5.23977E+00 -5.20947E+00 -5.20742E+00 -4.98705E+00 -4.34369E+00 -3.32227E+00 -2.12457E+00 -9.92242E-01  2.53751E-03  9.39086E-01
   1.84035E+00  2.67248E+00  3.33500E+00  3.69378E+00  3.70012E+00  3.49198E+00  3.30380E+00  3.21401E+00  3.21944E+00  3.29890E+00
   3.42208E+00  3.53626E+00  3.60546E+00  3.64709E+00  3.63161E+00  3.42822E+00  2.92644E+00  2.22641E+00  1.50804E+00  9.04883E-01
   5.25934E-01  5.15042E-01  9.54386E-01  1.71310E+00  2.56657E+00  3.33054E+00  3.92355E+00  4.28250E+00  4.38394E+00  4.21325E+00
   3.82197E+00  3.37904E+00  3.06452E+00  2.96700E+00  3.06631E+00  3.31209E+00  3.75943E+00  4.50582E+00  5.58561E+00  6.81638E+00
   8.07497E+00  9.38022E+00  1.06980E+01  1.18611E+01  1.26399E+01  1.30191E+01  1.31743E+01  1.32293E+01  1.32090E+01  1.31961E+01
   1.32872E+01  1.35634E+01  1.39905E+01  1.44500E+01  1.49026E+01  1.50737E+01  1.42495E+01  1.34051E+01  1.40326E+01  1.67193E+01
   2.11950E+01  2.72699E+01  3.53588E+01  4.54585E+01  5.70139E+01  6.91212E+01  8.06070E+01  9.01467E+01  9.65817E+01  9.94661E+01
   9.91457E+01  9.62302E+01  9.10416E+01  8.33599E+01  7.28973E+01  6.01637E+01  4.70562E+01  3.63228E+01  2.93532E+01  2.39523E+01
   1.87354E+01  1.42945E+01  1.15697E+01  1.03552E+01  9.58981E+00  8.94024E+00  8.33727E+00  7.76065E+00  7.23323E+00  6.78989E+00
   6.43008E+00  6.14339E+00  5.90065E+00  5.70148E+00  5.56748E+00  5.52506E+00  5.60085E+00  5.78566E+00  6.02673E+00  6.28825E+00
   6.58265E+00  6.91445E+00  7.26478E+00  7.61514E+00  7.96501E+00  8.31737E+00  8.65339E+00  8.94718E+00  9.20204E+00  9.41295E+00
   9.56606E+00  9.64435E+00  9.63623E+00  9.55706E+00  9.44269E+00  9.29658E+00  9.11674E+00  8.91186E+00  8.69206E+00  8.45895E+00
   8.20438E+00  7.92462E+00  7.64249E+00  7.37920E+00  7.14841E+00  6.96237E+00  6.82990E+00  6.75763E+00  6.75082E+00  6.81348E+00
   6.94846E+00  7.15770E+00  7.44243E+00  7.80349E+00  8.24137E+00  8.75568E+00  9.34502E+00  1.00078E+01  1.07422E+01  1.15457E+01
   1.24157E+01  1.33489E+01  1.43417E+01  1.53893E+01  1.64859E+01  1.76234E+01  1.87867E+01  1.99395E+01  2.11050E+01  2.25089E+01
   2.42254E+01  2.61508E+01  2.81362E+01  3.00588E+01  3.18130E+01  3.31850E+01  3.38918E+01  3.38923E+01  3.32703E+01  3.21494E+01
   3.06940E+01  2.91581E+01  2.78252E+01  2.68774E+01  2.63420E+01  2.61034E+01  2.60136E+01  2.60161E+01  2.61397E+01  2.63887E+01
   2.65468E+01  2.62655E+01  2.55915E+01  2.45940E+01  2.32033E+01  2.13626E+01  1.92219E+01  1.71955E+01  1.55933E+01  1.42855E+01
   1.31673E+01  1.21995E+01  1.13633E+01  1.06471E+01  1.00424E+01  9.54248E+00  9.14157E+00  8.83482E+00  8.61806E+00  8.48776E+00
   8.44101E+00  8.47551E+00  8.58951E+00  8.78164E+00  9.05063E+00  9.39506E+00  9.81316E+00  1.03025E+01  1.08596E+01  1.14797E+01
   1.21564E+01  1.28816E+01  1.36449E+01  1.44343E+01  1.52355E+01  1.60328E+01  1.68087E+01  1.75453E+01  1.82239E+01  1.88267E+01
   1.93368E+01  1.97390E+01  2.00208E+01  2.01728E+01  2.01892E+01  2.00680E+01  1.98112E+01  1.94244E+01  1.89169E+01  1.83008E+01
   1.75907E+01  1.68030E+01  1.59550E+01  1.50641E+01  1.41475E+01  1.32215E+01  1.23006E+01  1.13979E+01  1.05240E+01  9.68779E+00
   8.89583E+00  8.15276E+00  7.46137E+00  6.82282E+00  6.23693E+00  5.70240E+00  5.21715E+00  4.77846E+00  4.38320E+00  4.02801E+00
   3.70944E+00  3.42409E+00  3.16872E+00  2.94023E+00  2.73574E+00  2.55259E+00  2.38837E+00  2.24095E+00  2.10842E+00  1.98909E+00
   1.88141E+00  1.78407E+00  1.69590E+00  1.61589E+00  1.54317E+00  1.47695E+00  1.41652E+00  1.36127E+00  1.31069E+00  1.26433E+00
   1.22179E+00  1.18268E+00  1.14668E+00  1.11350E+00  1.08291E+00  1.05469E+00  1.02864E+00  1.00457E+00  9.82295E-01  9.61690E-01
   9.42639E-01  9.25030E-01  9.08741E-01  8.93662E-01  8.79704E-01  8.66804E-01  8.54901E-01  8.43926E-01  8.33801E-01  8.24463E-01
   8.15869E-01  8.07992E-01  8.00794E-01  7.94226E-01  7.88237E-01  7.82792E-01  7.77874E-01  7.73471E-01  7.69555E-01  7.66088E-01
   7.63036E-01  7.60386E-01  7.58135E-01  7.56279E-01  7.54790E-01  7.53642E-01  7.52816E-01  7.52317E-01  7.52150E-01  7.52311E-01
   7.52777E-01  7.53533E-01  7.54576E-01  7.55925E-01  7.57590E-01  7.59568E-01  7.61845E-01  7.64422E-01
 NY background values follow
    -1.197E+00   -1.193E+00   -1.188E+00   -1.183E+00   -1.178E+00   -1.174E+00   -1.169E+00   -1.164E+00   -1.160E+00   -1.155E+00
    -1.150E+00   -1.146E+00   -1.141E+00   -1.136E+00   -1.132E+00   -1.127E+00   -1.122E+00   -1.118E+00   -1.113E+00   -1.108E+00
    -1.104E+00   -1.099E+00   -1.094E+00   -1.089E+00   -1.085E+00   -1.080E+00   -1.075E+00   -1.071E+00   -1.066E+00   -1.061E+00
    -1.057E+00   -1.052E+00   -1.047E+00   -1.042E+00   -1.038E+00   -1.033E+00   -1.028E+00   -1.024E+00   -1.019E+00   -1.014E+00
    -1.010E+00   -1.005E+00   -1.000E+00   -9.954E-01   -9.907E-01   -9.860E-01   -9.813E-01   -9.765E-01   -9.718E-01   -9.671E-01
    -9.624E-01   -9.577E-01   -9.530E-01   -9.482E-01   -9.435E-01   -9.388E-01   -9.341E-01   -9.293E-01   -9.246E-01   -9.199E-01
    -9.152E-01   -9.104E-01   -9.057E-01   -9.010E-01   -8.962E-01   -8.915E-01   -8.868E-01   -8.820E-01   -8.773E-01   -8.726E-01
    -8.678E-01   -8.631E-01   -8.584E-01   -8.536E-01   -8.489E-01   -8.441E-01   -8.394E-01   -8.347E-01   -8.299E-01   -8.252E-01
    -8.204E-01   -8.157E-01   -8.109E-01   -8.062E-01   -8.014E-01   -7.967E-01   -7.919E-01   -7.872E-01   -7.824E-01   -7.777E-01
    -7.729E-01   -7.682E-01   -7.634E-01   -7.587E-01   -7.539E-01   -7.492E-01   -7.444E-01   -7.397E-01   -7.349E-01   -7.301E-01
    -7.254E-01   -7.206E-01   -7.159E-01   -7.111E-01   -7.063E-01   -7.016E-01   -6.968E-01   -6.921E-01   -6.873E-01   -6.825E-01
    -6.778E-01   -6.730E-01   -6.682E-01   -6.635E-01   -6.587E-01   -6.539E-01   -6.492E-01   -6.444E-01   -6.396E-01   -6.349E-01
    -6.301E-01   -6.253E-01   -6.205E-01   -6.158E-01   -6.110E-01   -6.062E-01   -6.014E-01   -5.967E-01   -5.919E-01   -5.871E-01
    -5.823E-01   -5.776E-01   -5.728E-01   -5.680E-01   -5.632E-01   -5.585E-01   -5.537E-01   -5.489E-01   -5.441E-01   -5.393E-01
    -5.346E-01   -5.298E-01   -5.250E-01   -5.202E-01   -5.154E-01   -5.106E-01   -5.059E-01   -5.011E-01   -4.963E-01   -4.915E-01
    -4.867E-01   -4.819E-01   -4.771E-01   -4.724E-01   -4.676E-01   -4.628E-01   -4.580E-01   -4.532E-01   -4.484E-01   -4.436E-01
    -4.388E-01   -4.340E-01   -4.292E-01   -4.245E-01   -4.197E-01   -4.149E-01   -4.101E-01   -4.053E-01   -4.005E-01   -3.957E-01
    -3.909E-01   -3.861E-01   -3.813E-01   -3.765E-01   -3.717E-01   -3.669E-01   -3.621E-01   -3.573E-01   -3.525E-01   -3.477E-01
    -3.429E-01   -3.381E-01   -3.334E-01   -3.286E-01   -3.238E-01   -3.190E-01   -3.142E-01   -3.094E-01   -3.046E-01   -2.998E-01
    -2.950E-01   -2.902E-01   -2.854E-01   -2.805E-01   -2.757E-01   -2.709E-01   -2.661E-01   -2.613E-01   -2.565E-01   -2.517E-01
    -2.469E-01   -2.421E-01   -2.373E-01   -2.325E-01   -2.277E-01   -2.229E-01   -2.181E-01   -2.133E-01   -2.085E-01   -2.037E-01
    -1.989E-01   -1.941E-01   -1.893E-01   -1.845E-01   -1.797E-01   -1.749E-01   -1.700E-01   -1.652E-01   -1.604E-01   -1.556E-01
    -1.508E-01   -1.460E-01   -1.412E-01   -1.364E-01   -1.316E-01   -1.268E-01   -1.220E-01   -1.172E-01   -1.124E-01   -1.075E-01
    -1.027E-01   -9.793E-02   -9.312E-02   -8.831E-02   -8.350E-02   -7.869E-02   -7.388E-02   -6.907E-02   -6.426E-02   -5.945E-02
    -5.464E-02   -4.983E-02   -4.502E-02   -4.021E-02   -3.540E-02   -3.059E-02   -2.578E-02   -2.097E-02   -1.616E-02   -1.135E-02
    -6.540E-03   -1.730E-03    3.081E-03    7.891E-03    1.270E-02    1.751E-02    2.232E-02    2.713E-02    3.194E-02    3.675E-02
     4.157E-02    4.638E-02    5.119E-02    5.600E-02    6.081E-02    6.562E-02    7.043E-02    7.524E-02    8.005E-02    8.486E-02
     8.967E-02    9.448E-02    9.929E-02    1.041E-01    1.089E-01    1.137E-01    1.185E-01    1.233E-01    1.282E-01    1.330E-01
     1.378E-01    1.426E-01    1.474E-01    1.522E-01    1.570E-01    1.618E-01    1.666E-01    1.714E-01    1.762E-01    1.811E-01
     1.859E-01    1.907E-01    1.955E-01    2.003E-01    2.051E-01    2.099E-01    2.147E-01    2.195E-01    2.243E-01    2.291E-01
     2.339E-01    2.387E-01    2.436E-01    2.484E-01    2.532E-01    2.580E-01    2.628E-01    2.676E-01    2.724E-01    2.772E-01
     2.820E-01    2.868E-01    2.916E-01    2.964E-01    3.012E-01    3.060E-01    3.108E-01    3.156E-01    3.204E-01    3.252E-01
     3.300E-01    3.348E-01    3.396E-01    3.444E-01    3.492E-01    3.540E-01    3.588E-01    3.637E-01    3.685E-01    3.733E-01
     3.781E-01    3.829E-01    3.877E-01    3.924E-01    3.972E-01    4.020E-01    4.068E-01    4.116E-01    4.164E-01    4.212E-01
     4.260E-01    4.308E-01    4.356E-01    4.404E-01    4.452E-01    4.500E-01    4.548E-01    4.596E-01    4.644E-01    4.692E-01
     4.740E-01    4.788E-01    4.836E-01    4.884E-01    4.931E-01    4.979E-01    5.027E-01    5.075E-01    5.123E-01    5.171E-01
     5.219E-01    5.267E-01    5.315E-01    5.363E-01    5.410E-01    5.458E-01    5.506E-01    5.554E-01    5.602E-01    5.650E-01
     5.697E-01    5.745E-01    5.793E-01    5.841E-01    5.889E-01    5.937E-01    5.984E-01    6.032E-01    6.080E-01    6.128E-01
     6.176E-01    6.223E-01    6.271E-01    6.319E-01    6.367E-01    6.415E-01    6.462E-01    6.510E-01    6.558E-01    6.606E-01
     6.653E-01    6.701E-01    6.749E-01    6.796E-01    6.844E-01    6.892E-01    6.940E-01    6.987E-01    7.035E-01    7.083E-01
     7.130E-01    7.178E-01    7.226E-01    7.273E-01    7.321E-01    7.369E-01    7.416E-01    7.464E-01    7.511E-01    7.559E-01
     7.607E-01    7.654E-01    7.702E-01    7.749E-01    7.797E-01    7.845E-01    7.892E-01    7.940E-01    7.987E-01    8.035E-01
     8.082E-01    8.130E-01    8.177E-01    8.225E-01    8.272E-01    8.320E-01    8.367E-01    8.415E-01    8.462E-01    8.510E-01
     8.557E-01    8.605E-01    8.652E-01    8.700E-01    8.747E-01    8.795E-01    8.842E-01    8.889E-01    8.937E-01    8.984E-01
     9.032E-01    9.079E-01    9.126E-01    9.174E-01    9.221E-01    9.268E-01    9.316E-01    9.363E-01    9.410E-01    9.458E-01
     9.505E-01    9.552E-01    9.600E-01    9.647E-01    9.694E-01    9.742E-01    9.789E-01    9.836E-01    9.883E-01    9.930E-01
     9.978E-01    1.002E+00    1.007E+00    1.012E+00    1.017E+00    1.021E+00    1.026E+00    1.031E+00    1.036E+00    1.040E+00
     1.045E+00    1.050E+00    1.054E+00    1.059E+00    1.064E+00    1.068E+00    1.073E+00    1.078E+00    1.083E+00    1.087E+00
     1.092E+00    1.097E+00    1.101E+00    1.106E+00    1.111E+00    1.116E+00    1.120E+00    1.125E+00    1.130E+00    1.134E+00
     1.139E+00    1.144E+00    1.148E+00    1.153E+00    1.158E+00    1.162E+00    1.167E+00    1.172E+00
 Asp      Conc. = 9.11E+00
