 LCModel (Version 6.3-1L) Copyright: S.W. Provencher.          Ref.: Magn. Reson. Med. 30:672-679 (1993).                
 Slice#2 Row#2 Col#11  PD_05_press_2_raw_act
 36 lines in following concentration table = NCONC+1
    Conc.  %SD /Cr+PCr  Metabolite                                         
  254.485  50%   0.000 Ala                                                 
   21.027  93%   0.000 Asp                                                 
    0.000 999%   0.000 Cr                                                  
    0.000 999%   0.000 PCr                                                 
   12.486  94%   0.000 GABA                                                
   12.600  94%   0.000 Glc                                                 
    0.000 999%   0.000 Gln                                                 
    0.000 999%   0.000 Glu                                                 
    0.000 999%   0.000 GPC                                                 
   68.539  39%   0.000 PCh                                                 
    0.000 999%   0.000 GSH                                                 
  775.120  39%   0.000 Ins                                                 
  514.573  35%   0.000 Lac                                                 
   87.007  90%   0.000 NAA                                                 
  133.972  57%   0.000 NAAG                                                
    4.607  85%   0.000 Scyllo                                              
   23.146  84%   0.000 Tau                                                 
   11.576 212%   0.000 -CrCH2                                              
   68.539  39%   0.000 GPC+PCh                                             
  220.979  41%   0.000 NAA+NAAG                                            
    0.000 999%   0.000 Cr+PCr                                              
    0.000 999%   0.000 Glu+Gln                                             
    0.000 999%   0.000 Lip13a                                              
 1.26E+03  14%   0.000 Lip13b                                              
    0.000 999%   0.000 Lip09                                               
    0.000 999%   0.000 MM09                                                
  268.346  44%   0.000 Lip20                                               
 5.00E-02 999%   0.000 MM20                                                
    0.000 999%   0.000 MM12                                                
    0.000 999%   0.000 MM14                                                
    0.000 999%   0.000 MM17                                                
 1.26E+03  14%   0.000 Lip13a+Lip13b                                       
 1.26E+03  14%   0.000 MM14+Lip13a+Lip13b+MM12                             
    0.000 999%   0.000 MM09+Lip09                                          
  268.396  44%   0.000 MM20+Lip20                                          
   6 lines in following misc. output table
  FWHM = 0.054 ppm    S/N =   1                                            
  Data shift =-0.031 ppm                                                   
  Ph: 162 deg     -60.6 deg/ppm                                            
  alphaB,S = 8.5E+01,   1.1E+01                                            
   14 spline knots.   Ns = 5(1)                                            
  ( 9) 6 infls.   ( 7) 4 extrs.                                            
  498 points on ppm-axis = NY
      4.000000     3.992357     3.984714     3.977070     3.969427     3.961784     3.954141     3.946497     3.938854     3.931211
      3.923568     3.915925     3.908281     3.900638     3.892995     3.885352     3.877708     3.870065     3.862422     3.854779
      3.847136     3.839492     3.831849     3.824206     3.816563     3.808919     3.801276     3.793633     3.785990     3.778347
      3.770703     3.763060     3.755417     3.747774     3.740130     3.732487     3.724844     3.717201     3.709558     3.701914
      3.694271     3.686628     3.678985     3.671341     3.663698     3.656055     3.648412     3.640769     3.633125     3.625482
      3.617839     3.610196     3.602552     3.594909     3.587266     3.579623     3.571980     3.564336     3.556693     3.549050
      3.541407     3.533763     3.526120     3.518477     3.510834     3.503191     3.495547     3.487904     3.480261     3.472618
      3.464974     3.457331     3.449688     3.442045     3.434402     3.426758     3.419115     3.411472     3.403829     3.396185
      3.388542     3.380899     3.373256     3.365613     3.357969     3.350326     3.342683     3.335040     3.327396     3.319753
      3.312110     3.304467     3.296824     3.289180     3.281537     3.273894     3.266251     3.258607     3.250964     3.243321
      3.235678     3.228034     3.220391     3.212748     3.205105     3.197462     3.189818     3.182175     3.174532     3.166889
      3.159245     3.151602     3.143959     3.136316     3.128673     3.121029     3.113386     3.105743     3.098100     3.090456
      3.082813     3.075170     3.067527     3.059884     3.052240     3.044597     3.036954     3.029311     3.021667     3.014024
      3.006381     2.998738     2.991095     2.983451     2.975808     2.968165     2.960522     2.952878     2.945235     2.937592
      2.929949     2.922306     2.914662     2.907019     2.899376     2.891733     2.884089     2.876446     2.868803     2.861160
      2.853517     2.845873     2.838230     2.830587     2.822944     2.815300     2.807657     2.800014     2.792371     2.784728
      2.777084     2.769441     2.761798     2.754155     2.746511     2.738868     2.731225     2.723582     2.715939     2.708295
      2.700652     2.693009     2.685366     2.677722     2.670079     2.662436     2.654793     2.647150     2.639506     2.631863
      2.624220     2.616577     2.608933     2.601290     2.593647     2.586004     2.578361     2.570717     2.563074     2.555431
      2.547788     2.540144     2.532501     2.524858     2.517215     2.509572     2.501928     2.494285     2.486642     2.478999
      2.471355     2.463712     2.456069     2.448426     2.440783     2.433139     2.425496     2.417853     2.410210     2.402566
      2.394923     2.387280     2.379637     2.371994     2.364350     2.356707     2.349064     2.341421     2.333777     2.326134
      2.318491     2.310848     2.303205     2.295561     2.287918     2.280275     2.272632     2.264988     2.257345     2.249702
      2.242059     2.234416     2.226772     2.219129     2.211486     2.203843     2.196199     2.188556     2.180913     2.173270
      2.165627     2.157983     2.150340     2.142697     2.135054     2.127410     2.119767     2.112124     2.104481     2.096838
      2.089194     2.081551     2.073908     2.066265     2.058621     2.050978     2.043335     2.035692     2.028049     2.020405
      2.012762     2.005119     1.997476     1.989833     1.982190     1.974546     1.966903     1.959260     1.951617     1.943974
      1.936331     1.928688     1.921045     1.913402     1.905759     1.898115     1.890472     1.882829     1.875186     1.867543
      1.859900     1.852257     1.844614     1.836971     1.829327     1.821684     1.814041     1.806398     1.798755     1.791112
      1.783469     1.775826     1.768183     1.760540     1.752896     1.745253     1.737610     1.729967     1.722324     1.714681
      1.707038     1.699395     1.691752     1.684108     1.676465     1.668822     1.661179     1.653536     1.645893     1.638250
      1.630607     1.622964     1.615321     1.607677     1.600034     1.592391     1.584748     1.577105     1.569462     1.561819
      1.554176     1.546533     1.538890     1.531246     1.523603     1.515960     1.508317     1.500674     1.493031     1.485388
      1.477745     1.470102     1.462458     1.454815     1.447172     1.439529     1.431886     1.424243     1.416600     1.408957
      1.401314     1.393671     1.386027     1.378384     1.370741     1.363098     1.355455     1.347812     1.340169     1.332526
      1.324883     1.317240     1.309596     1.301953     1.294310     1.286667     1.279024     1.271381     1.263738     1.256095
      1.248452     1.240808     1.233165     1.225522     1.217879     1.210236     1.202593     1.194950     1.187307     1.179664
      1.172021     1.164377     1.156734     1.149091     1.141448     1.133805     1.126162     1.118519     1.110876     1.103233
      1.095590     1.087946     1.080303     1.072660     1.065017     1.057374     1.049731     1.042088     1.034445     1.026802
      1.019158     1.011515     1.003872     0.996229     0.988586     0.980943     0.973300     0.965657     0.958014     0.950371
      0.942727     0.935084     0.927441     0.919798     0.912155     0.904512     0.896869     0.889226     0.881583     0.873940
      0.866296     0.858653     0.851010     0.843367     0.835724     0.828081     0.820438     0.812795     0.805152     0.797508
      0.789865     0.782222     0.774579     0.766936     0.759293     0.751650     0.744007     0.736364     0.728721     0.721077
      0.713434     0.705791     0.698148     0.690505     0.682862     0.675219     0.667576     0.659933     0.652290     0.644646
      0.637003     0.629360     0.621717     0.614074     0.606431     0.598788     0.591145     0.583502     0.575858     0.568215
      0.560572     0.552929     0.545286     0.537643     0.530000     0.522357     0.514714     0.507071     0.499427     0.491784
      0.484141     0.476498     0.468855     0.461212     0.453569     0.445925     0.438282     0.430639     0.422996     0.415353
      0.407710     0.400067     0.392424     0.384780     0.377137     0.369494     0.361851     0.354208     0.346565     0.338922
      0.331278     0.323635     0.315992     0.308349     0.300706     0.293063     0.285420     0.277777     0.270133     0.262490
      0.254847     0.247204     0.239561     0.231918     0.224275     0.216631     0.208988     0.201345
 NY phased data points follow
  -1.05439E+01 -2.36451E+01 -2.57583E+01 -2.58552E+01 -2.27983E+01 -1.88008E+01 -2.41114E+01 -2.36058E+01 -2.79366E+01 -2.96117E+01
  -1.12497E+01 -2.06945E+01 -8.22540E+00 -3.19007E+01 -2.93781E+01 -2.67529E+01 -2.80427E+01 -1.56900E+00 -1.85392E+01 -1.63423E+01
  -2.77493E+01 -2.37807E+01 -2.59782E+01 -1.69533E+01 -1.42494E+01 -2.15599E+01 -2.17525E+01 -1.64888E+01 -1.52301E+01 -1.93167E+01
  -2.81596E+01 -1.49384E+01 -1.98200E+01 -2.22678E+01 -9.77263E+00 -1.62809E+01 -1.82378E+01 -1.24902E+01  3.69051E-01 -4.44536E+00
  -3.49418E+00 -7.42251E+00 -2.07868E+01 -3.18436E+01 -1.77298E+01 -1.93605E+01 -7.20119E+00 -4.08012E+00 -2.31409E+00  2.86655E+00
   3.47657E-01 -1.96603E+01 -9.00123E+00 -4.96153E+00 -1.09907E+01 -1.82633E+01 -8.23697E+00 -1.82587E+01 -2.16037E+01 -1.29652E+01
  -4.54858E+00 -1.59780E+01 -1.42224E+01 -1.90712E+01 -5.60222E+00 -2.16652E+01 -8.58855E+00 -4.55899E+00 -5.77683E+00 -1.73982E+01
  -1.24127E+01 -2.09964E+01 -1.25082E+01 -1.24077E+01 -8.44551E+00 -1.33471E+01 -9.15635E+00 -1.20269E+01 -9.61265E+00 -1.66649E+01
  -6.20915E+00 -7.46658E+00  1.05271E+00 -1.21271E+01 -9.27805E+00 -1.35699E+01 -9.99265E+00 -1.50363E+01 -6.98937E+00 -1.15888E+01
  -1.87560E+00 -2.29409E+01  2.24419E+00 -1.32591E+01 -1.28283E+01 -1.09759E+01 -1.58287E+01 -9.32028E+00 -1.24785E+01 -5.30557E+00
  -8.07532E+00 -1.14788E+01 -4.15448E+00 -6.00562E+00 -1.20653E+01  1.70657E+00  1.07777E+00 -7.68791E+00 -5.15804E+00 -1.11597E+01
  -1.50615E+01 -6.79716E+00  4.03648E+00 -4.65820E+00 -9.85869E+00  5.96336E+00 -1.37915E+01 -1.16198E-02 -1.70235E+01 -1.70299E+01
  -1.08110E+01 -7.64420E+00  5.70740E+00 -1.62557E+01 -1.29612E+01 -5.84658E+00 -4.82358E+00 -2.87960E+00 -1.36839E+01 -1.15138E+01
  -3.12451E+00 -1.45020E+01 -1.12955E+01 -1.01374E+01 -1.63781E+01 -7.75861E+00 -4.59748E+00 -9.53236E+00 -5.92514E+00 -1.21379E+01
  -3.97906E+00 -6.70564E+00 -1.81345E+01 -1.12612E+01 -7.80612E+00 -5.06599E+00 -7.38606E+00 -3.66895E+00 -1.03805E+00 -1.17201E+01
  -1.42801E+01 -9.38570E+00 -1.37014E+01 -2.12399E+01 -5.28434E+00 -5.08282E+00 -1.77530E+01 -1.49908E+00 -1.40465E+00 -1.75916E-01
  -8.94074E+00 -1.19550E+01  5.55586E-01 -1.87179E+01 -1.63779E+01 -9.03484E+00 -3.48465E-01 -9.49931E-01 -7.76399E+00 -1.33978E+01
  -8.78563E+00 -3.00457E+00 -1.43329E+01  1.40218E+00 -8.89779E+00 -8.50753E+00 -1.00310E+01 -1.71047E+01 -2.62698E+00 -4.76718E+00
  -6.40961E+00 -2.73937E+00 -3.86949E+00  4.17857E-01 -5.76133E+00 -6.40978E+00 -1.82119E+01 -6.17592E-01 -8.96404E+00  6.99990E+00
  -7.39413E+00 -1.09356E+01 -2.03236E-02 -6.87039E+00 -2.80517E+00 -1.92914E+00 -1.81694E-01  8.74499E-01 -2.09504E+01 -7.23839E+00
  -8.29915E+00 -1.09668E+01 -1.24024E+00 -1.31445E+01  7.87725E-02 -1.03078E+01 -8.97334E+00 -7.22323E+00 -1.59997E+00 -1.02687E+01
  -3.03976E+00 -1.40766E+01 -7.23724E+00  6.30759E+00 -7.55375E-01 -5.44733E+00 -9.46360E+00 -8.77975E+00 -9.32826E+00  1.43363E+00
  -1.62407E+01  5.13245E-01  6.74527E+00 -4.05436E+00 -8.97207E+00 -9.99497E+00 -1.10187E+01 -2.39179E+00  7.32250E+00 -2.42991E+00
   2.99928E+00  1.50073E+00 -1.87128E+00  6.17057E-01 -5.88321E+00 -5.50372E+00  4.35912E-01  1.54214E+00 -1.39402E+00 -6.64971E+00
   3.46268E+00 -8.75825E+00  5.01772E+00  2.65320E+00  3.06125E-01 -3.89717E-01 -1.32994E+00 -3.18111E+00  3.66840E-01 -9.50420E+00
   1.73299E+00 -3.86459E+00 -1.20973E+01 -2.98699E+00 -1.39075E-01  6.19154E+00 -2.78523E+00 -2.96005E+00  5.80867E+00  7.72016E-01
   2.24152E+00 -4.04552E+00 -7.55236E+00 -1.76518E+00 -6.43654E+00 -5.96546E-01  5.90666E+00 -8.78726E+00 -9.40032E+00 -1.08715E+01
  -2.78033E+00  9.43784E-01  2.00499E+00 -9.34573E+00 -1.17507E+01 -1.26079E+00 -2.74748E+00 -2.65142E+00 -8.00814E+00 -4.41055E+00
  -8.98834E+00 -8.33686E+00  8.38121E-01 -1.68063E+01 -6.51434E+00 -7.83009E+00 -3.14179E+00 -1.00695E+01 -2.34312E+00  2.92429E+00
  -1.55963E+00 -9.78812E+00 -8.08805E+00 -1.90207E+00  2.76664E-01 -8.36057E-01 -5.50743E+00 -3.03768E+00 -3.54120E+00  2.18839E-01
  -2.07816E-01 -6.89806E+00 -1.09080E+01 -8.44687E+00 -4.29575E+00 -1.20992E+01  1.35842E-01 -5.14374E+00 -6.69437E+00 -7.47838E+00
  -5.59670E+00 -1.39856E+01 -4.31587E+00  3.20520E-01 -9.23542E-01 -3.00546E+00  9.99595E+00 -1.48411E+01 -5.82599E+00 -1.20247E+01
  -1.96183E+00  2.56685E+00  1.53220E+00  6.33545E+00  5.51304E+00  5.75805E-01  2.42372E+00 -6.50671E-01  4.42748E+00  1.17538E+00
   3.62660E-01  1.27265E+00 -4.95579E+00 -1.00084E+01  7.92642E+00  8.88993E+00  3.54557E+00 -8.09239E-01  1.01023E+01  8.74337E+00
   2.14393E+01  4.04227E+00  6.03818E+00  7.34096E+00  9.47196E+00  2.05406E+01  9.87983E+00  1.87857E+01 -7.36968E-01  6.90461E+00
   2.46521E+00 -1.30031E+01 -2.10678E+00 -1.65416E+01 -5.78409E+00  7.40609E-01 -5.68813E+00 -4.53683E+00 -1.30558E+01 -1.22650E+01
  -4.75545E+00 -2.81251E+00 -8.19390E+00 -6.60817E+00 -1.71695E+01 -1.55281E+01 -1.14572E+01 -1.46970E+01 -2.06383E+01 -1.38632E+01
  -1.41326E+01 -9.86592E+00 -2.60682E+01 -1.33612E+01 -1.08509E+01 -1.97871E+01 -6.96059E+00 -8.05911E+00 -2.82057E+00 -6.72325E+00
  -1.08964E+01 -3.04349E+00 -2.17649E-01 -7.54724E+00 -1.57574E+01 -2.32629E+01 -1.14261E+01 -6.46670E+00 -8.42576E+00 -1.87246E+01
   2.97654E+00  9.15324E-01 -1.48531E+01 -1.09335E+01 -9.39069E+00 -1.29352E+01 -6.43593E-01 -8.62575E+00 -2.76447E+00 -4.33386E+00
  -1.80918E+01 -6.31401E+00 -1.21217E+01 -1.86496E+00 -3.73772E+00  3.79770E+00  5.10210E+00 -1.12295E+00  1.35044E+01 -8.50947E+00
  -1.06133E+00 -1.39894E+00  8.42227E+00 -6.34408E+00 -9.73989E+00 -7.76451E+00  5.77035E+00  1.99572E+00 -4.72223E+00 -4.23148E+00
   1.81049E-01  3.20504E-01 -1.24586E+01  4.20086E+00  1.63962E+00  4.20853E+00 -5.56317E+00 -1.58055E+00 -1.04840E+01 -6.09708E+00
   1.04774E+00 -1.71739E+00 -2.65866E+00 -1.00033E+01 -5.85550E+00 -2.16552E+00 -7.29500E+00 -4.79378E+00 -1.69369E+00 -8.95106E-01
   1.52988E+00  2.35400E+00 -7.82249E+00 -8.85526E+00 -6.32952E+00  9.64632E+00  3.14169E+00 -1.54377E+00 -2.35784E+00  1.41442E+00
   2.26941E+00 -3.82187E+00  8.43987E+00  8.63185E+00 -8.58328E+00 -6.93236E-01 -4.86748E+00 -7.16236E+00  8.76021E+00  4.76869E-01
  -2.09951E+00 -4.89715E+00  4.94966E-01 -5.23974E+00 -3.81464E-01  1.84679E+00  2.01260E+00 -2.10145E-01  6.23320E+00 -6.82813E+00
  -4.09018E-01 -3.48248E+00 -3.30679E+00  7.56566E+00  2.02264E+00  6.47498E+00  3.65090E+00 -2.17679E+00  1.02352E+00 -8.52464E+00
  -2.34608E+00  5.56533E+00  5.88707E+00 -8.71955E+00 -2.26265E-01  1.74989E+00 -5.44674E+00  4.88308E+00 -2.75970E+00 -3.31343E-01
  -4.15672E+00 -8.78583E-01 -1.60142E+00  1.43491E-01 -8.45659E+00 -2.39628E+00 -5.13500E+00  5.23959E+00
 NY points of the fit to the data follow
  -1.39483E+01 -1.48868E+01 -1.59208E+01 -1.63634E+01 -1.61994E+01 -1.59628E+01 -1.59572E+01 -1.60645E+01 -1.61843E+01 -1.62430E+01
  -1.62400E+01 -1.62226E+01 -1.61869E+01 -1.60689E+01 -1.58726E+01 -1.57225E+01 -1.57523E+01 -1.58875E+01 -1.59766E+01 -1.59697E+01
  -1.59238E+01 -1.57677E+01 -1.53637E+01 -1.47476E+01 -1.41717E+01 -1.39633E+01 -1.40818E+01 -1.42835E+01 -1.45766E+01 -1.51033E+01
  -1.57658E+01 -1.61903E+01 -1.59688E+01 -1.53201E+01 -1.45659E+01 -1.36020E+01 -1.25089E+01 -1.16639E+01 -1.14584E+01 -1.20112E+01
  -1.28908E+01 -1.37255E+01 -1.48853E+01 -1.62927E+01 -1.67241E+01 -1.49539E+01 -1.15825E+01 -8.45408E+00 -6.79688E+00 -6.42484E+00
  -6.66564E+00 -7.41161E+00 -9.25628E+00 -1.22821E+01 -1.50080E+01 -1.60106E+01 -1.55877E+01 -1.45923E+01 -1.32692E+01 -1.18067E+01
  -1.05954E+01 -9.91191E+00 -9.80805E+00 -1.00607E+01 -1.06354E+01 -1.16150E+01 -1.25510E+01 -1.31343E+01 -1.32465E+01 -1.27336E+01
  -1.18750E+01 -1.09709E+01 -1.03592E+01 -1.01403E+01 -1.01137E+01 -1.01845E+01 -1.03233E+01 -1.06742E+01 -1.11624E+01 -1.13909E+01
  -1.14502E+01 -1.14662E+01 -1.13552E+01 -1.11264E+01 -1.10060E+01 -1.12723E+01 -1.19526E+01 -1.27874E+01 -1.34719E+01 -1.38908E+01
  -1.40604E+01 -1.39829E+01 -1.34449E+01 -1.23304E+01 -1.11213E+01 -1.02615E+01 -9.99760E+00 -1.02981E+01 -1.12530E+01 -1.21501E+01
  -1.16915E+01 -9.61100E+00 -6.90677E+00 -4.87755E+00 -3.96975E+00 -3.66135E+00 -3.71007E+00 -4.57429E+00 -6.91674E+00 -1.02315E+01
  -1.19772E+01 -1.19803E+01 -1.17648E+01 -1.15421E+01 -1.13599E+01 -1.12026E+01 -1.10875E+01 -1.10126E+01 -1.09610E+01 -1.09117E+01
  -1.08554E+01 -1.07885E+01 -1.07137E+01 -1.06227E+01 -1.05041E+01 -1.03706E+01 -1.02386E+01 -1.01182E+01 -9.99722E+00 -9.87335E+00
  -9.76685E+00 -9.68777E+00 -9.62743E+00 -9.57107E+00 -9.51070E+00 -9.44739E+00 -9.38359E+00 -9.30241E+00 -9.20282E+00 -9.10316E+00
  -9.01430E+00 -8.93798E+00 -8.85637E+00 -8.75467E+00 -8.65583E+00 -8.57238E+00 -8.49708E+00 -8.41892E+00 -8.33355E+00 -8.25193E+00
  -8.18899E+00 -8.16259E+00 -8.16582E+00 -8.16568E+00 -8.13475E+00 -8.04970E+00 -7.93062E+00 -7.82844E+00 -7.77509E+00 -7.75209E+00
  -7.72364E+00 -7.69937E+00 -7.68819E+00 -7.68293E+00 -7.67592E+00 -7.62543E+00 -7.53981E+00 -7.49660E+00 -7.49431E+00 -7.46895E+00
  -7.38633E+00 -7.27616E+00 -7.19146E+00 -7.16468E+00 -7.14134E+00 -7.06528E+00 -6.96131E+00 -6.90786E+00 -6.88818E+00 -6.88358E+00
  -6.84324E+00 -6.71125E+00 -6.53584E+00 -6.40027E+00 -6.30472E+00 -6.19659E+00 -6.03495E+00 -5.82569E+00 -5.62936E+00 -5.51386E+00
  -5.47341E+00 -5.42959E+00 -5.38612E+00 -5.35430E+00 -5.35281E+00 -5.36155E+00 -5.35640E+00 -5.33047E+00 -5.25731E+00 -5.13716E+00
  -5.03217E+00 -4.94309E+00 -4.85152E+00 -4.75491E+00 -4.67702E+00 -4.67071E+00 -4.69276E+00 -4.69214E+00 -4.67562E+00 -4.65486E+00
  -4.62564E+00 -4.56901E+00 -4.47994E+00 -4.34249E+00 -4.17199E+00 -4.02687E+00 -3.92986E+00 -3.82743E+00 -3.70610E+00 -3.58802E+00
  -3.49251E+00 -3.38764E+00 -3.26526E+00 -3.14201E+00 -3.04073E+00 -2.96247E+00 -2.90308E+00 -2.87855E+00 -2.89034E+00 -2.92212E+00
  -2.93544E+00 -2.88506E+00 -2.75944E+00 -2.58475E+00 -2.41655E+00 -2.29661E+00 -2.19061E+00 -2.09824E+00 -2.06510E+00 -2.09250E+00
  -2.15309E+00 -2.16223E+00 -2.04324E+00 -1.83987E+00 -1.65360E+00 -1.49765E+00 -1.33659E+00 -1.16991E+00 -1.04211E+00 -1.01182E+00
  -1.12938E+00 -1.24080E+00 -5.99395E-01  9.89158E-01  2.82769E+00  3.83727E+00  3.90409E+00  3.96463E+00  4.31859E+00  4.21868E+00
   2.79670E+00  2.25582E-01 -1.74137E+00 -2.15537E+00 -2.59818E+00 -3.63889E+00 -4.75614E+00 -4.91598E+00 -4.45550E+00 -4.06368E+00
  -3.75321E+00 -3.49246E+00 -3.26397E+00 -3.06285E+00 -2.90410E+00 -2.79397E+00 -2.71844E+00 -2.66126E+00 -2.59996E+00 -2.52549E+00
  -2.43348E+00 -2.31062E+00 -2.15648E+00 -2.01105E+00 -1.89548E+00 -1.79716E+00 -1.71114E+00 -1.64288E+00 -1.58829E+00 -1.52549E+00
  -1.43291E+00 -1.32933E+00 -1.22840E+00 -1.12710E+00 -1.02684E+00 -9.34739E-01 -8.58471E-01 -8.05706E-01 -7.55865E-01 -6.85401E-01
  -6.02403E-01 -5.14265E-01 -4.20561E-01 -3.19583E-01 -2.12508E-01 -1.09757E-01 -1.72241E-02  7.55384E-02  1.70420E-01  2.68007E-01
   3.68840E-01  4.73099E-01  5.81173E-01  6.93544E-01  8.10468E-01  9.32159E-01  1.05912E+00  1.19219E+00  1.33215E+00  1.47895E+00
   1.63025E+00  1.78514E+00  2.05519E+00  2.87757E+00  4.01822E+00  4.59392E+00  3.99890E+00  2.44173E+00  8.33233E-01 -4.03916E-01
  -1.78616E+00 -3.13738E+00 -3.32150E+00 -1.20301E+00  2.83483E+00  6.09421E+00  7.84305E+00  8.99732E+00  9.93021E+00  1.04224E+01
   9.95096E+00  8.72461E+00  8.49577E+00  1.01514E+01  1.32097E+01  1.59155E+01  1.64286E+01  1.42413E+01  1.06316E+01  7.06879E+00
   3.02335E+00 -1.63801E+00 -5.07948E+00 -5.27682E+00 -1.61572E+00  2.11507E+00  2.49301E+00  1.47566E+00  2.80761E-01 -1.36758E+00
  -4.42518E+00 -8.69605E+00 -1.11509E+01 -1.10775E+01 -1.04016E+01 -9.62681E+00 -8.86266E+00 -8.15520E+00 -7.52335E+00 -6.97006E+00
  -6.48982E+00 -6.07376E+00 -5.71247E+00 -5.39696E+00 -5.11901E+00 -4.87150E+00 -4.64892E+00 -4.44737E+00 -4.26409E+00 -4.09670E+00
  -3.94288E+00 -3.80058E+00 -3.66832E+00 -3.54522E+00 -3.43066E+00 -3.32381E+00 -3.22366E+00 -3.12932E+00 -3.04033E+00 -2.95650E+00
  -2.87763E+00 -2.80322E+00 -2.73268E+00 -2.66556E+00 -2.60180E+00 -2.54141E+00 -2.48424E+00 -2.42991E+00 -2.37803E+00 -2.32844E+00
  -2.28120E+00 -2.23637E+00 -2.19379E+00 -2.15312E+00 -2.11415E+00 -2.07684E+00 -2.04136E+00 -2.00769E+00 -1.97565E+00 -1.94496E+00
  -1.91553E+00 -1.88745E+00 -1.86085E+00 -1.83565E+00 -1.81166E+00 -1.78867E+00 -1.76672E+00 -1.74592E+00 -1.72636E+00 -1.70789E+00
  -1.69034E+00 -1.67359E+00 -1.65776E+00 -1.64295E+00 -1.62917E+00 -1.61625E+00 -1.60405E+00 -1.59256E+00 -1.58191E+00 -1.57217E+00
  -1.56328E+00 -1.55508E+00 -1.54749E+00 -1.54055E+00 -1.53440E+00 -1.52906E+00 -1.52442E+00 -1.52034E+00 -1.51680E+00 -1.51390E+00
  -1.51175E+00 -1.51030E+00 -1.50942E+00 -1.50902E+00 -1.50914E+00 -1.50989E+00 -1.51134E+00 -1.51338E+00 -1.51589E+00 -1.51884E+00
  -1.52232E+00 -1.52641E+00 -1.53113E+00 -1.53634E+00 -1.54197E+00 -1.54801E+00 -1.55459E+00 -1.56176E+00 -1.56948E+00 -1.57760E+00
  -1.58611E+00 -1.59504E+00 -1.60452E+00 -1.61453E+00 -1.62501E+00 -1.63584E+00 -1.64704E+00 -1.65868E+00 -1.67085E+00 -1.68350E+00
  -1.69654E+00 -1.70988E+00 -1.72360E+00 -1.73778E+00 -1.75245E+00 -1.76753E+00 -1.78293E+00 -1.79862E+00 -1.81470E+00 -1.83123E+00
  -1.84820E+00 -1.86550E+00 -1.88308E+00 -1.90093E+00 -1.91918E+00 -1.93785E+00 -1.95688E+00 -1.97617E+00 -1.99568E+00 -2.01548E+00
  -2.03565E+00 -2.05617E+00 -2.07696E+00 -2.09791E+00 -2.11906E+00 -2.14046E+00 -2.16216E+00 -2.18410E+00
 NY background values follow
    -1.688E+01   -1.684E+01   -1.679E+01   -1.675E+01   -1.670E+01   -1.666E+01   -1.661E+01   -1.656E+01   -1.652E+01   -1.647E+01
    -1.642E+01   -1.638E+01   -1.633E+01   -1.628E+01   -1.623E+01   -1.618E+01   -1.614E+01   -1.609E+01   -1.604E+01   -1.599E+01
    -1.594E+01   -1.589E+01   -1.584E+01   -1.579E+01   -1.574E+01   -1.569E+01   -1.564E+01   -1.559E+01   -1.554E+01   -1.549E+01
    -1.544E+01   -1.539E+01   -1.534E+01   -1.528E+01   -1.523E+01   -1.518E+01   -1.513E+01   -1.508E+01   -1.502E+01   -1.497E+01
    -1.492E+01   -1.487E+01   -1.481E+01   -1.476E+01   -1.471E+01   -1.465E+01   -1.460E+01   -1.455E+01   -1.449E+01   -1.444E+01
    -1.438E+01   -1.433E+01   -1.427E+01   -1.422E+01   -1.417E+01   -1.411E+01   -1.406E+01   -1.400E+01   -1.395E+01   -1.389E+01
    -1.383E+01   -1.378E+01   -1.372E+01   -1.367E+01   -1.361E+01   -1.356E+01   -1.350E+01   -1.344E+01   -1.339E+01   -1.333E+01
    -1.327E+01   -1.322E+01   -1.316E+01   -1.310E+01   -1.305E+01   -1.299E+01   -1.293E+01   -1.288E+01   -1.282E+01   -1.276E+01
    -1.271E+01   -1.265E+01   -1.259E+01   -1.253E+01   -1.248E+01   -1.242E+01   -1.236E+01   -1.230E+01   -1.224E+01   -1.219E+01
    -1.213E+01   -1.207E+01   -1.201E+01   -1.195E+01   -1.190E+01   -1.184E+01   -1.178E+01   -1.172E+01   -1.166E+01   -1.160E+01
    -1.155E+01   -1.149E+01   -1.143E+01   -1.137E+01   -1.131E+01   -1.125E+01   -1.119E+01   -1.114E+01   -1.108E+01   -1.102E+01
    -1.096E+01   -1.090E+01   -1.084E+01   -1.078E+01   -1.072E+01   -1.066E+01   -1.061E+01   -1.055E+01   -1.049E+01   -1.043E+01
    -1.037E+01   -1.031E+01   -1.025E+01   -1.019E+01   -1.014E+01   -1.008E+01   -1.002E+01   -9.959E+00   -9.900E+00   -9.841E+00
    -9.782E+00   -9.724E+00   -9.665E+00   -9.606E+00   -9.548E+00   -9.489E+00   -9.430E+00   -9.372E+00   -9.313E+00   -9.255E+00
    -9.196E+00   -9.138E+00   -9.080E+00   -9.021E+00   -8.963E+00   -8.905E+00   -8.847E+00   -8.788E+00   -8.730E+00   -8.672E+00
    -8.614E+00   -8.556E+00   -8.498E+00   -8.441E+00   -8.383E+00   -8.325E+00   -8.268E+00   -8.210E+00   -8.153E+00   -8.095E+00
    -8.038E+00   -7.981E+00   -7.924E+00   -7.866E+00   -7.809E+00   -7.753E+00   -7.696E+00   -7.639E+00   -7.582E+00   -7.526E+00
    -7.469E+00   -7.413E+00   -7.357E+00   -7.300E+00   -7.244E+00   -7.188E+00   -7.132E+00   -7.077E+00   -7.021E+00   -6.965E+00
    -6.910E+00   -6.855E+00   -6.799E+00   -6.744E+00   -6.689E+00   -6.634E+00   -6.579E+00   -6.525E+00   -6.470E+00   -6.416E+00
    -6.362E+00   -6.307E+00   -6.253E+00   -6.200E+00   -6.146E+00   -6.092E+00   -6.039E+00   -5.985E+00   -5.932E+00   -5.879E+00
    -5.826E+00   -5.773E+00   -5.721E+00   -5.668E+00   -5.616E+00   -5.564E+00   -5.512E+00   -5.460E+00   -5.408E+00   -5.357E+00
    -5.305E+00   -5.254E+00   -5.203E+00   -5.152E+00   -5.101E+00   -5.051E+00   -5.000E+00   -4.950E+00   -4.900E+00   -4.850E+00
    -4.801E+00   -4.751E+00   -4.702E+00   -4.652E+00   -4.603E+00   -4.555E+00   -4.506E+00   -4.458E+00   -4.409E+00   -4.361E+00
    -4.313E+00   -4.266E+00   -4.218E+00   -4.171E+00   -4.124E+00   -4.077E+00   -4.030E+00   -3.984E+00   -3.937E+00   -3.891E+00
    -3.845E+00   -3.800E+00   -3.754E+00   -3.709E+00   -3.664E+00   -3.619E+00   -3.574E+00   -3.530E+00   -3.486E+00   -3.442E+00
    -3.398E+00   -3.354E+00   -3.311E+00   -3.268E+00   -3.225E+00   -3.182E+00   -3.140E+00   -3.097E+00   -3.055E+00   -3.014E+00
    -2.972E+00   -2.931E+00   -2.890E+00   -2.849E+00   -2.808E+00   -2.768E+00   -2.728E+00   -2.688E+00   -2.648E+00   -2.609E+00
    -2.570E+00   -2.531E+00   -2.492E+00   -2.454E+00   -2.416E+00   -2.378E+00   -2.340E+00   -2.303E+00   -2.265E+00   -2.229E+00
    -2.192E+00   -2.155E+00   -2.119E+00   -2.083E+00   -2.048E+00   -2.012E+00   -1.977E+00   -1.943E+00   -1.908E+00   -1.874E+00
    -1.840E+00   -1.806E+00   -1.772E+00   -1.739E+00   -1.706E+00   -1.673E+00   -1.641E+00   -1.609E+00   -1.577E+00   -1.545E+00
    -1.514E+00   -1.483E+00   -1.452E+00   -1.422E+00   -1.391E+00   -1.361E+00   -1.332E+00   -1.302E+00   -1.273E+00   -1.245E+00
    -1.216E+00   -1.188E+00   -1.160E+00   -1.132E+00   -1.105E+00   -1.078E+00   -1.051E+00   -1.025E+00   -9.983E-01   -9.724E-01
    -9.468E-01   -9.215E-01   -8.964E-01   -8.717E-01   -8.473E-01   -8.231E-01   -7.993E-01   -7.758E-01   -7.525E-01   -7.296E-01
    -7.070E-01   -6.847E-01   -6.626E-01   -6.409E-01   -6.195E-01   -5.984E-01   -5.776E-01   -5.571E-01   -5.369E-01   -5.170E-01
    -4.974E-01   -4.782E-01   -4.592E-01   -4.406E-01   -4.223E-01   -4.042E-01   -3.865E-01   -3.691E-01   -3.520E-01   -3.353E-01
    -3.188E-01   -3.027E-01   -2.869E-01   -2.714E-01   -2.562E-01   -2.413E-01   -2.268E-01   -2.125E-01   -1.986E-01   -1.850E-01
    -1.717E-01   -1.588E-01   -1.462E-01   -1.338E-01   -1.219E-01   -1.102E-01   -9.885E-02   -8.783E-02   -7.713E-02   -6.675E-02
    -5.670E-02   -4.698E-02   -3.758E-02   -2.850E-02   -1.975E-02   -1.133E-02   -3.234E-03    4.536E-03    1.198E-02    1.909E-02
     2.588E-02    3.234E-02    3.847E-02    4.427E-02    4.975E-02    5.489E-02    5.971E-02    6.419E-02    6.835E-02    7.218E-02
     7.567E-02    7.884E-02    8.167E-02    8.418E-02    8.635E-02    8.819E-02    8.970E-02    9.088E-02    9.173E-02    9.224E-02
     9.243E-02    9.228E-02    9.180E-02    9.099E-02    8.984E-02    8.836E-02    8.655E-02    8.441E-02    8.194E-02    7.913E-02
     7.599E-02    7.252E-02    6.871E-02    6.458E-02    6.011E-02    5.530E-02    5.017E-02    4.470E-02    3.890E-02    3.277E-02
     2.630E-02    1.951E-02    1.238E-02    4.916E-03   -2.877E-03   -1.100E-02   -1.946E-02   -2.825E-02   -3.737E-02   -4.682E-02
    -5.661E-02   -6.672E-02   -7.716E-02   -8.794E-02   -9.905E-02   -1.105E-01   -1.223E-01   -1.343E-01   -1.468E-01   -1.595E-01
    -1.726E-01   -1.860E-01   -1.998E-01   -2.138E-01   -2.282E-01   -2.430E-01   -2.580E-01   -2.734E-01   -2.891E-01   -3.052E-01
    -3.215E-01   -3.382E-01   -3.552E-01   -3.726E-01   -3.902E-01   -4.082E-01   -4.265E-01   -4.452E-01   -4.641E-01   -4.834E-01
    -5.030E-01   -5.229E-01   -5.432E-01   -5.638E-01   -5.847E-01   -6.059E-01   -6.274E-01   -6.493E-01   -6.714E-01   -6.939E-01
    -7.167E-01   -7.398E-01   -7.633E-01   -7.870E-01   -8.111E-01   -8.355E-01   -8.602E-01   -8.852E-01   -9.105E-01   -9.362E-01
    -9.621E-01   -9.884E-01   -1.015E+00   -1.042E+00   -1.069E+00   -1.097E+00   -1.124E+00   -1.153E+00   -1.181E+00   -1.210E+00
    -1.239E+00   -1.268E+00   -1.298E+00   -1.328E+00   -1.358E+00   -1.388E+00   -1.419E+00   -1.450E+00
 Ala      Conc. = 2.54E+02
