 LCModel (Version 6.3-1L) Copyright: S.W. Provencher.          Ref.: Magn. Reson. Med. 30:672-679 (1993).                
 Slice#1 Row#11 Col#8  PD_05_press_2_raw_act
 36 lines in following concentration table = NCONC+1
    Conc.  %SD /Cr+PCr  Metabolite                                         
  187.601  74%   3.084 Ala                                                 
   20.207  77%   0.332 Asp                                                 
   60.825  56%   1.000 Cr                                                  
    0.000 999%   0.000 PCr                                                 
   13.068  71%   0.215 GABA                                                
   13.095  72%   0.215 Glc                                                 
  217.331 117%   3.573 Gln                                                 
  512.438  57%   8.425 Glu                                                 
    0.000 999%   0.000 GPC                                                 
   19.110  66%   0.314 PCh                                                 
    0.000 999%   0.000 GSH                                                 
    0.000 999%   0.000 Ins                                                 
  225.950  81%   3.715 Lac                                                 
  275.025  41%   4.522 NAA                                                 
   42.699 226%   0.702 NAAG                                                
    5.248  59% 8.6E-02 Scyllo                                              
   24.375  63%   0.401 Tau                                                 
    6.225  64%   0.102 -CrCH2                                              
   19.110  66%   0.314 GPC+PCh                                             
  317.724  17%   5.224 NAA+NAAG                                            
   60.825  56%   1.000 Cr+PCr                                              
  729.769  62%  11.998 Glu+Gln                                             
    0.000 999%   0.000 Lip13a                                              
  335.054  47%   5.508 Lip13b                                              
   89.458  47%   1.471 Lip09                                               
    0.000 999%   0.000 MM09                                                
   50.258  47%   0.826 Lip20                                               
    0.000 999%   0.000 MM20                                                
    0.000 999%   0.000 MM12                                                
 3.19E-03 999% 5.2E-05 MM14                                                
 2.25E-03 999% 3.7E-05 MM17                                                
  335.054  47%   5.508 Lip13a+Lip13b                                       
  335.057  47%   5.509 MM14+Lip13a+Lip13b+MM12                             
   89.458  47%   1.471 MM09+Lip09                                          
   50.258  47%   0.826 MM20+Lip20                                          
   6 lines in following misc. output table
  FWHM = 0.076 ppm    S/N =   2                                            
  Data shift = 0.000 ppm                                                   
  Ph:-103 deg     -51.9 deg/ppm                                            
  alphaB,S = 8.5E+01,   2.6E+01                                            
   14 spline knots.   Ns = 7(2)                                            
  ( 8) 8 infls.   (10) 4 extrs.                                            
  498 points on ppm-axis = NY
      4.000000     3.992357     3.984714     3.977070     3.969427     3.961784     3.954141     3.946497     3.938854     3.931211
      3.923568     3.915925     3.908281     3.900638     3.892995     3.885352     3.877708     3.870065     3.862422     3.854779
      3.847136     3.839492     3.831849     3.824206     3.816563     3.808919     3.801276     3.793633     3.785990     3.778347
      3.770703     3.763060     3.755417     3.747774     3.740130     3.732487     3.724844     3.717201     3.709558     3.701914
      3.694271     3.686628     3.678985     3.671341     3.663698     3.656055     3.648412     3.640769     3.633125     3.625482
      3.617839     3.610196     3.602552     3.594909     3.587266     3.579623     3.571980     3.564336     3.556693     3.549050
      3.541407     3.533763     3.526120     3.518477     3.510834     3.503191     3.495547     3.487904     3.480261     3.472618
      3.464974     3.457331     3.449688     3.442045     3.434402     3.426758     3.419115     3.411472     3.403829     3.396185
      3.388542     3.380899     3.373256     3.365613     3.357969     3.350326     3.342683     3.335040     3.327396     3.319753
      3.312110     3.304467     3.296824     3.289180     3.281537     3.273894     3.266251     3.258607     3.250964     3.243321
      3.235678     3.228034     3.220391     3.212748     3.205105     3.197462     3.189818     3.182175     3.174532     3.166889
      3.159245     3.151602     3.143959     3.136316     3.128673     3.121029     3.113386     3.105743     3.098100     3.090456
      3.082813     3.075170     3.067527     3.059884     3.052240     3.044597     3.036954     3.029311     3.021667     3.014024
      3.006381     2.998738     2.991095     2.983451     2.975808     2.968165     2.960522     2.952878     2.945235     2.937592
      2.929949     2.922306     2.914662     2.907019     2.899376     2.891733     2.884089     2.876446     2.868803     2.861160
      2.853517     2.845873     2.838230     2.830587     2.822944     2.815300     2.807657     2.800014     2.792371     2.784728
      2.777084     2.769441     2.761798     2.754155     2.746511     2.738868     2.731225     2.723582     2.715939     2.708295
      2.700652     2.693009     2.685366     2.677722     2.670079     2.662436     2.654793     2.647150     2.639506     2.631863
      2.624220     2.616577     2.608933     2.601290     2.593647     2.586004     2.578361     2.570717     2.563074     2.555431
      2.547788     2.540144     2.532501     2.524858     2.517215     2.509572     2.501928     2.494285     2.486642     2.478999
      2.471355     2.463712     2.456069     2.448426     2.440783     2.433139     2.425496     2.417853     2.410210     2.402566
      2.394923     2.387280     2.379637     2.371994     2.364350     2.356707     2.349064     2.341421     2.333777     2.326134
      2.318491     2.310848     2.303205     2.295561     2.287918     2.280275     2.272632     2.264988     2.257345     2.249702
      2.242059     2.234416     2.226772     2.219129     2.211486     2.203843     2.196199     2.188556     2.180913     2.173270
      2.165627     2.157983     2.150340     2.142697     2.135054     2.127410     2.119767     2.112124     2.104481     2.096838
      2.089194     2.081551     2.073908     2.066265     2.058621     2.050978     2.043335     2.035692     2.028049     2.020405
      2.012762     2.005119     1.997476     1.989833     1.982190     1.974546     1.966903     1.959260     1.951617     1.943974
      1.936331     1.928688     1.921045     1.913402     1.905759     1.898115     1.890472     1.882829     1.875186     1.867543
      1.859900     1.852257     1.844614     1.836971     1.829327     1.821684     1.814041     1.806398     1.798755     1.791112
      1.783469     1.775826     1.768183     1.760540     1.752896     1.745253     1.737610     1.729967     1.722324     1.714681
      1.707038     1.699395     1.691752     1.684108     1.676465     1.668822     1.661179     1.653536     1.645893     1.638250
      1.630607     1.622964     1.615321     1.607677     1.600034     1.592391     1.584748     1.577105     1.569462     1.561819
      1.554176     1.546533     1.538890     1.531246     1.523603     1.515960     1.508317     1.500674     1.493031     1.485388
      1.477745     1.470102     1.462458     1.454815     1.447172     1.439529     1.431886     1.424243     1.416600     1.408957
      1.401314     1.393671     1.386027     1.378384     1.370741     1.363098     1.355455     1.347812     1.340169     1.332526
      1.324883     1.317240     1.309596     1.301953     1.294310     1.286667     1.279024     1.271381     1.263738     1.256095
      1.248452     1.240808     1.233165     1.225522     1.217879     1.210236     1.202593     1.194950     1.187307     1.179664
      1.172021     1.164377     1.156734     1.149091     1.141448     1.133805     1.126162     1.118519     1.110876     1.103233
      1.095590     1.087946     1.080303     1.072660     1.065017     1.057374     1.049731     1.042088     1.034445     1.026802
      1.019158     1.011515     1.003872     0.996229     0.988586     0.980943     0.973300     0.965657     0.958014     0.950371
      0.942727     0.935084     0.927441     0.919798     0.912155     0.904512     0.896869     0.889226     0.881583     0.873940
      0.866296     0.858653     0.851010     0.843367     0.835724     0.828081     0.820438     0.812795     0.805152     0.797508
      0.789865     0.782222     0.774579     0.766936     0.759293     0.751650     0.744007     0.736364     0.728721     0.721077
      0.713434     0.705791     0.698148     0.690505     0.682862     0.675219     0.667576     0.659933     0.652290     0.644646
      0.637003     0.629360     0.621717     0.614074     0.606431     0.598788     0.591145     0.583502     0.575858     0.568215
      0.560572     0.552929     0.545286     0.537643     0.530000     0.522357     0.514714     0.507071     0.499427     0.491784
      0.484141     0.476498     0.468855     0.461212     0.453569     0.445925     0.438282     0.430639     0.422996     0.415353
      0.407710     0.400067     0.392424     0.384780     0.377137     0.369494     0.361851     0.354208     0.346565     0.338922
      0.331278     0.323635     0.315992     0.308349     0.300706     0.293063     0.285420     0.277777     0.270133     0.262490
      0.254847     0.247204     0.239561     0.231918     0.224275     0.216631     0.208988     0.201345
 NY phased data points follow
  -5.58605E+00 -4.77130E+00 -6.26785E+00 -6.58736E+00 -1.07703E+01 -5.31886E+00 -8.58125E+00 -1.01797E+01 -6.50427E+00 -1.25226E+01
  -6.87275E+00 -1.16222E+01 -5.88685E+00 -4.54566E-01 -4.65387E+00 -3.51728E+00 -3.63678E+00 -4.59966E+00 -8.25641E+00 -3.44220E+00
  -4.48314E+00 -8.56342E+00 -3.12215E+00 -7.21608E+00 -1.50361E+00 -8.38683E+00 -4.50808E+00 -8.06425E+00 -4.05391E+00 -3.59859E+00
  -3.66601E+00 -5.89545E+00 -5.23458E+00 -2.98831E+00 -4.02989E+00 -5.81869E+00 -5.23298E+00 -4.08405E+00 -7.95526E+00 -3.12025E+00
  -4.66141E+00 -5.54904E+00  8.87370E-01 -4.63189E+00 -3.09268E+00 -2.25712E-01 -4.73948E+00 -1.43458E+00 -5.96867E+00  2.00336E+00
  -4.65581E+00 -5.14249E+00 -2.05591E+00 -2.08961E+00 -1.34991E+00 -3.89901E+00 -9.72848E-01 -4.91210E+00 -7.46911E+00 -4.69495E-01
  -3.18006E+00 -5.39224E-01 -9.81868E-01 -4.29168E+00 -5.33011E+00 -3.84471E+00 -4.04613E+00 -1.72121E+00 -2.67221E+00 -1.52528E+00
  -4.49448E+00 -5.39790E+00 -3.78153E+00 -4.14324E+00 -8.64467E+00 -3.37148E+00 -1.87128E+00 -6.76087E+00 -6.02629E-02 -3.38850E+00
  -4.89886E-01 -2.10900E+00 -1.60799E+00 -4.40982E+00 -4.64142E+00 -3.92569E-01 -6.27406E+00 -1.73182E+00 -7.04921E-01 -2.07148E+00
  -1.43596E+00 -5.50815E+00 -2.41990E+00 -4.25141E+00 -2.98003E-01  2.04469E-01 -6.28910E+00 -1.20542E+00  2.98506E+00  4.08550E+00
  -5.57065E+00 -2.77666E+00 -4.90437E+00 -4.45600E+00 -5.38511E+00 -2.88547E+00 -1.17105E+00 -2.01678E-01  2.11232E+00  2.70565E+00
  -5.99179E+00 -4.52638E+00 -1.77271E+00 -1.76322E+00 -2.91794E+00 -3.47333E+00 -3.72199E-02  1.27482E+00 -2.21305E+00 -1.73149E+00
   2.52182E+00 -5.03566E+00 -5.69831E-01  1.70856E+00 -3.42164E+00 -4.65286E+00 -1.53109E-01 -2.54379E+00 -3.36619E+00  6.90101E-01
  -2.74649E+00 -2.31557E+00  6.83283E-01 -3.42130E-01  2.18747E+00  9.45056E-02  1.77456E+00 -9.00154E-01 -3.46319E+00 -1.98139E+00
  -1.56522E+00 -1.35354E+00 -1.88880E+00  6.32997E-01  1.37575E+00 -5.61819E-01  1.16798E+00  3.29342E+00 -2.25945E+00 -7.44832E-01
  -3.68411E+00 -4.57873E-01 -6.45878E-01 -6.95824E-01 -2.86481E+00 -2.42530E+00 -2.13692E+00  9.73990E-01  1.15762E-01 -3.95851E+00
  -1.31969E+00  2.50494E+00  3.38399E-01 -2.50196E+00 -3.39089E+00 -2.20794E+00 -5.99647E+00 -1.20011E-01  1.91237E-02 -9.25116E-01
  -6.43915E+00 -1.73860E+00 -3.18903E+00 -1.05279E+00 -1.53230E+00  4.71734E-01 -2.17645E+00 -3.71325E+00 -1.64777E+00 -1.88155E+00
  -4.21631E+00 -8.23213E+00 -2.20251E+00 -1.58415E+00  1.05624E-01 -5.83639E+00 -8.21217E-01  1.92282E-01 -2.45536E+00 -2.01014E+00
  -6.57161E-02 -7.30066E-01 -2.09729E+00 -1.91491E+00 -2.99510E+00 -1.93607E+00 -2.66189E+00 -1.60630E+00  1.48373E+00 -3.71873E+00
  -1.37024E+00  1.54141E+00 -5.51964E+00 -4.14356E+00 -2.26473E+00 -2.63827E+00  6.07899E-01 -1.87998E+00  5.86069E-01  3.45535E+00
  -9.10345E-01 -3.07153E+00 -3.48540E+00 -4.63242E+00 -4.55053E+00 -4.97394E-01 -2.97576E-01 -2.51700E+00 -1.17906E+00 -9.83334E-01
   5.27739E-01 -1.38261E+00 -1.63385E+00 -3.91157E+00  3.99412E-01 -9.87751E-01 -6.31640E-01 -6.58452E-01 -4.62220E+00 -3.44649E+00
  -1.34991E+00  8.46741E-01 -3.86108E-01 -1.00738E+00  1.46466E+00 -3.63833E+00  1.71883E+00  5.99595E-01 -2.16422E+00  1.87071E+00
  -2.89495E-01 -4.20681E-01 -1.37191E+00 -7.73691E-01 -1.33094E+00 -1.17695E+00 -1.71609E+00 -1.58519E+00 -1.76366E-01 -9.41668E-01
   1.76600E+00  6.16784E-01 -9.43111E-02  2.38837E+00  4.83522E+00  6.92340E+00  3.98549E+00  4.65203E+00  4.35821E+00  7.84856E+00
   1.02623E+01  5.28439E+00  7.97099E+00  3.29909E-01  5.90890E+00  1.24880E+01  7.23727E+00  8.37726E+00  8.71980E+00 -3.52943E-01
   3.39821E+00  4.77526E+00  3.91515E-01 -4.72545E-01 -6.21878E-01 -1.45465E+00  1.66656E+00 -2.13007E+00  9.57308E-01 -5.54308E-01
   3.04722E+00  6.25371E-01 -1.76062E+00 -9.88732E-01  4.58417E+00  8.14835E-01 -2.33715E-01  9.66093E-01  1.64157E+00 -7.43129E-02
   3.62534E+00 -1.03338E+00 -2.21277E-01 -1.03194E+00  2.31234E+00  2.45877E+00  4.19957E+00 -9.09016E-01 -1.93111E+00 -2.42423E+00
   3.99102E+00  2.00391E+00  3.91072E+00  2.22056E-01  1.42325E+00  3.45614E-02 -1.33130E-01  1.38724E+00 -2.80037E+00 -2.91389E+00
  -2.00217E+00 -2.74294E+00  1.11274E+00 -5.92500E+00  2.41412E+00  4.63581E-01 -2.12775E-01 -5.71101E-01 -2.48198E+00  2.72667E+00
   2.32359E-01  3.71303E+00 -1.07014E-01  2.21747E+00 -3.12338E+00  6.72023E-01  5.76246E+00  4.68496E-01  5.07006E+00  6.30646E+00
   2.30478E-01  3.80447E+00  6.09514E+00 -8.01650E-01  2.94937E+00 -1.53612E+00  2.54176E+00  2.74537E+00  3.14538E-01  2.54711E+00
   2.19817E+00  4.97878E+00  5.63271E+00  5.56336E+00  5.62270E+00  6.94503E+00  4.87147E+00  2.51290E+00  3.53705E+00  4.61355E+00
   2.85251E+00  3.12635E+00  3.53179E+00  6.16702E-01  5.56739E+00  6.87471E+00  2.25867E+00  1.11093E+00  1.62257E+00 -6.17932E-01
   2.23661E+00 -1.80630E+00 -2.15811E-01 -8.38974E-01  4.30938E+00  2.01459E+00 -5.37547E-01 -8.07537E-02 -2.97745E+00  1.76091E+00
  -2.90519E+00 -3.04411E-01 -3.90509E+00 -2.01298E+00 -1.27882E-01  1.28677E+00 -2.69355E+00 -2.41278E+00 -9.73480E-01 -9.10660E-01
  -2.76052E+00 -1.86711E+00 -5.67763E-01 -3.19223E+00  8.65889E-03 -9.84121E-02  1.76799E+00 -3.02706E+00  2.18516E+00  1.91221E+00
  -4.48337E-01 -8.74776E-01  1.67364E+00  2.29329E+00  5.35084E+00  1.74897E+00  8.87981E-01  6.72569E-01  1.40209E+00 -1.85049E-01
  -2.06103E+00  1.73830E+00  2.12535E+00  2.24990E+00 -4.43210E-02 -9.50560E-01  1.48972E+00 -2.27011E+00 -5.37654E+00 -2.37811E+00
   1.10197E+00  1.00080E+00  6.67825E-01  2.19823E-01 -2.18103E+00  7.73657E-01  3.13358E+00  2.52341E-01  1.96133E+00 -4.70248E+00
  -5.30143E-01  6.10852E+00 -8.46299E-01  8.92650E-01 -1.90910E+00  2.88005E+00  5.34682E-01  3.62983E-01  2.80893E+00  2.97136E+00
   3.05243E+00  1.78282E+00  4.42460E-01 -1.78165E+00 -1.05251E+00 -1.04680E-01  6.88197E+00  2.90908E+00  7.87798E-01 -3.70564E+00
   8.67399E-02  1.80571E+00  8.38332E-01  3.36820E+00  2.03016E+00  1.49300E+00  2.74020E+00  5.97958E-01 -6.91196E-01  7.56793E-01
  -3.06225E+00  1.98750E+00 -1.79125E+00 -5.35130E-04 -2.78858E+00 -1.64821E+00 -5.54029E+00  9.65006E-02 -4.05739E-01  1.31257E+00
   1.60987E-01 -8.57608E-01 -6.73066E-01  2.61038E-01  1.89609E+00  1.86913E+00  1.33232E+00  2.92433E+00  1.61501E+00 -1.38510E+00
   1.63969E+00 -2.04274E+00  3.23247E-01  1.14845E+00  1.99913E+00  7.04383E-01  4.23075E-01  2.78089E+00  3.27024E+00  9.17713E-01
  -1.34520E+00  2.06147E+00  2.50079E+00 -1.78184E+00 -6.90289E-01  3.25676E+00  1.34266E+00  1.74305E+00  2.04806E+00 -1.76023E+00
  -3.23690E+00 -2.02629E+00  4.38812E+00 -4.95944E-01  1.70687E+00  1.18755E+00  1.48696E+00 -1.49884E+00
 NY points of the fit to the data follow
  -5.38939E+00 -5.25190E+00 -5.20473E+00 -5.12179E+00 -5.08994E+00 -5.03813E+00 -5.03181E+00 -5.03249E+00 -5.04778E+00 -5.02408E+00
  -4.99240E+00 -4.96851E+00 -4.83658E+00 -4.68727E+00 -4.35761E+00 -4.14046E+00 -3.77935E+00 -3.70488E+00 -3.59094E+00 -3.76557E+00
  -3.85372E+00 -4.08190E+00 -4.10601E+00 -4.16940E+00 -4.02945E+00 -4.00494E+00 -3.94536E+00 -3.90592E+00 -3.98091E+00 -3.92098E+00
  -4.04340E+00 -4.04415E+00 -4.14907E+00 -4.14777E+00 -4.15854E+00 -4.18250E+00 -4.11170E+00 -4.11942E+00 -3.93623E+00 -3.91855E+00
  -3.64910E+00 -3.68107E+00 -3.46528E+00 -3.59788E+00 -3.51669E+00 -3.78338E+00 -3.79911E+00 -4.03984E+00 -3.98502E+00 -4.09653E+00
  -3.90939E+00 -3.91683E+00 -3.74233E+00 -3.77102E+00 -3.71894E+00 -3.77597E+00 -3.79556E+00 -3.82352E+00 -3.82397E+00 -3.83344E+00
  -3.82761E+00 -3.83781E+00 -3.83836E+00 -3.83091E+00 -3.82673E+00 -3.79740E+00 -3.78245E+00 -3.74540E+00 -3.73710E+00 -3.69793E+00
  -3.69483E+00 -3.66368E+00 -3.69123E+00 -3.65441E+00 -3.66936E+00 -3.61481E+00 -3.60055E+00 -3.54521E+00 -3.52319E+00 -3.46867E+00
  -3.42756E+00 -3.38555E+00 -3.34172E+00 -3.32131E+00 -3.28500E+00 -3.28607E+00 -3.23297E+00 -3.24698E+00 -3.22355E+00 -3.36342E+00
  -3.35753E+00 -3.39379E+00 -3.34050E+00 -3.24319E+00 -3.17586E+00 -3.06613E+00 -3.01282E+00 -2.89726E+00 -2.85986E+00 -2.78327E+00
  -2.74492E+00 -2.63247E+00 -2.54242E+00 -2.33657E+00 -2.19896E+00 -1.99177E+00 -1.85319E+00 -1.66873E+00 -1.55807E+00 -1.48370E+00
  -1.44507E+00 -1.54625E+00 -1.63817E+00 -2.04239E+00 -2.16837E+00 -2.54806E+00 -2.60753E+00 -2.79427E+00 -2.78480E+00 -2.79903E+00
  -2.72146E+00 -2.56554E+00 -2.48592E+00 -2.36197E+00 -2.29162E+00 -2.13789E+00 -2.04192E+00 -1.79659E+00 -1.70123E+00 -1.44393E+00
  -1.37337E+00 -1.11607E+00 -1.11315E+00 -9.42972E-01 -1.03074E+00 -1.01402E+00 -1.18418E+00 -1.32944E+00 -1.53735E+00 -1.78223E+00
  -1.95174E+00 -2.17958E+00 -2.26225E+00 -2.37150E+00 -2.36170E+00 -2.32878E+00 -2.27973E+00 -2.22011E+00 -2.18215E+00 -2.13412E+00
  -2.12479E+00 -2.11173E+00 -2.08432E+00 -2.07597E+00 -2.03658E+00 -2.02715E+00 -1.98771E+00 -1.97730E+00 -1.95033E+00 -1.94181E+00
  -1.93413E+00 -1.92714E+00 -1.90048E+00 -1.91009E+00 -1.90860E+00 -1.92182E+00 -1.93388E+00 -1.91225E+00 -1.93216E+00 -1.90018E+00
  -1.94786E+00 -1.90431E+00 -1.94306E+00 -1.88549E+00 -1.96054E+00 -1.92894E+00 -2.00947E+00 -1.98952E+00 -2.02175E+00 -2.00247E+00
  -1.96492E+00 -1.94848E+00 -1.83168E+00 -1.82226E+00 -1.67339E+00 -1.68874E+00 -1.54160E+00 -1.60397E+00 -1.47331E+00 -1.53302E+00
  -1.39851E+00 -1.41891E+00 -1.23392E+00 -1.11735E+00 -9.14154E-01 -6.32174E-01 -3.89653E-01 -2.71874E-01 -2.22736E-01 -2.64061E-01
  -4.68036E-01 -5.82030E-01 -9.06041E-01 -6.95422E-01 -8.57531E-01 -3.46600E-01 -2.68254E-01  2.20481E-01  4.06698E-01  5.29473E-01
   3.81937E-01  7.84268E-02 -2.44132E-01 -6.59620E-01 -8.11545E-01 -1.06458E+00 -8.91385E-01 -9.59001E-01 -4.49731E-01 -4.84179E-01
   1.34666E-01 -1.25394E-01  4.10945E-01 -1.92925E-01  1.48084E-01 -6.75800E-01 -5.37569E-01 -1.16884E+00 -9.80870E-01 -1.00623E+00
  -7.45325E-01 -2.65676E-01  8.15802E-02  7.12211E-01  9.63089E-01  1.36042E+00  1.33564E+00  1.44425E+00  1.18771E+00  1.08376E+00
   7.00335E-01  6.02509E-01  2.88343E-01  3.86409E-01  1.72572E-01  1.39337E-01 -5.67676E-01 -3.64173E-01 -4.70053E-01 -1.29836E-02
   5.72866E-01  1.00701E+00  1.76479E+00  2.16583E+00  3.07324E+00  3.36797E+00  4.13877E+00  4.41601E+00  5.25525E+00  5.55400E+00
   6.63030E+00  6.63648E+00  7.58777E+00  7.24686E+00  8.01422E+00  7.16496E+00  7.42641E+00  6.11286E+00  5.71442E+00  4.20296E+00
   3.28901E+00  1.94336E+00  8.37849E-01 -1.13102E-02 -8.41445E-01 -1.11941E+00 -1.39993E+00 -1.19316E+00 -9.51088E-01 -7.36889E-01
  -5.77801E-01 -4.13413E-01 -3.02431E-01 -2.00077E-01 -1.26448E-01 -6.31865E-02 -2.09235E-02  1.84249E-02  4.91549E-02  8.65365E-02
   1.24916E-01  1.73723E-01  2.22195E-01  2.69934E-01  3.17112E-01  3.58721E-01  4.00948E-01  4.36599E-01  4.73556E-01  5.06441E-01
   5.43600E-01  5.75945E-01  6.12501E-01  6.44162E-01  6.79575E-01  7.10146E-01  7.43424E-01  7.72856E-01  8.02975E-01  8.28142E-01
   8.49766E-01  8.58964E-01  8.47369E-01  8.54229E-01  1.12822E+00  1.28028E+00  1.59008E+00  1.76226E+00  1.90827E+00  2.01157E+00
   2.01622E+00  1.83335E+00  1.62710E+00  1.51490E+00  1.38773E+00  1.52686E+00  1.47606E+00  1.69020E+00  1.51182E+00  1.71236E+00
   1.42597E+00  1.49920E+00  1.02015E+00  1.04514E+00  8.94675E-01  1.28921E+00  1.37222E+00  1.91367E+00  2.10835E+00  2.68478E+00
   3.01758E+00  3.24680E+00  3.65876E+00  3.79897E+00  4.31322E+00  4.51455E+00  4.82555E+00  4.90580E+00  4.93039E+00  4.93659E+00
   4.71970E+00  4.61617E+00  4.12638E+00  3.95798E+00  3.29293E+00  3.03782E+00  2.26868E+00  1.97909E+00  1.31638E+00  1.24035E+00
   8.27035E-01  9.93662E-01  7.72276E-01  1.02674E+00  8.20373E-01  9.29615E-01  5.77257E-01  4.06965E-01  1.22359E-01 -1.25312E-01
  -2.56730E-01 -3.94277E-01 -3.61048E-01 -2.88945E-01 -2.11339E-01 -1.35556E-01 -6.32951E-02  4.71688E-03  6.89569E-02  1.29496E-01
   1.87042E-01  2.41655E-01  2.93963E-01  3.43940E-01  3.92119E-01  4.38353E-01  4.83037E-01  5.25884E-01  5.67174E-01  6.06518E-01
   6.44093E-01  6.79385E-01  7.12450E-01  7.42679E-01  7.70066E-01  7.93968E-01  8.14362E-01  8.30606E-01  8.42717E-01  8.50151E-01
   8.53068E-01  8.51097E-01  8.44591E-01  8.33382E-01  8.18049E-01  7.98660E-01  7.76020E-01  7.50391E-01  7.22724E-01  6.93377E-01
   6.63365E-01  6.33065E-01  6.03451E-01  5.74802E-01  5.47945E-01  5.22987E-01  5.00572E-01  4.80615E-01  4.63563E-01  4.49128E-01
   4.37575E-01  4.28468E-01  4.21957E-01  4.17518E-01  4.15229E-01  4.14518E-01  4.15444E-01  4.17444E-01  4.20605E-01  4.24401E-01
   4.28950E-01  4.33761E-01  4.39004E-01  4.44236E-01  4.49679E-01  4.54925E-01  4.60225E-01  4.65196E-01  4.70121E-01  4.74646E-01
   4.79078E-01  4.83070E-01  4.86933E-01  4.90330E-01  4.93589E-01  4.96385E-01  4.99046E-01  5.01244E-01  5.03305E-01  5.04906E-01
   5.06382E-01  5.07414E-01  5.08331E-01  5.08810E-01  5.09178E-01  5.09118E-01  5.08962E-01  5.08395E-01  5.07740E-01  5.06676E-01
   5.05529E-01  5.03987E-01  5.02377E-01  5.00382E-01  4.98324E-01  4.95882E-01  4.93383E-01  4.90514E-01  4.87601E-01  4.84325E-01
   4.81005E-01  4.77323E-01  4.73608E-01  4.69543E-01  4.65457E-01  4.61020E-01  4.56562E-01  4.51758E-01  4.46944E-01  4.41797E-01
   4.36645E-01  4.31159E-01  4.25667E-01  4.19847E-01  4.14035E-01  4.07905E-01  4.01781E-01  3.95335E-01  3.88897E-01  3.82146E-01
   3.75413E-01  3.68369E-01  3.61333E-01  3.53974E-01  3.46620E-01  3.38941E-01  3.31254E-01  3.23210E-01
 NY background values follow
    -5.093E+00   -5.077E+00   -5.061E+00   -5.045E+00   -5.028E+00   -5.012E+00   -4.995E+00   -4.979E+00   -4.962E+00   -4.945E+00
    -4.929E+00   -4.912E+00   -4.895E+00   -4.878E+00   -4.861E+00   -4.844E+00   -4.826E+00   -4.809E+00   -4.792E+00   -4.774E+00
    -4.757E+00   -4.739E+00   -4.721E+00   -4.704E+00   -4.686E+00   -4.668E+00   -4.650E+00   -4.632E+00   -4.614E+00   -4.596E+00
    -4.578E+00   -4.560E+00   -4.541E+00   -4.523E+00   -4.505E+00   -4.486E+00   -4.468E+00   -4.449E+00   -4.430E+00   -4.412E+00
    -4.393E+00   -4.374E+00   -4.355E+00   -4.336E+00   -4.317E+00   -4.298E+00   -4.279E+00   -4.260E+00   -4.241E+00   -4.221E+00
    -4.202E+00   -4.183E+00   -4.163E+00   -4.144E+00   -4.124E+00   -4.105E+00   -4.085E+00   -4.066E+00   -4.046E+00   -4.026E+00
    -4.007E+00   -3.987E+00   -3.967E+00   -3.947E+00   -3.927E+00   -3.907E+00   -3.887E+00   -3.867E+00   -3.847E+00   -3.827E+00
    -3.806E+00   -3.786E+00   -3.766E+00   -3.746E+00   -3.725E+00   -3.705E+00   -3.685E+00   -3.664E+00   -3.644E+00   -3.623E+00
    -3.603E+00   -3.582E+00   -3.562E+00   -3.541E+00   -3.520E+00   -3.500E+00   -3.479E+00   -3.458E+00   -3.437E+00   -3.417E+00
    -3.396E+00   -3.375E+00   -3.354E+00   -3.333E+00   -3.312E+00   -3.291E+00   -3.271E+00   -3.250E+00   -3.229E+00   -3.208E+00
    -3.187E+00   -3.165E+00   -3.144E+00   -3.123E+00   -3.102E+00   -3.081E+00   -3.060E+00   -3.039E+00   -3.018E+00   -2.997E+00
    -2.975E+00   -2.954E+00   -2.933E+00   -2.912E+00   -2.891E+00   -2.869E+00   -2.848E+00   -2.827E+00   -2.806E+00   -2.784E+00
    -2.763E+00   -2.742E+00   -2.721E+00   -2.699E+00   -2.678E+00   -2.657E+00   -2.636E+00   -2.614E+00   -2.593E+00   -2.572E+00
    -2.550E+00   -2.529E+00   -2.508E+00   -2.487E+00   -2.465E+00   -2.444E+00   -2.423E+00   -2.401E+00   -2.380E+00   -2.359E+00
    -2.338E+00   -2.317E+00   -2.295E+00   -2.274E+00   -2.253E+00   -2.232E+00   -2.211E+00   -2.189E+00   -2.168E+00   -2.147E+00
    -2.126E+00   -2.105E+00   -2.084E+00   -2.063E+00   -2.042E+00   -2.020E+00   -1.999E+00   -1.978E+00   -1.957E+00   -1.936E+00
    -1.915E+00   -1.894E+00   -1.874E+00   -1.853E+00   -1.832E+00   -1.811E+00   -1.790E+00   -1.769E+00   -1.749E+00   -1.728E+00
    -1.707E+00   -1.686E+00   -1.666E+00   -1.645E+00   -1.624E+00   -1.604E+00   -1.583E+00   -1.563E+00   -1.542E+00   -1.522E+00
    -1.501E+00   -1.481E+00   -1.460E+00   -1.440E+00   -1.420E+00   -1.400E+00   -1.379E+00   -1.359E+00   -1.339E+00   -1.319E+00
    -1.299E+00   -1.279E+00   -1.259E+00   -1.239E+00   -1.219E+00   -1.199E+00   -1.179E+00   -1.159E+00   -1.140E+00   -1.120E+00
    -1.100E+00   -1.081E+00   -1.061E+00   -1.041E+00   -1.022E+00   -1.002E+00   -9.831E-01   -9.637E-01   -9.444E-01   -9.252E-01
    -9.060E-01   -8.869E-01   -8.678E-01   -8.487E-01   -8.297E-01   -8.108E-01   -7.919E-01   -7.731E-01   -7.543E-01   -7.356E-01
    -7.169E-01   -6.983E-01   -6.798E-01   -6.613E-01   -6.429E-01   -6.245E-01   -6.062E-01   -5.879E-01   -5.697E-01   -5.516E-01
    -5.335E-01   -5.155E-01   -4.975E-01   -4.797E-01   -4.618E-01   -4.441E-01   -4.264E-01   -4.088E-01   -3.912E-01   -3.737E-01
    -3.563E-01   -3.389E-01   -3.216E-01   -3.044E-01   -2.872E-01   -2.702E-01   -2.531E-01   -2.362E-01   -2.193E-01   -2.025E-01
    -1.858E-01   -1.691E-01   -1.526E-01   -1.360E-01   -1.196E-01   -1.032E-01   -8.696E-02   -7.076E-02   -5.462E-02   -3.857E-02
    -2.259E-02   -6.690E-03    9.132E-03    2.487E-02    4.054E-02    5.612E-02    7.162E-02    8.704E-02    1.024E-01    1.176E-01
     1.328E-01    1.479E-01    1.629E-01    1.778E-01    1.927E-01    2.074E-01    2.221E-01    2.367E-01    2.512E-01    2.656E-01
     2.799E-01    2.942E-01    3.083E-01    3.224E-01    3.363E-01    3.502E-01    3.640E-01    3.777E-01    3.913E-01    4.048E-01
     4.183E-01    4.316E-01    4.448E-01    4.580E-01    4.710E-01    4.840E-01    4.968E-01    5.096E-01    5.223E-01    5.349E-01
     5.473E-01    5.597E-01    5.720E-01    5.842E-01    5.963E-01    6.083E-01    6.202E-01    6.320E-01    6.436E-01    6.552E-01
     6.667E-01    6.781E-01    6.894E-01    7.006E-01    7.117E-01    7.227E-01    7.335E-01    7.443E-01    7.550E-01    7.655E-01
     7.760E-01    7.864E-01    7.966E-01    8.068E-01    8.168E-01    8.267E-01    8.365E-01    8.463E-01    8.559E-01    8.654E-01
     8.748E-01    8.840E-01    8.932E-01    9.023E-01    9.112E-01    9.201E-01    9.288E-01    9.374E-01    9.459E-01    9.543E-01
     9.626E-01    9.708E-01    9.788E-01    9.868E-01    9.946E-01    1.002E+00    1.010E+00    1.017E+00    1.025E+00    1.032E+00
     1.039E+00    1.046E+00    1.053E+00    1.060E+00    1.067E+00    1.073E+00    1.080E+00    1.086E+00    1.092E+00    1.098E+00
     1.104E+00    1.110E+00    1.116E+00    1.121E+00    1.127E+00    1.132E+00    1.137E+00    1.143E+00    1.148E+00    1.153E+00
     1.157E+00    1.162E+00    1.166E+00    1.171E+00    1.175E+00    1.179E+00    1.183E+00    1.187E+00    1.191E+00    1.195E+00
     1.198E+00    1.202E+00    1.205E+00    1.208E+00    1.211E+00    1.214E+00    1.217E+00    1.219E+00    1.222E+00    1.224E+00
     1.227E+00    1.229E+00    1.231E+00    1.233E+00    1.234E+00    1.236E+00    1.238E+00    1.239E+00    1.240E+00    1.241E+00
     1.242E+00    1.243E+00    1.244E+00    1.244E+00    1.245E+00    1.245E+00    1.245E+00    1.246E+00    1.246E+00    1.245E+00
     1.245E+00    1.245E+00    1.244E+00    1.243E+00    1.242E+00    1.241E+00    1.240E+00    1.239E+00    1.238E+00    1.236E+00
     1.235E+00    1.233E+00    1.231E+00    1.229E+00    1.227E+00    1.225E+00    1.222E+00    1.220E+00    1.217E+00    1.214E+00
     1.211E+00    1.208E+00    1.205E+00    1.201E+00    1.198E+00    1.194E+00    1.190E+00    1.187E+00    1.183E+00    1.178E+00
     1.174E+00    1.170E+00    1.165E+00    1.160E+00    1.155E+00    1.150E+00    1.145E+00    1.140E+00    1.135E+00    1.129E+00
     1.124E+00    1.118E+00    1.112E+00    1.106E+00    1.099E+00    1.093E+00    1.087E+00    1.080E+00    1.073E+00    1.066E+00
     1.059E+00    1.052E+00    1.045E+00    1.037E+00    1.030E+00    1.022E+00    1.014E+00    1.006E+00    9.982E-01    9.900E-01
     9.816E-01    9.731E-01    9.644E-01    9.556E-01    9.467E-01    9.376E-01    9.284E-01    9.190E-01    9.095E-01    8.999E-01
     8.901E-01    8.802E-01    8.702E-01    8.600E-01    8.497E-01    8.393E-01    8.287E-01    8.180E-01    8.071E-01    7.962E-01
     7.850E-01    7.738E-01    7.624E-01    7.508E-01    7.392E-01    7.274E-01    7.154E-01    7.033E-01
 Ala      Conc. = 1.88E+02
