 LCModel (Version 6.3-1L) Copyright: S.W. Provencher.          Ref.: Magn. Reson. Med. 30:672-679 (1993).                
 Slice#3 Row#8 Col#10  PD_05_press_2_raw_act
 36 lines in following concentration table = NCONC+1
    Conc.  %SD /Cr+PCr  Metabolite                                         
  127.675 171% 4.4E-02 Ala                                                 
    0.000 999%   0.000 Asp                                                 
    0.000 999%   0.000 Cr                                                  
 2.88E+03   4%   1.000 PCr                                                 
    0.000 999%   0.000 GABA                                                
    0.000 999%   0.000 Glc                                                 
 1.54E+03  30%   0.535 Gln                                                 
 3.21E+03  16%   1.112 Glu                                                 
  861.929   5%   0.299 GPC                                                 
    0.000 999%   0.000 PCh                                                 
  630.934  23%   0.219 GSH                                                 
 1.17E+03  43%   0.405 Ins                                                 
    0.000 999%   0.000 Lac                                                 
 4.60E+03   6%   1.595 NAA                                                 
   98.852 282% 3.4E-02 NAAG                                                
  189.208  28% 6.6E-02 Scyllo                                              
    0.000 999%   0.000 Tau                                                 
 1.86E+03  11%   0.644 -CrCH2                                              
  861.929   5%   0.299 GPC+PCh                                             
 4.70E+03   4%   1.630 NAA+NAAG                                            
 2.88E+03   4%   1.000 Cr+PCr                                              
 4.75E+03  16%   1.646 Glu+Gln                                             
 2.12E+03  34%   0.734 Lip13a                                              
    0.000 999%   0.000 Lip13b                                              
    0.000 999%   0.000 Lip09                                               
 2.61E+03  16%   0.904 MM09                                                
  477.029  62%   0.165 Lip20                                               
 6.59E+03  11%   2.287 MM20                                                
  766.561  33%   0.266 MM12                                                
 2.48E+03  26%   0.862 MM14                                                
 1.65E+03  27%   0.574 MM17                                                
 2.12E+03  34%   0.734 Lip13a+Lip13b                                       
 5.37E+03  15%   1.861 MM14+Lip13a+Lip13b+MM12                             
 2.61E+03  16%   0.904 MM09+Lip09                                          
 7.07E+03  11%   2.453 MM20+Lip20                                          
   6 lines in following misc. output table
  FWHM = 0.054 ppm    S/N =  13                                            
  Data shift = 0.023 ppm                                                   
  Ph: -22 deg      -8.5 deg/ppm                                            
  alphaB,S = 4.7E-01,   1.1E+02                                            
   14 spline knots.   Ns = 7(1)                                            
  (12) 3 infls.   (11) 1 extrs.                                            
  498 points on ppm-axis = NY
      4.000000     3.992357     3.984714     3.977070     3.969427     3.961784     3.954141     3.946497     3.938854     3.931211
      3.923568     3.915925     3.908281     3.900638     3.892995     3.885352     3.877708     3.870065     3.862422     3.854779
      3.847136     3.839492     3.831849     3.824206     3.816563     3.808919     3.801276     3.793633     3.785990     3.778347
      3.770703     3.763060     3.755417     3.747774     3.740130     3.732487     3.724844     3.717201     3.709558     3.701914
      3.694271     3.686628     3.678985     3.671341     3.663698     3.656055     3.648412     3.640769     3.633125     3.625482
      3.617839     3.610196     3.602552     3.594909     3.587266     3.579623     3.571980     3.564336     3.556693     3.549050
      3.541407     3.533763     3.526120     3.518477     3.510834     3.503191     3.495547     3.487904     3.480261     3.472618
      3.464974     3.457331     3.449688     3.442045     3.434402     3.426758     3.419115     3.411472     3.403829     3.396185
      3.388542     3.380899     3.373256     3.365613     3.357969     3.350326     3.342683     3.335040     3.327396     3.319753
      3.312110     3.304467     3.296824     3.289180     3.281537     3.273894     3.266251     3.258607     3.250964     3.243321
      3.235678     3.228034     3.220391     3.212748     3.205105     3.197462     3.189818     3.182175     3.174532     3.166889
      3.159245     3.151602     3.143959     3.136316     3.128673     3.121029     3.113386     3.105743     3.098100     3.090456
      3.082813     3.075170     3.067527     3.059884     3.052240     3.044597     3.036954     3.029311     3.021667     3.014024
      3.006381     2.998738     2.991095     2.983451     2.975808     2.968165     2.960522     2.952878     2.945235     2.937592
      2.929949     2.922306     2.914662     2.907019     2.899376     2.891733     2.884089     2.876446     2.868803     2.861160
      2.853517     2.845873     2.838230     2.830587     2.822944     2.815300     2.807657     2.800014     2.792371     2.784728
      2.777084     2.769441     2.761798     2.754155     2.746511     2.738868     2.731225     2.723582     2.715939     2.708295
      2.700652     2.693009     2.685366     2.677722     2.670079     2.662436     2.654793     2.647150     2.639506     2.631863
      2.624220     2.616577     2.608933     2.601290     2.593647     2.586004     2.578361     2.570717     2.563074     2.555431
      2.547788     2.540144     2.532501     2.524858     2.517215     2.509572     2.501928     2.494285     2.486642     2.478999
      2.471355     2.463712     2.456069     2.448426     2.440783     2.433139     2.425496     2.417853     2.410210     2.402566
      2.394923     2.387280     2.379637     2.371994     2.364350     2.356707     2.349064     2.341421     2.333777     2.326134
      2.318491     2.310848     2.303205     2.295561     2.287918     2.280275     2.272632     2.264988     2.257345     2.249702
      2.242059     2.234416     2.226772     2.219129     2.211486     2.203843     2.196199     2.188556     2.180913     2.173270
      2.165627     2.157983     2.150340     2.142697     2.135054     2.127410     2.119767     2.112124     2.104481     2.096838
      2.089194     2.081551     2.073908     2.066265     2.058621     2.050978     2.043335     2.035692     2.028049     2.020405
      2.012762     2.005119     1.997476     1.989833     1.982190     1.974546     1.966903     1.959260     1.951617     1.943974
      1.936331     1.928688     1.921045     1.913402     1.905759     1.898115     1.890472     1.882829     1.875186     1.867543
      1.859900     1.852257     1.844614     1.836971     1.829327     1.821684     1.814041     1.806398     1.798755     1.791112
      1.783469     1.775826     1.768183     1.760540     1.752896     1.745253     1.737610     1.729967     1.722324     1.714681
      1.707038     1.699395     1.691752     1.684108     1.676465     1.668822     1.661179     1.653536     1.645893     1.638250
      1.630607     1.622964     1.615321     1.607677     1.600034     1.592391     1.584748     1.577105     1.569462     1.561819
      1.554176     1.546533     1.538890     1.531246     1.523603     1.515960     1.508317     1.500674     1.493031     1.485388
      1.477745     1.470102     1.462458     1.454815     1.447172     1.439529     1.431886     1.424243     1.416600     1.408957
      1.401314     1.393671     1.386027     1.378384     1.370741     1.363098     1.355455     1.347812     1.340169     1.332526
      1.324883     1.317240     1.309596     1.301953     1.294310     1.286667     1.279024     1.271381     1.263738     1.256095
      1.248452     1.240808     1.233165     1.225522     1.217879     1.210236     1.202593     1.194950     1.187307     1.179664
      1.172021     1.164377     1.156734     1.149091     1.141448     1.133805     1.126162     1.118519     1.110876     1.103233
      1.095590     1.087946     1.080303     1.072660     1.065017     1.057374     1.049731     1.042088     1.034445     1.026802
      1.019158     1.011515     1.003872     0.996229     0.988586     0.980943     0.973300     0.965657     0.958014     0.950371
      0.942727     0.935084     0.927441     0.919798     0.912155     0.904512     0.896869     0.889226     0.881583     0.873940
      0.866296     0.858653     0.851010     0.843367     0.835724     0.828081     0.820438     0.812795     0.805152     0.797508
      0.789865     0.782222     0.774579     0.766936     0.759293     0.751650     0.744007     0.736364     0.728721     0.721077
      0.713434     0.705791     0.698148     0.690505     0.682862     0.675219     0.667576     0.659933     0.652290     0.644646
      0.637003     0.629360     0.621717     0.614074     0.606431     0.598788     0.591145     0.583502     0.575858     0.568215
      0.560572     0.552929     0.545286     0.537643     0.530000     0.522357     0.514714     0.507071     0.499427     0.491784
      0.484141     0.476498     0.468855     0.461212     0.453569     0.445925     0.438282     0.430639     0.422996     0.415353
      0.407710     0.400067     0.392424     0.384780     0.377137     0.369494     0.361851     0.354208     0.346565     0.338922
      0.331278     0.323635     0.315992     0.308349     0.300706     0.293063     0.285420     0.277777     0.270133     0.262490
      0.254847     0.247204     0.239561     0.231918     0.224275     0.216631     0.208988     0.201345
 NY phased data points follow
   3.46022E+01  3.82275E+01  3.36732E+01  4.54318E+01  4.19956E+01  4.21236E+01  4.38978E+01  5.10862E+01  5.27236E+01  5.72809E+01
   5.92102E+01  5.37345E+01  4.83831E+01  4.61300E+01  3.82923E+01  3.90335E+01  3.52313E+01  3.90037E+01  3.22836E+01  3.38152E+01
   3.47767E+01  4.07694E+01  2.98691E+01  3.61144E+01  3.66562E+01  4.13993E+01  3.91780E+01  3.95277E+01  4.01130E+01  3.96042E+01
   3.77508E+01  3.89702E+01  4.21720E+01  4.04456E+01  3.52909E+01  3.75761E+01  3.45916E+01  3.26417E+01  3.45252E+01  3.61181E+01
   3.58723E+01  3.28232E+01  3.19051E+01  3.06791E+01  3.97007E+01  3.97679E+01  4.22799E+01  4.92650E+01  3.66691E+01  4.34402E+01
   3.94196E+01  3.90978E+01  3.37165E+01  3.67811E+01  3.67143E+01  4.39795E+01  3.76707E+01  2.81822E+01  2.54615E+01  2.68426E+01
   2.46622E+01  2.45035E+01  1.28699E+01  1.23949E+01  1.12912E+01  1.30806E+01  1.46255E+01  1.28891E+01  1.18083E+01  2.22318E+01
   1.22274E+01  1.89838E+01  2.13030E+01  1.81728E+01  1.63719E+01  1.29611E+01  1.80875E+01  2.08837E+01  1.74321E+01  2.15973E+01
   1.94128E+01  1.34066E+01  1.71823E+01  1.93405E+01  2.34021E+01  2.58060E+01  2.46607E+01  2.69703E+01  2.68824E+01  2.35907E+01
   1.99136E+01  2.49910E+01  2.11146E+01  2.81865E+01  3.34314E+01  3.97278E+01  2.95437E+01  3.99429E+01  3.85365E+01  4.70988E+01
   6.98184E+01  8.04134E+01  9.23909E+01  9.17694E+01  7.61958E+01  6.89347E+01  6.10560E+01  5.26383E+01  4.02059E+01  3.17770E+01
   3.44775E+01  2.42235E+01  3.18247E+01  2.02180E+01  2.27201E+01  2.18275E+01  1.88922E+01  1.92307E+01  2.81945E+01  3.21198E+01
   2.61215E+01  3.64801E+01  4.34757E+01  5.01214E+01  6.63021E+01  8.75063E+01  1.03612E+02  1.10430E+02  1.06326E+02  8.45171E+01
   7.88895E+01  5.08178E+01  5.15063E+01  3.56624E+01  2.83053E+01  2.61712E+01  2.03550E+01  1.96625E+01  2.20676E+01  1.77734E+01
   2.15853E+01  1.36376E+01  1.38689E+01  1.52406E+01  1.00483E+01  1.34025E+01  1.33866E+01  8.72980E+00  1.78152E+01  9.75211E+00
   9.42460E+00  1.32315E+01  9.94086E+00  1.45297E+01  6.29365E+00  1.06163E+01  6.13835E+00  1.07304E+01  3.09924E+00 -7.24504E-01
   1.29387E+01  5.63866E+00  7.66045E+00  4.88496E+00  2.27496E+00 -7.46153E-01  7.28002E+00 -3.46591E+00 -6.19237E+00 -7.93667E+00
  -1.40418E+01 -1.93210E+01 -1.69145E+01 -1.94640E+01 -2.03936E+01 -2.56969E+01 -1.82294E+01 -2.53097E+01 -2.27673E+01 -1.81252E+01
  -1.88805E+01 -1.47371E+01 -3.71903E+00 -4.01712E+00 -9.39811E+00 -8.58831E+00 -1.91965E+01 -1.18463E+01 -1.30127E+01 -4.29636E+00
   2.82185E+00 -3.38172E+00  3.57858E+00  2.65699E+00  2.93226E+00 -2.41494E+00 -3.11063E+00 -2.50881E+00 -6.27212E+00 -2.99262E+00
  -1.83229E+00 -1.52393E+00  2.63490E+00  5.85091E+00  1.44042E+01  1.11185E+01  1.07921E+01  9.00392E-01  7.27606E+00  4.49912E+00
   1.97408E+00  1.10521E+01  1.24268E+01  2.22841E+01  2.90703E+01  3.27883E+01  3.21880E+01  2.75019E+01  2.69555E+01  1.86240E+01
   1.17794E+01  2.42677E+00  1.48055E+00  2.89113E+00  9.68328E+00  1.93456E+01  1.27059E+01  2.20998E+01  1.92894E+01  2.06101E+01
   2.73671E+01  1.96313E+01  2.57322E+01  1.56759E+01  2.36039E+01  1.82825E+01  2.01352E+01  2.06348E+01  2.68534E+01  1.95713E+01
   1.61745E+01  1.07905E+01  1.33804E+01  1.34373E+01  1.62393E+01  2.83910E+01  3.07304E+01  2.63972E+01  3.45223E+01  3.28372E+01
   3.80013E+01  3.78764E+01  3.92296E+01  4.74134E+01  6.53287E+01  7.82307E+01  9.02053E+01  9.87655E+01  1.28489E+02  1.63425E+02
   1.82882E+02  1.76012E+02  1.43839E+02  1.18639E+02  9.68104E+01  7.13083E+01  4.84805E+01  3.91903E+01  3.34033E+01  2.16069E+01
   2.77813E+01  2.49971E+01  2.40397E+01  1.17616E+01  1.59381E+01  1.32277E+01  2.24596E+01  1.46597E+01  1.06675E+01  1.40267E+01
   1.31480E+01  1.81680E+01  7.99950E+00  7.11387E+00  8.27394E+00 -4.12824E+00  1.28832E+01  1.20592E+01  4.12642E+00  9.66451E+00
   8.98269E+00  1.88352E+01  7.28098E+00  1.09187E+01  1.09616E+01  9.79134E+00  1.11155E+01  7.34547E+00  1.34234E+01  1.27418E+01
   1.42964E+01  1.32808E+01  1.13859E+01  9.17659E+00  1.16818E+01  8.81449E+00  6.21468E+00  1.77857E+01  2.12967E+01  8.07012E+00
   1.37374E+01  1.51791E+01  2.30325E+01  1.53291E+01  1.73808E+01  1.27705E+01  1.46627E+01  7.59808E+00  1.41416E+01  1.67683E+01
   5.21707E+00  9.65042E+00  1.79413E+01  9.95046E+00  6.92838E+00  1.17034E+01  1.08720E+01  6.81034E+00  2.18314E+00  1.15465E+01
   1.83376E+01  1.03399E+01  1.37991E+01  1.63496E+01  1.80515E+01  1.62695E+01  1.25755E+01  1.71507E+01  2.22942E+01  1.51101E+01
   1.96286E+01  2.00692E+01  1.73497E+01  1.72544E+01  2.48308E+01  2.96096E+01  2.71584E+01  2.72129E+01  2.55499E+01  2.71028E+01
   2.31892E+01  2.07212E+01  1.80243E+01  2.51131E+01  2.27574E+01  1.50506E+01  1.21484E+01  7.52780E+00  2.03093E+01  1.97783E+01
   1.41368E+01  1.51115E+01  9.44404E+00  1.97207E+01  1.09730E+01  4.97887E+00  6.49878E+00  1.68860E+01  1.91782E+01  9.97911E+00
   1.36436E+01  1.57879E+01  1.50907E+01  7.06755E+00  7.43064E+00  5.36003E+00  1.07818E+01  1.60472E+01  6.78988E+00  6.85938E+00
   5.44049E+00  1.15689E+00  3.75927E+00  1.72925E+00  1.55921E+01  4.36051E+00  1.23449E+01  9.21045E+00  6.93946E+00  7.63728E+00
   1.11300E+01  1.02211E+01  8.31685E+00  1.23930E+01  1.26761E+01  1.46940E+01  1.54013E+01  9.20121E+00  1.42259E+01  1.67395E+01
   9.58267E+00  1.30071E+01  1.45662E+01  1.22928E+01  1.13406E+01  1.67734E+01  1.32464E+01  1.86257E+01  1.22098E+01  7.56052E+00
   1.85900E+01  1.11721E+01  1.78325E+01  1.45471E+01  1.11311E+01  9.35946E+00  1.17920E+01  9.88413E+00  7.92961E+00  2.83185E+00
   7.74081E+00  2.71114E+00  8.32363E+00  5.95364E-01  4.95126E+00  5.94878E+00  3.91868E+00  4.15006E+00 -6.79646E-01  1.12726E+01
   3.59989E+00 -1.61066E+00  9.56895E+00 -1.52858E+00  3.83017E+00  3.27692E+00  7.55433E+00  4.54523E+00  2.06157E+00  6.75801E-01
   2.08831E+00 -3.94320E+00  3.25092E+00  1.88453E+00  8.32330E+00 -3.14661E+00  5.03124E+00  3.38899E+00  1.26225E+00  1.03969E+00
   4.51964E+00  3.74033E+00  5.01869E+00  4.74827E+00 -4.31753E+00  2.18313E+00  5.36940E+00  9.70380E+00  1.82277E+00  3.32243E-01
   4.37460E-01  1.63443E+00  1.49799E+00  2.14909E+00  5.10755E+00  4.95692E+00  4.10194E+00  3.51227E+00  4.50650E-01  3.68746E+00
   5.14369E+00 -3.33696E-01 -1.19084E+00  8.83996E+00  1.45825E+00  4.34231E+00  8.23883E+00  3.03327E+00  5.23948E+00 -4.19765E-01
   3.58240E-01 -9.47720E+00  2.20534E+00  1.93002E+00  2.09456E+00  5.48730E+00 -2.33544E+00 -3.81047E+00  8.84034E+00  4.52319E+00
   5.24448E+00  4.46129E+00  2.94734E+00  3.52300E+00  2.50471E+00 -2.20154E+00  1.30640E+00 -5.17116E-01
 NY points of the fit to the data follow
   3.42631E+01  3.45490E+01  3.61799E+01  3.84183E+01  4.06071E+01  4.33429E+01  4.72252E+01  5.17934E+01  5.56086E+01  5.71708E+01
   5.60556E+01  5.31090E+01  4.96253E+01  4.64328E+01  4.38093E+01  4.17278E+01  3.97991E+01  3.79781E+01  3.67965E+01  3.60722E+01
   3.55488E+01  3.48567E+01  3.42619E+01  3.43064E+01  3.44606E+01  3.45275E+01  3.50018E+01  3.65875E+01  3.94849E+01  4.27935E+01
   4.55051E+01  4.69885E+01  4.70095E+01  4.55268E+01  4.27403E+01  3.91633E+01  3.57451E+01  3.27027E+01  3.05229E+01  2.99491E+01
   3.06157E+01  3.18953E+01  3.31376E+01  3.41988E+01  3.53655E+01  3.66467E+01  3.77742E+01  3.82642E+01  3.77055E+01  3.61145E+01
   3.39121E+01  3.16064E+01  2.97168E+01  2.83000E+01  2.72208E+01  2.64221E+01  2.58998E+01  2.57144E+01  2.58107E+01  2.59570E+01
   2.58820E+01  2.54268E+01  2.46226E+01  2.36368E+01  2.27278E+01  2.21295E+01  2.18388E+01  2.17063E+01  2.16881E+01  2.17787E+01
   2.19294E+01  2.20469E+01  2.20056E+01  2.17568E+01  2.13639E+01  2.09100E+01  2.04763E+01  2.00973E+01  1.98297E+01  1.98857E+01
   2.05163E+01  2.11638E+01  2.16389E+01  2.24044E+01  2.38159E+01  2.55013E+01  2.65676E+01  2.63254E+01  2.48604E+01  2.29335E+01
   2.12231E+01  1.99205E+01  1.90545E+01  1.86269E+01  1.88866E+01  2.19032E+01  2.89117E+01  3.59024E+01  4.24485E+01  5.17987E+01
   6.57967E+01  8.13563E+01  9.20541E+01  9.30681E+01  8.48590E+01  7.20856E+01  5.90689E+01  4.76755E+01  3.84175E+01  3.08660E+01
   2.40497E+01  1.88533E+01  1.68294E+01  1.61244E+01  1.57978E+01  1.56689E+01  1.56892E+01  1.58970E+01  1.65620E+01  1.92533E+01
   2.69216E+01  3.60195E+01  4.40237E+01  5.37654E+01  6.86497E+01  8.72239E+01  1.02849E+02  1.08456E+02  1.02123E+02  8.83162E+01
   7.29726E+01  5.91136E+01  4.74980E+01  3.76991E+01  2.85643E+01  2.02214E+01  1.57371E+01  1.41470E+01  1.37583E+01  1.39996E+01
   1.43892E+01  1.45557E+01  1.44359E+01  1.40649E+01  1.34776E+01  1.27948E+01  1.20930E+01  1.13566E+01  1.06340E+01  9.93971E+00
   9.32936E+00  8.81888E+00  8.38259E+00  7.96775E+00  7.39417E+00  6.79745E+00  6.35366E+00  5.97768E+00  5.51685E+00  4.65177E+00
   3.55063E+00  2.85554E+00  2.94459E+00  3.49451E+00  3.81629E+00  3.47155E+00  2.49272E+00  1.23375E+00  4.29335E-02 -1.05080E+00
  -2.12002E+00 -2.92217E+00 -3.65445E+00 -4.61391E+00 -5.70596E+00 -6.46453E+00 -6.41743E+00 -5.73770E+00 -5.13824E+00 -5.11383E+00
  -5.58560E+00 -5.84717E+00 -5.46358E+00 -4.74418E+00 -4.07031E+00 -3.47507E+00 -2.58860E+00 -8.82927E-01  1.54897E+00  4.04170E+00
   5.81590E+00  6.41521E+00  6.13339E+00  5.45679E+00  4.84191E+00  4.44982E+00  4.25419E+00  4.71579E+00  5.99150E+00  7.83009E+00
   9.89358E+00  1.17687E+01  1.30041E+01  1.31152E+01  1.21970E+01  9.94326E+00  6.17341E+00  1.69353E+00 -1.96379E+00 -3.35072E+00
  -2.34758E+00 -6.25891E-02  3.26576E+00  8.01210E+00  1.35433E+01  1.78042E+01  1.89278E+01  1.69517E+01  1.30375E+01  7.75951E+00
   2.16146E+00 -2.38691E+00 -4.53407E+00 -3.45467E+00  1.66938E-01  5.10658E+00  1.02162E+01  1.43102E+01  1.68387E+01  1.79994E+01
   1.86748E+01  1.91113E+01  1.91202E+01  1.91046E+01  1.96542E+01  2.06999E+01  2.19532E+01  2.31430E+01  2.39327E+01  2.40087E+01
   2.31158E+01  2.16763E+01  2.07480E+01  2.10614E+01  2.23910E+01  2.41736E+01  2.62399E+01  2.83056E+01  3.00797E+01  3.16117E+01
   3.30948E+01  3.47671E+01  3.79486E+01  4.79160E+01  6.38157E+01  7.73847E+01  8.98013E+01  1.08072E+02  1.34553E+02  1.61384E+02
   1.75933E+02  1.70814E+02  1.49719E+02  1.22621E+02  9.67886E+01  7.48678E+01  5.73994E+01  4.29520E+01  2.95394E+01  2.02870E+01
   1.69331E+01  1.53666E+01  1.44174E+01  1.38726E+01  1.35226E+01  1.30953E+01  1.25900E+01  1.20258E+01  1.14130E+01  1.07837E+01
   1.01986E+01  9.67777E+00  9.24059E+00  8.91224E+00  8.68817E+00  8.53999E+00  8.45145E+00  8.41808E+00  8.44965E+00  8.54842E+00
   8.70159E+00  8.91000E+00  9.17592E+00  9.49232E+00  9.85046E+00  1.02380E+01  1.06474E+01  1.10679E+01  1.14892E+01  1.18996E+01
   1.22898E+01  1.26471E+01  1.29620E+01  1.32223E+01  1.34199E+01  1.35464E+01  1.36008E+01  1.35831E+01  1.34987E+01  1.33538E+01
   1.31596E+01  1.29249E+01  1.26638E+01  1.23899E+01  1.21198E+01  1.18677E+01  1.16499E+01  1.14806E+01  1.13791E+01  1.13721E+01
   1.14919E+01  1.16485E+01  1.17947E+01  1.20064E+01  1.23164E+01  1.26289E+01  1.27912E+01  1.27326E+01  1.26202E+01  1.26668E+01
   1.28988E+01  1.32945E+01  1.38978E+01  1.47639E+01  1.58408E+01  1.69672E+01  1.79959E+01  1.87934E+01  1.93484E+01  1.97439E+01
   2.00415E+01  2.02775E+01  2.04592E+01  2.05563E+01  2.06094E+01  2.06707E+01  2.07162E+01  2.07289E+01  2.07042E+01  2.06372E+01
   2.05264E+01  2.03684E+01  2.01628E+01  1.99074E+01  1.96032E+01  1.92487E+01  1.88459E+01  1.83949E+01  1.78999E+01  1.73638E+01
   1.67925E+01  1.61903E+01  1.55646E+01  1.49208E+01  1.42680E+01  1.36124E+01  1.29629E+01  1.23250E+01  1.17070E+01  1.11139E+01
   1.05531E+01  1.00289E+01  9.54695E+00  9.10975E+00  8.72198E+00  8.38543E+00  8.10406E+00  7.87865E+00  7.71202E+00  7.60411E+00
   7.55747E+00  7.57193E+00  7.64968E+00  7.78972E+00  7.99320E+00  8.25830E+00  8.58541E+00  8.97165E+00  9.41562E+00  9.91201E+00
   1.04568E+01  1.10420E+01  1.16612E+01  1.23033E+01  1.29585E+01  1.36128E+01  1.42536E+01  1.48651E+01  1.54339E+01  1.59440E+01
   1.63825E+01  1.67351E+01  1.69919E+01  1.71429E+01  1.71837E+01  1.71098E+01  1.69225E+01  1.66237E+01  1.62210E+01  1.57222E+01
   1.51399E+01  1.44859E+01  1.37754E+01  1.30218E+01  1.22413E+01  1.14470E+01  1.06535E+01  9.87116E+00  9.11140E+00  8.38146E+00
   7.68938E+00  7.03888E+00  6.43434E+00  5.87604E+00  5.36550E+00  4.90087E+00  4.48194E+00  4.10532E+00  3.76945E+00  3.47004E+00
   3.20524E+00  2.97089E+00  2.76535E+00  2.58452E+00  2.42680E+00  2.28841E+00  2.16840E+00  2.06370E+00  1.97376E+00  1.89571E+00
   1.82918E+00  1.77170E+00  1.72348E+00  1.68249E+00  1.64908E+00  1.62118E+00  1.59920E+00  1.58141E+00  1.56864E+00  1.55934E+00
   1.55422E+00  1.55160E+00  1.55231E+00  1.55498E+00  1.56068E+00  1.56807E+00  1.57800E+00  1.58903E+00  1.60218E+00  1.61628E+00
   1.63248E+00  1.64945E+00  1.66813E+00  1.68721E+00  1.70783E+00  1.72890E+00  1.75155E+00  1.77445E+00  1.79858E+00  1.82275E+00
   1.84817E+00  1.87376E+00  1.90061E+00  1.92742E+00  1.95521E+00  1.98288E+00  2.01167E+00  2.04047E+00  2.07031E+00  2.09991E+00
   2.13038E+00  2.16067E+00  2.19202E+00  2.22327E+00  2.25544E+00  2.28730E+00  2.32002E+00  2.35259E+00  2.38622E+00  2.41972E+00
   2.45410E+00  2.48820E+00  2.52327E+00  2.55831E+00  2.59450E+00  2.63062E+00  2.66774E+00  2.70482E+00
 NY background values follow
     3.093E+01    3.076E+01    3.059E+01    3.042E+01    3.025E+01    3.008E+01    2.991E+01    2.974E+01    2.957E+01    2.940E+01
     2.923E+01    2.906E+01    2.889E+01    2.872E+01    2.855E+01    2.838E+01    2.821E+01    2.804E+01    2.787E+01    2.770E+01
     2.753E+01    2.736E+01    2.719E+01    2.702E+01    2.685E+01    2.668E+01    2.651E+01    2.634E+01    2.617E+01    2.600E+01
     2.582E+01    2.565E+01    2.548E+01    2.531E+01    2.514E+01    2.497E+01    2.480E+01    2.463E+01    2.446E+01    2.429E+01
     2.412E+01    2.395E+01    2.378E+01    2.361E+01    2.344E+01    2.327E+01    2.309E+01    2.292E+01    2.275E+01    2.258E+01
     2.241E+01    2.224E+01    2.207E+01    2.190E+01    2.172E+01    2.155E+01    2.138E+01    2.121E+01    2.104E+01    2.087E+01
     2.069E+01    2.052E+01    2.035E+01    2.018E+01    2.001E+01    1.983E+01    1.966E+01    1.949E+01    1.932E+01    1.914E+01
     1.897E+01    1.880E+01    1.862E+01    1.845E+01    1.828E+01    1.811E+01    1.793E+01    1.776E+01    1.758E+01    1.741E+01
     1.724E+01    1.706E+01    1.689E+01    1.671E+01    1.654E+01    1.636E+01    1.619E+01    1.601E+01    1.584E+01    1.566E+01
     1.549E+01    1.531E+01    1.514E+01    1.496E+01    1.479E+01    1.461E+01    1.443E+01    1.426E+01    1.408E+01    1.390E+01
     1.373E+01    1.355E+01    1.337E+01    1.320E+01    1.302E+01    1.284E+01    1.267E+01    1.249E+01    1.232E+01    1.214E+01
     1.196E+01    1.179E+01    1.161E+01    1.144E+01    1.126E+01    1.109E+01    1.091E+01    1.074E+01    1.056E+01    1.039E+01
     1.021E+01    1.004E+01    9.866E+00    9.693E+00    9.520E+00    9.347E+00    9.175E+00    9.003E+00    8.832E+00    8.660E+00
     8.490E+00    8.319E+00    8.150E+00    7.980E+00    7.811E+00    7.643E+00    7.475E+00    7.307E+00    7.141E+00    6.974E+00
     6.809E+00    6.644E+00    6.481E+00    6.318E+00    6.156E+00    5.996E+00    5.836E+00    5.678E+00    5.522E+00    5.366E+00
     5.212E+00    5.060E+00    4.909E+00    4.760E+00    4.613E+00    4.467E+00    4.323E+00    4.182E+00    4.042E+00    3.905E+00
     3.770E+00    3.637E+00    3.506E+00    3.378E+00    3.252E+00    3.129E+00    3.008E+00    2.890E+00    2.775E+00    2.663E+00
     2.554E+00    2.447E+00    2.344E+00    2.244E+00    2.147E+00    2.053E+00    1.963E+00    1.876E+00    1.793E+00    1.713E+00
     1.637E+00    1.564E+00    1.495E+00    1.430E+00    1.369E+00    1.311E+00    1.256E+00    1.204E+00    1.156E+00    1.111E+00
     1.069E+00    1.030E+00    9.944E-01    9.611E-01    9.306E-01    9.026E-01    8.772E-01    8.543E-01    8.337E-01    8.155E-01
     7.994E-01    7.855E-01    7.735E-01    7.636E-01    7.555E-01    7.491E-01    7.445E-01    7.414E-01    7.399E-01    7.398E-01
     7.411E-01    7.436E-01    7.473E-01    7.521E-01    7.579E-01    7.646E-01    7.722E-01    7.805E-01    7.895E-01    7.990E-01
     8.091E-01    8.195E-01    8.303E-01    8.414E-01    8.525E-01    8.638E-01    8.750E-01    8.861E-01    8.972E-01    9.081E-01
     9.189E-01    9.296E-01    9.401E-01    9.505E-01    9.608E-01    9.709E-01    9.809E-01    9.906E-01    1.000E+00    1.010E+00
     1.019E+00    1.028E+00    1.037E+00    1.045E+00    1.054E+00    1.062E+00    1.070E+00    1.077E+00    1.085E+00    1.092E+00
     1.099E+00    1.106E+00    1.112E+00    1.118E+00    1.124E+00    1.129E+00    1.134E+00    1.139E+00    1.144E+00    1.148E+00
     1.152E+00    1.155E+00    1.159E+00    1.161E+00    1.164E+00    1.166E+00    1.168E+00    1.169E+00    1.170E+00    1.170E+00
     1.170E+00    1.170E+00    1.169E+00    1.168E+00    1.166E+00    1.164E+00    1.162E+00    1.159E+00    1.156E+00    1.152E+00
     1.148E+00    1.144E+00    1.139E+00    1.134E+00    1.128E+00    1.123E+00    1.116E+00    1.110E+00    1.103E+00    1.096E+00
     1.088E+00    1.080E+00    1.072E+00    1.063E+00    1.054E+00    1.045E+00    1.036E+00    1.026E+00    1.016E+00    1.005E+00
     9.944E-01    9.834E-01    9.721E-01    9.606E-01    9.488E-01    9.367E-01    9.243E-01    9.117E-01    8.989E-01    8.858E-01
     8.725E-01    8.589E-01    8.451E-01    8.311E-01    8.169E-01    8.024E-01    7.878E-01    7.729E-01    7.578E-01    7.426E-01
     7.272E-01    7.116E-01    6.959E-01    6.801E-01    6.642E-01    6.482E-01    6.321E-01    6.159E-01    5.996E-01    5.834E-01
     5.670E-01    5.507E-01    5.344E-01    5.181E-01    5.018E-01    4.855E-01    4.693E-01    4.532E-01    4.372E-01    4.212E-01
     4.054E-01    3.896E-01    3.741E-01    3.586E-01    3.433E-01    3.282E-01    3.133E-01    2.986E-01    2.841E-01    2.699E-01
     2.559E-01    2.421E-01    2.286E-01    2.154E-01    2.025E-01    1.899E-01    1.777E-01    1.657E-01    1.542E-01    1.430E-01
     1.322E-01    1.217E-01    1.117E-01    1.021E-01    9.297E-02    8.425E-02    7.598E-02    6.817E-02    6.084E-02    5.399E-02
     4.763E-02    4.177E-02    3.643E-02    3.161E-02    2.733E-02    2.360E-02    2.042E-02    1.780E-02    1.577E-02    1.432E-02
     1.347E-02    1.322E-02    1.360E-02    1.460E-02    1.625E-02    1.854E-02    2.149E-02    2.512E-02    2.942E-02    3.442E-02
     4.012E-02    4.653E-02    5.366E-02    6.152E-02    7.013E-02    7.949E-02    8.962E-02    1.005E-01    1.122E-01    1.247E-01
     1.380E-01    1.521E-01    1.670E-01    1.828E-01    1.994E-01    2.168E-01    2.352E-01    2.544E-01    2.745E-01    2.954E-01
     3.172E-01    3.398E-01    3.632E-01    3.873E-01    4.122E-01    4.378E-01    4.642E-01    4.912E-01    5.189E-01    5.472E-01
     5.762E-01    6.057E-01    6.358E-01    6.665E-01    6.977E-01    7.295E-01    7.617E-01    7.944E-01    8.275E-01    8.611E-01
     8.951E-01    9.295E-01    9.642E-01    9.993E-01    1.035E+00    1.070E+00    1.106E+00    1.143E+00    1.179E+00    1.216E+00
     1.253E+00    1.290E+00    1.327E+00    1.365E+00    1.402E+00    1.440E+00    1.477E+00    1.515E+00    1.553E+00    1.590E+00
     1.628E+00    1.666E+00    1.703E+00    1.741E+00    1.778E+00    1.816E+00    1.853E+00    1.890E+00    1.928E+00    1.965E+00
     2.002E+00    2.039E+00    2.076E+00    2.113E+00    2.149E+00    2.186E+00    2.223E+00    2.259E+00    2.296E+00    2.332E+00
     2.369E+00    2.405E+00    2.441E+00    2.478E+00    2.514E+00    2.550E+00    2.586E+00    2.622E+00    2.658E+00    2.694E+00
     2.729E+00    2.765E+00    2.801E+00    2.837E+00    2.872E+00    2.908E+00    2.943E+00    2.979E+00    3.014E+00    3.049E+00
     3.085E+00    3.120E+00    3.155E+00    3.190E+00    3.226E+00    3.261E+00    3.296E+00    3.331E+00
 Ala      Conc. = 1.28E+02
