 LCModel (Version 6.3-1L) Copyright: S.W. Provencher.          Ref.: Magn. Reson. Med. 30:672-679 (1993).                
 Slice#1 Row#12 Col#1  PD_05_press_2_raw_act
 36 lines in following concentration table = NCONC+1
    Conc.  %SD /Cr+PCr  Metabolite                                         
    0.000 999%   0.000 Ala                                                 
   20.766  61%   0.480 Asp                                                 
   43.235  70%   1.000 Cr                                                  
    0.000 999%   0.000 PCr                                                 
   13.527  56%   0.313 GABA                                                
   13.066  59%   0.302 Glc                                                 
 1.07E+03  28%  24.784 Gln                                                 
    0.000 999%   0.000 Glu                                                 
    0.000 999%   0.000 GPC                                                 
    0.000 999%   0.000 PCh                                                 
   31.459 171%   0.728 GSH                                                 
    0.000 999%   0.000 Ins                                                 
 2.35E+03  15%  54.260 Lac                                                 
  291.145  34%   6.734 NAA                                                 
   97.808  99%   2.262 NAAG                                                
    4.706  54%   0.109 Scyllo                                              
   21.701  59%   0.502 Tau                                                 
    0.000 999%   0.000 -CrCH2                                              
    0.000 999%   0.000 GPC+PCh                                             
  388.953   8%   8.996 NAA+NAAG                                            
   43.235  70%   1.000 Cr+PCr                                              
 1.07E+03  28%  24.784 Glu+Gln                                             
    0.000 999%   0.000 Lip13a                                              
 1.28E+03  16%  29.624 Lip13b                                              
  341.912  16%   7.908 Lip09                                               
    0.000 999%   0.000 MM09                                                
  192.140  16%   4.444 Lip20                                               
    0.611 701% 1.4E-02 MM20                                                
    0.000 999%   0.000 MM12                                                
    0.000 999%   0.000 MM14                                                
    0.000 999%   0.000 MM17                                                
 1.28E+03  16%  29.624 Lip13a+Lip13b                                       
 1.28E+03  16%  29.624 MM14+Lip13a+Lip13b+MM12                             
  341.912  16%   7.908 MM09+Lip09                                          
  192.752  16%   4.458 MM20+Lip20                                          
   6 lines in following misc. output table
  FWHM = 0.168 ppm    S/N =   6                                            
  Data shift =-0.061 ppm                                                   
  Ph:  26 deg      25.7 deg/ppm                                            
  alphaB,S = 8.5E+01,   5.8E+02                                            
    7 spline knots.   Ns = 9(2)                                            
   2 inflections.     1 extrema                                            
  498 points on ppm-axis = NY
      4.000000     3.992357     3.984714     3.977070     3.969427     3.961784     3.954141     3.946497     3.938854     3.931211
      3.923568     3.915925     3.908281     3.900638     3.892995     3.885352     3.877708     3.870065     3.862422     3.854779
      3.847136     3.839492     3.831849     3.824206     3.816563     3.808919     3.801276     3.793633     3.785990     3.778347
      3.770703     3.763060     3.755417     3.747774     3.740130     3.732487     3.724844     3.717201     3.709558     3.701914
      3.694271     3.686628     3.678985     3.671341     3.663698     3.656055     3.648412     3.640769     3.633125     3.625482
      3.617839     3.610196     3.602552     3.594909     3.587266     3.579623     3.571980     3.564336     3.556693     3.549050
      3.541407     3.533763     3.526120     3.518477     3.510834     3.503191     3.495547     3.487904     3.480261     3.472618
      3.464974     3.457331     3.449688     3.442045     3.434402     3.426758     3.419115     3.411472     3.403829     3.396185
      3.388542     3.380899     3.373256     3.365613     3.357969     3.350326     3.342683     3.335040     3.327396     3.319753
      3.312110     3.304467     3.296824     3.289180     3.281537     3.273894     3.266251     3.258607     3.250964     3.243321
      3.235678     3.228034     3.220391     3.212748     3.205105     3.197462     3.189818     3.182175     3.174532     3.166889
      3.159245     3.151602     3.143959     3.136316     3.128673     3.121029     3.113386     3.105743     3.098100     3.090456
      3.082813     3.075170     3.067527     3.059884     3.052240     3.044597     3.036954     3.029311     3.021667     3.014024
      3.006381     2.998738     2.991095     2.983451     2.975808     2.968165     2.960522     2.952878     2.945235     2.937592
      2.929949     2.922306     2.914662     2.907019     2.899376     2.891733     2.884089     2.876446     2.868803     2.861160
      2.853517     2.845873     2.838230     2.830587     2.822944     2.815300     2.807657     2.800014     2.792371     2.784728
      2.777084     2.769441     2.761798     2.754155     2.746511     2.738868     2.731225     2.723582     2.715939     2.708295
      2.700652     2.693009     2.685366     2.677722     2.670079     2.662436     2.654793     2.647150     2.639506     2.631863
      2.624220     2.616577     2.608933     2.601290     2.593647     2.586004     2.578361     2.570717     2.563074     2.555431
      2.547788     2.540144     2.532501     2.524858     2.517215     2.509572     2.501928     2.494285     2.486642     2.478999
      2.471355     2.463712     2.456069     2.448426     2.440783     2.433139     2.425496     2.417853     2.410210     2.402566
      2.394923     2.387280     2.379637     2.371994     2.364350     2.356707     2.349064     2.341421     2.333777     2.326134
      2.318491     2.310848     2.303205     2.295561     2.287918     2.280275     2.272632     2.264988     2.257345     2.249702
      2.242059     2.234416     2.226772     2.219129     2.211486     2.203843     2.196199     2.188556     2.180913     2.173270
      2.165627     2.157983     2.150340     2.142697     2.135054     2.127410     2.119767     2.112124     2.104481     2.096838
      2.089194     2.081551     2.073908     2.066265     2.058621     2.050978     2.043335     2.035692     2.028049     2.020405
      2.012762     2.005119     1.997476     1.989833     1.982190     1.974546     1.966903     1.959260     1.951617     1.943974
      1.936331     1.928688     1.921045     1.913402     1.905759     1.898115     1.890472     1.882829     1.875186     1.867543
      1.859900     1.852257     1.844614     1.836971     1.829327     1.821684     1.814041     1.806398     1.798755     1.791112
      1.783469     1.775826     1.768183     1.760540     1.752896     1.745253     1.737610     1.729967     1.722324     1.714681
      1.707038     1.699395     1.691752     1.684108     1.676465     1.668822     1.661179     1.653536     1.645893     1.638250
      1.630607     1.622964     1.615321     1.607677     1.600034     1.592391     1.584748     1.577105     1.569462     1.561819
      1.554176     1.546533     1.538890     1.531246     1.523603     1.515960     1.508317     1.500674     1.493031     1.485388
      1.477745     1.470102     1.462458     1.454815     1.447172     1.439529     1.431886     1.424243     1.416600     1.408957
      1.401314     1.393671     1.386027     1.378384     1.370741     1.363098     1.355455     1.347812     1.340169     1.332526
      1.324883     1.317240     1.309596     1.301953     1.294310     1.286667     1.279024     1.271381     1.263738     1.256095
      1.248452     1.240808     1.233165     1.225522     1.217879     1.210236     1.202593     1.194950     1.187307     1.179664
      1.172021     1.164377     1.156734     1.149091     1.141448     1.133805     1.126162     1.118519     1.110876     1.103233
      1.095590     1.087946     1.080303     1.072660     1.065017     1.057374     1.049731     1.042088     1.034445     1.026802
      1.019158     1.011515     1.003872     0.996229     0.988586     0.980943     0.973300     0.965657     0.958014     0.950371
      0.942727     0.935084     0.927441     0.919798     0.912155     0.904512     0.896869     0.889226     0.881583     0.873940
      0.866296     0.858653     0.851010     0.843367     0.835724     0.828081     0.820438     0.812795     0.805152     0.797508
      0.789865     0.782222     0.774579     0.766936     0.759293     0.751650     0.744007     0.736364     0.728721     0.721077
      0.713434     0.705791     0.698148     0.690505     0.682862     0.675219     0.667576     0.659933     0.652290     0.644646
      0.637003     0.629360     0.621717     0.614074     0.606431     0.598788     0.591145     0.583502     0.575858     0.568215
      0.560572     0.552929     0.545286     0.537643     0.530000     0.522357     0.514714     0.507071     0.499427     0.491784
      0.484141     0.476498     0.468855     0.461212     0.453569     0.445925     0.438282     0.430639     0.422996     0.415353
      0.407710     0.400067     0.392424     0.384780     0.377137     0.369494     0.361851     0.354208     0.346565     0.338922
      0.331278     0.323635     0.315992     0.308349     0.300706     0.293063     0.285420     0.277777     0.270133     0.262490
      0.254847     0.247204     0.239561     0.231918     0.224275     0.216631     0.208988     0.201345
 NY phased data points follow
  -1.95608E+00 -1.87182E+00 -2.66198E+00  1.48468E+00 -1.75571E+00 -1.91300E+00 -1.71627E+00 -2.16278E+00  1.20708E-01 -1.06707E+00
  -3.71117E+00  8.11824E-01 -1.05406E-01 -1.50093E+00  1.92724E-01 -3.47063E-01  1.90333E+00  3.01698E+00  6.25705E-02 -4.89662E-01
   3.82908E-02 -1.99742E-01 -1.02098E+00  6.77761E-02  4.28676E-01 -1.26135E+00  1.07652E+00  2.05173E+00 -1.55240E+00 -6.10399E-01
  -1.45355E+00  6.80875E-01 -1.53808E+00  2.33136E+00 -2.16139E+00 -2.32913E+00 -3.23826E-01  7.08607E-01  4.44203E-01 -9.75708E-01
  -2.86270E-01 -1.37856E-01 -1.97134E+00  8.36706E-01 -2.31182E+00 -8.84402E-01 -1.97923E+00 -1.06462E+00 -1.31020E+00 -5.67371E-01
   9.44453E-02 -2.98318E+00 -2.21803E+00 -3.96687E+00 -3.46376E+00 -2.20518E+00 -1.70313E+00 -2.21588E+00  4.87593E-01 -3.15277E+00
  -1.04924E+00  8.82686E-01 -2.53398E+00 -1.95401E+00  3.07125E-01 -1.00867E+00 -1.01766E+00  1.45532E-01 -6.48889E-01 -1.46309E+00
  -1.42418E+00 -1.86128E+00 -1.90068E-01  1.22525E+00  8.10700E-01 -2.09588E+00 -1.91119E+00 -8.01367E-02 -1.13307E+00 -2.01241E+00
  -6.56756E-01 -2.20715E+00 -4.73482E-01 -8.17943E-01  9.18944E-01 -2.36697E-01  4.09638E-01 -3.39387E-01 -1.42590E+00 -2.15018E+00
  -5.10544E-01 -1.69045E+00 -4.97042E-01 -2.29025E+00 -1.20097E+00 -6.44311E-01 -2.07592E-01 -1.74866E+00  2.44597E-01 -3.44558E-01
  -8.55593E-01 -2.23164E+00 -1.01285E+00 -1.58830E+00 -1.32470E+00 -1.14539E+00 -2.15781E+00 -2.00009E+00 -2.89374E+00  3.00581E-02
  -1.56550E+00 -1.61175E+00 -2.34215E+00 -2.31444E+00  1.64716E-01 -8.17014E-01 -7.22008E-01 -2.26049E+00 -1.71293E+00  3.04694E-01
  -1.40455E+00 -1.79132E+00 -7.10760E-01 -2.09391E+00 -4.32507E-01  3.17422E-01  7.84845E-01 -1.51613E+00 -1.39359E+00 -1.07166E+00
  -8.14858E-01 -2.53976E-01 -3.31508E-01  1.89703E-01  1.58509E+00 -1.52468E+00 -1.89456E+00  4.11374E-01 -9.78140E-01 -2.73342E+00
  -2.16018E+00  1.19268E+00 -1.29168E+00 -1.98666E+00  1.07878E+00 -2.64468E+00 -2.14188E+00 -1.39073E+00 -1.37767E+00  8.05009E-01
  -5.07517E-01 -1.91535E-01 -1.70298E+00 -1.96406E+00 -2.15496E+00 -1.50323E+00 -3.05745E-01 -1.81285E+00 -2.06141E+00  8.77132E-01
   1.33569E+00  1.42516E+00  8.15751E-01 -1.09093E-01  6.63661E-02 -3.58445E+00  3.23521E-01 -2.04446E+00 -4.75147E-01  6.59877E-01
  -5.87335E-01 -1.52274E+00  3.54735E-03 -1.29569E+00 -3.52804E+00 -1.10924E+00 -7.63825E-01 -5.18458E-01 -2.91357E+00 -1.05211E+00
  -8.04200E-01 -2.53226E+00 -2.21401E-01 -7.91891E-01 -1.12050E+00 -1.01484E+00 -1.66557E+00 -1.71575E+00 -6.33219E-01  9.71747E-01
  -2.41281E+00 -2.70702E+00 -2.89934E+00 -2.41136E+00 -2.35692E+00 -1.52632E+00 -6.91336E-01 -2.64291E+00 -1.01077E+00 -1.25068E+00
  -2.41912E+00 -1.90982E+00 -1.99150E+00 -1.89564E+00 -1.79208E+00 -3.83241E-01 -2.04643E+00 -7.82919E-01 -3.48228E+00 -2.61824E+00
  -2.60324E+00 -2.59454E+00 -1.34058E+00 -1.95457E-01 -8.24121E-01 -8.73258E-01 -2.34755E-01  1.19843E-01 -1.61599E+00 -1.85505E+00
  -1.77108E-02 -9.30922E-01  9.72879E-01  6.21066E-01  1.05617E+00  9.86479E-01  9.55782E-01  8.79089E-01 -3.01280E-01 -2.08215E-01
   8.10969E-01  1.05989E+00  1.16393E+00  2.34268E+00 -5.40583E-01  8.53450E-01  1.47403E+00  6.94150E-01  2.01728E+00  1.33788E+00
   1.51516E+00  3.34673E-01  2.62036E+00  7.45346E-01  2.79163E+00  5.45912E-01  1.19143E+00  2.46361E+00 -1.71157E-01  1.71808E+00
   2.92011E+00  1.16898E+00  2.86908E+00  4.08691E+00  3.41310E+00  3.94445E+00  3.82553E+00  4.91432E+00  3.35683E+00  2.56857E+00
   3.79572E+00  3.68762E+00  9.04069E-01  4.31596E+00  3.13637E+00  3.06812E+00  4.22528E+00  3.17165E+00  2.42642E+00  3.81718E+00
   1.41821E+00  1.98709E+00  2.13707E+00  3.01334E+00  2.45810E+00  3.54415E+00  3.41670E+00  2.90694E+00  3.61069E+00  2.08175E+00
   8.46466E-01  3.44387E+00  3.71546E-01 -1.14410E-01 -6.79992E-01  8.19097E-01 -1.64236E+00 -6.94963E-01 -6.17477E-01 -7.55333E-02
   9.19313E-01  7.36989E-01 -1.59876E+00 -1.52947E+00 -7.80965E-02 -8.41998E-03 -4.42018E-01 -5.93617E-01 -2.54171E+00 -1.95882E+00
  -2.47108E+00 -1.28126E-01 -2.37207E+00 -3.89439E+00 -2.73647E+00 -8.10250E-01 -3.11275E-01 -2.63886E+00 -3.85639E+00 -1.58511E+00
  -4.17347E+00 -6.53218E-01 -2.14012E+00 -1.58711E+00 -2.30702E+00 -9.24663E-01 -1.57152E+00 -2.67474E-01  7.85948E-01  8.94870E-01
   2.63363E-01  3.68062E-02 -1.00210E+00 -1.77487E-01 -1.17113E+00  1.70897E+00  1.46656E+00  1.07542E+00  2.41536E+00  1.87997E+00
   3.73620E+00  2.90584E+00  4.95931E+00  3.94881E+00  5.89933E+00  5.32169E+00  9.90488E+00  8.31773E+00  1.20291E+01  1.19521E+01
   1.23362E+01  1.07559E+01  1.19016E+01  1.41256E+01  1.72223E+01  1.51624E+01  1.56840E+01  1.44708E+01  1.51798E+01  1.46872E+01
   1.40383E+01  1.13210E+01  1.10379E+01  1.03950E+01  1.04902E+01  9.02292E+00  9.74446E+00  6.84804E+00  6.09827E+00  5.72500E+00
   7.28993E+00  5.94339E+00  4.78952E+00  7.18971E+00  3.94051E+00  3.93124E+00  3.92937E+00  3.21569E+00  4.01094E+00  2.47891E+00
   3.41692E+00  3.63503E+00  3.33600E+00  2.21192E+00  2.58527E+00  2.63520E+00  1.82961E+00  2.71131E+00  6.83470E-01  2.16659E+00
   1.94252E+00 -2.62341E-02  6.27031E-01  2.61229E+00 -3.77435E-01 -4.62625E-01 -5.39103E-01  3.68369E+00 -5.38776E-01  2.09266E+00
   5.04816E-01  1.27219E+00  1.35351E+00 -2.13750E+00  2.95135E+00 -8.53529E-02 -6.43772E-01 -7.30195E-01  1.53516E-01 -9.93058E-01
   2.78198E-01  1.49194E+00  1.97306E+00  7.33634E-01  2.04321E-01  2.00740E+00  3.25560E-01  5.29417E-01  1.80717E-01  2.57930E-01
  -4.28014E-01  1.29133E+00  4.98933E-01 -7.72901E-01  2.66601E-02 -4.29632E-01 -9.34201E-01 -5.67135E-01  4.36067E-02  3.13447E-02
  -3.91498E-01  1.29726E+00 -9.62212E-01 -1.29854E+00 -1.08785E-01 -6.60846E-01 -1.34400E+00 -2.70202E+00  6.09009E-01 -1.60866E+00
  -2.23978E+00  7.94791E-01  5.53635E-01 -8.39602E-02 -1.92342E+00  1.07125E+00 -2.04676E+00 -1.26214E+00 -2.79823E+00 -2.52915E+00
  -2.60260E-01 -5.74251E-01 -1.65315E+00 -1.75626E+00 -7.23783E-01 -1.87429E+00 -1.59495E+00 -8.24218E-01 -9.70304E-01 -1.42546E+00
  -6.82886E-01  2.31236E-01 -1.48364E+00 -1.09190E+00  1.09721E+00 -6.63044E-01  5.21507E-01 -1.87432E+00 -7.38101E-01  1.97155E+00
   8.82293E-01  3.86697E-01 -3.30589E-03 -1.32483E-01 -1.83871E-02 -1.45789E-02  7.37678E-01  9.44073E-02  4.52168E-02  9.45440E-01
  -5.38537E-01 -1.10080E+00  1.04927E+00 -7.23221E-01  8.78899E-01  8.78476E-02 -6.51971E-01  1.70674E+00  2.11173E-01  3.15561E-01
   8.57874E-01  1.13476E+00 -8.31448E-01  9.64273E-01 -6.54090E-01  8.18981E-01 -1.35521E+00 -2.09512E-01  3.21571E-01  1.24603E-01
  -1.91483E-01 -1.68808E-01 -7.79487E-01  2.80179E-01 -5.69123E-01 -5.12178E-01 -5.87730E-01  1.61836E+00
 NY points of the fit to the data follow
  -1.48525E+00 -1.03930E+00 -1.32274E+00 -8.95195E-01 -1.05727E+00 -6.54077E-01 -8.00078E-01 -5.46332E-01 -6.81192E-01 -5.80689E-01
  -7.03511E-01 -6.99925E-01 -7.74889E-01 -7.09140E-01 -6.54245E-01 -6.00964E-01 -4.80680E-01 -4.73846E-01 -3.31896E-01 -3.95781E-01
  -2.85596E-01 -3.62896E-01 -2.50318E-01 -3.29110E-01 -2.26137E-01 -3.01791E-01 -2.23378E-01 -2.83926E-01 -2.36517E-01 -2.72830E-01
  -2.68140E-01 -2.73671E-01 -3.16749E-01 -2.88118E-01 -3.74662E-01 -3.26659E-01 -4.46699E-01 -3.80656E-01 -5.20963E-01 -4.45192E-01
  -5.95451E-01 -5.16522E-01 -6.68351E-01 -5.87867E-01 -7.30398E-01 -6.48906E-01 -7.87065E-01 -7.15378E-01 -8.68064E-01 -8.38580E-01
  -9.75409E-01 -9.59132E-01 -1.04012E+00 -1.01706E+00 -1.01804E+00 -9.96936E-01 -1.00194E+00 -1.00744E+00 -1.02629E+00 -1.05201E+00
  -1.08163E+00 -1.08932E+00 -1.10906E+00 -1.10844E+00 -1.12345E+00 -1.11794E+00 -1.13019E+00 -1.12155E+00 -1.12888E+00 -1.11928E+00
  -1.12252E+00 -1.11318E+00 -1.11226E+00 -1.10424E+00 -1.09881E+00 -1.09376E+00 -1.08521E+00 -1.08416E+00 -1.07348E+00 -1.07681E+00
  -1.06450E+00 -1.07118E+00 -1.05897E+00 -1.06869E+00 -1.05792E+00 -1.07051E+00 -1.06239E+00 -1.07621E+00 -1.07128E+00 -1.08503E+00
  -1.08394E+00 -1.09663E+00 -1.09939E+00 -1.11046E+00 -1.11543E+00 -1.12352E+00 -1.13000E+00 -1.13451E+00 -1.14135E+00 -1.14508E+00
  -1.15310E+00 -1.15673E+00 -1.16575E+00 -1.16868E+00 -1.17683E+00 -1.17862E+00 -1.18413E+00 -1.18322E+00 -1.17977E+00 -1.16358E+00
  -1.15343E+00 -1.12672E+00 -1.11108E+00 -1.07407E+00 -1.05304E+00 -1.00516E+00 -9.79939E-01 -9.25526E-01 -8.98120E-01 -8.41729E-01
  -8.14514E-01 -7.61013E-01 -7.36986E-01 -6.91586E-01 -6.71669E-01 -6.40637E-01 -6.26704E-01 -6.13846E-01 -6.05334E-01 -6.11319E-01
  -6.06178E-01 -6.28875E-01 -6.25426E-01 -6.61392E-01 -6.57887E-01 -7.03001E-01 -6.99029E-01 -7.50262E-01 -7.44475E-01 -7.97747E-01
  -7.89954E-01 -8.43159E-01 -8.36444E-01 -8.90927E-01 -8.86447E-01 -9.38279E-01 -9.33404E-01 -9.71108E-01 -9.63370E-01 -9.77843E-01
  -9.72309E-01 -9.84836E-01 -9.87825E-01 -9.97951E-01 -1.00895E+00 -1.01719E+00 -1.03702E+00 -1.04921E+00 -1.08234E+00 -1.09884E+00
  -1.13916E+00 -1.15738E+00 -1.19982E+00 -1.22314E+00 -1.26593E+00 -1.29504E+00 -1.33322E+00 -1.36713E+00 -1.39860E+00 -1.43796E+00
  -1.45924E+00 -1.49863E+00 -1.50693E+00 -1.54216E+00 -1.53562E+00 -1.56604E+00 -1.55538E+00 -1.58077E+00 -1.57637E+00 -1.60245E+00
  -1.60776E+00 -1.63542E+00 -1.65222E+00 -1.66822E+00 -1.67285E+00 -1.66365E+00 -1.65292E+00 -1.60397E+00 -1.57663E+00 -1.50366E+00
  -1.47054E+00 -1.40541E+00 -1.42904E+00 -1.36465E+00 -1.40187E+00 -1.34317E+00 -1.39772E+00 -1.35177E+00 -1.42764E+00 -1.39689E+00
  -1.47788E+00 -1.46176E+00 -1.53851E+00 -1.53472E+00 -1.58720E+00 -1.58586E+00 -1.59794E+00 -1.58747E+00 -1.54184E+00 -1.50943E+00
  -1.39160E+00 -1.32880E+00 -1.15025E+00 -1.06677E+00 -8.57676E-01 -7.71428E-01 -5.70307E-01 -5.07813E-01 -3.69832E-01 -3.35111E-01
  -2.32754E-01 -1.97010E-01 -1.01582E-01 -1.46236E-02  9.13130E-02  1.88122E-01  2.77355E-01  3.54980E-01  4.04874E-01  4.04500E-01
   3.83767E-01  2.68937E-01  1.70802E-01 -2.64629E-04 -2.81449E-02 -2.42044E-01 -1.96291E-01 -4.28203E-01 -2.79443E-01 -5.37849E-01
  -2.90975E-01 -5.66706E-01 -1.58513E-01 -3.65112E-01  1.56475E-01  3.28519E-02  6.34004E-01  6.07761E-01  1.24798E+00  1.33037E+00
   1.94715E+00  2.12623E+00  2.65631E+00  2.90852E+00  3.28500E+00  3.57387E+00  3.74840E+00  4.04910E+00  3.97219E+00  4.29118E+00
   4.03102E+00  4.36161E+00  3.95297E+00  4.26500E+00  3.73165E+00  3.93330E+00  3.31307E+00  3.41461E+00  2.74878E+00  2.77063E+00
   2.11092E+00  2.07821E+00  1.46822E+00  1.42000E+00  8.85753E-01  8.23780E-01  3.83747E-01  3.11938E-01 -7.88381E-04 -1.06491E-01
  -2.90466E-01 -3.88441E-01 -4.10935E-01 -4.31623E-01 -4.34216E-01 -4.46210E-01 -4.42457E-01 -4.49484E-01 -4.41559E-01 -4.45376E-01
  -4.34838E-01 -4.35875E-01 -4.23373E-01 -4.21151E-01 -4.06382E-01 -4.01045E-01 -3.84499E-01 -3.76244E-01 -3.58290E-01 -3.47656E-01
  -3.28345E-01 -3.14844E-01 -2.93657E-01 -2.76718E-01 -2.53167E-01 -2.31942E-01 -2.05233E-01 -1.79560E-01 -1.48887E-01 -1.18061E-01
  -8.26700E-02 -4.57080E-02 -4.20770E-03  4.03015E-02  9.02730E-02  1.44645E-01  2.05275E-01  2.72213E-01  3.46945E-01  4.30663E-01
   5.24985E-01  6.32215E-01  7.55292E-01  8.98092E-01  1.06611E+00  1.26752E+00  1.51521E+00  1.83302E+00  2.27741E+00  2.94820E+00
   3.48758E+00  4.20747E+00  4.81676E+00  5.50626E+00  6.18681E+00  6.75138E+00  7.46465E+00  8.15200E+00  9.11299E+00  9.84103E+00
   1.10319E+01  1.16769E+01  1.30119E+01  1.34699E+01  1.47646E+01  1.47760E+01  1.57792E+01  1.51214E+01  1.56808E+01  1.43200E+01
   1.44454E+01  1.26069E+01  1.24994E+01  1.04871E+01  1.03855E+01  8.44388E+00  8.48501E+00  6.75677E+00  6.97771E+00  5.53661E+00
   5.88145E+00  4.69453E+00  5.08498E+00  4.12916E+00  4.52272E+00  3.80287E+00  4.20630E+00  3.83851E+00  4.24765E+00  4.19790E+00
   4.32570E+00  3.91207E+00  3.77881E+00  3.11710E+00  2.76538E+00  2.06099E+00  1.63133E+00  1.36458E+00  1.17853E+00  1.04248E+00
   9.41247E-01  8.66037E-01  8.11199E-01  7.72904E-01  7.48319E-01  7.35279E-01  7.32005E-01  7.37050E-01  7.49151E-01  7.67188E-01
   7.90066E-01  8.16720E-01  8.46081E-01  8.77119E-01  9.08813E-01  9.40152E-01  9.70125E-01  9.97734E-01  1.02204E+00  1.04220E+00
   1.05744E+00  1.06713E+00  1.07071E+00  1.06778E+00  1.05809E+00  1.04157E+00  1.01830E+00  9.88495E-01  9.52499E-01  9.10783E-01
   8.63927E-01  8.12606E-01  7.57543E-01  6.99482E-01  6.39169E-01  5.77347E-01  5.14733E-01  4.51999E-01  3.89749E-01  3.28506E-01
   2.68720E-01  2.10767E-01  1.54962E-01  1.01536E-01  5.06522E-02  2.39743E-03 -4.31798E-02 -8.60808E-02 -1.26328E-01 -1.63993E-01
  -1.99166E-01 -2.31969E-01 -2.62515E-01 -2.90930E-01 -3.17334E-01 -3.41862E-01 -3.64645E-01 -3.85814E-01 -4.05483E-01 -4.23758E-01
  -4.40742E-01 -4.56536E-01 -4.71241E-01 -4.84937E-01 -4.97705E-01 -5.09604E-01 -5.20706E-01 -5.31071E-01 -5.40766E-01 -5.49832E-01
  -5.58317E-01 -5.66255E-01 -5.73691E-01 -5.80663E-01 -5.87208E-01 -5.93350E-01 -5.99113E-01 -6.04521E-01 -6.09600E-01 -6.14378E-01
  -6.18870E-01 -6.23096E-01 -6.27060E-01 -6.30789E-01 -6.34291E-01 -6.37594E-01 -6.40694E-01 -6.43610E-01 -6.46341E-01 -6.48909E-01
  -6.51318E-01 -6.53586E-01 -6.55707E-01 -6.57695E-01 -6.59548E-01 -6.61286E-01 -6.62907E-01 -6.64424E-01 -6.65830E-01 -6.67135E-01
  -6.68339E-01 -6.69457E-01 -6.70486E-01 -6.71432E-01 -6.72290E-01 -6.73067E-01 -6.73765E-01 -6.74391E-01 -6.74942E-01 -6.75418E-01
  -6.75817E-01 -6.76141E-01 -6.76390E-01 -6.76564E-01 -6.76656E-01 -6.76659E-01 -6.76563E-01 -6.76359E-01
 NY background values follow
    -1.412E+00   -1.411E+00   -1.410E+00   -1.408E+00   -1.407E+00   -1.406E+00   -1.404E+00   -1.403E+00   -1.402E+00   -1.401E+00
    -1.399E+00   -1.398E+00   -1.397E+00   -1.395E+00   -1.394E+00   -1.393E+00   -1.391E+00   -1.390E+00   -1.389E+00   -1.387E+00
    -1.386E+00   -1.385E+00   -1.383E+00   -1.382E+00   -1.381E+00   -1.380E+00   -1.378E+00   -1.377E+00   -1.376E+00   -1.374E+00
    -1.373E+00   -1.372E+00   -1.370E+00   -1.369E+00   -1.368E+00   -1.366E+00   -1.365E+00   -1.364E+00   -1.362E+00   -1.361E+00
    -1.360E+00   -1.359E+00   -1.357E+00   -1.356E+00   -1.355E+00   -1.353E+00   -1.352E+00   -1.351E+00   -1.349E+00   -1.348E+00
    -1.347E+00   -1.345E+00   -1.344E+00   -1.343E+00   -1.341E+00   -1.340E+00   -1.339E+00   -1.338E+00   -1.336E+00   -1.335E+00
    -1.334E+00   -1.332E+00   -1.331E+00   -1.330E+00   -1.328E+00   -1.327E+00   -1.326E+00   -1.324E+00   -1.323E+00   -1.322E+00
    -1.320E+00   -1.319E+00   -1.318E+00   -1.317E+00   -1.315E+00   -1.314E+00   -1.313E+00   -1.311E+00   -1.310E+00   -1.309E+00
    -1.307E+00   -1.306E+00   -1.305E+00   -1.303E+00   -1.302E+00   -1.301E+00   -1.299E+00   -1.298E+00   -1.297E+00   -1.296E+00
    -1.294E+00   -1.293E+00   -1.292E+00   -1.290E+00   -1.289E+00   -1.288E+00   -1.286E+00   -1.285E+00   -1.284E+00   -1.282E+00
    -1.281E+00   -1.280E+00   -1.278E+00   -1.277E+00   -1.276E+00   -1.275E+00   -1.273E+00   -1.272E+00   -1.271E+00   -1.269E+00
    -1.268E+00   -1.267E+00   -1.265E+00   -1.264E+00   -1.263E+00   -1.261E+00   -1.260E+00   -1.259E+00   -1.258E+00   -1.256E+00
    -1.255E+00   -1.254E+00   -1.252E+00   -1.251E+00   -1.250E+00   -1.248E+00   -1.247E+00   -1.246E+00   -1.244E+00   -1.243E+00
    -1.242E+00   -1.241E+00   -1.239E+00   -1.238E+00   -1.237E+00   -1.235E+00   -1.234E+00   -1.233E+00   -1.231E+00   -1.230E+00
    -1.229E+00   -1.227E+00   -1.226E+00   -1.225E+00   -1.224E+00   -1.222E+00   -1.221E+00   -1.220E+00   -1.218E+00   -1.217E+00
    -1.216E+00   -1.214E+00   -1.213E+00   -1.212E+00   -1.210E+00   -1.209E+00   -1.208E+00   -1.207E+00   -1.205E+00   -1.204E+00
    -1.203E+00   -1.201E+00   -1.200E+00   -1.199E+00   -1.197E+00   -1.196E+00   -1.195E+00   -1.193E+00   -1.192E+00   -1.191E+00
    -1.190E+00   -1.188E+00   -1.187E+00   -1.186E+00   -1.184E+00   -1.183E+00   -1.182E+00   -1.180E+00   -1.179E+00   -1.178E+00
    -1.176E+00   -1.175E+00   -1.174E+00   -1.173E+00   -1.171E+00   -1.170E+00   -1.169E+00   -1.167E+00   -1.166E+00   -1.165E+00
    -1.163E+00   -1.162E+00   -1.161E+00   -1.160E+00   -1.158E+00   -1.157E+00   -1.156E+00   -1.154E+00   -1.153E+00   -1.152E+00
    -1.150E+00   -1.149E+00   -1.148E+00   -1.146E+00   -1.145E+00   -1.144E+00   -1.143E+00   -1.141E+00   -1.140E+00   -1.139E+00
    -1.137E+00   -1.136E+00   -1.135E+00   -1.133E+00   -1.132E+00   -1.131E+00   -1.130E+00   -1.128E+00   -1.127E+00   -1.126E+00
    -1.124E+00   -1.123E+00   -1.122E+00   -1.120E+00   -1.119E+00   -1.118E+00   -1.117E+00   -1.115E+00   -1.114E+00   -1.113E+00
    -1.111E+00   -1.110E+00   -1.109E+00   -1.107E+00   -1.106E+00   -1.105E+00   -1.104E+00   -1.102E+00   -1.101E+00   -1.100E+00
    -1.098E+00   -1.097E+00   -1.096E+00   -1.094E+00   -1.093E+00   -1.092E+00   -1.091E+00   -1.089E+00   -1.088E+00   -1.087E+00
    -1.085E+00   -1.084E+00   -1.083E+00   -1.081E+00   -1.080E+00   -1.079E+00   -1.078E+00   -1.076E+00   -1.075E+00   -1.074E+00
    -1.072E+00   -1.071E+00   -1.070E+00   -1.068E+00   -1.067E+00   -1.066E+00   -1.065E+00   -1.063E+00   -1.062E+00   -1.061E+00
    -1.059E+00   -1.058E+00   -1.057E+00   -1.055E+00   -1.054E+00   -1.053E+00   -1.052E+00   -1.050E+00   -1.049E+00   -1.048E+00
    -1.046E+00   -1.045E+00   -1.044E+00   -1.042E+00   -1.041E+00   -1.040E+00   -1.039E+00   -1.037E+00   -1.036E+00   -1.035E+00
    -1.033E+00   -1.032E+00   -1.031E+00   -1.029E+00   -1.028E+00   -1.027E+00   -1.026E+00   -1.024E+00   -1.023E+00   -1.022E+00
    -1.020E+00   -1.019E+00   -1.018E+00   -1.017E+00   -1.015E+00   -1.014E+00   -1.013E+00   -1.011E+00   -1.010E+00   -1.009E+00
    -1.007E+00   -1.006E+00   -1.005E+00   -1.004E+00   -1.002E+00   -1.001E+00   -9.996E-01   -9.983E-01   -9.970E-01   -9.957E-01
    -9.944E-01   -9.931E-01   -9.918E-01   -9.905E-01   -9.892E-01   -9.879E-01   -9.866E-01   -9.853E-01   -9.840E-01   -9.827E-01
    -9.814E-01   -9.801E-01   -9.788E-01   -9.775E-01   -9.762E-01   -9.749E-01   -9.736E-01   -9.723E-01   -9.710E-01   -9.697E-01
    -9.683E-01   -9.670E-01   -9.657E-01   -9.644E-01   -9.631E-01   -9.618E-01   -9.605E-01   -9.592E-01   -9.579E-01   -9.566E-01
    -9.553E-01   -9.540E-01   -9.527E-01   -9.514E-01   -9.501E-01   -9.488E-01   -9.475E-01   -9.461E-01   -9.448E-01   -9.435E-01
    -9.422E-01   -9.409E-01   -9.396E-01   -9.383E-01   -9.370E-01   -9.357E-01   -9.344E-01   -9.331E-01   -9.317E-01   -9.304E-01
    -9.291E-01   -9.278E-01   -9.265E-01   -9.252E-01   -9.239E-01   -9.226E-01   -9.213E-01   -9.199E-01   -9.186E-01   -9.173E-01
    -9.160E-01   -9.147E-01   -9.134E-01   -9.121E-01   -9.108E-01   -9.094E-01   -9.081E-01   -9.068E-01   -9.055E-01   -9.042E-01
    -9.029E-01   -9.015E-01   -9.002E-01   -8.989E-01   -8.976E-01   -8.963E-01   -8.950E-01   -8.936E-01   -8.923E-01   -8.910E-01
    -8.897E-01   -8.884E-01   -8.871E-01   -8.857E-01   -8.844E-01   -8.831E-01   -8.818E-01   -8.805E-01   -8.791E-01   -8.778E-01
    -8.765E-01   -8.752E-01   -8.739E-01   -8.725E-01   -8.712E-01   -8.699E-01   -8.686E-01   -8.673E-01   -8.659E-01   -8.646E-01
    -8.633E-01   -8.620E-01   -8.606E-01   -8.593E-01   -8.580E-01   -8.567E-01   -8.554E-01   -8.540E-01   -8.527E-01   -8.514E-01
    -8.501E-01   -8.487E-01   -8.474E-01   -8.461E-01   -8.448E-01   -8.434E-01   -8.421E-01   -8.408E-01   -8.395E-01   -8.382E-01
    -8.368E-01   -8.355E-01   -8.342E-01   -8.329E-01   -8.315E-01   -8.302E-01   -8.289E-01   -8.276E-01   -8.262E-01   -8.249E-01
    -8.236E-01   -8.222E-01   -8.209E-01   -8.196E-01   -8.183E-01   -8.169E-01   -8.156E-01   -8.143E-01   -8.130E-01   -8.116E-01
    -8.103E-01   -8.090E-01   -8.077E-01   -8.063E-01   -8.050E-01   -8.037E-01   -8.024E-01   -8.010E-01   -7.997E-01   -7.984E-01
    -7.970E-01   -7.957E-01   -7.944E-01   -7.931E-01   -7.917E-01   -7.904E-01   -7.891E-01   -7.878E-01   -7.864E-01   -7.851E-01
    -7.838E-01   -7.824E-01   -7.811E-01   -7.798E-01   -7.785E-01   -7.771E-01   -7.758E-01   -7.745E-01   -7.731E-01   -7.718E-01
    -7.705E-01   -7.692E-01   -7.678E-01   -7.665E-01   -7.652E-01   -7.638E-01   -7.625E-01   -7.612E-01
 Asp      Conc. = 2.08E+01
