 LCModel (Version 6.3-1L) Copyright: S.W. Provencher.          Ref.: Magn. Reson. Med. 30:672-679 (1993).                
 Slice#3 Row#6 Col#10  PD_05_press_2_raw_act
 36 lines in following concentration table = NCONC+1
    Conc.  %SD /Cr+PCr  Metabolite                                         
    0.000 999%   0.000 Ala                                                 
    0.000 999%   0.000 Asp                                                 
    0.000 999%   0.000 Cr                                                  
 2.47E+03   5%   1.000 PCr                                                 
   87.699 349% 3.5E-02 GABA                                                
   59.371 493% 2.4E-02 Glc                                                 
 1.44E+03  34%   0.582 Gln                                                 
 2.87E+03  20%   1.162 Glu                                                 
  966.344   5%   0.391 GPC                                                 
    0.000 999%   0.000 PCh                                                 
  712.854  22%   0.288 GSH                                                 
 2.57E+03  20%   1.041 Ins                                                 
  391.689  66%   0.158 Lac                                                 
 4.71E+03   3%   1.904 NAA                                                 
    0.000 999%   0.000 NAAG                                                
  269.052  20%   0.109 Scyllo                                              
    0.000 999%   0.000 Tau                                                 
 1.56E+03  13%   0.632 -CrCH2                                              
  966.344   5%   0.391 GPC+PCh                                             
 4.71E+03   3%   1.904 NAA+NAAG                                            
 2.47E+03   5%   1.000 Cr+PCr                                              
 4.31E+03  18%   1.744 Glu+Gln                                             
 2.05E+03  34%   0.828 Lip13a                                              
    0.000 999%   0.000 Lip13b                                              
    0.000 999%   0.000 Lip09                                               
 2.62E+03  15%   1.059 MM09                                                
  323.056  86%   0.131 Lip20                                               
 6.00E+03  12%   2.427 MM20                                                
  966.242  31%   0.391 MM12                                                
 2.89E+03  22%   1.167 MM14                                                
 1.52E+03  30%   0.614 MM17                                                
 2.05E+03  34%   0.828 Lip13a+Lip13b                                       
 5.90E+03  13%   2.386 MM14+Lip13a+Lip13b+MM12                             
 2.62E+03  15%   1.059 MM09+Lip09                                          
 6.32E+03  12%   2.558 MM20+Lip20                                          
   6 lines in following misc. output table
  FWHM = 0.054 ppm    S/N =  11                                            
  Data shift = 0.023 ppm                                                   
  Ph: -47 deg      -9.3 deg/ppm                                            
  alphaB,S = 1.3E+00,   1.5E+02                                            
   14 spline knots.   Ns = 7(1)                                            
  (11) 2 infls.   ( 7) 1 extrs.                                            
  498 points on ppm-axis = NY
      4.000000     3.992357     3.984714     3.977070     3.969427     3.961784     3.954141     3.946497     3.938854     3.931211
      3.923568     3.915925     3.908281     3.900638     3.892995     3.885352     3.877708     3.870065     3.862422     3.854779
      3.847136     3.839492     3.831849     3.824206     3.816563     3.808919     3.801276     3.793633     3.785990     3.778347
      3.770703     3.763060     3.755417     3.747774     3.740130     3.732487     3.724844     3.717201     3.709558     3.701914
      3.694271     3.686628     3.678985     3.671341     3.663698     3.656055     3.648412     3.640769     3.633125     3.625482
      3.617839     3.610196     3.602552     3.594909     3.587266     3.579623     3.571980     3.564336     3.556693     3.549050
      3.541407     3.533763     3.526120     3.518477     3.510834     3.503191     3.495547     3.487904     3.480261     3.472618
      3.464974     3.457331     3.449688     3.442045     3.434402     3.426758     3.419115     3.411472     3.403829     3.396185
      3.388542     3.380899     3.373256     3.365613     3.357969     3.350326     3.342683     3.335040     3.327396     3.319753
      3.312110     3.304467     3.296824     3.289180     3.281537     3.273894     3.266251     3.258607     3.250964     3.243321
      3.235678     3.228034     3.220391     3.212748     3.205105     3.197462     3.189818     3.182175     3.174532     3.166889
      3.159245     3.151602     3.143959     3.136316     3.128673     3.121029     3.113386     3.105743     3.098100     3.090456
      3.082813     3.075170     3.067527     3.059884     3.052240     3.044597     3.036954     3.029311     3.021667     3.014024
      3.006381     2.998738     2.991095     2.983451     2.975808     2.968165     2.960522     2.952878     2.945235     2.937592
      2.929949     2.922306     2.914662     2.907019     2.899376     2.891733     2.884089     2.876446     2.868803     2.861160
      2.853517     2.845873     2.838230     2.830587     2.822944     2.815300     2.807657     2.800014     2.792371     2.784728
      2.777084     2.769441     2.761798     2.754155     2.746511     2.738868     2.731225     2.723582     2.715939     2.708295
      2.700652     2.693009     2.685366     2.677722     2.670079     2.662436     2.654793     2.647150     2.639506     2.631863
      2.624220     2.616577     2.608933     2.601290     2.593647     2.586004     2.578361     2.570717     2.563074     2.555431
      2.547788     2.540144     2.532501     2.524858     2.517215     2.509572     2.501928     2.494285     2.486642     2.478999
      2.471355     2.463712     2.456069     2.448426     2.440783     2.433139     2.425496     2.417853     2.410210     2.402566
      2.394923     2.387280     2.379637     2.371994     2.364350     2.356707     2.349064     2.341421     2.333777     2.326134
      2.318491     2.310848     2.303205     2.295561     2.287918     2.280275     2.272632     2.264988     2.257345     2.249702
      2.242059     2.234416     2.226772     2.219129     2.211486     2.203843     2.196199     2.188556     2.180913     2.173270
      2.165627     2.157983     2.150340     2.142697     2.135054     2.127410     2.119767     2.112124     2.104481     2.096838
      2.089194     2.081551     2.073908     2.066265     2.058621     2.050978     2.043335     2.035692     2.028049     2.020405
      2.012762     2.005119     1.997476     1.989833     1.982190     1.974546     1.966903     1.959260     1.951617     1.943974
      1.936331     1.928688     1.921045     1.913402     1.905759     1.898115     1.890472     1.882829     1.875186     1.867543
      1.859900     1.852257     1.844614     1.836971     1.829327     1.821684     1.814041     1.806398     1.798755     1.791112
      1.783469     1.775826     1.768183     1.760540     1.752896     1.745253     1.737610     1.729967     1.722324     1.714681
      1.707038     1.699395     1.691752     1.684108     1.676465     1.668822     1.661179     1.653536     1.645893     1.638250
      1.630607     1.622964     1.615321     1.607677     1.600034     1.592391     1.584748     1.577105     1.569462     1.561819
      1.554176     1.546533     1.538890     1.531246     1.523603     1.515960     1.508317     1.500674     1.493031     1.485388
      1.477745     1.470102     1.462458     1.454815     1.447172     1.439529     1.431886     1.424243     1.416600     1.408957
      1.401314     1.393671     1.386027     1.378384     1.370741     1.363098     1.355455     1.347812     1.340169     1.332526
      1.324883     1.317240     1.309596     1.301953     1.294310     1.286667     1.279024     1.271381     1.263738     1.256095
      1.248452     1.240808     1.233165     1.225522     1.217879     1.210236     1.202593     1.194950     1.187307     1.179664
      1.172021     1.164377     1.156734     1.149091     1.141448     1.133805     1.126162     1.118519     1.110876     1.103233
      1.095590     1.087946     1.080303     1.072660     1.065017     1.057374     1.049731     1.042088     1.034445     1.026802
      1.019158     1.011515     1.003872     0.996229     0.988586     0.980943     0.973300     0.965657     0.958014     0.950371
      0.942727     0.935084     0.927441     0.919798     0.912155     0.904512     0.896869     0.889226     0.881583     0.873940
      0.866296     0.858653     0.851010     0.843367     0.835724     0.828081     0.820438     0.812795     0.805152     0.797508
      0.789865     0.782222     0.774579     0.766936     0.759293     0.751650     0.744007     0.736364     0.728721     0.721077
      0.713434     0.705791     0.698148     0.690505     0.682862     0.675219     0.667576     0.659933     0.652290     0.644646
      0.637003     0.629360     0.621717     0.614074     0.606431     0.598788     0.591145     0.583502     0.575858     0.568215
      0.560572     0.552929     0.545286     0.537643     0.530000     0.522357     0.514714     0.507071     0.499427     0.491784
      0.484141     0.476498     0.468855     0.461212     0.453569     0.445925     0.438282     0.430639     0.422996     0.415353
      0.407710     0.400067     0.392424     0.384780     0.377137     0.369494     0.361851     0.354208     0.346565     0.338922
      0.331278     0.323635     0.315992     0.308349     0.300706     0.293063     0.285420     0.277777     0.270133     0.262490
      0.254847     0.247204     0.239561     0.231918     0.224275     0.216631     0.208988     0.201345
 NY phased data points follow
   2.40863E+01  2.88829E+01  2.47102E+01  2.34039E+01  3.34568E+01  3.11414E+01  3.82820E+01  3.40881E+01  3.48924E+01  3.77400E+01
   3.73452E+01  4.67007E+01  3.75224E+01  3.38894E+01  3.89018E+01  3.99607E+01  2.94642E+01  2.90349E+01  2.06727E+01  3.17108E+01
   1.93095E+01  1.90913E+01  3.19930E+01  2.83192E+01  2.55456E+01  2.75105E+01  2.79680E+01  2.16368E+01  4.00935E+01  2.05063E+01
   3.58061E+01  3.20813E+01  3.15338E+01  3.04680E+01  2.64675E+01  4.45975E+01  2.85855E+01  3.12598E+01  2.87974E+01  2.36932E+01
   1.68057E+01  3.53023E+01  2.48157E+01  3.30874E+01  3.15922E+01  4.75563E+01  3.18553E+01  3.73445E+01  3.50322E+01  4.07113E+01
   2.97035E+01  3.39714E+01  2.48705E+01  3.47133E+01  3.18748E+01  2.87780E+01  1.50614E+01  3.90103E+01  2.13588E+01  1.61607E+01
   2.09049E+01  1.13328E+01  8.97497E+00  8.29192E+00  1.46501E+01  1.07723E+01  4.20128E+00  6.80356E+00  1.43165E+01  7.86391E+00
   8.54240E+00  1.32513E+01  7.22452E+00  6.95904E+00  1.09230E+01  1.17992E+01  1.00165E+01  7.63961E+00  1.99199E+01  1.46666E+01
   1.46840E+01  1.27419E+01  1.48988E+01  2.43812E+01  2.12455E+01  2.12760E+01  2.23968E+01  2.27433E+01  1.80413E+01  1.75388E+01
   1.97568E+01  1.78329E+01  1.69593E+01  1.95441E+01  2.03496E+01  2.73873E+01  2.33793E+01  3.16289E+01  3.92582E+01  4.40216E+01
   6.11313E+01  7.78266E+01  8.61917E+01  9.31920E+01  8.40883E+01  7.64188E+01  6.32726E+01  4.81445E+01  4.26673E+01  2.33764E+01
   2.38479E+01  2.79314E+01  2.15047E+01  1.32871E+01  1.24299E+01  8.23809E+00  1.61318E+01  9.80222E+00  1.54309E+01  5.86450E+00
   1.67334E+01  9.55923E+00  7.31223E+00  2.89423E+01  4.44558E+01  6.54429E+01  8.02964E+01  8.97916E+01  9.33164E+01  8.79103E+01
   7.56552E+01  4.83523E+01  3.89284E+01  2.82118E+01  2.81585E+01  1.94209E+01  1.78420E+01  2.27745E+01  9.58575E+00  8.87501E+00
   1.14718E+01  1.62408E+01  9.76395E+00  4.83654E+00  2.19624E-01  1.38153E+01  7.40336E+00  1.15662E+01 -2.70626E+00  3.67284E+00
   2.14282E+00  1.47084E+00  4.10271E-01 -3.32515E+00  5.78584E+00  9.63434E+00  6.79003E+00  8.24331E+00  1.58066E+00  5.87077E+00
   8.08581E+00 -8.63455E-01  2.38460E+00  2.48584E+00 -5.20711E+00  3.64396E+00 -9.92776E+00 -1.22763E+01 -5.91229E+00 -9.24261E+00
  -1.51210E+01 -2.06172E+01 -2.56202E+01 -1.55922E+01 -2.79483E+01 -2.52485E+01 -2.55400E+01 -3.31519E+01 -2.34564E+01 -1.86329E+01
  -1.14566E+01 -1.13116E+01 -9.80623E+00 -1.17962E+01 -1.30270E+01 -1.33918E+01 -2.90552E+01 -1.47476E+01 -1.34797E+01 -1.82620E+01
  -5.06442E+00 -5.09342E-01  4.54154E+00  3.83850E+00  4.84199E+00 -4.33913E+00 -1.17522E+01 -1.22618E+01 -1.50727E+01 -1.14828E+01
  -1.54729E+01 -7.46456E+00 -4.02541E+00  9.20249E+00  1.03649E+01  9.41940E+00 -9.64844E+00  6.40066E+00 -3.57039E+00 -1.86452E+00
   2.11435E+00  4.37938E+00  1.32769E+01  1.13457E+01  1.79811E+01  3.24153E+01  2.94659E+01  2.13367E+01  2.09588E+01  5.97173E+00
   8.27916E+00  9.34784E+00  1.04361E+00  2.12328E+00  8.43053E+00  1.09602E+01  8.24554E+00  1.64888E+01  2.28221E+01  2.08219E+01
   1.63125E+01  2.00929E+01  1.30480E+01  2.23967E+01  1.93180E+01  1.82056E+01  1.63411E+01  2.59837E+01  2.64579E+01  1.89028E+01
   1.44431E+01  8.99802E+00 -1.52402E+00  7.64410E+00  8.81265E+00  2.18990E+01  2.18611E+01  2.20742E+01  1.92413E+01  2.55489E+01
   1.89099E+01  2.44835E+01  2.09237E+01  3.06684E+01  3.48027E+01  5.15929E+01  7.66381E+01  1.04804E+02  1.45321E+02  1.56450E+02
   1.68366E+02  1.69415E+02  1.51964E+02  1.26878E+02  9.36136E+01  6.47328E+01  4.62672E+01  3.50824E+01  2.30338E+01  2.36746E+01
   9.75944E+00  1.48736E+01  1.30177E+01  1.53435E+01  7.34398E+00  6.42153E+00  1.78173E+01  9.08902E+00  1.26821E+01  8.69053E+00
   5.30090E+00  8.80534E+00  1.18620E+01  3.87502E+00  1.15188E+01  6.78871E+00 -8.51499E-01  1.28924E+00 -2.48361E+00  5.00839E+00
   3.22697E+00 -3.14163E-01  1.20302E+01  8.25837E+00  1.92657E+00  3.84996E+00  3.76900E+00  2.16389E+00  1.26852E+01  1.35514E+01
  -2.28754E+00  6.58177E+00  2.07634E+01  1.16256E+01  1.43256E+01 -1.17033E+00  1.26046E+01  1.27866E+01  6.42852E+00  7.71580E+00
   1.80014E+01  1.36087E+01  1.40408E+01  9.47482E+00  1.22059E+01  5.89588E+00  1.69768E+01  1.29372E+01  5.87363E+00  8.12908E+00
   1.15606E+01  1.45719E+01  1.33106E+01  8.12872E+00  1.15703E+01  1.53075E+01  2.26212E+01  1.68028E+01  1.53805E+01  1.39640E+01
   1.37848E+01  1.75146E+01  2.31050E+01  1.75697E+01  2.03646E+01  1.46309E+01  1.83297E+01  1.53042E+01  1.52958E+01  8.21088E+00
   1.62723E+01  1.42917E+01  2.16631E+01  1.92024E+01  2.15766E+01  1.02149E+01  1.98473E+01  1.43319E+01  1.65903E+01  3.31853E+00
   9.34164E+00  7.47794E+00  1.73123E+01  1.87934E+01  2.08151E+01  1.14145E+01  9.58676E+00  1.90331E+01  1.54038E+01  2.41980E+01
   1.33559E+01  1.80236E+01  2.35816E+01  2.39257E+01  1.14116E+01  1.94756E+01  2.06552E+01  9.95178E+00  1.10118E+01  1.42519E+01
   1.31268E+01  1.52636E+01  1.37033E+01  5.50891E+00  1.45634E+01  1.21074E+00  1.03608E+01  2.68901E+00  2.52520E+00  1.41194E+01
   1.16000E+01  1.03714E+01  1.00220E+01  1.06713E+01  1.88459E+01  1.62383E+01  1.69049E+01  1.21684E+01  3.77128E+00  7.48062E+00
   6.57827E+00  1.29821E+01  8.82854E+00  7.05966E+00  1.37160E+01  1.05778E+01  1.50488E+01  9.68125E+00  7.65937E+00  6.23637E+00
   1.47614E+01  1.47001E+01  1.20481E+01  8.66923E+00  1.75352E+01  1.47370E+01  1.27939E+01  1.76047E+01  1.18459E+01  1.28342E+01
   1.94957E+01  8.43439E+00  1.57110E+01  9.83499E+00  1.92864E+01  1.21038E+01  2.03381E+01  1.58928E+00  1.06389E+01  3.70211E+00
   1.77415E+01  1.18935E+01  1.34762E+01  7.45856E-01  4.90307E+00  6.60703E+00  1.34031E+00  1.00658E+01  1.05256E+01  7.88034E+00
   5.04555E+00  2.47122E+00 -2.01373E+00  6.25608E+00 -1.67094E-01  2.81724E+00  1.40243E+00  5.26153E-01 -6.15761E+00  4.48404E+00
   2.84806E-01  1.05057E+01 -3.39768E+00  2.19357E+00  1.27696E+00  3.61993E+00 -3.45061E+00  2.79611E+00  3.65763E+00  2.62246E+00
   7.67882E+00  1.55168E+00 -2.72884E+00 -2.63935E+00  5.54517E+00  2.39426E+00  6.48488E+00  2.72659E+00  1.11580E+00  1.34427E+01
  -4.61914E+00  4.05812E+00  1.16781E+00 -1.30105E+00 -1.71786E+00 -2.80696E+00  3.33570E+00  5.63528E+00 -2.24541E+00 -1.84599E+00
   1.68708E-01 -2.14447E+00 -1.85402E+00 -1.51667E+00  7.53023E+00  7.88153E+00  3.72128E+00  6.47820E+00 -4.97809E+00  1.69391E+01
   3.03173E+00  5.56609E+00  6.13487E+00 -1.65594E+00  6.37385E+00  1.70166E+00 -2.70015E+00  8.13687E+00  1.71754E+00 -1.09451E+00
  -2.14196E+00  8.86358E+00 -2.31208E+00  1.04583E+00  6.79974E+00  3.80218E+00  2.52958E+00  1.74024E+00
 NY points of the fit to the data follow
   2.38887E+01  2.30376E+01  2.28500E+01  2.34700E+01  2.49971E+01  2.75870E+01  3.11507E+01  3.52642E+01  3.92045E+01  4.21714E+01
   4.36514E+01  4.34035E+01  4.14893E+01  3.84505E+01  3.50538E+01  3.20371E+01  2.96447E+01  2.77302E+01  2.58842E+01  2.47602E+01
   2.41781E+01  2.35608E+01  2.28265E+01  2.21232E+01  2.17660E+01  2.21422E+01  2.37032E+01  2.65439E+01  3.03498E+01  3.43818E+01
   3.78245E+01  3.98497E+01  3.98866E+01  3.78917E+01  3.44522E+01  3.04117E+01  2.66070E+01  2.33435E+01  2.08977E+01  1.97993E+01
   2.00742E+01  2.15019E+01  2.39449E+01  2.72079E+01  3.08854E+01  3.41683E+01  3.63662E+01  3.70058E+01  3.58315E+01  3.30113E+01
   2.91073E+01  2.49597E+01  2.14600E+01  1.89845E+01  1.74899E+01  1.69342E+01  1.73362E+01  1.84288E+01  1.96037E+01  2.03462E+01
   2.03971E+01  1.97040E+01  1.84207E+01  1.68572E+01  1.54335E+01  1.45070E+01  1.41803E+01  1.43541E+01  1.49279E+01  1.57115E+01
   1.64561E+01  1.69854E+01  1.71787E+01  1.70226E+01  1.65767E+01  1.59467E+01  1.52964E+01  1.47340E+01  1.43342E+01  1.42189E+01
   1.46237E+01  1.56588E+01  1.72687E+01  1.91846E+01  2.09248E+01  2.19603E+01  2.19823E+01  2.09583E+01  1.90895E+01  1.68445E+01
   1.48199E+01  1.34332E+01  1.27330E+01  1.24398E+01  1.23424E+01  1.30827E+01  1.63722E+01  2.29957E+01  3.35405E+01  4.78635E+01
   6.41230E+01  7.90749E+01  8.94302E+01  9.30191E+01  8.90212E+01  7.84374E+01  6.40412E+01  4.92388E+01  3.65307E+01  2.65537E+01
   1.85943E+01  1.25486E+01  9.73466E+00  8.98460E+00  8.76073E+00  8.70406E+00  8.72247E+00  8.81323E+00  9.04127E+00  9.59580E+00
   1.12753E+01  1.55882E+01  2.32812E+01  3.47644E+01  4.93246E+01  6.47222E+01  7.78314E+01  8.59799E+01  8.76306E+01  8.24415E+01
   7.17316E+01  5.82055E+01  4.47635E+01  3.31837E+01  2.36255E+01  1.55339E+01  9.62678E+00  7.24985E+00  6.75389E+00  7.05146E+00
   7.67649E+00  8.25686E+00  8.60751E+00  8.68262E+00  8.43299E+00  7.91967E+00  7.27845E+00  6.58233E+00  5.88958E+00  5.25292E+00
   4.68097E+00  4.22984E+00  3.88184E+00  3.60925E+00  3.32137E+00  2.93719E+00  2.38199E+00  1.64795E+00  8.75517E-01  2.17522E-01
  -1.72136E-01 -2.33652E-01 -3.86373E-02  2.18485E-01  2.98991E-01  2.14843E-02 -6.75677E-01 -1.68201E+00 -2.75917E+00 -3.79859E+00
  -4.90028E+00 -6.02717E+00 -7.12459E+00 -8.03234E+00 -8.55113E+00 -8.73318E+00 -8.67325E+00 -8.44348E+00 -8.13425E+00 -7.87362E+00
  -7.81111E+00 -7.94983E+00 -8.12546E+00 -8.09382E+00 -7.65884E+00 -6.77686E+00 -5.35059E+00 -3.28538E+00 -7.77457E-01  1.74200E+00
   3.70376E+00  4.75478E+00  4.88398E+00  4.27361E+00  3.23983E+00  2.12117E+00  1.24804E+00  1.10681E+00  1.94084E+00  3.69748E+00
   6.12581E+00  8.71963E+00  1.07745E+01  1.15183E+01  1.06253E+01  8.11917E+00  4.36819E+00 -2.16413E-02 -4.04358E+00 -6.63119E+00
  -7.04224E+00 -5.09175E+00 -1.06922E+00  4.17386E+00  9.33072E+00  1.30868E+01  1.44786E+01  1.31349E+01  9.35166E+00  3.94113E+00
  -1.38226E+00 -5.12622E+00 -6.67157E+00 -5.87988E+00 -3.10953E+00  1.02804E+00  5.52779E+00  9.17281E+00  1.14774E+01  1.25589E+01
   1.28960E+01  1.28278E+01  1.26038E+01  1.27453E+01  1.36522E+01  1.50918E+01  1.65705E+01  1.76809E+01  1.81260E+01  1.78076E+01
   1.68121E+01  1.55206E+01  1.45674E+01  1.43893E+01  1.50016E+01  1.61607E+01  1.76975E+01  1.93192E+01  2.07225E+01  2.18671E+01
   2.29301E+01  2.40518E+01  2.56261E+01  3.01008E+01  4.00190E+01  5.66537E+01  8.03738E+01  1.08864E+02  1.36956E+02  1.58514E+02
   1.69024E+02  1.66183E+02  1.50468E+02  1.25873E+02  9.85605E+01  7.38928E+01  5.40497E+01  3.79601E+01  2.44723E+01  1.63000E+01
   1.33175E+01  1.18153E+01  1.08649E+01  1.02708E+01  9.88660E+00  9.51063E+00  9.07875E+00  8.55704E+00  7.94809E+00  7.29792E+00
   6.66750E+00  6.08352E+00  5.57810E+00  5.19018E+00  4.92400E+00  4.75443E+00  4.65950E+00  4.62268E+00  4.63907E+00  4.70490E+00
   4.81078E+00  4.96087E+00  5.16119E+00  5.41023E+00  5.70718E+00  6.04901E+00  6.43041E+00  6.84177E+00  7.27385E+00  7.71790E+00
   8.16424E+00  8.60081E+00  9.01816E+00  9.40572E+00  9.75588E+00  1.00615E+01  1.03187E+01  1.05254E+01  1.06835E+01  1.07967E+01
   1.08716E+01  1.09151E+01  1.09371E+01  1.09480E+01  1.09590E+01  1.09805E+01  1.10231E+01  1.10950E+01  1.12037E+01  1.13538E+01
   1.15487E+01  1.17883E+01  1.20712E+01  1.23924E+01  1.27462E+01  1.31242E+01  1.35181E+01  1.39177E+01  1.43138E+01  1.46963E+01
   1.50573E+01  1.53893E+01  1.56880E+01  1.59499E+01  1.61754E+01  1.63672E+01  1.65328E+01  1.66845E+01  1.68444E+01  1.70553E+01
   1.73958E+01  1.78712E+01  1.84171E+01  1.89147E+01  1.91633E+01  1.89491E+01  1.81477E+01  1.67866E+01  1.50976E+01  1.34194E+01
   1.21561E+01  1.16506E+01  1.20092E+01  1.30455E+01  1.44159E+01  1.58323E+01  1.71111E+01  1.79542E+01  1.81984E+01  1.79821E+01
   1.75111E+01  1.69271E+01  1.62476E+01  1.54658E+01  1.47476E+01  1.41290E+01  1.35475E+01  1.29786E+01  1.24165E+01  1.18610E+01
   1.13159E+01  1.07858E+01  1.02768E+01  9.79442E+00  9.34479E+00  8.93303E+00  8.56480E+00  8.24433E+00  7.97622E+00  7.76361E+00
   7.61007E+00  7.51785E+00  7.48961E+00  7.52663E+00  7.63045E+00  7.80121E+00  8.03925E+00  8.34332E+00  8.71214E+00  9.14238E+00
   9.63035E+00  1.01701E+01  1.07552E+01  1.13767E+01  1.20250E+01  1.26881E+01  1.33534E+01  1.40066E+01  1.46335E+01  1.52189E+01
   1.57483E+01  1.62076E+01  1.65846E+01  1.68680E+01  1.70501E+01  1.71246E+01  1.70893E+01  1.69438E+01  1.66918E+01  1.63390E+01
   1.58944E+01  1.53681E+01  1.47728E+01  1.41213E+01  1.34276E+01  1.27051E+01  1.19673E+01  1.12260E+01  1.04924E+01  9.77554E+00
   9.08372E+00  8.42276E+00  7.79765E+00  7.21106E+00  6.66510E+00  6.15999E+00  5.69579E+00  5.27099E+00  4.88424E+00  4.53301E+00
   4.21525E+00  3.92809E+00  3.66940E+00  3.43629E+00  3.22669E+00  3.03793E+00  2.86825E+00  2.71540E+00  2.57800E+00  2.45411E+00
   2.34264E+00  2.24193E+00  2.15124E+00  2.06926E+00  1.99547E+00  1.92870E+00  1.86858E+00  1.81413E+00  1.76520E+00  1.72097E+00
   1.68138E+00  1.64565E+00  1.61376E+00  1.58508E+00  1.55972E+00  1.53711E+00  1.51735E+00  1.49986E+00  1.48478E+00  1.47163E+00
   1.46064E+00  1.45134E+00  1.44391E+00  1.43787E+00  1.43345E+00  1.43028E+00  1.42859E+00  1.42798E+00  1.42865E+00  1.43020E+00
   1.43291E+00  1.43644E+00  1.44105E+00  1.44636E+00  1.45260E+00  1.45941E+00  1.46711E+00  1.47535E+00  1.48440E+00  1.49389E+00
   1.50407E+00  1.51462E+00  1.52586E+00  1.53745E+00  1.54966E+00  1.56214E+00  1.57514E+00  1.58839E+00  1.60219E+00  1.61621E+00
   1.63071E+00  1.64533E+00  1.66039E+00  1.67559E+00  1.69124E+00  1.70701E+00  1.72315E+00  1.73934E+00
 NY background values follow
     1.560E+01    1.550E+01    1.539E+01    1.529E+01    1.518E+01    1.508E+01    1.498E+01    1.487E+01    1.477E+01    1.466E+01
     1.456E+01    1.445E+01    1.435E+01    1.424E+01    1.414E+01    1.403E+01    1.393E+01    1.382E+01    1.372E+01    1.361E+01
     1.351E+01    1.340E+01    1.330E+01    1.320E+01    1.309E+01    1.299E+01    1.288E+01    1.278E+01    1.267E+01    1.257E+01
     1.246E+01    1.236E+01    1.226E+01    1.215E+01    1.205E+01    1.194E+01    1.184E+01    1.173E+01    1.163E+01    1.153E+01
     1.142E+01    1.132E+01    1.122E+01    1.111E+01    1.101E+01    1.090E+01    1.080E+01    1.070E+01    1.059E+01    1.049E+01
     1.039E+01    1.028E+01    1.018E+01    1.008E+01    9.974E+00    9.871E+00    9.768E+00    9.665E+00    9.563E+00    9.460E+00
     9.358E+00    9.255E+00    9.153E+00    9.051E+00    8.949E+00    8.847E+00    8.746E+00    8.644E+00    8.543E+00    8.442E+00
     8.341E+00    8.240E+00    8.139E+00    8.038E+00    7.938E+00    7.838E+00    7.738E+00    7.638E+00    7.538E+00    7.438E+00
     7.339E+00    7.240E+00    7.141E+00    7.042E+00    6.944E+00    6.845E+00    6.747E+00    6.649E+00    6.552E+00    6.454E+00
     6.357E+00    6.260E+00    6.163E+00    6.067E+00    5.970E+00    5.874E+00    5.779E+00    5.683E+00    5.588E+00    5.493E+00
     5.398E+00    5.304E+00    5.210E+00    5.116E+00    5.022E+00    4.929E+00    4.836E+00    4.744E+00    4.651E+00    4.559E+00
     4.468E+00    4.376E+00    4.286E+00    4.195E+00    4.105E+00    4.015E+00    3.925E+00    3.836E+00    3.747E+00    3.659E+00
     3.571E+00    3.483E+00    3.396E+00    3.309E+00    3.223E+00    3.137E+00    3.051E+00    2.966E+00    2.881E+00    2.797E+00
     2.713E+00    2.629E+00    2.546E+00    2.464E+00    2.382E+00    2.300E+00    2.219E+00    2.138E+00    2.058E+00    1.978E+00
     1.899E+00    1.820E+00    1.742E+00    1.664E+00    1.587E+00    1.510E+00    1.434E+00    1.358E+00    1.283E+00    1.209E+00
     1.135E+00    1.062E+00    9.889E-01    9.168E-01    8.454E-01    7.745E-01    7.043E-01    6.346E-01    5.657E-01    4.974E-01
     4.297E-01    3.627E-01    2.964E-01    2.308E-01    1.659E-01    1.016E-01    3.807E-02   -2.475E-02   -8.684E-02   -1.482E-01
    -2.088E-01   -2.687E-01   -3.278E-01   -3.862E-01   -4.438E-01   -5.006E-01   -5.566E-01   -6.118E-01   -6.663E-01   -7.199E-01
    -7.727E-01   -8.246E-01   -8.758E-01   -9.261E-01   -9.756E-01   -1.024E+00   -1.072E+00   -1.119E+00   -1.166E+00   -1.211E+00
    -1.256E+00   -1.300E+00   -1.343E+00   -1.386E+00   -1.428E+00   -1.469E+00   -1.509E+00   -1.549E+00   -1.588E+00   -1.627E+00
    -1.664E+00   -1.701E+00   -1.738E+00   -1.774E+00   -1.809E+00   -1.843E+00   -1.877E+00   -1.910E+00   -1.943E+00   -1.975E+00
    -2.007E+00   -2.038E+00   -2.068E+00   -2.098E+00   -2.128E+00   -2.156E+00   -2.185E+00   -2.212E+00   -2.240E+00   -2.267E+00
    -2.293E+00   -2.319E+00   -2.344E+00   -2.369E+00   -2.393E+00   -2.417E+00   -2.441E+00   -2.464E+00   -2.487E+00   -2.509E+00
    -2.531E+00   -2.553E+00   -2.574E+00   -2.595E+00   -2.615E+00   -2.635E+00   -2.654E+00   -2.673E+00   -2.692E+00   -2.710E+00
    -2.728E+00   -2.746E+00   -2.763E+00   -2.779E+00   -2.796E+00   -2.812E+00   -2.827E+00   -2.842E+00   -2.857E+00   -2.871E+00
    -2.885E+00   -2.899E+00   -2.912E+00   -2.925E+00   -2.937E+00   -2.950E+00   -2.961E+00   -2.973E+00   -2.984E+00   -2.994E+00
    -3.005E+00   -3.014E+00   -3.024E+00   -3.033E+00   -3.042E+00   -3.051E+00   -3.059E+00   -3.066E+00   -3.074E+00   -3.081E+00
    -3.088E+00   -3.094E+00   -3.100E+00   -3.106E+00   -3.111E+00   -3.116E+00   -3.121E+00   -3.125E+00   -3.129E+00   -3.133E+00
    -3.136E+00   -3.139E+00   -3.142E+00   -3.145E+00   -3.147E+00   -3.148E+00   -3.150E+00   -3.151E+00   -3.152E+00   -3.153E+00
    -3.153E+00   -3.153E+00   -3.152E+00   -3.152E+00   -3.151E+00   -3.150E+00   -3.148E+00   -3.146E+00   -3.144E+00   -3.142E+00
    -3.139E+00   -3.136E+00   -3.133E+00   -3.130E+00   -3.126E+00   -3.122E+00   -3.118E+00   -3.113E+00   -3.109E+00   -3.104E+00
    -3.098E+00   -3.093E+00   -3.087E+00   -3.081E+00   -3.075E+00   -3.068E+00   -3.062E+00   -3.055E+00   -3.047E+00   -3.040E+00
    -3.032E+00   -3.024E+00   -3.016E+00   -3.008E+00   -2.999E+00   -2.991E+00   -2.981E+00   -2.972E+00   -2.963E+00   -2.953E+00
    -2.943E+00   -2.933E+00   -2.923E+00   -2.912E+00   -2.901E+00   -2.890E+00   -2.879E+00   -2.868E+00   -2.856E+00   -2.845E+00
    -2.833E+00   -2.821E+00   -2.808E+00   -2.796E+00   -2.783E+00   -2.770E+00   -2.757E+00   -2.744E+00   -2.730E+00   -2.717E+00
    -2.703E+00   -2.689E+00   -2.675E+00   -2.660E+00   -2.646E+00   -2.631E+00   -2.616E+00   -2.601E+00   -2.586E+00   -2.571E+00
    -2.555E+00   -2.540E+00   -2.524E+00   -2.508E+00   -2.492E+00   -2.475E+00   -2.459E+00   -2.442E+00   -2.425E+00   -2.409E+00
    -2.391E+00   -2.374E+00   -2.357E+00   -2.339E+00   -2.322E+00   -2.304E+00   -2.286E+00   -2.268E+00   -2.249E+00   -2.231E+00
    -2.212E+00   -2.194E+00   -2.175E+00   -2.156E+00   -2.136E+00   -2.117E+00   -2.098E+00   -2.078E+00   -2.058E+00   -2.038E+00
    -2.018E+00   -1.998E+00   -1.977E+00   -1.957E+00   -1.936E+00   -1.915E+00   -1.894E+00   -1.873E+00   -1.852E+00   -1.831E+00
    -1.809E+00   -1.787E+00   -1.765E+00   -1.743E+00   -1.721E+00   -1.699E+00   -1.677E+00   -1.654E+00   -1.631E+00   -1.608E+00
    -1.585E+00   -1.562E+00   -1.539E+00   -1.516E+00   -1.492E+00   -1.468E+00   -1.445E+00   -1.421E+00   -1.397E+00   -1.373E+00
    -1.348E+00   -1.324E+00   -1.299E+00   -1.275E+00   -1.250E+00   -1.225E+00   -1.200E+00   -1.175E+00   -1.150E+00   -1.125E+00
    -1.099E+00   -1.074E+00   -1.048E+00   -1.023E+00   -9.970E-01   -9.711E-01   -9.452E-01   -9.192E-01   -8.931E-01   -8.669E-01
    -8.406E-01   -8.143E-01   -7.879E-01   -7.614E-01   -7.348E-01   -7.082E-01   -6.814E-01   -6.547E-01   -6.278E-01   -6.009E-01
    -5.739E-01   -5.469E-01   -5.198E-01   -4.926E-01   -4.654E-01   -4.382E-01   -4.108E-01   -3.835E-01   -3.561E-01   -3.286E-01
    -3.011E-01   -2.736E-01   -2.460E-01   -2.183E-01   -1.906E-01   -1.629E-01   -1.352E-01   -1.074E-01   -7.958E-02   -5.173E-02
    -2.385E-02    4.059E-03    3.200E-02    5.996E-02    8.794E-02    1.160E-01    1.440E-01    1.720E-01    2.001E-01    2.282E-01
     2.563E-01    2.844E-01    3.125E-01    3.406E-01    3.688E-01    3.969E-01    4.251E-01    4.532E-01    4.814E-01    5.096E-01
     5.377E-01    5.659E-01    5.940E-01    6.222E-01    6.503E-01    6.784E-01    7.065E-01    7.347E-01
 PCr      Conc. = 2.47E+03
