 LCModel (Version 6.3-1L) Copyright: S.W. Provencher.          Ref.: Magn. Reson. Med. 30:672-679 (1993).                
 Slice#2 Row#3 Col#6  PD_05_press_2_raw_act
 36 lines in following concentration table = NCONC+1
    Conc.  %SD /Cr+PCr  Metabolite                                         
   24.726 999% 1.0E-02 Ala                                                 
  179.113 308% 7.5E-02 Asp                                                 
    0.000 999%   0.000 Cr                                                  
 2.40E+03  10%   1.000 PCr                                                 
  250.780 139%   0.105 GABA                                                
  125.603 272% 5.2E-02 Glc                                                 
 1.94E+03  71%   0.811 Gln                                                 
 2.31E+03  67%   0.963 Glu                                                 
 1.06E+03   9%   0.440 GPC                                                 
    0.000 999%   0.000 PCh                                                 
  652.568  53%   0.272 GSH                                                 
 1.04E+03 101%   0.434 Ins                                                 
    0.000 999%   0.000 Lac                                                 
 2.94E+03  17%   1.226 NAA                                                 
 1.08E+03  51%   0.452 NAAG                                                
  217.883  42% 9.1E-02 Scyllo                                              
  459.804 114%   0.192 Tau                                                 
 1.50E+03  26%   0.625 -CrCH2                                              
 1.06E+03   9%   0.440 GPC+PCh                                             
 4.03E+03   8%   1.678 NAA+NAAG                                            
 2.40E+03  10%   1.000 Cr+PCr                                              
 4.25E+03  57%   1.774 Glu+Gln                                             
 3.76E+03  80%   1.567 Lip13a                                              
 1.47E+03 138%   0.613 Lip13b                                              
  863.911  88%   0.360 Lip09                                               
 3.31E+03  26%   1.379 MM09                                                
  809.696  64%   0.338 Lip20                                               
 6.91E+03  19%   2.882 MM20                                                
 1.13E+03  50%   0.472 MM12                                                
 4.16E+03  28%   1.733 MM14                                                
 1.60E+03  46%   0.667 MM17                                                
 5.23E+03  30%   2.180 Lip13a+Lip13b                                       
 1.05E+04  11%   4.386 MM14+Lip13a+Lip13b+MM12                             
 4.17E+03  14%   1.739 MM09+Lip09                                          
 7.72E+03  16%   3.219 MM20+Lip20                                          
   6 lines in following misc. output table
  FWHM = 0.069 ppm    S/N =   4                                            
  Data shift = 0.038 ppm                                                   
  Ph: -32 deg      -5.0 deg/ppm                                            
  alphaB,S = 8.5E+01,   2.2E+02                                            
   14 spline knots.   Ns = 9(1)                                            
   3 inflections.     1 extrema                                            
  498 points on ppm-axis = NY
      4.000000     3.992357     3.984714     3.977070     3.969427     3.961784     3.954141     3.946497     3.938854     3.931211
      3.923568     3.915925     3.908281     3.900638     3.892995     3.885352     3.877708     3.870065     3.862422     3.854779
      3.847136     3.839492     3.831849     3.824206     3.816563     3.808919     3.801276     3.793633     3.785990     3.778347
      3.770703     3.763060     3.755417     3.747774     3.740130     3.732487     3.724844     3.717201     3.709558     3.701914
      3.694271     3.686628     3.678985     3.671341     3.663698     3.656055     3.648412     3.640769     3.633125     3.625482
      3.617839     3.610196     3.602552     3.594909     3.587266     3.579623     3.571980     3.564336     3.556693     3.549050
      3.541407     3.533763     3.526120     3.518477     3.510834     3.503191     3.495547     3.487904     3.480261     3.472618
      3.464974     3.457331     3.449688     3.442045     3.434402     3.426758     3.419115     3.411472     3.403829     3.396185
      3.388542     3.380899     3.373256     3.365613     3.357969     3.350326     3.342683     3.335040     3.327396     3.319753
      3.312110     3.304467     3.296824     3.289180     3.281537     3.273894     3.266251     3.258607     3.250964     3.243321
      3.235678     3.228034     3.220391     3.212748     3.205105     3.197462     3.189818     3.182175     3.174532     3.166889
      3.159245     3.151602     3.143959     3.136316     3.128673     3.121029     3.113386     3.105743     3.098100     3.090456
      3.082813     3.075170     3.067527     3.059884     3.052240     3.044597     3.036954     3.029311     3.021667     3.014024
      3.006381     2.998738     2.991095     2.983451     2.975808     2.968165     2.960522     2.952878     2.945235     2.937592
      2.929949     2.922306     2.914662     2.907019     2.899376     2.891733     2.884089     2.876446     2.868803     2.861160
      2.853517     2.845873     2.838230     2.830587     2.822944     2.815300     2.807657     2.800014     2.792371     2.784728
      2.777084     2.769441     2.761798     2.754155     2.746511     2.738868     2.731225     2.723582     2.715939     2.708295
      2.700652     2.693009     2.685366     2.677722     2.670079     2.662436     2.654793     2.647150     2.639506     2.631863
      2.624220     2.616577     2.608933     2.601290     2.593647     2.586004     2.578361     2.570717     2.563074     2.555431
      2.547788     2.540144     2.532501     2.524858     2.517215     2.509572     2.501928     2.494285     2.486642     2.478999
      2.471355     2.463712     2.456069     2.448426     2.440783     2.433139     2.425496     2.417853     2.410210     2.402566
      2.394923     2.387280     2.379637     2.371994     2.364350     2.356707     2.349064     2.341421     2.333777     2.326134
      2.318491     2.310848     2.303205     2.295561     2.287918     2.280275     2.272632     2.264988     2.257345     2.249702
      2.242059     2.234416     2.226772     2.219129     2.211486     2.203843     2.196199     2.188556     2.180913     2.173270
      2.165627     2.157983     2.150340     2.142697     2.135054     2.127410     2.119767     2.112124     2.104481     2.096838
      2.089194     2.081551     2.073908     2.066265     2.058621     2.050978     2.043335     2.035692     2.028049     2.020405
      2.012762     2.005119     1.997476     1.989833     1.982190     1.974546     1.966903     1.959260     1.951617     1.943974
      1.936331     1.928688     1.921045     1.913402     1.905759     1.898115     1.890472     1.882829     1.875186     1.867543
      1.859900     1.852257     1.844614     1.836971     1.829327     1.821684     1.814041     1.806398     1.798755     1.791112
      1.783469     1.775826     1.768183     1.760540     1.752896     1.745253     1.737610     1.729967     1.722324     1.714681
      1.707038     1.699395     1.691752     1.684108     1.676465     1.668822     1.661179     1.653536     1.645893     1.638250
      1.630607     1.622964     1.615321     1.607677     1.600034     1.592391     1.584748     1.577105     1.569462     1.561819
      1.554176     1.546533     1.538890     1.531246     1.523603     1.515960     1.508317     1.500674     1.493031     1.485388
      1.477745     1.470102     1.462458     1.454815     1.447172     1.439529     1.431886     1.424243     1.416600     1.408957
      1.401314     1.393671     1.386027     1.378384     1.370741     1.363098     1.355455     1.347812     1.340169     1.332526
      1.324883     1.317240     1.309596     1.301953     1.294310     1.286667     1.279024     1.271381     1.263738     1.256095
      1.248452     1.240808     1.233165     1.225522     1.217879     1.210236     1.202593     1.194950     1.187307     1.179664
      1.172021     1.164377     1.156734     1.149091     1.141448     1.133805     1.126162     1.118519     1.110876     1.103233
      1.095590     1.087946     1.080303     1.072660     1.065017     1.057374     1.049731     1.042088     1.034445     1.026802
      1.019158     1.011515     1.003872     0.996229     0.988586     0.980943     0.973300     0.965657     0.958014     0.950371
      0.942727     0.935084     0.927441     0.919798     0.912155     0.904512     0.896869     0.889226     0.881583     0.873940
      0.866296     0.858653     0.851010     0.843367     0.835724     0.828081     0.820438     0.812795     0.805152     0.797508
      0.789865     0.782222     0.774579     0.766936     0.759293     0.751650     0.744007     0.736364     0.728721     0.721077
      0.713434     0.705791     0.698148     0.690505     0.682862     0.675219     0.667576     0.659933     0.652290     0.644646
      0.637003     0.629360     0.621717     0.614074     0.606431     0.598788     0.591145     0.583502     0.575858     0.568215
      0.560572     0.552929     0.545286     0.537643     0.530000     0.522357     0.514714     0.507071     0.499427     0.491784
      0.484141     0.476498     0.468855     0.461212     0.453569     0.445925     0.438282     0.430639     0.422996     0.415353
      0.407710     0.400067     0.392424     0.384780     0.377137     0.369494     0.361851     0.354208     0.346565     0.338922
      0.331278     0.323635     0.315992     0.308349     0.300706     0.293063     0.285420     0.277777     0.270133     0.262490
      0.254847     0.247204     0.239561     0.231918     0.224275     0.216631     0.208988     0.201345
 NY phased data points follow
  -2.58065E+01 -3.33164E+01 -2.04677E+01 -1.07494E+01 -2.04900E+01  1.74379E+01  7.97403E+00  1.09655E+01  2.19752E+01  1.72433E+01
   1.17009E+01  1.31708E+01  2.46971E+01  5.71453E+00 -5.22099E+00 -2.26732E+00 -1.12519E+01  5.04011E+00 -8.64173E+00 -1.59240E+01
   1.32902E+00 -1.31518E+00  1.10517E+01  1.31000E+01  3.00683E+01  1.78544E+01 -1.75191E+01 -1.31336E+01  9.76218E+00 -1.50829E+00
   2.54960E+01  1.81364E+01 -3.46382E+00  1.29784E-02  2.51142E+01  9.54252E-02 -1.42305E+01  1.31365E+00 -2.44758E+01  2.31182E+01
   1.82410E+01  5.25599E+00  7.13408E+00  1.82904E+01  2.18982E+01 -2.65216E+00  2.33003E+01  2.29720E+01  2.65150E+01  1.96097E+01
  -1.26455E+01  1.35473E+01  4.54365E+00 -1.05706E+01  5.14106E+00  3.35292E+00  2.67566E+00  2.22773E+01  2.46335E+01 -5.33704E+00
   1.33297E+01 -2.08246E+01 -4.15548E+00 -2.62687E+01 -1.93386E+01 -5.54706E+00 -7.64236E+00 -1.05067E+01 -3.90057E+00  6.18437E-01
  -1.37292E+01 -2.44472E+00  6.23941E+00 -2.16911E+01 -7.15356E+00  1.48384E+00 -8.55270E+00  2.29880E+00 -6.73433E+00 -1.57810E+01
  -2.61296E+00 -3.06861E-01  6.72662E+00  5.54208E+00  9.99546E+00 -3.05537E-01 -8.10395E-01  2.40090E+01  4.78160E+00  1.05678E+01
   8.42927E-01  1.56936E+01  1.67490E+01  2.47553E+01  1.90912E+01  3.98965E+01  3.80322E+01  2.64133E+01  1.99520E+01  2.04432E+01
   4.86385E+01  7.66678E+01  9.16513E+01  7.65906E+01  9.18628E+01  5.73174E+01  4.83216E+01  4.74112E+01  2.03934E+00  3.54350E+01
   6.68343E+00  2.52974E+01  1.39344E+01  2.01041E+01  1.40812E+01  2.09401E+01  1.74817E+01  1.99081E+01 -2.97358E+00  3.38646E+01
   2.57707E+01  2.15875E+01  2.65436E+01  1.75651E+01  3.99004E+01  5.34279E+01  9.63455E+01  6.82677E+01  7.81419E+01  4.80792E+01
   5.53046E+01  3.19380E+01  2.47433E+01  3.10834E+01  1.68644E+00  9.13388E+00  1.81937E+01  2.67038E+01 -8.48602E+00  2.68688E+01
   8.50848E+00  9.75470E+00  4.08872E+00 -1.03004E+00 -1.15919E+01 -1.48447E+01  1.85341E+01 -5.60881E+00 -5.54997E+00 -4.16008E+00
  -1.39720E+01  2.32761E+01  5.96374E+00 -7.70444E+00 -2.57626E+01  4.07440E+00 -2.29659E+01  6.48612E+00 -4.60082E-01  2.50050E+01
  -1.00125E+01  4.40087E+00  2.89377E+00  1.22753E+01 -2.02414E+01 -3.66344E+00  4.62960E+00  2.44704E+01 -1.22341E+00  3.38751E-01
  -1.48733E+01 -2.07663E+01 -2.56939E+01 -2.84700E+01  1.09479E+00 -1.28598E+01 -3.32995E+01 -2.74335E+01  2.18305E+01 -8.03511E+00
  -3.32082E+01 -7.46662E+00 -3.87570E+00 -1.08622E+01  4.58533E+00 -2.20894E+01  9.26577E+00 -1.20148E+01 -1.69686E+01 -1.79504E+01
   9.64699E+00 -7.69797E-01 -1.55501E+01  1.01586E+01  1.53801E+00  2.43096E+01 -2.12281E+00  5.41767E+00 -2.77228E+01 -1.02093E+01
  -1.86164E+01  7.61852E-01  4.50675E+00 -1.97833E-01 -6.27525E+00  9.57200E+00  7.10473E+00 -1.80999E+00 -3.80851E-01  5.66976E+00
  -1.65048E+00  9.73127E+00  6.34075E+00  1.25971E+00 -1.00374E+01  3.16585E+01  3.11689E+01  2.82609E+01  3.37331E+01  1.51861E+01
   2.44535E+00  1.21395E+01  9.83841E+00 -2.90095E+00  6.24620E+00 -2.58411E+00  1.79467E+01  2.81056E+01  1.73193E+01 -3.61315E+00
   2.03890E+01  2.49527E+01  4.35996E+00 -9.72412E+00  1.51104E+01  3.05333E+01  7.23121E+00  3.93853E+01  1.65682E+01  3.61479E+01
   6.40805E+00  9.57234E+00  1.74462E+01  4.58950E+01 -4.94407E+00  4.10912E+01  2.56998E+01  2.36656E+01  4.16321E+01  4.58381E+01
   3.97200E+01  7.42602E+01  8.38371E+01  7.17439E+01  1.00323E+02  8.99328E+01  6.95439E+01  7.83072E+01  1.31751E+02  1.21788E+02
   1.53124E+02  1.27599E+02  9.50760E+01  8.50374E+01  6.92720E+01  6.86198E+01  3.72374E+01  3.40206E+01  3.89826E+01  2.19921E+01
   2.40024E+01  1.48231E+01  1.02919E+01  3.53714E+01  2.59670E+01  3.73636E+01  2.86171E+01  6.35495E+00  1.00652E+01  2.00558E+01
  -1.42361E-01  1.99091E+00  9.12014E+00  3.27679E+01  1.11688E+01  1.56334E+01 -6.35147E+00  2.23331E+01  2.10853E+01  1.87989E+00
  -4.59324E+00  4.29990E+01  1.16652E+00  1.76356E+01  9.72165E+00  2.29743E+01  2.27926E+01  4.08944E+00 -8.92039E+00  1.88989E+01
  -1.97047E+00  3.37871E+00  1.39976E+01  1.51597E+01  3.96719E+01  2.70082E+01  1.21764E+01  2.57257E+01  1.44173E+01  9.76850E+00
   2.12633E+01  3.14747E+01  5.66344E+00  1.50033E+01  1.14384E+01  1.63182E+01  3.16185E+01  1.36271E+01  3.00313E+01  3.03416E+01
   2.68776E+01  1.32876E+01  2.66404E+01  6.02834E+01  3.22459E+01  3.35403E+01  3.13815E+01  3.60821E+01  3.37924E+01  1.57379E+01
   1.92291E+01  3.24597E+01  4.21715E+01  2.84744E+01  3.43928E+01  1.87402E+01  4.79339E+01  3.01088E+01  4.36211E+01  3.01312E+01
   1.28167E+01  1.87164E+01  1.14659E+01  1.14841E+01  2.81039E+01  3.61020E+01  4.79436E+01  4.40630E+01  5.00956E+01  5.64367E+01
   4.26314E+01  4.66199E+01  3.59219E+01  3.52146E+01  5.59202E+01  6.07117E+01  6.09887E+01  4.02737E+01  5.76538E+01  3.09546E+01
   3.73201E+01  4.15812E+01  2.43302E+01  5.00803E+01  4.68668E+01  1.52738E+01  3.36113E+01  4.66775E+01  3.31915E+01  4.73500E+01
   1.59072E+01  3.00007E+01  3.41559E+01  3.39968E+01  1.73206E+01  2.25327E+01  1.50234E+01  1.79776E+01  2.59353E+01  1.99552E+01
   2.77423E+01  1.35506E+01  6.26422E+00  1.43636E+01  1.46848E+01  1.61877E+01  1.04741E+01 -6.27098E+00  7.55149E-01  2.37907E+01
   1.77242E+01  4.00992E+01  1.90167E+01  2.32927E+01  1.15121E+01  1.70480E+01  2.88079E+01  2.87262E+01  1.94026E+01  2.87638E+01
   3.90613E+01  3.54810E+01  5.12297E+01  2.11716E+01  2.59761E+01  2.93808E+01  4.01605E+01  2.29390E+01  5.06746E+01  2.23272E+01
   3.09549E+01  3.08569E+01  3.71825E+01  2.74390E+01  3.52699E+01  2.00014E+01  2.60591E+01  2.64585E+01  2.84091E+01  1.96519E+01
   2.60102E+01  3.00781E+01  5.29210E+01  3.99109E+01  9.38626E+00  1.63115E+01  3.88336E+01  2.31123E+01  2.08869E+01  1.92196E+01
   2.48751E+01  1.98803E+01  1.36786E+01  4.86139E+01  1.23565E+01  1.02900E+01  1.61655E+01  1.28108E+01  1.90396E+01  1.75668E+01
   1.26781E+01  6.82622E+00  1.40786E+01  1.36011E+01  4.47923E-01  9.31061E+00  9.72561E+00  1.17443E+01  1.63210E+01  5.59957E+00
   1.32081E+01 -1.04579E+01  5.12071E+00  1.77735E+01  2.31981E+01  7.27405E+00  1.92139E+01  8.63689E+00 -1.20459E-01  4.05685E+01
   7.89197E+00  2.77857E+01  2.89169E-01 -1.49377E+00  7.98055E+00  6.13532E+00  6.23573E+00  1.33715E+01  6.71515E+00  9.02392E+00
   2.37468E+01 -6.66770E+00  5.42725E-01  1.08259E+01  7.91344E+00  3.78036E+00  2.04350E+01  4.48343E+00  1.34476E+00 -7.73513E+00
   3.03893E+01  2.36254E+01  1.38067E+01  1.53914E+01  2.16117E+01  1.39815E+00  2.77781E+01  8.76469E+00 -8.55409E+00  4.42647E+00
   1.61119E+01 -2.02018E+00  5.68822E+00 -6.58777E+00  8.82499E+00  2.21641E+00  3.57602E+00  1.05038E+01
 NY points of the fit to the data follow
  -3.44311E+00 -1.98817E+00 -2.46635E-01  1.56911E+00  3.51421E+00  5.75990E+00  8.41690E+00  1.12806E+01  1.37899E+01  1.53278E+01
   1.55679E+01  1.45914E+01  1.27761E+01  1.05833E+01  8.37158E+00  6.35085E+00  4.64306E+00  3.18658E+00  1.88281E+00  6.28216E-01
  -3.02583E-01 -5.06500E-01 -1.37998E-01  5.57596E-01  1.31856E+00  2.06347E+00  2.99636E+00  4.36144E+00  6.26373E+00  8.50493E+00
   1.06711E+01  1.22224E+01  1.26320E+01  1.17557E+01  9.84903E+00  7.30420E+00  4.68875E+00  2.62617E+00  1.46619E+00  1.15124E+00
   1.46019E+00  2.22649E+00  3.18158E+00  4.19086E+00  5.15978E+00  5.98384E+00  6.53948E+00  6.67565E+00  6.31250E+00  5.48302E+00
   4.36941E+00  3.16394E+00  1.99452E+00  9.75299E-01  1.47779E-01 -5.10172E-01 -9.82896E-01 -1.22448E+00 -1.26388E+00 -1.23796E+00
  -1.25283E+00 -1.38338E+00 -1.64184E+00 -1.93251E+00 -2.18429E+00 -2.36449E+00 -2.41075E+00 -2.28255E+00 -2.06199E+00 -1.83507E+00
  -1.62778E+00 -1.44341E+00 -1.26603E+00 -1.07501E+00 -9.17289E-01 -8.70691E-01 -9.41248E-01 -8.66160E-01 -4.52704E-01  5.62689E-02
   5.43051E-01  1.10514E+00  1.94079E+00  3.15439E+00  4.55202E+00  5.71677E+00  6.28457E+00  6.12907E+00  5.32786E+00  4.14021E+00
   2.88250E+00  1.76501E+00  1.14725E+00  2.52452E+00  7.76974E+00  1.49559E+01  2.20502E+01  2.89250E+01  3.67366E+01  4.65733E+01
   5.81278E+01  6.92259E+01  7.69214E+01  7.91014E+01  7.53638E+01  6.68553E+01  5.55071E+01  4.32482E+01  3.16672E+01  2.18755E+01
   1.42637E+01  8.58635E+00  4.46780E+00  1.97511E+00  1.14460E+00  1.04002E+00  1.34338E+00  2.77071E+00  6.99344E+00  1.29485E+01
   1.88639E+01  2.43990E+01  3.04331E+01  3.80405E+01  4.73142E+01  5.67765E+01  6.39731E+01  6.69311E+01  6.50656E+01  5.91181E+01
   5.05999E+01  4.10599E+01  3.17163E+01  2.34463E+01  1.65995E+01  1.11590E+01  7.00700E+00  4.29479E+00  3.25406E+00  3.16092E+00
   3.42487E+00  3.78141E+00  4.05048E+00  4.13720E+00  4.02983E+00  3.73777E+00  3.27237E+00  2.71852E+00  2.15737E+00  1.62811E+00
   1.15188E+00  6.76201E-01  1.20651E-01 -4.42082E-01 -8.98292E-01 -1.17742E+00 -1.29050E+00 -1.42151E+00 -1.72023E+00 -2.17389E+00
  -2.66580E+00 -3.08584E+00 -3.35921E+00 -3.49597E+00 -3.60156E+00 -3.79702E+00 -4.17583E+00 -4.76925E+00 -5.43670E+00 -5.95495E+00
  -6.26901E+00 -6.50080E+00 -6.85193E+00 -7.33782E+00 -7.81287E+00 -8.07627E+00 -8.08152E+00 -7.97153E+00 -7.89949E+00 -7.81822E+00
  -7.59022E+00 -7.13606E+00 -6.44607E+00 -5.56574E+00 -4.59459E+00 -3.60852E+00 -2.55876E+00 -1.43832E+00 -2.79916E-01  7.32819E-01
   1.46579E+00  1.85975E+00  1.90802E+00  1.68401E+00  1.32511E+00  1.05455E+00  1.12873E+00  1.70773E+00  2.77300E+00  4.19668E+00
   5.66071E+00  6.65100E+00  7.14732E+00  7.20169E+00  6.54112E+00  5.01960E+00  2.81384E+00  5.06255E-01 -1.40904E+00 -2.59920E+00
  -2.68701E+00 -1.46792E+00  9.19336E-01  3.89621E+00  6.76319E+00  9.07323E+00  1.05380E+01  1.08811E+01  1.00937E+01  8.48291E+00
   6.59483E+00  5.06182E+00  4.45518E+00  4.97591E+00  6.49968E+00  8.69575E+00  1.10637E+01  1.31008E+01  1.46111E+01  1.56496E+01
   1.63678E+01  1.69424E+01  1.75462E+01  1.81616E+01  1.87108E+01  1.94360E+01  2.04869E+01  2.17196E+01  2.28315E+01  2.35673E+01
   2.38171E+01  2.36954E+01  2.34830E+01  2.35160E+01  2.40849E+01  2.52911E+01  2.73006E+01  3.06547E+01  3.48998E+01  3.91966E+01
   4.37319E+01  5.08878E+01  6.14873E+01  7.30865E+01  8.37382E+01  9.30228E+01  1.01537E+02  1.09807E+02  1.17231E+02  1.21981E+02
   1.22084E+02  1.16678E+02  1.06432E+02  9.30069E+01  7.82821E+01  6.38698E+01  5.11136E+01  4.08725E+01  3.29812E+01  2.69043E+01
   2.23979E+01  1.97101E+01  1.83876E+01  1.75108E+01  1.67919E+01  1.61274E+01  1.54461E+01  1.47283E+01  1.40015E+01  1.32965E+01
   1.26504E+01  1.20930E+01  1.16414E+01  1.13047E+01  1.10784E+01  1.09454E+01  1.08839E+01  1.08787E+01  1.09258E+01  1.10321E+01
   1.12008E+01  1.14325E+01  1.17209E+01  1.20574E+01  1.24318E+01  1.28316E+01  1.32466E+01  1.36762E+01  1.41227E+01  1.45879E+01
   1.50709E+01  1.55638E+01  1.60554E+01  1.65370E+01  1.69979E+01  1.74271E+01  1.78188E+01  1.81722E+01  1.84903E+01  1.87778E+01
   1.90407E+01  1.92894E+01  1.95351E+01  1.97888E+01  2.00617E+01  2.03647E+01  2.07077E+01  2.11005E+01  2.15517E+01  2.20568E+01
   2.26055E+01  2.31959E+01  2.38277E+01  2.44956E+01  2.51853E+01  2.58753E+01  2.65522E+01  2.72106E+01  2.78402E+01  2.84334E+01
   2.89883E+01  2.95086E+01  2.99996E+01  3.04633E+01  3.08944E+01  3.12828E+01  3.16209E+01  3.19103E+01  3.21628E+01  3.23961E+01
   3.26364E+01  3.29189E+01  3.32835E+01  3.37716E+01  3.44237E+01  3.52769E+01  3.63626E+01  3.76960E+01  3.92657E+01  4.10310E+01
   4.29173E+01  4.48168E+01  4.65952E+01  4.81057E+01  4.92071E+01  4.97838E+01  4.97638E+01  4.91295E+01  4.79197E+01  4.62226E+01
   4.41602E+01  4.18699E+01  3.94851E+01  3.71199E+01  3.48603E+01  3.27610E+01  3.08483E+01  2.91260E+01  2.75834E+01  2.62022E+01
   2.49623E+01  2.38455E+01  2.28373E+01  2.19273E+01  2.11091E+01  2.03792E+01  1.97364E+01  1.91806E+01  1.87128E+01  1.83342E+01
   1.80465E+01  1.78513E+01  1.77505E+01  1.77459E+01  1.78396E+01  1.80336E+01  1.83300E+01  1.87307E+01  1.92371E+01  1.98499E+01
   2.05689E+01  2.13920E+01  2.23157E+01  2.33340E+01  2.44379E+01  2.56155E+01  2.68517E+01  2.81280E+01  2.94226E+01  3.07110E+01
   3.19661E+01  3.31594E+01  3.42618E+01  3.52450E+01  3.60820E+01  3.67489E+01  3.72258E+01  3.74979E+01  3.75560E+01  3.73974E+01
   3.70254E+01  3.64496E+01  3.56853E+01  3.47525E+01  3.36752E+01  3.24800E+01  3.11950E+01  2.98486E+01  2.84681E+01  2.70793E+01
   2.57052E+01  2.43658E+01  2.30777E+01  2.18535E+01  2.07029E+01  1.96319E+01  1.86438E+01  1.77392E+01  1.69167E+01  1.61733E+01
   1.55048E+01  1.49062E+01  1.43721E+01  1.38967E+01  1.34746E+01  1.31001E+01  1.27682E+01  1.24742E+01  1.22138E+01  1.19831E+01
   1.17785E+01  1.15969E+01  1.14357E+01  1.12926E+01  1.11654E+01  1.10523E+01  1.09518E+01  1.08624E+01  1.07830E+01  1.07126E+01
   1.06502E+01  1.05950E+01  1.05463E+01  1.05036E+01  1.04662E+01  1.04337E+01  1.04057E+01  1.03818E+01  1.03616E+01  1.03448E+01
   1.03312E+01  1.03205E+01  1.03125E+01  1.03070E+01  1.03038E+01  1.03027E+01  1.03037E+01  1.03065E+01  1.03111E+01  1.03172E+01
   1.03249E+01  1.03341E+01  1.03446E+01  1.03563E+01  1.03692E+01  1.03832E+01  1.03983E+01  1.04144E+01  1.04315E+01  1.04494E+01
   1.04681E+01  1.04877E+01  1.05081E+01  1.05292E+01  1.05510E+01  1.05734E+01  1.05966E+01  1.06203E+01  1.06447E+01  1.06696E+01
   1.06951E+01  1.07211E+01  1.07477E+01  1.07748E+01  1.08025E+01  1.08306E+01  1.08593E+01  1.08885E+01
 NY background values follow
    -9.408E+00   -9.368E+00   -9.329E+00   -9.289E+00   -9.249E+00   -9.209E+00   -9.170E+00   -9.130E+00   -9.090E+00   -9.050E+00
    -9.011E+00   -8.971E+00   -8.931E+00   -8.891E+00   -8.852E+00   -8.812E+00   -8.772E+00   -8.732E+00   -8.692E+00   -8.653E+00
    -8.613E+00   -8.573E+00   -8.533E+00   -8.494E+00   -8.454E+00   -8.414E+00   -8.374E+00   -8.334E+00   -8.295E+00   -8.255E+00
    -8.215E+00   -8.175E+00   -8.136E+00   -8.096E+00   -8.056E+00   -8.016E+00   -7.977E+00   -7.937E+00   -7.897E+00   -7.857E+00
    -7.817E+00   -7.778E+00   -7.738E+00   -7.698E+00   -7.658E+00   -7.619E+00   -7.579E+00   -7.539E+00   -7.499E+00   -7.459E+00
    -7.420E+00   -7.380E+00   -7.340E+00   -7.300E+00   -7.261E+00   -7.221E+00   -7.181E+00   -7.141E+00   -7.101E+00   -7.062E+00
    -7.022E+00   -6.982E+00   -6.942E+00   -6.903E+00   -6.863E+00   -6.823E+00   -6.783E+00   -6.744E+00   -6.704E+00   -6.664E+00
    -6.624E+00   -6.584E+00   -6.545E+00   -6.505E+00   -6.465E+00   -6.425E+00   -6.386E+00   -6.346E+00   -6.306E+00   -6.266E+00
    -6.226E+00   -6.187E+00   -6.147E+00   -6.107E+00   -6.067E+00   -6.028E+00   -5.988E+00   -5.948E+00   -5.908E+00   -5.868E+00
    -5.829E+00   -5.789E+00   -5.749E+00   -5.709E+00   -5.670E+00   -5.630E+00   -5.590E+00   -5.550E+00   -5.510E+00   -5.471E+00
    -5.431E+00   -5.391E+00   -5.351E+00   -5.312E+00   -5.272E+00   -5.232E+00   -5.192E+00   -5.152E+00   -5.113E+00   -5.073E+00
    -5.033E+00   -4.993E+00   -4.954E+00   -4.914E+00   -4.874E+00   -4.834E+00   -4.794E+00   -4.755E+00   -4.715E+00   -4.675E+00
    -4.635E+00   -4.596E+00   -4.556E+00   -4.516E+00   -4.476E+00   -4.436E+00   -4.397E+00   -4.357E+00   -4.317E+00   -4.277E+00
    -4.238E+00   -4.198E+00   -4.158E+00   -4.118E+00   -4.079E+00   -4.039E+00   -3.999E+00   -3.959E+00   -3.919E+00   -3.880E+00
    -3.840E+00   -3.800E+00   -3.760E+00   -3.721E+00   -3.681E+00   -3.641E+00   -3.601E+00   -3.561E+00   -3.522E+00   -3.482E+00
    -3.442E+00   -3.402E+00   -3.363E+00   -3.323E+00   -3.283E+00   -3.243E+00   -3.203E+00   -3.164E+00   -3.124E+00   -3.084E+00
    -3.044E+00   -3.005E+00   -2.965E+00   -2.925E+00   -2.885E+00   -2.846E+00   -2.806E+00   -2.766E+00   -2.726E+00   -2.686E+00
    -2.647E+00   -2.607E+00   -2.567E+00   -2.527E+00   -2.488E+00   -2.448E+00   -2.408E+00   -2.368E+00   -2.328E+00   -2.289E+00
    -2.249E+00   -2.209E+00   -2.169E+00   -2.130E+00   -2.090E+00   -2.050E+00   -2.010E+00   -1.971E+00   -1.931E+00   -1.891E+00
    -1.851E+00   -1.811E+00   -1.772E+00   -1.732E+00   -1.692E+00   -1.652E+00   -1.613E+00   -1.573E+00   -1.533E+00   -1.493E+00
    -1.454E+00   -1.414E+00   -1.374E+00   -1.334E+00   -1.294E+00   -1.255E+00   -1.215E+00   -1.175E+00   -1.135E+00   -1.096E+00
    -1.056E+00   -1.016E+00   -9.762E-01   -9.365E-01   -8.967E-01   -8.569E-01   -8.172E-01   -7.774E-01   -7.376E-01   -6.978E-01
    -6.581E-01   -6.183E-01   -5.785E-01   -5.388E-01   -4.990E-01   -4.592E-01   -4.195E-01   -3.797E-01   -3.399E-01   -3.002E-01
    -2.604E-01   -2.206E-01   -1.808E-01   -1.411E-01   -1.013E-01   -6.154E-02   -2.177E-02    1.800E-02    5.777E-02    9.754E-02
     1.373E-01    1.771E-01    2.168E-01    2.566E-01    2.964E-01    3.361E-01    3.759E-01    4.157E-01    4.554E-01    4.952E-01
     5.350E-01    5.747E-01    6.145E-01    6.543E-01    6.940E-01    7.338E-01    7.736E-01    8.133E-01    8.531E-01    8.929E-01
     9.326E-01    9.724E-01    1.012E+00    1.052E+00    1.092E+00    1.131E+00    1.171E+00    1.211E+00    1.251E+00    1.291E+00
     1.330E+00    1.370E+00    1.410E+00    1.450E+00    1.489E+00    1.529E+00    1.569E+00    1.609E+00    1.648E+00    1.688E+00
     1.728E+00    1.768E+00    1.807E+00    1.847E+00    1.887E+00    1.927E+00    1.966E+00    2.006E+00    2.046E+00    2.086E+00
     2.125E+00    2.165E+00    2.205E+00    2.245E+00    2.285E+00    2.324E+00    2.364E+00    2.404E+00    2.444E+00    2.483E+00
     2.523E+00    2.563E+00    2.603E+00    2.642E+00    2.682E+00    2.722E+00    2.762E+00    2.801E+00    2.841E+00    2.881E+00
     2.921E+00    2.960E+00    3.000E+00    3.040E+00    3.080E+00    3.119E+00    3.159E+00    3.199E+00    3.239E+00    3.278E+00
     3.318E+00    3.358E+00    3.398E+00    3.437E+00    3.477E+00    3.517E+00    3.557E+00    3.596E+00    3.636E+00    3.676E+00
     3.716E+00    3.755E+00    3.795E+00    3.835E+00    3.875E+00    3.914E+00    3.954E+00    3.994E+00    4.034E+00    4.073E+00
     4.113E+00    4.153E+00    4.193E+00    4.232E+00    4.272E+00    4.312E+00    4.352E+00    4.391E+00    4.431E+00    4.471E+00
     4.511E+00    4.550E+00    4.590E+00    4.630E+00    4.670E+00    4.709E+00    4.749E+00    4.789E+00    4.829E+00    4.868E+00
     4.908E+00    4.948E+00    4.988E+00    5.027E+00    5.067E+00    5.107E+00    5.147E+00    5.186E+00    5.226E+00    5.266E+00
     5.305E+00    5.345E+00    5.385E+00    5.425E+00    5.464E+00    5.504E+00    5.544E+00    5.584E+00    5.623E+00    5.663E+00
     5.703E+00    5.743E+00    5.782E+00    5.822E+00    5.862E+00    5.902E+00    5.941E+00    5.981E+00    6.021E+00    6.060E+00
     6.100E+00    6.140E+00    6.180E+00    6.219E+00    6.259E+00    6.299E+00    6.339E+00    6.378E+00    6.418E+00    6.458E+00
     6.498E+00    6.537E+00    6.577E+00    6.617E+00    6.656E+00    6.696E+00    6.736E+00    6.776E+00    6.815E+00    6.855E+00
     6.895E+00    6.935E+00    6.974E+00    7.014E+00    7.054E+00    7.094E+00    7.133E+00    7.173E+00    7.213E+00    7.252E+00
     7.292E+00    7.332E+00    7.372E+00    7.411E+00    7.451E+00    7.491E+00    7.531E+00    7.570E+00    7.610E+00    7.650E+00
     7.689E+00    7.729E+00    7.769E+00    7.809E+00    7.848E+00    7.888E+00    7.928E+00    7.967E+00    8.007E+00    8.047E+00
     8.087E+00    8.126E+00    8.166E+00    8.206E+00    8.246E+00    8.285E+00    8.325E+00    8.365E+00    8.404E+00    8.444E+00
     8.484E+00    8.524E+00    8.563E+00    8.603E+00    8.643E+00    8.682E+00    8.722E+00    8.762E+00    8.802E+00    8.841E+00
     8.881E+00    8.921E+00    8.960E+00    9.000E+00    9.040E+00    9.080E+00    9.119E+00    9.159E+00    9.199E+00    9.238E+00
     9.278E+00    9.318E+00    9.358E+00    9.397E+00    9.437E+00    9.477E+00    9.516E+00    9.556E+00    9.596E+00    9.636E+00
     9.675E+00    9.715E+00    9.755E+00    9.794E+00    9.834E+00    9.874E+00    9.914E+00    9.953E+00    9.993E+00    1.003E+01
     1.007E+01    1.011E+01    1.015E+01    1.019E+01    1.023E+01    1.027E+01    1.031E+01    1.035E+01
 Ala      Conc. = 2.47E+01
