 LCModel (Version 6.3-1L) Copyright: S.W. Provencher.          Ref.: Magn. Reson. Med. 30:672-679 (1993).                
 Slice#3 Row#7 Col#12  PD_05_press_2_raw_act
 36 lines in following concentration table = NCONC+1
    Conc.  %SD /Cr+PCr  Metabolite                                         
    0.000 999%   0.000 Ala                                                 
   66.338  98%   0.581 Asp                                                 
    0.000 999%   0.000 Cr                                                  
  114.221  37%   1.000 PCr                                                 
   42.627  92%   0.373 GABA                                                
   42.432  93%   0.371 Glc                                                 
    0.000 999%   0.000 Gln                                                 
  679.511  31%   5.949 Glu                                                 
    5.710 281% 5.0E-02 GPC                                                 
    0.000 999%   0.000 PCh                                                 
    0.000 999%   0.000 GSH                                                 
  141.040 133%   1.235 Ins                                                 
    0.000 999%   0.000 Lac                                                 
 1.02E+03  13%   8.940 NAA                                                 
  201.283  63%   1.762 NAAG                                                
   17.100  69%   0.150 Scyllo                                              
   76.459  83%   0.669 Tau                                                 
   13.898 208%   0.122 -CrCH2                                              
    5.710 281% 5.0E-02 GPC+PCh                                             
 1.22E+03   6%  10.702 NAA+NAAG                                            
  114.221  37%   1.000 Cr+PCr                                              
  679.511  39%   5.949 Glu+Gln                                             
  733.014  62%   6.417 Lip13a                                              
   91.991 184%   0.805 Lip13b                                              
   87.672 169%   0.768 Lip09                                               
  714.829  25%   6.258 MM09                                                
  202.106  51%   1.769 Lip20                                               
 1.30E+03  21%  11.364 MM20                                                
  227.153  38%   1.989 MM12                                                
  523.342  45%   4.582 MM14                                                
  502.756  28%   4.402 MM17                                                
  825.005  43%   7.223 Lip13a+Lip13b                                       
 1.58E+03  17%  13.793 MM14+Lip13a+Lip13b+MM12                             
  802.501  16%   7.026 MM09+Lip09                                          
 1.50E+03  17%  13.134 MM20+Lip20                                          
   6 lines in following misc. output table
  FWHM = 0.054 ppm    S/N =   6                                            
  Data shift = 0.031 ppm                                                   
  Ph:-134 deg     -50.1 deg/ppm                                            
  alphaB,S = 8.5E+01,   5.1E+01                                            
   14 spline knots.   Ns = 6(1)                                            
  (10) 3 infls.   (10) 2 extrs.                                            
  498 points on ppm-axis = NY
      4.000000     3.992357     3.984714     3.977070     3.969427     3.961784     3.954141     3.946497     3.938854     3.931211
      3.923568     3.915925     3.908281     3.900638     3.892995     3.885352     3.877708     3.870065     3.862422     3.854779
      3.847136     3.839492     3.831849     3.824206     3.816563     3.808919     3.801276     3.793633     3.785990     3.778347
      3.770703     3.763060     3.755417     3.747774     3.740130     3.732487     3.724844     3.717201     3.709558     3.701914
      3.694271     3.686628     3.678985     3.671341     3.663698     3.656055     3.648412     3.640769     3.633125     3.625482
      3.617839     3.610196     3.602552     3.594909     3.587266     3.579623     3.571980     3.564336     3.556693     3.549050
      3.541407     3.533763     3.526120     3.518477     3.510834     3.503191     3.495547     3.487904     3.480261     3.472618
      3.464974     3.457331     3.449688     3.442045     3.434402     3.426758     3.419115     3.411472     3.403829     3.396185
      3.388542     3.380899     3.373256     3.365613     3.357969     3.350326     3.342683     3.335040     3.327396     3.319753
      3.312110     3.304467     3.296824     3.289180     3.281537     3.273894     3.266251     3.258607     3.250964     3.243321
      3.235678     3.228034     3.220391     3.212748     3.205105     3.197462     3.189818     3.182175     3.174532     3.166889
      3.159245     3.151602     3.143959     3.136316     3.128673     3.121029     3.113386     3.105743     3.098100     3.090456
      3.082813     3.075170     3.067527     3.059884     3.052240     3.044597     3.036954     3.029311     3.021667     3.014024
      3.006381     2.998738     2.991095     2.983451     2.975808     2.968165     2.960522     2.952878     2.945235     2.937592
      2.929949     2.922306     2.914662     2.907019     2.899376     2.891733     2.884089     2.876446     2.868803     2.861160
      2.853517     2.845873     2.838230     2.830587     2.822944     2.815300     2.807657     2.800014     2.792371     2.784728
      2.777084     2.769441     2.761798     2.754155     2.746511     2.738868     2.731225     2.723582     2.715939     2.708295
      2.700652     2.693009     2.685366     2.677722     2.670079     2.662436     2.654793     2.647150     2.639506     2.631863
      2.624220     2.616577     2.608933     2.601290     2.593647     2.586004     2.578361     2.570717     2.563074     2.555431
      2.547788     2.540144     2.532501     2.524858     2.517215     2.509572     2.501928     2.494285     2.486642     2.478999
      2.471355     2.463712     2.456069     2.448426     2.440783     2.433139     2.425496     2.417853     2.410210     2.402566
      2.394923     2.387280     2.379637     2.371994     2.364350     2.356707     2.349064     2.341421     2.333777     2.326134
      2.318491     2.310848     2.303205     2.295561     2.287918     2.280275     2.272632     2.264988     2.257345     2.249702
      2.242059     2.234416     2.226772     2.219129     2.211486     2.203843     2.196199     2.188556     2.180913     2.173270
      2.165627     2.157983     2.150340     2.142697     2.135054     2.127410     2.119767     2.112124     2.104481     2.096838
      2.089194     2.081551     2.073908     2.066265     2.058621     2.050978     2.043335     2.035692     2.028049     2.020405
      2.012762     2.005119     1.997476     1.989833     1.982190     1.974546     1.966903     1.959260     1.951617     1.943974
      1.936331     1.928688     1.921045     1.913402     1.905759     1.898115     1.890472     1.882829     1.875186     1.867543
      1.859900     1.852257     1.844614     1.836971     1.829327     1.821684     1.814041     1.806398     1.798755     1.791112
      1.783469     1.775826     1.768183     1.760540     1.752896     1.745253     1.737610     1.729967     1.722324     1.714681
      1.707038     1.699395     1.691752     1.684108     1.676465     1.668822     1.661179     1.653536     1.645893     1.638250
      1.630607     1.622964     1.615321     1.607677     1.600034     1.592391     1.584748     1.577105     1.569462     1.561819
      1.554176     1.546533     1.538890     1.531246     1.523603     1.515960     1.508317     1.500674     1.493031     1.485388
      1.477745     1.470102     1.462458     1.454815     1.447172     1.439529     1.431886     1.424243     1.416600     1.408957
      1.401314     1.393671     1.386027     1.378384     1.370741     1.363098     1.355455     1.347812     1.340169     1.332526
      1.324883     1.317240     1.309596     1.301953     1.294310     1.286667     1.279024     1.271381     1.263738     1.256095
      1.248452     1.240808     1.233165     1.225522     1.217879     1.210236     1.202593     1.194950     1.187307     1.179664
      1.172021     1.164377     1.156734     1.149091     1.141448     1.133805     1.126162     1.118519     1.110876     1.103233
      1.095590     1.087946     1.080303     1.072660     1.065017     1.057374     1.049731     1.042088     1.034445     1.026802
      1.019158     1.011515     1.003872     0.996229     0.988586     0.980943     0.973300     0.965657     0.958014     0.950371
      0.942727     0.935084     0.927441     0.919798     0.912155     0.904512     0.896869     0.889226     0.881583     0.873940
      0.866296     0.858653     0.851010     0.843367     0.835724     0.828081     0.820438     0.812795     0.805152     0.797508
      0.789865     0.782222     0.774579     0.766936     0.759293     0.751650     0.744007     0.736364     0.728721     0.721077
      0.713434     0.705791     0.698148     0.690505     0.682862     0.675219     0.667576     0.659933     0.652290     0.644646
      0.637003     0.629360     0.621717     0.614074     0.606431     0.598788     0.591145     0.583502     0.575858     0.568215
      0.560572     0.552929     0.545286     0.537643     0.530000     0.522357     0.514714     0.507071     0.499427     0.491784
      0.484141     0.476498     0.468855     0.461212     0.453569     0.445925     0.438282     0.430639     0.422996     0.415353
      0.407710     0.400067     0.392424     0.384780     0.377137     0.369494     0.361851     0.354208     0.346565     0.338922
      0.331278     0.323635     0.315992     0.308349     0.300706     0.293063     0.285420     0.277777     0.270133     0.262490
      0.254847     0.247204     0.239561     0.231918     0.224275     0.216631     0.208988     0.201345
 NY phased data points follow
   1.89398E+00 -5.17163E-01  6.56313E+00 -4.43968E-01  1.59336E+00  6.51745E+00  7.70288E+00  6.61273E+00  2.12598E+00  1.18294E+01
   2.60864E+00  1.02305E+01  9.46084E+00 -5.36742E-01  4.11624E+00  4.97402E+00  1.02374E+01  1.22664E+01  3.84953E+00  1.02933E+01
   3.12154E+00  1.81877E+00  3.70298E+00  5.91588E+00  1.05401E+01  4.67610E+00  7.88897E+00  1.12819E+01  7.50292E+00  6.95493E+00
   1.80642E+00  2.99793E+00  2.79783E+00  6.93875E+00  5.88738E+00  2.14320E+00  9.88449E+00  8.36972E+00  2.89742E+00  9.65882E+00
   4.67400E+00  4.69246E+00  2.22795E+00  1.07138E+01  1.49066E+00  8.41603E+00  9.20315E+00  8.62470E+00  6.01485E+00  6.10050E+00
   9.23763E+00  2.07430E+00 -2.97755E+00  6.74025E+00  3.17032E+00  4.87540E+00  5.85858E+00  5.77458E+00  2.43239E+00  5.46164E+00
   6.69987E+00  1.02899E+01  8.35113E+00  5.01537E+00  6.62458E+00  6.34292E+00  1.15231E+01  9.03142E+00  2.45759E+00  4.90976E+00
   5.09331E+00 -1.18628E+00  1.11552E+01  9.03993E+00  1.00233E+01  8.29707E+00  4.03117E+00  3.12780E+00  2.10459E+00  6.44613E+00
  -1.37992E+00  5.69616E+00  6.76260E+00  1.33071E+01  9.32141E+00  9.16562E+00  4.51990E+00  8.77368E+00  4.84873E+00  8.31283E+00
   6.91149E+00  2.05833E+00  8.02926E+00  5.90704E+00  6.58327E-01  9.26295E-01  2.88669E+00  2.32898E+00  2.77015E+00  7.34193E-01
   7.86207E+00  9.81523E+00  6.71428E+00  6.68449E+00  3.35205E+00  7.59490E+00  5.55050E+00  1.44717E+00  5.84099E-01  3.66686E+00
   4.82214E+00  1.12286E+01  4.75603E+00  3.14187E+00  2.95772E+00  6.75895E+00  2.95526E+00  4.48553E+00  5.87610E-01 -1.38393E+00
   1.80003E+00  3.33638E+00  2.57612E+00 -7.24858E-01 -2.38300E+00 -2.52425E+00  6.03687E+00  1.01865E+01  9.96268E+00  6.93980E+00
   1.43382E+01  5.37396E+00  7.32590E+00  1.33915E+01  6.27405E+00  3.95508E+00  1.17963E+01  1.37696E+00  5.84433E+00  1.09596E+01
   4.64808E+00  5.36215E+00  7.17935E+00  3.59325E+00  8.10571E+00  1.01551E+01  6.35334E+00  4.29511E+00  8.93380E+00  4.28770E+00
   3.73388E+00  5.21089E+00  2.09825E+00  8.83754E+00  3.91915E+00  6.38261E+00  5.39479E-01  2.61845E+00  9.25647E+00  9.34826E+00
   4.44187E-01  5.52636E+00  6.28568E+00  5.28446E+00  6.14192E+00  1.13157E+01  4.92833E+00  3.58919E+00  1.28741E+00  9.00651E+00
   3.07540E+00  2.04904E+00  9.13959E+00  2.84937E-01  5.83011E+00  2.53854E+00  3.49564E+00  2.67431E+00  6.60939E+00 -2.05109E+00
   2.84275E+00  2.14143E+00 -4.64595E+00  6.76928E+00  2.26813E-02  6.76612E+00  9.99528E+00 -5.85566E-01  5.59717E+00  3.30005E-01
   4.74182E+00 -8.44845E-01  7.15135E+00  5.24092E+00  6.47344E+00  3.57402E+00  2.31784E+00  8.41261E-01  3.03407E+00  9.32760E+00
   5.22935E+00  9.26541E+00  6.37816E+00  3.51984E+00  9.01279E-01  7.44242E+00  6.65175E+00  4.02521E+00  6.95527E+00  4.28173E+00
   4.44872E+00 -1.22625E-01  9.39092E+00  3.40622E+00  7.13869E+00  8.82284E+00  1.11496E+01  1.10791E+01  9.25053E+00  7.27394E+00
   1.09295E+01  1.61664E+00  2.25489E+00  2.55463E+00  3.05593E+00  3.68951E+00  1.00296E+01  6.59223E+00  1.27764E+01  9.90129E+00
   8.87793E+00  1.06809E+01  8.32263E+00  5.53841E+00  5.85566E+00  3.01597E+00  5.89346E+00  1.09565E+01  1.22738E+01  8.05465E+00
   1.07849E+01  7.50413E+00  4.51208E+00  8.68707E+00  4.09422E+00  6.94842E+00  9.91310E+00  1.90314E+01  9.68957E+00  9.09911E+00
   4.84165E+00  5.65594E+00  4.47158E+00  9.70842E+00  1.38400E+01  1.40542E+01  1.44091E+01  2.19239E+01  3.61629E+01  4.28964E+01
   5.42946E+01  4.75100E+01  4.79017E+01  4.10182E+01  3.56041E+01  2.21615E+01  1.98674E+01  2.20498E+01  7.00382E+00  7.66746E+00
   1.04857E+01  1.09142E+01  6.91042E+00  1.11999E+01  9.04097E+00  4.00583E+00  5.12915E+00  4.82577E+00  2.60665E+00  2.18297E+00
   1.48677E+00  3.55485E+00  4.22993E+00  3.86615E+00  3.66443E+00  1.90369E+00  3.02125E+00  8.15481E+00 -5.80931E-01  3.67447E+00
   3.86633E+00  8.20425E+00  1.44119E-01  5.26079E+00  4.48606E+00  6.44562E+00  3.63711E+00  6.66354E+00  7.65410E+00  1.04342E+01
   3.00505E+00  2.63836E+00  9.72780E+00  6.56898E+00  8.86047E+00  1.18700E+00  7.35326E+00  4.90268E+00  5.78535E+00  7.95122E+00
   7.27558E+00  1.88595E+00  9.52801E+00  1.28855E+01  1.22399E+01  1.02403E+01  7.47584E+00  6.15791E+00  6.49364E+00  6.60429E+00
   1.41752E+00  8.61531E+00  7.79990E-01  5.32023E+00  4.14297E+00  3.62712E+00  6.87148E-01  5.92789E+00  5.38061E+00  4.54594E+00
   6.84773E+00  7.61508E+00  2.23425E+00  8.44782E+00  5.29681E+00  4.71343E+00  4.44408E+00  8.09531E+00  5.89349E+00  1.22259E+01
   1.03205E+00  6.12726E+00  5.16307E+00  4.06606E+00  4.82660E+00  3.49573E+00  1.10463E+01 -3.92365E+00  7.45787E+00  7.93980E+00
   1.25320E+01  2.53947E+00  9.57450E+00  1.42420E+01  1.09939E+01  7.16911E+00  5.54794E+00  2.56531E+00  1.27512E+01  1.95854E+00
   2.53395E-01  9.40485E+00  5.75571E+00 -1.18860E+00  8.16204E+00  3.18596E-01  4.49881E+00  5.53222E+00  1.17485E+01  3.99330E+00
   9.69952E+00  2.89687E+00  3.23857E+00  8.60518E+00  4.27677E+00  4.29981E+00  1.47694E+01  8.28970E-01  1.92955E+00  1.47563E+00
   3.78673E+00  5.93618E-01  4.13290E+00  1.73923E+00  7.48334E+00  2.49285E+00  5.41733E+00  4.00147E+00 -7.77343E+00 -2.63882E+00
   4.56224E+00  8.25944E+00  3.56142E+00  1.09907E+00 -1.76518E-01  4.48202E+00 -1.86488E+00  6.87140E+00  3.47352E-01 -5.80255E-01
   3.26098E+00  4.43256E+00  4.32989E+00  6.93366E+00  1.89154E+00  4.84525E+00  1.08532E+01  8.76558E+00  7.27114E+00  1.58998E+00
   5.47858E+00  3.58559E+00  4.97315E+00 -2.15645E+00  1.54602E+00  7.04961E+00  1.10294E+01  3.97147E+00 -2.58521E+00  6.81067E+00
   8.87052E+00  2.54829E+00 -1.15862E+00 -6.13866E+00  9.26746E-01  1.75843E+00  7.25817E-01  3.93418E+00 -2.45112E+00  5.26484E+00
  -3.19419E+00  4.44217E+00  1.03841E+00 -2.82083E+00 -5.49691E+00 -4.81866E+00 -1.59224E+00 -6.78659E+00 -7.73885E-01  2.74001E+00
   8.96486E-01  1.93477E+00 -5.75332E+00 -1.39242E+00  6.04062E-01  3.85588E+00 -1.15722E+00 -5.67476E-01 -5.72978E-01  1.01176E+00
   1.52766E+00  2.42468E+00 -7.64494E+00 -7.43918E+00  1.18947E+00 -1.82709E+00 -1.71711E+00 -5.86502E+00  3.34824E+00 -2.96689E-01
   1.51614E+00 -2.27843E+00  7.02286E-01 -2.12078E+00 -7.61737E+00 -2.61785E+00 -6.58643E+00 -7.58974E-01 -1.66323E+00  1.55040E+00
  -1.77448E+00 -2.98644E+00 -1.98600E+00  6.65035E-01  2.15662E+00 -2.73770E+00  1.92039E+00 -3.29167E+00  3.66539E-01 -2.12026E-01
  -4.32020E+00 -4.42314E+00 -2.45147E+00  1.95705E+00 -2.36439E+00 -7.77577E+00  1.82830E+00  1.83896E+00 -5.02921E+00 -2.25514E+00
  -1.27748E+00  3.00979E-02 -3.32095E+00 -2.93063E+00  4.81243E+00  9.03871E+00  7.49137E-01 -1.16460E+00
 NY points of the fit to the data follow
   5.53313E+00  5.39634E+00  5.28587E+00  5.15601E+00  4.96932E+00  4.85816E+00  4.99206E+00  5.43816E+00  6.10202E+00  6.78209E+00
   7.28802E+00  7.53950E+00  7.54636E+00  7.35565E+00  7.04589E+00  6.67615E+00  6.24463E+00  5.82859E+00  5.57452E+00  5.42433E+00
   5.34470E+00  5.33527E+00  5.47982E+00  5.79410E+00  6.15268E+00  6.36253E+00  6.26438E+00  5.82539E+00  5.19948E+00  4.66749E+00
   4.52211E+00  4.86958E+00  5.58584E+00  6.39700E+00  6.99569E+00  7.20070E+00  6.93500E+00  6.36012E+00  5.73133E+00  5.22012E+00
   4.89790E+00  4.77604E+00  4.82245E+00  5.02202E+00  5.33023E+00  5.73457E+00  6.15732E+00  6.45126E+00  6.58895E+00  6.58547E+00
   6.44661E+00  6.20874E+00  5.92739E+00  5.64239E+00  5.37600E+00  5.17270E+00  5.08336E+00  5.11342E+00  5.22448E+00  5.36707E+00
   5.49215E+00  5.56151E+00  5.56903E+00  5.52426E+00  5.45844E+00  5.39817E+00  5.33529E+00  5.27578E+00  5.24056E+00  5.22383E+00
   5.21688E+00  5.23926E+00  5.31933E+00  5.45776E+00  5.62391E+00  5.76206E+00  5.80471E+00  5.74807E+00  5.61519E+00  5.43723E+00
   5.24538E+00  5.09820E+00  5.07939E+00  5.24431E+00  5.55286E+00  5.86023E+00  6.04106E+00  6.06616E+00  5.97417E+00  5.81047E+00
   5.61020E+00  5.39513E+00  5.16593E+00  4.92916E+00  4.78008E+00  4.74643E+00  4.76993E+00  4.80293E+00  4.84364E+00  4.91072E+00
   5.01945E+00  5.15127E+00  5.25537E+00  5.30604E+00  5.31290E+00  5.28520E+00  5.23518E+00  5.18971E+00  5.13729E+00  5.07171E+00
   5.01079E+00  4.98049E+00  4.96379E+00  4.95233E+00  4.94911E+00  4.94561E+00  4.94327E+00  4.93674E+00  4.92440E+00  4.90405E+00
   4.85820E+00  4.70140E+00  4.49644E+00  4.59342E+00  5.25111E+00  6.41794E+00  7.77087E+00  8.92029E+00  9.61564E+00  9.81371E+00
   9.56863E+00  8.98199E+00  8.21469E+00  7.39661E+00  6.60328E+00  6.04005E+00  5.78778E+00  5.65909E+00  5.57963E+00  5.51911E+00
   5.45763E+00  5.39762E+00  5.35349E+00  5.32845E+00  5.32037E+00  5.31260E+00  5.28851E+00  5.25022E+00  5.20789E+00  5.16800E+00
   5.11325E+00  5.03003E+00  4.92357E+00  4.81231E+00  4.74738E+00  4.78172E+00  4.86569E+00  4.87120E+00  4.69796E+00  4.33841E+00
   3.94458E+00  3.70696E+00  3.68335E+00  3.80191E+00  3.95839E+00  4.04736E+00  4.01228E+00  3.88015E+00  3.68983E+00  3.45298E+00
   3.24095E+00  3.05668E+00  2.79017E+00  2.45261E+00  2.10774E+00  1.88502E+00  1.85796E+00  1.93715E+00  1.97544E+00  1.93420E+00
   1.89800E+00  1.95589E+00  2.08244E+00  2.16759E+00  2.14776E+00  2.10761E+00  2.23145E+00  2.57336E+00  3.07710E+00  3.59407E+00
   4.02937E+00  4.35346E+00  4.61861E+00  4.89345E+00  5.15610E+00  5.30620E+00  5.32811E+00  5.24734E+00  5.04456E+00  4.80982E+00
   4.67883E+00  4.75233E+00  5.02844E+00  5.38624E+00  5.70913E+00  5.90154E+00  5.83164E+00  5.46859E+00  4.83084E+00  3.96245E+00
   2.97852E+00  2.29501E+00  2.41450E+00  3.40943E+00  4.94664E+00  6.47712E+00  7.57144E+00  7.96149E+00  7.36088E+00  5.77389E+00
   3.64383E+00  1.60505E+00  2.73842E-01 -5.16957E-02  6.73113E-01  2.08886E+00  3.71655E+00  5.20291E+00  6.32239E+00  6.99750E+00
   7.20913E+00  7.08306E+00  6.92766E+00  6.93934E+00  7.08963E+00  7.33906E+00  7.59842E+00  7.79273E+00  7.82848E+00  7.64432E+00
   7.34276E+00  7.13469E+00  7.14732E+00  7.42829E+00  7.94612E+00  8.59000E+00  9.18350E+00  9.57224E+00  9.66900E+00  9.48643E+00
   9.07638E+00  8.87154E+00  9.54741E+00  1.11548E+01  1.26052E+01  1.37562E+01  1.69403E+01  2.37810E+01  3.33935E+01  4.28347E+01
   4.90750E+01  5.06926E+01  4.80012E+01  4.20997E+01  3.45803E+01  2.67426E+01  1.93057E+01  1.27281E+01  8.48628E+00  6.94296E+00
   6.25017E+00  5.85672E+00  5.67538E+00  5.61403E+00  5.57644E+00  5.53662E+00  5.45966E+00  5.32441E+00  5.13348E+00  4.91697E+00
   4.70223E+00  4.52007E+00  4.39503E+00  4.32624E+00  4.29868E+00  4.29225E+00  4.29107E+00  4.29201E+00  4.30063E+00  4.32205E+00
   4.36677E+00  4.44117E+00  4.54296E+00  4.66417E+00  4.79998E+00  4.94117E+00  5.08036E+00  5.21733E+00  5.35436E+00  5.49235E+00
   5.63575E+00  5.78261E+00  5.92553E+00  6.05706E+00  6.17028E+00  6.26018E+00  6.32291E+00  6.35419E+00  6.35531E+00  6.32918E+00
   6.27802E+00  6.20532E+00  6.11504E+00  6.01145E+00  5.89925E+00  5.78330E+00  5.66831E+00  5.55883E+00  5.45892E+00  5.37191E+00
   5.30031E+00  5.24571E+00  5.20880E+00  5.18966E+00  5.18773E+00  5.20179E+00  5.23005E+00  5.27035E+00  5.32042E+00  5.37798E+00
   5.44082E+00  5.50681E+00  5.57399E+00  5.64073E+00  5.70583E+00  5.76852E+00  5.82843E+00  5.88548E+00  5.94003E+00  5.99291E+00
   6.04554E+00  6.09989E+00  6.15846E+00  6.22419E+00  6.30040E+00  6.39051E+00  6.49734E+00  6.62228E+00  6.76415E+00  6.91837E+00
   7.07648E+00  7.22627E+00  7.35275E+00  7.43993E+00  7.47316E+00  7.44173E+00  7.34093E+00  7.17297E+00  6.94659E+00  6.67542E+00
   6.37560E+00  6.06326E+00  5.75237E+00  5.45329E+00  5.17227E+00  4.91183E+00  4.67170E+00  4.45006E+00  4.24459E+00  4.05312E+00
   3.87409E+00  3.70661E+00  3.55052E+00  3.40622E+00  3.27448E+00  3.15623E+00  3.05235E+00  2.96367E+00  2.89097E+00  2.83499E+00
   2.79640E+00  2.77577E+00  2.77354E+00  2.79015E+00  2.82600E+00  2.88151E+00  2.95696E+00  3.05250E+00  3.16803E+00  3.30323E+00
   3.45748E+00  3.62976E+00  3.81849E+00  4.02147E+00  4.23578E+00  4.45787E+00  4.68351E+00  4.90782E+00  5.12527E+00  5.32987E+00
   5.51538E+00  5.67560E+00  5.80458E+00  5.89686E+00  5.94774E+00  5.95353E+00  5.91184E+00  5.82173E+00  5.68374E+00  5.49988E+00
   5.27351E+00  5.00925E+00  4.71279E+00  4.39057E+00  4.04949E+00  3.69654E+00  3.33851E+00  2.98180E+00  2.63220E+00  2.29471E+00
   1.97340E+00  1.67133E+00  1.39062E+00  1.13255E+00  8.97642E-01  6.85713E-01  4.95997E-01  3.27282E-01  1.78070E-01  4.67236E-02
  -6.84663E-02 -1.69238E-01 -2.57319E-01 -3.34346E-01 -4.01802E-01 -4.60992E-01 -5.13075E-01 -5.59097E-01 -6.00000E-01 -6.36584E-01
  -6.69500E-01 -6.99274E-01 -7.26362E-01 -7.51183E-01 -7.74110E-01 -7.95434E-01 -8.15366E-01 -8.34070E-01 -8.51713E-01 -8.68466E-01
  -8.84477E-01 -8.99837E-01 -9.14600E-01 -9.28813E-01 -9.42554E-01 -9.55910E-01 -9.68942E-01 -9.81670E-01 -9.94095E-01 -1.00624E+00
  -1.01816E+00 -1.02991E+00 -1.04149E+00 -1.05291E+00 -1.06415E+00 -1.07523E+00 -1.08619E+00 -1.09706E+00 -1.10785E+00 -1.11851E+00
  -1.12905E+00 -1.13948E+00 -1.14986E+00 -1.16017E+00 -1.17041E+00 -1.18054E+00 -1.19056E+00 -1.20052E+00 -1.21044E+00 -1.22030E+00
  -1.23007E+00 -1.23974E+00 -1.24932E+00 -1.25883E+00 -1.26830E+00 -1.27769E+00 -1.28696E+00 -1.29612E+00 -1.30518E+00 -1.31416E+00
  -1.32306E+00 -1.33183E+00 -1.34045E+00 -1.34891E+00 -1.35724E+00 -1.36544E+00 -1.37348E+00 -1.38130E+00
 NY background values follow
     6.113E+00    6.107E+00    6.101E+00    6.094E+00    6.088E+00    6.081E+00    6.075E+00    6.068E+00    6.061E+00    6.054E+00
     6.048E+00    6.041E+00    6.034E+00    6.027E+00    6.020E+00    6.012E+00    6.005E+00    5.998E+00    5.991E+00    5.983E+00
     5.976E+00    5.969E+00    5.961E+00    5.953E+00    5.946E+00    5.938E+00    5.930E+00    5.923E+00    5.915E+00    5.907E+00
     5.899E+00    5.891E+00    5.883E+00    5.875E+00    5.867E+00    5.859E+00    5.850E+00    5.842E+00    5.834E+00    5.825E+00
     5.817E+00    5.808E+00    5.800E+00    5.791E+00    5.783E+00    5.774E+00    5.765E+00    5.756E+00    5.747E+00    5.738E+00
     5.730E+00    5.721E+00    5.711E+00    5.702E+00    5.693E+00    5.684E+00    5.675E+00    5.665E+00    5.656E+00    5.647E+00
     5.637E+00    5.628E+00    5.618E+00    5.609E+00    5.599E+00    5.589E+00    5.580E+00    5.570E+00    5.560E+00    5.550E+00
     5.540E+00    5.530E+00    5.520E+00    5.510E+00    5.500E+00    5.490E+00    5.480E+00    5.469E+00    5.459E+00    5.449E+00
     5.438E+00    5.428E+00    5.418E+00    5.407E+00    5.397E+00    5.386E+00    5.375E+00    5.365E+00    5.354E+00    5.343E+00
     5.332E+00    5.321E+00    5.311E+00    5.300E+00    5.289E+00    5.278E+00    5.267E+00    5.255E+00    5.244E+00    5.233E+00
     5.222E+00    5.211E+00    5.199E+00    5.188E+00    5.176E+00    5.165E+00    5.154E+00    5.142E+00    5.130E+00    5.119E+00
     5.107E+00    5.096E+00    5.084E+00    5.072E+00    5.060E+00    5.048E+00    5.037E+00    5.025E+00    5.013E+00    5.001E+00
     4.989E+00    4.977E+00    4.965E+00    4.952E+00    4.940E+00    4.928E+00    4.916E+00    4.903E+00    4.891E+00    4.879E+00
     4.866E+00    4.854E+00    4.841E+00    4.829E+00    4.816E+00    4.804E+00    4.791E+00    4.779E+00    4.766E+00    4.753E+00
     4.740E+00    4.728E+00    4.715E+00    4.702E+00    4.689E+00    4.676E+00    4.663E+00    4.650E+00    4.637E+00    4.624E+00
     4.611E+00    4.598E+00    4.585E+00    4.572E+00    4.558E+00    4.545E+00    4.532E+00    4.518E+00    4.505E+00    4.492E+00
     4.478E+00    4.465E+00    4.451E+00    4.438E+00    4.424E+00    4.411E+00    4.397E+00    4.384E+00    4.370E+00    4.356E+00
     4.343E+00    4.329E+00    4.315E+00    4.301E+00    4.288E+00    4.274E+00    4.260E+00    4.246E+00    4.232E+00    4.218E+00
     4.204E+00    4.190E+00    4.176E+00    4.162E+00    4.148E+00    4.134E+00    4.120E+00    4.105E+00    4.091E+00    4.077E+00
     4.063E+00    4.049E+00    4.034E+00    4.020E+00    4.006E+00    3.991E+00    3.977E+00    3.962E+00    3.948E+00    3.933E+00
     3.919E+00    3.904E+00    3.890E+00    3.875E+00    3.861E+00    3.846E+00    3.832E+00    3.817E+00    3.802E+00    3.788E+00
     3.773E+00    3.758E+00    3.743E+00    3.729E+00    3.714E+00    3.699E+00    3.684E+00    3.669E+00    3.655E+00    3.640E+00
     3.625E+00    3.610E+00    3.595E+00    3.580E+00    3.565E+00    3.550E+00    3.535E+00    3.520E+00    3.505E+00    3.490E+00
     3.475E+00    3.459E+00    3.444E+00    3.429E+00    3.414E+00    3.399E+00    3.384E+00    3.368E+00    3.353E+00    3.338E+00
     3.323E+00    3.307E+00    3.292E+00    3.277E+00    3.261E+00    3.246E+00    3.231E+00    3.215E+00    3.200E+00    3.185E+00
     3.169E+00    3.154E+00    3.138E+00    3.123E+00    3.108E+00    3.092E+00    3.077E+00    3.061E+00    3.046E+00    3.030E+00
     3.014E+00    2.999E+00    2.983E+00    2.968E+00    2.952E+00    2.937E+00    2.921E+00    2.905E+00    2.890E+00    2.874E+00
     2.859E+00    2.843E+00    2.827E+00    2.812E+00    2.796E+00    2.780E+00    2.765E+00    2.749E+00    2.733E+00    2.717E+00
     2.702E+00    2.686E+00    2.670E+00    2.654E+00    2.639E+00    2.623E+00    2.607E+00    2.591E+00    2.576E+00    2.560E+00
     2.544E+00    2.528E+00    2.512E+00    2.497E+00    2.481E+00    2.465E+00    2.449E+00    2.433E+00    2.418E+00    2.402E+00
     2.386E+00    2.370E+00    2.354E+00    2.338E+00    2.322E+00    2.307E+00    2.291E+00    2.275E+00    2.259E+00    2.243E+00
     2.227E+00    2.211E+00    2.196E+00    2.180E+00    2.164E+00    2.148E+00    2.132E+00    2.116E+00    2.100E+00    2.084E+00
     2.069E+00    2.053E+00    2.037E+00    2.021E+00    2.005E+00    1.989E+00    1.973E+00    1.957E+00    1.942E+00    1.926E+00
     1.910E+00    1.894E+00    1.878E+00    1.862E+00    1.846E+00    1.831E+00    1.815E+00    1.799E+00    1.783E+00    1.767E+00
     1.751E+00    1.736E+00    1.720E+00    1.704E+00    1.688E+00    1.672E+00    1.656E+00    1.641E+00    1.625E+00    1.609E+00
     1.593E+00    1.578E+00    1.562E+00    1.546E+00    1.530E+00    1.514E+00    1.499E+00    1.483E+00    1.467E+00    1.452E+00
     1.436E+00    1.420E+00    1.404E+00    1.389E+00    1.373E+00    1.357E+00    1.342E+00    1.326E+00    1.310E+00    1.295E+00
     1.279E+00    1.264E+00    1.248E+00    1.232E+00    1.217E+00    1.201E+00    1.186E+00    1.170E+00    1.155E+00    1.139E+00
     1.124E+00    1.108E+00    1.093E+00    1.077E+00    1.062E+00    1.046E+00    1.031E+00    1.015E+00    9.999E-01    9.845E-01
     9.691E-01    9.537E-01    9.383E-01    9.230E-01    9.077E-01    8.924E-01    8.771E-01    8.618E-01    8.465E-01    8.312E-01
     8.160E-01    8.008E-01    7.856E-01    7.704E-01    7.552E-01    7.400E-01    7.249E-01    7.098E-01    6.947E-01    6.796E-01
     6.645E-01    6.494E-01    6.344E-01    6.194E-01    6.044E-01    5.894E-01    5.744E-01    5.595E-01    5.445E-01    5.296E-01
     5.147E-01    4.999E-01    4.850E-01    4.702E-01    4.554E-01    4.406E-01    4.258E-01    4.110E-01    3.963E-01    3.816E-01
     3.669E-01    3.522E-01    3.376E-01    3.230E-01    3.084E-01    2.938E-01    2.792E-01    2.647E-01    2.502E-01    2.357E-01
     2.212E-01    2.068E-01    1.924E-01    1.780E-01    1.636E-01    1.492E-01    1.349E-01    1.206E-01    1.063E-01    9.207E-02
     7.784E-02    6.364E-02    4.946E-02    3.531E-02    2.118E-02    7.075E-03   -7.002E-03   -2.105E-02   -3.508E-02   -4.908E-02
    -6.305E-02   -7.699E-02   -9.091E-02   -1.048E-01   -1.187E-01   -1.325E-01   -1.463E-01   -1.601E-01   -1.738E-01   -1.876E-01
    -2.013E-01   -2.149E-01   -2.286E-01   -2.422E-01   -2.558E-01   -2.693E-01   -2.828E-01   -2.963E-01   -3.098E-01   -3.232E-01
    -3.366E-01   -3.500E-01   -3.634E-01   -3.767E-01   -3.900E-01   -4.032E-01   -4.164E-01   -4.296E-01   -4.428E-01   -4.559E-01
    -4.690E-01   -4.821E-01   -4.951E-01   -5.081E-01   -5.211E-01   -5.340E-01   -5.469E-01   -5.598E-01
 Asp      Conc. = 6.63E+01
