 LCModel (Version 6.3-1L) Copyright: S.W. Provencher.          Ref.: Magn. Reson. Med. 30:672-679 (1993).                
 Slice#1 Row#4 Col#9  PD_05_press_2_raw_act
 36 lines in following concentration table = NCONC+1
    Conc.  %SD /Cr+PCr  Metabolite                                         
  488.179  73%   0.238 Ala                                                 
    0.000 999%   0.000 Asp                                                 
 2.05E+03   7%   1.000 Cr                                                  
    0.000 999%   0.000 PCr                                                 
  124.104 215% 6.1E-02 GABA                                                
  102.011 255% 5.0E-02 Glc                                                 
 3.02E+03  26%   1.475 Gln                                                 
 2.81E+03  31%   1.370 Glu                                                 
  855.864   7%   0.417 GPC                                                 
    0.000 999%   0.000 PCh                                                 
 1.01E+03  21%   0.493 GSH                                                 
 2.63E+03  24%   1.284 Ins                                                 
  459.154  88%   0.224 Lac                                                 
 3.18E+03   8%   1.551 NAA                                                 
  737.245  38%   0.360 NAAG                                                
  131.869  46% 6.4E-02 Scyllo                                              
  129.021 302% 6.3E-02 Tau                                                 
  128.874 184% 6.3E-02 -CrCH2                                              
  855.864   7%   0.417 GPC+PCh                                             
 3.92E+03   5%   1.911 NAA+NAAG                                            
 2.05E+03   7%   1.000 Cr+PCr                                              
 5.83E+03  23%   2.845 Glu+Gln                                             
    0.000 999%   0.000 Lip13a                                              
  842.800  33%   0.411 Lip13b                                              
  177.329  79% 8.6E-02 Lip09                                               
 3.71E+03  10%   1.810 MM09                                                
  141.436  65% 6.9E-02 Lip20                                               
 9.90E+03   8%   4.830 MM20                                                
  829.289  43%   0.405 MM12                                                
 5.04E+03  12%   2.457 MM14                                                
 3.10E+03  15%   1.511 MM17                                                
  842.800  33%   0.411 Lip13a+Lip13b                                       
 6.71E+03  10%   3.273 MM14+Lip13a+Lip13b+MM12                             
 3.89E+03  10%   1.897 MM09+Lip09                                          
 1.00E+04   8%   4.899 MM20+Lip20                                          
   6 lines in following misc. output table
  FWHM = 0.069 ppm    S/N =   7                                            
  Data shift = 0.008 ppm                                                   
  Ph: -43 deg      -3.6 deg/ppm                                            
  alphaB,S = 8.5E+01,   1.0E+02                                            
   14 spline knots.   Ns = 8(1)                                            
   2 inflections.     1 extrema                                            
  498 points on ppm-axis = NY
      4.000000     3.992357     3.984714     3.977070     3.969427     3.961784     3.954141     3.946497     3.938854     3.931211
      3.923568     3.915925     3.908281     3.900638     3.892995     3.885352     3.877708     3.870065     3.862422     3.854779
      3.847136     3.839492     3.831849     3.824206     3.816563     3.808919     3.801276     3.793633     3.785990     3.778347
      3.770703     3.763060     3.755417     3.747774     3.740130     3.732487     3.724844     3.717201     3.709558     3.701914
      3.694271     3.686628     3.678985     3.671341     3.663698     3.656055     3.648412     3.640769     3.633125     3.625482
      3.617839     3.610196     3.602552     3.594909     3.587266     3.579623     3.571980     3.564336     3.556693     3.549050
      3.541407     3.533763     3.526120     3.518477     3.510834     3.503191     3.495547     3.487904     3.480261     3.472618
      3.464974     3.457331     3.449688     3.442045     3.434402     3.426758     3.419115     3.411472     3.403829     3.396185
      3.388542     3.380899     3.373256     3.365613     3.357969     3.350326     3.342683     3.335040     3.327396     3.319753
      3.312110     3.304467     3.296824     3.289180     3.281537     3.273894     3.266251     3.258607     3.250964     3.243321
      3.235678     3.228034     3.220391     3.212748     3.205105     3.197462     3.189818     3.182175     3.174532     3.166889
      3.159245     3.151602     3.143959     3.136316     3.128673     3.121029     3.113386     3.105743     3.098100     3.090456
      3.082813     3.075170     3.067527     3.059884     3.052240     3.044597     3.036954     3.029311     3.021667     3.014024
      3.006381     2.998738     2.991095     2.983451     2.975808     2.968165     2.960522     2.952878     2.945235     2.937592
      2.929949     2.922306     2.914662     2.907019     2.899376     2.891733     2.884089     2.876446     2.868803     2.861160
      2.853517     2.845873     2.838230     2.830587     2.822944     2.815300     2.807657     2.800014     2.792371     2.784728
      2.777084     2.769441     2.761798     2.754155     2.746511     2.738868     2.731225     2.723582     2.715939     2.708295
      2.700652     2.693009     2.685366     2.677722     2.670079     2.662436     2.654793     2.647150     2.639506     2.631863
      2.624220     2.616577     2.608933     2.601290     2.593647     2.586004     2.578361     2.570717     2.563074     2.555431
      2.547788     2.540144     2.532501     2.524858     2.517215     2.509572     2.501928     2.494285     2.486642     2.478999
      2.471355     2.463712     2.456069     2.448426     2.440783     2.433139     2.425496     2.417853     2.410210     2.402566
      2.394923     2.387280     2.379637     2.371994     2.364350     2.356707     2.349064     2.341421     2.333777     2.326134
      2.318491     2.310848     2.303205     2.295561     2.287918     2.280275     2.272632     2.264988     2.257345     2.249702
      2.242059     2.234416     2.226772     2.219129     2.211486     2.203843     2.196199     2.188556     2.180913     2.173270
      2.165627     2.157983     2.150340     2.142697     2.135054     2.127410     2.119767     2.112124     2.104481     2.096838
      2.089194     2.081551     2.073908     2.066265     2.058621     2.050978     2.043335     2.035692     2.028049     2.020405
      2.012762     2.005119     1.997476     1.989833     1.982190     1.974546     1.966903     1.959260     1.951617     1.943974
      1.936331     1.928688     1.921045     1.913402     1.905759     1.898115     1.890472     1.882829     1.875186     1.867543
      1.859900     1.852257     1.844614     1.836971     1.829327     1.821684     1.814041     1.806398     1.798755     1.791112
      1.783469     1.775826     1.768183     1.760540     1.752896     1.745253     1.737610     1.729967     1.722324     1.714681
      1.707038     1.699395     1.691752     1.684108     1.676465     1.668822     1.661179     1.653536     1.645893     1.638250
      1.630607     1.622964     1.615321     1.607677     1.600034     1.592391     1.584748     1.577105     1.569462     1.561819
      1.554176     1.546533     1.538890     1.531246     1.523603     1.515960     1.508317     1.500674     1.493031     1.485388
      1.477745     1.470102     1.462458     1.454815     1.447172     1.439529     1.431886     1.424243     1.416600     1.408957
      1.401314     1.393671     1.386027     1.378384     1.370741     1.363098     1.355455     1.347812     1.340169     1.332526
      1.324883     1.317240     1.309596     1.301953     1.294310     1.286667     1.279024     1.271381     1.263738     1.256095
      1.248452     1.240808     1.233165     1.225522     1.217879     1.210236     1.202593     1.194950     1.187307     1.179664
      1.172021     1.164377     1.156734     1.149091     1.141448     1.133805     1.126162     1.118519     1.110876     1.103233
      1.095590     1.087946     1.080303     1.072660     1.065017     1.057374     1.049731     1.042088     1.034445     1.026802
      1.019158     1.011515     1.003872     0.996229     0.988586     0.980943     0.973300     0.965657     0.958014     0.950371
      0.942727     0.935084     0.927441     0.919798     0.912155     0.904512     0.896869     0.889226     0.881583     0.873940
      0.866296     0.858653     0.851010     0.843367     0.835724     0.828081     0.820438     0.812795     0.805152     0.797508
      0.789865     0.782222     0.774579     0.766936     0.759293     0.751650     0.744007     0.736364     0.728721     0.721077
      0.713434     0.705791     0.698148     0.690505     0.682862     0.675219     0.667576     0.659933     0.652290     0.644646
      0.637003     0.629360     0.621717     0.614074     0.606431     0.598788     0.591145     0.583502     0.575858     0.568215
      0.560572     0.552929     0.545286     0.537643     0.530000     0.522357     0.514714     0.507071     0.499427     0.491784
      0.484141     0.476498     0.468855     0.461212     0.453569     0.445925     0.438282     0.430639     0.422996     0.415353
      0.407710     0.400067     0.392424     0.384780     0.377137     0.369494     0.361851     0.354208     0.346565     0.338922
      0.331278     0.323635     0.315992     0.308349     0.300706     0.293063     0.285420     0.277777     0.270133     0.262490
      0.254847     0.247204     0.239561     0.231918     0.224275     0.216631     0.208988     0.201345
 NY phased data points follow
   3.26305E+01  8.72384E+00  1.75510E+01  1.40204E+01  2.76937E+01  1.19423E+01  2.58516E+01  3.91606E+01  5.22505E+01  3.16406E+01
   7.35027E+01  4.74099E+01  6.18574E+01  5.45032E+01  5.38117E+01  3.51674E+01  4.29389E+01  3.51031E+01  4.93696E+01  2.84808E+01
   2.20373E+01  2.53873E+01  2.46412E+01  3.48323E+01  3.00475E+01  2.07759E+01  1.56072E+01  2.80549E+01  4.15048E+01  3.50379E+01
   3.34113E+01  4.28497E+01  3.83982E+01  3.02939E+01  2.84399E+01  2.36477E+01  3.17154E+01  1.80732E+01  2.33426E+01  2.82428E+01
   2.82903E+01  2.72646E+01  2.32238E+01  3.12263E+01  2.61046E+01  2.92444E+01  3.66046E+01  3.36875E+01  3.45232E+01  3.27658E+01
   4.21016E+01  3.22617E+01  3.34801E+01  2.52069E+01  2.28816E+01  1.97854E+01  2.72601E+01  2.25093E+01  2.82190E+01  3.67598E+01
   2.53992E+01  1.43604E+01  3.54482E+01  1.08364E+01  2.23913E+01  6.59071E+00  1.48241E+01  9.31611E+00  5.69759E+00 -3.27913E+00
   1.26691E+01  2.87466E+00  4.40201E+00  6.96244E+00  1.86254E+01  1.99751E+01  1.76462E+01  2.67281E+01  1.81852E+01  1.66786E+01
   1.50988E+00  1.08766E+01  1.83587E+01  1.72474E+00  1.53068E+01  2.23924E+01  1.63119E+01  2.30564E+00  1.73930E+01  1.39658E+01
   2.30539E+01  2.63633E+01  2.58367E+01  2.04236E+01  2.23717E+01  1.41372E+01  2.99517E+01  2.14845E+01  3.60861E+01  5.17209E+01
   6.63876E+01  7.28358E+01  7.50480E+01  7.00806E+01  9.20450E+01  6.37725E+01  6.21107E+01  5.30590E+01  3.04077E+01  1.69753E+01
   1.90608E+01  1.36989E+01  2.52581E+01  3.35112E+01  2.14927E+01  4.58636E+00  1.57575E+01  1.44597E+01  1.53388E+01  2.60633E+01
   2.56169E+01  3.13477E+01  2.84842E+01  4.42358E+01  6.50021E+01  5.45218E+01  6.49010E+01  8.21175E+01  7.88402E+01  7.85706E+01
   6.89866E+01  4.20278E+01  4.17925E+01  2.10401E+01  1.58621E+01  2.52300E+01  1.85969E+01  2.26830E+01  2.48845E+01  1.69374E+01
   1.14047E+01  8.65642E+00  1.55443E+01  2.56097E+01  1.98605E+01  1.38800E+01  1.36481E+01  2.13589E+01  1.38796E+01  2.87308E+01
   4.60887E+00  1.89941E+01  7.19397E+00  1.69500E+01  2.09822E+01  3.80332E-02  6.95363E+00  1.98630E+01  1.13123E+01  1.31868E+01
   1.18706E+01  8.52039E+00  1.03818E+01  8.87089E+00 -1.73022E+00  1.44927E+01 -7.74926E+00 -3.39985E+00  5.38158E+00 -1.02479E+01
   1.20090E+01 -9.04162E+00 -1.21340E+01 -1.44456E+01 -1.98828E+01 -1.31937E+01 -2.60495E+00 -1.40180E+01 -2.45318E+01  2.78636E+00
   1.00229E+01 -1.33916E+01 -8.12328E-01 -3.14359E+00 -1.86587E+01 -1.98779E-01 -1.02644E+00 -3.73836E+00  8.85225E+00 -9.75675E+00
   1.41341E+01  8.60140E-01  7.52155E+00 -8.78894E+00  5.15880E+00  2.85437E-01  6.78731E+00 -2.80868E+00 -4.72184E+00  3.68508E+00
  -1.56539E+01 -6.39010E+00  1.00937E+00  1.63510E+01  2.68333E+01  3.14574E+01  1.71492E+01  1.48102E+01  1.07108E+01 -1.61231E+00
   3.85189E+00  1.47879E+01  1.61770E+01  9.90884E+00  1.26802E+01  2.46108E+01  2.67851E+01  3.30830E+01  3.30270E+01  1.37008E+01
   1.70199E+01  9.83438E+00  1.52704E+01  2.10353E+01  2.37527E+01  2.68020E+01  3.83271E+01  2.97773E+01  3.43163E+01  3.72157E+01
   4.47684E+01  3.18853E+01  3.92815E+01  3.82962E+01  3.46223E+01  4.28092E+01  4.23204E+01  3.03067E+01  2.58340E+01  3.03124E+01
   3.17811E+01  2.32777E+01  3.61039E+01  3.00116E+01  1.59117E+01  1.97449E+01  3.24662E+01  4.07281E+01  3.54263E+01  4.91994E+01
   4.65899E+01  5.87918E+01  7.25346E+01  7.50058E+01  8.60334E+01  7.31545E+01  1.05592E+02  1.21539E+02  1.18607E+02  1.41303E+02
   1.39792E+02  1.31724E+02  1.24052E+02  1.16546E+02  9.87648E+01  7.13972E+01  5.54034E+01  3.05640E+01  3.41271E+01  3.34697E+01
   2.23833E+01  3.65795E+01  2.77407E+01  4.91622E+01  3.59796E+01  1.18247E+01  2.77020E+01  3.18204E+01  1.89123E+01  1.57336E+01
   2.59878E+01  2.48844E+01  2.08668E+01  2.45192E+01  1.05511E+01  7.58125E+00  3.63958E+00  1.56083E+01  1.87232E+01  5.12023E+00
   1.84185E+01  2.90124E+00  2.56433E+01  1.91581E+01  5.86265E+00  1.88115E+01  8.68826E+00  1.09949E+01  9.13656E+00  2.05809E+01
   3.82953E+00  2.08026E+01  2.39360E+01  7.63514E+00  2.62447E+01  1.39100E+01  2.88326E+01  3.40037E+01  3.53866E+01  2.81783E+01
   3.09885E+01  3.78098E+01  3.14802E+01  3.03170E+01  2.42597E+01  1.70003E+01  3.13015E+01  1.97815E+01  5.39029E+01  2.86394E+01
   3.87820E+01  3.31715E+01  3.43100E+01  1.96908E+01  3.20572E+01  2.97191E+01  2.23785E+01  2.89565E+01  2.48938E+01  3.53888E+01
   2.50201E+01  2.59185E+01  4.32294E+01  1.27633E+01  2.87417E+01  2.96620E+01  1.56578E+01  3.21310E+01  2.81711E+01  2.51821E+01
   4.17837E+01  3.37249E+01  3.89111E+01  3.01358E+01  2.77068E+01  2.76630E+01  2.80598E+01  2.46651E+01  1.48969E+01  2.93209E+01
   2.32103E+01  2.78535E+01  2.00707E+01  2.28554E+01  1.76881E+01  2.23471E+01  2.12485E+01  3.39437E+01  2.10386E+01  2.21720E+01
   3.11697E+01  1.62232E+00  1.61542E+01  8.80152E+00  1.41784E+01  1.36399E+01  1.45681E+01  6.62336E+00  1.04051E+01  8.37782E+00
  -5.43504E+00  9.21536E+00  1.74740E+00 -1.43662E+00  2.19773E+01 -3.16375E+00 -3.55204E+00 -7.16498E+00  2.70442E+00 -7.62654E+00
  -3.03999E+00  7.71162E+00 -7.33148E+00  1.39904E+01  5.58188E+00  1.39074E+01  1.79340E+01 -6.31618E+00  1.62994E+01  1.43471E+01
   8.92922E+00  4.43659E+00 -2.74461E+00  9.27082E+00  2.24124E+01  3.08044E+01  1.91586E+01  9.24271E+00  2.25971E+01  1.17007E+01
   3.89506E+01  3.70050E+01  1.81828E+01  2.20387E+01  1.37136E+01  1.91585E+01  2.22514E+01  3.03779E+01  2.81891E+01  1.59077E+01
   1.51596E+01  1.27943E+01  2.96531E+01  2.73412E+01  1.38942E+01  1.86889E+01  2.29252E+01  7.14890E+00  1.49577E+01  1.83989E+01
   1.64396E+01  1.47972E+01  1.29249E+01  7.10079E+00  5.77863E+00  1.93406E+00  6.97561E+00  1.06072E+01  2.51009E+00 -1.24196E+01
   3.78135E+00  1.20254E+00  2.28498E+01  1.88918E+00  2.43630E+00  2.45307E+00  2.62761E+00  1.45727E+00 -3.89892E-01  1.30430E+00
  -1.08208E+01  2.92597E+00  8.33704E+00 -5.79131E+00 -1.42442E+01 -8.42932E+00 -7.36524E+00 -8.61306E+00 -1.04060E+01 -1.07892E+01
   4.19668E+00  4.48454E+00 -9.65225E+00 -8.23475E+00  1.44355E+01 -3.74729E+00  8.19454E-01 -2.28936E+00 -1.62535E+01  3.35744E+00
   7.65223E+00  4.21198E+00  5.47244E+00  7.31655E+00 -2.21347E+01 -4.63944E+00 -1.22950E+01 -6.47605E+00  8.60064E+00 -6.24173E+00
   7.23400E-01 -1.28914E+01 -3.99972E+00 -4.41376E+00 -9.86530E+00 -1.02510E+01 -3.97665E+00 -1.06336E+01 -4.51388E+00 -2.57756E+00
   4.58394E+00 -1.73006E-01 -3.64688E+00  8.92063E+00  1.15210E+01 -1.27068E+00  7.25863E+00  5.61180E+00 -7.38936E+00 -1.20854E+01
  -1.90107E+01 -5.68313E+00  3.89217E+00 -9.84185E+00  7.94073E+00 -2.87323E+00  6.45397E+00  3.22701E+00
 NY points of the fit to the data follow
   1.97973E+01  1.87562E+01  1.85542E+01  2.02457E+01  2.30623E+01  2.61967E+01  3.04637E+01  3.62879E+01  4.27125E+01  4.85188E+01
   5.29872E+01  5.57868E+01  5.66634E+01  5.51500E+01  5.10444E+01  4.49526E+01  3.81495E+01  3.22112E+01  2.80536E+01  2.52578E+01
   2.32477E+01  2.21966E+01  2.21208E+01  2.21712E+01  2.22843E+01  2.31919E+01  2.51721E+01  2.80070E+01  3.14500E+01  3.52796E+01
   3.89830E+01  4.19956E+01  4.35534E+01  4.28320E+01  3.97209E+01  3.49192E+01  2.93985E+01  2.42759E+01  2.05827E+01  1.88971E+01
   1.92839E+01  2.10249E+01  2.35029E+01  2.64247E+01  2.93968E+01  3.18881E+01  3.35491E+01  3.42693E+01  3.39527E+01  3.25374E+01
   3.00268E+01  2.67055E+01  2.31723E+01  2.00939E+01  1.80154E+01  1.71147E+01  1.72106E+01  1.79204E+01  1.88280E+01  1.95819E+01
   1.99534E+01  1.98665E+01  1.93196E+01  1.84091E+01  1.73732E+01  1.63978E+01  1.57062E+01  1.55222E+01  1.58670E+01  1.65543E+01
   1.73310E+01  1.79923E+01  1.84196E+01  1.85489E+01  1.83877E+01  1.79742E+01  1.73856E+01  1.67637E+01  1.63271E+01  1.61020E+01
   1.58916E+01  1.57651E+01  1.58675E+01  1.60331E+01  1.60056E+01  1.57052E+01  1.51930E+01  1.45211E+01  1.37524E+01  1.29257E+01
   1.21420E+01  1.16427E+01  1.16357E+01  1.23076E+01  1.46209E+01  1.94131E+01  2.47108E+01  3.07810E+01  3.93479E+01  5.00966E+01
   6.08834E+01  6.99859E+01  7.64794E+01  7.96766E+01  7.88111E+01  7.30823E+01  6.28554E+01  5.00204E+01  3.73108E+01  2.71901E+01
   2.06347E+01  1.67734E+01  1.46563E+01  1.40347E+01  1.39937E+01  1.41099E+01  1.43285E+01  1.47553E+01  1.60205E+01  1.94924E+01
   2.40407E+01  2.91481E+01  3.62084E+01  4.55353E+01  5.54998E+01  6.44190E+01  7.13161E+01  7.53844E+01  7.60378E+01  7.26940E+01
   6.52450E+01  5.48008E+01  4.34814E+01  3.34563E+01  2.60881E+01  2.10873E+01  1.76492E+01  1.57580E+01  1.49598E+01  1.48536E+01
   1.53124E+01  1.61179E+01  1.68949E+01  1.73335E+01  1.72933E+01  1.67433E+01  1.58022E+01  1.46895E+01  1.36073E+01  1.26616E+01
   1.18541E+01  1.11585E+01  1.05589E+01  9.96968E+00  9.43938E+00  9.01447E+00  8.63770E+00  8.28623E+00  7.89861E+00  7.48349E+00
   7.11426E+00  6.77237E+00  6.38276E+00  5.98790E+00  5.66278E+00  5.38655E+00  5.07837E+00  4.60740E+00  3.88991E+00  3.06357E+00
   2.34723E+00  1.72206E+00  1.15804E+00  6.53995E-01  2.70579E-01  4.37611E-02 -1.05682E-01 -2.75304E-01 -4.00159E-01 -3.86339E-01
  -1.86846E-01  1.28499E-01  4.40090E-01  8.22001E-01  1.51529E+00  2.64222E+00  4.07856E+00  5.73143E+00  7.44706E+00  8.92909E+00
   9.91964E+00  1.03581E+01  1.01293E+01  9.16353E+00  7.74515E+00  6.36285E+00  5.54930E+00  5.80662E+00  7.37169E+00  9.99859E+00
   1.33418E+01  1.67068E+01  1.90476E+01  1.99538E+01  1.93335E+01  1.66754E+01  1.22326E+01  7.27724E+00  3.11406E+00  2.62148E-01
  -6.49478E-01  9.28794E-01  4.88054E+00  1.02603E+01  1.56793E+01  2.00837E+01  2.27166E+01  2.28618E+01  2.06168E+01  1.71231E+01
   1.35762E+01  1.10232E+01  1.02078E+01  1.11666E+01  1.36014E+01  1.71317E+01  2.10887E+01  2.44318E+01  2.63999E+01  2.71477E+01
   2.72837E+01  2.70213E+01  2.65779E+01  2.66166E+01  2.74706E+01  2.87434E+01  3.03729E+01  3.22093E+01  3.37386E+01  3.46757E+01
   3.51327E+01  3.51077E+01  3.45997E+01  3.39031E+01  3.34247E+01  3.35263E+01  3.43693E+01  3.62779E+01  3.96625E+01  4.37166E+01
   4.79233E+01  5.31157E+01  6.13054E+01  7.18795E+01  8.19682E+01  9.25295E+01  1.05121E+02  1.18166E+02  1.28710E+02  1.35072E+02
   1.36755E+02  1.33745E+02  1.25822E+02  1.12687E+02  9.51622E+01  7.57475E+01  5.79275E+01  4.42502E+01  3.51146E+01  2.91374E+01
   2.55179E+01  2.36942E+01  2.24804E+01  2.14996E+01  2.06592E+01  1.98581E+01  1.90191E+01  1.81081E+01  1.71424E+01  1.61774E+01
   1.52769E+01  1.44920E+01  1.38416E+01  1.33230E+01  1.29296E+01  1.26382E+01  1.24216E+01  1.22680E+01  1.21849E+01  1.21859E+01
   1.22798E+01  1.24703E+01  1.27657E+01  1.31695E+01  1.36721E+01  1.42606E+01  1.49302E+01  1.56790E+01  1.65072E+01  1.74160E+01
   1.83994E+01  1.94436E+01  2.05320E+01  2.16405E+01  2.27394E+01  2.37978E+01  2.47880E+01  2.56889E+01  2.64851E+01  2.71640E+01
   2.77203E+01  2.81538E+01  2.84693E+01  2.86784E+01  2.87986E+01  2.88534E+01  2.88737E+01  2.89001E+01  2.89960E+01  2.92564E+01
   2.95819E+01  2.98366E+01  3.01495E+01  3.05146E+01  3.06946E+01  3.04872E+01  2.98502E+01  2.89444E+01  2.79765E+01  2.68623E+01
   2.57175E+01  2.49608E+01  2.49203E+01  2.56263E+01  2.69045E+01  2.84535E+01  2.99686E+01  3.12574E+01  3.21212E+01  3.24406E+01
   3.21376E+01  3.12510E+01  3.01865E+01  2.91960E+01  2.81429E+01  2.68770E+01  2.54574E+01  2.40989E+01  2.28875E+01  2.17404E+01
   2.08144E+01  2.04288E+01  2.07265E+01  2.16019E+01  2.27930E+01  2.39305E+01  2.46644E+01  2.47804E+01  2.41211E+01  2.26416E+01
   2.05394E+01  1.81443E+01  1.58121E+01  1.37667E+01  1.20526E+01  1.06958E+01  9.67607E+00  8.91026E+00  8.33482E+00  7.90022E+00
   7.56759E+00  7.30822E+00  7.10253E+00  6.93860E+00  6.81028E+00  6.71556E+00  6.65512E+00  6.63143E+00  6.64800E+00  6.70911E+00
   6.81943E+00  6.98393E+00  7.20772E+00  7.49598E+00  7.85386E+00  8.28634E+00  8.79799E+00  9.39276E+00  1.00736E+01  1.08421E+01
   1.16981E+01  1.26393E+01  1.36610E+01  1.47551E+01  1.59104E+01  1.71123E+01  1.83427E+01  1.95799E+01  2.07996E+01  2.19750E+01
   2.30778E+01  2.40794E+01  2.49518E+01  2.56690E+01  2.62081E+01  2.65506E+01  2.66833E+01  2.65989E+01  2.62966E+01  2.57820E+01
   2.50669E+01  2.41687E+01  2.31093E+01  2.19145E+01  2.06123E+01  1.92318E+01  1.78019E+01  1.63502E+01  1.49022E+01  1.34804E+01
   1.21039E+01  1.07881E+01  9.54443E+00  8.38103E+00  7.30256E+00  6.31086E+00  5.40525E+00  4.58315E+00  3.84046E+00  3.17209E+00
   2.57229E+00  2.03502E+00  1.55418E+00  1.12383E+00  7.38342E-01  3.92511E-01  8.15624E-02 -1.98777E-01 -4.52353E-01 -6.82517E-01
  -8.92232E-01 -1.08404E+00 -1.26016E+00 -1.42251E+00 -1.57279E+00 -1.71241E+00 -1.84262E+00 -1.96446E+00 -2.07887E+00 -2.18665E+00
  -2.28852E+00 -2.38508E+00 -2.47684E+00 -2.56426E+00 -2.64776E+00 -2.72770E+00 -2.80443E+00 -2.87819E+00 -2.94926E+00 -3.01784E+00
  -3.08415E+00 -3.14838E+00 -3.21070E+00 -3.27123E+00 -3.33010E+00 -3.38742E+00 -3.44333E+00 -3.49792E+00 -3.55129E+00 -3.60349E+00
  -3.65462E+00 -3.70472E+00 -3.75390E+00 -3.80217E+00 -3.84961E+00 -3.89622E+00 -3.94208E+00 -3.98721E+00 -4.03167E+00 -4.07549E+00
  -4.11868E+00 -4.16126E+00 -4.20326E+00 -4.24471E+00 -4.28563E+00 -4.32603E+00 -4.36590E+00 -4.40524E+00 -4.44410E+00 -4.48246E+00
  -4.52035E+00 -4.55771E+00 -4.59456E+00 -4.63087E+00 -4.66667E+00 -4.70190E+00 -4.73656E+00 -4.77056E+00
 NY background values follow
     1.186E+01    1.182E+01    1.179E+01    1.176E+01    1.173E+01    1.169E+01    1.166E+01    1.163E+01    1.159E+01    1.156E+01
     1.153E+01    1.150E+01    1.146E+01    1.143E+01    1.140E+01    1.136E+01    1.133E+01    1.130E+01    1.127E+01    1.123E+01
     1.120E+01    1.117E+01    1.113E+01    1.110E+01    1.107E+01    1.103E+01    1.100E+01    1.097E+01    1.094E+01    1.090E+01
     1.087E+01    1.084E+01    1.080E+01    1.077E+01    1.074E+01    1.071E+01    1.067E+01    1.064E+01    1.061E+01    1.057E+01
     1.054E+01    1.051E+01    1.048E+01    1.044E+01    1.041E+01    1.038E+01    1.034E+01    1.031E+01    1.028E+01    1.024E+01
     1.021E+01    1.018E+01    1.015E+01    1.011E+01    1.008E+01    1.005E+01    1.001E+01    9.981E+00    9.948E+00    9.915E+00
     9.882E+00    9.849E+00    9.816E+00    9.783E+00    9.750E+00    9.717E+00    9.684E+00    9.651E+00    9.618E+00    9.585E+00
     9.552E+00    9.519E+00    9.486E+00    9.454E+00    9.421E+00    9.388E+00    9.355E+00    9.322E+00    9.289E+00    9.256E+00
     9.223E+00    9.190E+00    9.157E+00    9.124E+00    9.091E+00    9.058E+00    9.025E+00    8.992E+00    8.959E+00    8.926E+00
     8.893E+00    8.860E+00    8.827E+00    8.794E+00    8.761E+00    8.728E+00    8.695E+00    8.662E+00    8.629E+00    8.596E+00
     8.563E+00    8.530E+00    8.497E+00    8.464E+00    8.431E+00    8.398E+00    8.365E+00    8.332E+00    8.299E+00    8.266E+00
     8.233E+00    8.200E+00    8.167E+00    8.134E+00    8.101E+00    8.068E+00    8.035E+00    8.002E+00    7.969E+00    7.936E+00
     7.903E+00    7.870E+00    7.837E+00    7.804E+00    7.771E+00    7.738E+00    7.705E+00    7.672E+00    7.639E+00    7.606E+00
     7.573E+00    7.540E+00    7.507E+00    7.474E+00    7.441E+00    7.408E+00    7.375E+00    7.342E+00    7.309E+00    7.276E+00
     7.243E+00    7.210E+00    7.177E+00    7.144E+00    7.111E+00    7.078E+00    7.045E+00    7.012E+00    6.979E+00    6.946E+00
     6.913E+00    6.880E+00    6.847E+00    6.814E+00    6.780E+00    6.747E+00    6.714E+00    6.681E+00    6.648E+00    6.615E+00
     6.582E+00    6.549E+00    6.516E+00    6.483E+00    6.450E+00    6.417E+00    6.384E+00    6.351E+00    6.318E+00    6.285E+00
     6.252E+00    6.219E+00    6.186E+00    6.153E+00    6.120E+00    6.087E+00    6.054E+00    6.021E+00    5.988E+00    5.955E+00
     5.922E+00    5.889E+00    5.856E+00    5.823E+00    5.790E+00    5.757E+00    5.724E+00    5.691E+00    5.658E+00    5.625E+00
     5.592E+00    5.558E+00    5.525E+00    5.492E+00    5.459E+00    5.426E+00    5.393E+00    5.360E+00    5.327E+00    5.294E+00
     5.261E+00    5.228E+00    5.195E+00    5.162E+00    5.129E+00    5.096E+00    5.063E+00    5.030E+00    4.997E+00    4.964E+00
     4.931E+00    4.898E+00    4.865E+00    4.832E+00    4.799E+00    4.766E+00    4.733E+00    4.700E+00    4.667E+00    4.634E+00
     4.601E+00    4.568E+00    4.535E+00    4.501E+00    4.468E+00    4.435E+00    4.402E+00    4.369E+00    4.336E+00    4.303E+00
     4.270E+00    4.237E+00    4.204E+00    4.171E+00    4.138E+00    4.105E+00    4.072E+00    4.039E+00    4.006E+00    3.973E+00
     3.940E+00    3.907E+00    3.874E+00    3.841E+00    3.808E+00    3.775E+00    3.742E+00    3.709E+00    3.676E+00    3.643E+00
     3.610E+00    3.577E+00    3.544E+00    3.511E+00    3.478E+00    3.445E+00    3.412E+00    3.379E+00    3.345E+00    3.312E+00
     3.279E+00    3.246E+00    3.213E+00    3.180E+00    3.147E+00    3.114E+00    3.081E+00    3.048E+00    3.015E+00    2.982E+00
     2.949E+00    2.916E+00    2.883E+00    2.850E+00    2.817E+00    2.784E+00    2.751E+00    2.718E+00    2.685E+00    2.652E+00
     2.619E+00    2.586E+00    2.553E+00    2.520E+00    2.487E+00    2.454E+00    2.421E+00    2.388E+00    2.355E+00    2.322E+00
     2.289E+00    2.256E+00    2.223E+00    2.190E+00    2.157E+00    2.124E+00    2.091E+00    2.058E+00    2.025E+00    1.992E+00
     1.959E+00    1.926E+00    1.893E+00    1.860E+00    1.827E+00    1.794E+00    1.761E+00    1.728E+00    1.695E+00    1.662E+00
     1.629E+00    1.596E+00    1.563E+00    1.530E+00    1.497E+00    1.464E+00    1.431E+00    1.398E+00    1.365E+00    1.332E+00
     1.299E+00    1.266E+00    1.233E+00    1.200E+00    1.167E+00    1.134E+00    1.101E+00    1.068E+00    1.035E+00    1.002E+00
     9.689E-01    9.359E-01    9.029E-01    8.699E-01    8.370E-01    8.040E-01    7.710E-01    7.380E-01    7.050E-01    6.721E-01
     6.391E-01    6.061E-01    5.731E-01    5.401E-01    5.072E-01    4.742E-01    4.412E-01    4.083E-01    3.753E-01    3.423E-01
     3.093E-01    2.764E-01    2.434E-01    2.104E-01    1.775E-01    1.445E-01    1.116E-01    7.859E-02    4.563E-02    1.267E-02
    -2.029E-02   -5.324E-02   -8.620E-02   -1.192E-01   -1.521E-01   -1.851E-01   -2.180E-01   -2.510E-01   -2.839E-01   -3.169E-01
    -3.498E-01   -3.828E-01   -4.157E-01   -4.487E-01   -4.816E-01   -5.145E-01   -5.475E-01   -5.804E-01   -6.134E-01   -6.463E-01
    -6.792E-01   -7.122E-01   -7.451E-01   -7.780E-01   -8.110E-01   -8.439E-01   -8.768E-01   -9.098E-01   -9.427E-01   -9.756E-01
    -1.009E+00   -1.041E+00   -1.074E+00   -1.107E+00   -1.140E+00   -1.173E+00   -1.206E+00   -1.239E+00   -1.272E+00   -1.305E+00
    -1.338E+00   -1.371E+00   -1.404E+00   -1.436E+00   -1.469E+00   -1.502E+00   -1.535E+00   -1.568E+00   -1.601E+00   -1.634E+00
    -1.667E+00   -1.700E+00   -1.733E+00   -1.765E+00   -1.798E+00   -1.831E+00   -1.864E+00   -1.897E+00   -1.930E+00   -1.963E+00
    -1.996E+00   -2.029E+00   -2.061E+00   -2.094E+00   -2.127E+00   -2.160E+00   -2.193E+00   -2.226E+00   -2.259E+00   -2.292E+00
    -2.325E+00   -2.357E+00   -2.390E+00   -2.423E+00   -2.456E+00   -2.489E+00   -2.522E+00   -2.555E+00   -2.587E+00   -2.620E+00
    -2.653E+00   -2.686E+00   -2.719E+00   -2.752E+00   -2.785E+00   -2.817E+00   -2.850E+00   -2.883E+00   -2.916E+00   -2.949E+00
    -2.982E+00   -3.014E+00   -3.047E+00   -3.080E+00   -3.113E+00   -3.146E+00   -3.179E+00   -3.211E+00   -3.244E+00   -3.277E+00
    -3.310E+00   -3.343E+00   -3.376E+00   -3.408E+00   -3.441E+00   -3.474E+00   -3.507E+00   -3.540E+00   -3.572E+00   -3.605E+00
    -3.638E+00   -3.671E+00   -3.704E+00   -3.737E+00   -3.769E+00   -3.802E+00   -3.835E+00   -3.868E+00   -3.900E+00   -3.933E+00
    -3.966E+00   -3.999E+00   -4.032E+00   -4.064E+00   -4.097E+00   -4.130E+00   -4.163E+00   -4.196E+00   -4.228E+00   -4.261E+00
    -4.294E+00   -4.327E+00   -4.359E+00   -4.392E+00   -4.425E+00   -4.458E+00   -4.490E+00   -4.523E+00
 Ala      Conc. = 4.88E+02
