 LCModel (Version 6.3-1L) Copyright: S.W. Provencher.          Ref.: Magn. Reson. Med. 30:672-679 (1993).                
 Slice#3 Row#3 Col#10  PD_05_press_2_raw_act
 36 lines in following concentration table = NCONC+1
    Conc.  %SD /Cr+PCr  Metabolite                                         
    0.000 999%   0.000 Ala                                                 
   88.219 141%   0.123 Asp                                                 
  719.407  13%   1.000 Cr                                                  
    0.000 999%   0.000 PCr                                                 
   77.202  97%   0.107 GABA                                                
   82.297  92%   0.114 Glc                                                 
  406.436 101%   0.565 Gln                                                 
    0.000 999%   0.000 Glu                                                 
  265.758  13%   0.369 GPC                                                 
    0.000 999%   0.000 PCh                                                 
  122.739 104%   0.171 GSH                                                 
  588.790  67%   0.818 Ins                                                 
    0.000 999%   0.000 Lac                                                 
    0.000 999%   0.000 NAA                                                 
  882.587  13%   1.227 NAAG                                                
   32.639  71% 4.5E-02 Scyllo                                              
  114.016 107%   0.158 Tau                                                 
  320.289  39%   0.445 -CrCH2                                              
  265.758  13%   0.369 GPC+PCh                                             
  882.587  13%   1.227 NAA+NAAG                                            
  719.407  13%   1.000 Cr+PCr                                              
  406.436 101%   0.565 Glu+Gln                                             
    0.000 999%   0.000 Lip13a                                              
    0.000 999%   0.000 Lip13b                                              
 1.89E-03 999% 2.6E-06 Lip09                                               
 1.71E+03  15%   2.373 MM09                                                
    0.000 999%   0.000 Lip20                                               
  129.701 386%   0.180 MM20                                                
  353.399  75%   0.491 MM12                                                
    0.000 999%   0.000 MM14                                                
  741.323  36%   1.030 MM17                                                
    0.000 999%   0.000 Lip13a+Lip13b                                       
  353.399  75%   0.491 MM14+Lip13a+Lip13b+MM12                             
 1.71E+03  15%   2.373 MM09+Lip09                                          
  129.701 386%   0.180 MM20+Lip20                                          
   6 lines in following misc. output table
  FWHM = 0.054 ppm    S/N =   2                                            
  Data shift = 0.046 ppm                                                   
  Ph:  25 deg      31.3 deg/ppm                                            
  alphaB,S = 8.5E+01,   5.1E+01                                            
   14 spline knots.   Ns = 6(1)                                            
   2 inflections.     1 extrema                                            
  498 points on ppm-axis = NY
      4.000000     3.992357     3.984714     3.977070     3.969427     3.961784     3.954141     3.946497     3.938854     3.931211
      3.923568     3.915925     3.908281     3.900638     3.892995     3.885352     3.877708     3.870065     3.862422     3.854779
      3.847136     3.839492     3.831849     3.824206     3.816563     3.808919     3.801276     3.793633     3.785990     3.778347
      3.770703     3.763060     3.755417     3.747774     3.740130     3.732487     3.724844     3.717201     3.709558     3.701914
      3.694271     3.686628     3.678985     3.671341     3.663698     3.656055     3.648412     3.640769     3.633125     3.625482
      3.617839     3.610196     3.602552     3.594909     3.587266     3.579623     3.571980     3.564336     3.556693     3.549050
      3.541407     3.533763     3.526120     3.518477     3.510834     3.503191     3.495547     3.487904     3.480261     3.472618
      3.464974     3.457331     3.449688     3.442045     3.434402     3.426758     3.419115     3.411472     3.403829     3.396185
      3.388542     3.380899     3.373256     3.365613     3.357969     3.350326     3.342683     3.335040     3.327396     3.319753
      3.312110     3.304467     3.296824     3.289180     3.281537     3.273894     3.266251     3.258607     3.250964     3.243321
      3.235678     3.228034     3.220391     3.212748     3.205105     3.197462     3.189818     3.182175     3.174532     3.166889
      3.159245     3.151602     3.143959     3.136316     3.128673     3.121029     3.113386     3.105743     3.098100     3.090456
      3.082813     3.075170     3.067527     3.059884     3.052240     3.044597     3.036954     3.029311     3.021667     3.014024
      3.006381     2.998738     2.991095     2.983451     2.975808     2.968165     2.960522     2.952878     2.945235     2.937592
      2.929949     2.922306     2.914662     2.907019     2.899376     2.891733     2.884089     2.876446     2.868803     2.861160
      2.853517     2.845873     2.838230     2.830587     2.822944     2.815300     2.807657     2.800014     2.792371     2.784728
      2.777084     2.769441     2.761798     2.754155     2.746511     2.738868     2.731225     2.723582     2.715939     2.708295
      2.700652     2.693009     2.685366     2.677722     2.670079     2.662436     2.654793     2.647150     2.639506     2.631863
      2.624220     2.616577     2.608933     2.601290     2.593647     2.586004     2.578361     2.570717     2.563074     2.555431
      2.547788     2.540144     2.532501     2.524858     2.517215     2.509572     2.501928     2.494285     2.486642     2.478999
      2.471355     2.463712     2.456069     2.448426     2.440783     2.433139     2.425496     2.417853     2.410210     2.402566
      2.394923     2.387280     2.379637     2.371994     2.364350     2.356707     2.349064     2.341421     2.333777     2.326134
      2.318491     2.310848     2.303205     2.295561     2.287918     2.280275     2.272632     2.264988     2.257345     2.249702
      2.242059     2.234416     2.226772     2.219129     2.211486     2.203843     2.196199     2.188556     2.180913     2.173270
      2.165627     2.157983     2.150340     2.142697     2.135054     2.127410     2.119767     2.112124     2.104481     2.096838
      2.089194     2.081551     2.073908     2.066265     2.058621     2.050978     2.043335     2.035692     2.028049     2.020405
      2.012762     2.005119     1.997476     1.989833     1.982190     1.974546     1.966903     1.959260     1.951617     1.943974
      1.936331     1.928688     1.921045     1.913402     1.905759     1.898115     1.890472     1.882829     1.875186     1.867543
      1.859900     1.852257     1.844614     1.836971     1.829327     1.821684     1.814041     1.806398     1.798755     1.791112
      1.783469     1.775826     1.768183     1.760540     1.752896     1.745253     1.737610     1.729967     1.722324     1.714681
      1.707038     1.699395     1.691752     1.684108     1.676465     1.668822     1.661179     1.653536     1.645893     1.638250
      1.630607     1.622964     1.615321     1.607677     1.600034     1.592391     1.584748     1.577105     1.569462     1.561819
      1.554176     1.546533     1.538890     1.531246     1.523603     1.515960     1.508317     1.500674     1.493031     1.485388
      1.477745     1.470102     1.462458     1.454815     1.447172     1.439529     1.431886     1.424243     1.416600     1.408957
      1.401314     1.393671     1.386027     1.378384     1.370741     1.363098     1.355455     1.347812     1.340169     1.332526
      1.324883     1.317240     1.309596     1.301953     1.294310     1.286667     1.279024     1.271381     1.263738     1.256095
      1.248452     1.240808     1.233165     1.225522     1.217879     1.210236     1.202593     1.194950     1.187307     1.179664
      1.172021     1.164377     1.156734     1.149091     1.141448     1.133805     1.126162     1.118519     1.110876     1.103233
      1.095590     1.087946     1.080303     1.072660     1.065017     1.057374     1.049731     1.042088     1.034445     1.026802
      1.019158     1.011515     1.003872     0.996229     0.988586     0.980943     0.973300     0.965657     0.958014     0.950371
      0.942727     0.935084     0.927441     0.919798     0.912155     0.904512     0.896869     0.889226     0.881583     0.873940
      0.866296     0.858653     0.851010     0.843367     0.835724     0.828081     0.820438     0.812795     0.805152     0.797508
      0.789865     0.782222     0.774579     0.766936     0.759293     0.751650     0.744007     0.736364     0.728721     0.721077
      0.713434     0.705791     0.698148     0.690505     0.682862     0.675219     0.667576     0.659933     0.652290     0.644646
      0.637003     0.629360     0.621717     0.614074     0.606431     0.598788     0.591145     0.583502     0.575858     0.568215
      0.560572     0.552929     0.545286     0.537643     0.530000     0.522357     0.514714     0.507071     0.499427     0.491784
      0.484141     0.476498     0.468855     0.461212     0.453569     0.445925     0.438282     0.430639     0.422996     0.415353
      0.407710     0.400067     0.392424     0.384780     0.377137     0.369494     0.361851     0.354208     0.346565     0.338922
      0.331278     0.323635     0.315992     0.308349     0.300706     0.293063     0.285420     0.277777     0.270133     0.262490
      0.254847     0.247204     0.239561     0.231918     0.224275     0.216631     0.208988     0.201345
 NY phased data points follow
  -6.21130E+00  1.49472E+01 -1.07425E+00  1.57413E+00 -7.38636E+00  3.09037E+00  8.85566E+00  1.10681E+01  1.01402E+01  1.06958E-01
  -3.75617E+00 -7.69540E-01  1.42965E+01  1.80944E+01  2.01113E+01  1.94592E+01  9.08288E+00  2.07318E+01  6.37476E+00  6.87329E+00
   1.34963E+01  7.21990E+00  1.49090E+01  2.29890E+01  7.68399E+00  7.03538E+00  8.27452E+00 -1.07759E+00  8.20759E-01  1.11860E+01
   1.07980E+01  6.05359E+00  7.13413E+00  7.70252E+00 -4.59486E-01  4.86527E+00  3.75082E+00  1.39337E+01  5.88163E+00  8.52542E+00
   1.54608E+01  9.51681E+00  2.82737E+00  1.79527E+01  1.13365E+01  8.53432E+00  1.25534E+01  1.27530E+01  8.45006E+00  1.10297E+00
   1.13697E+00  1.00062E+01  1.08828E+01  9.63308E+00  3.67242E+00  1.20063E+01  1.78816E+01  1.06391E+01  4.22222E+00  1.32883E+01
   9.45689E+00  5.60414E+00  7.23893E+00 -5.09869E-01 -3.30302E+00  7.61857E+00 -1.49665E+01  2.41733E+00 -8.90365E+00 -1.33557E+00
  -1.10427E+01  6.36503E-01 -6.65159E+00  4.55933E+00 -2.90579E+00  7.02935E+00  8.82468E+00  1.66489E+00  7.74241E+00  8.69191E+00
   1.00830E+01  1.02106E+00  2.37096E+00  2.88608E-01  7.27464E+00  5.65414E+00  1.78096E+00  5.54306E+00 -1.37358E+00  1.70246E+01
  -1.40475E+00  9.87981E+00 -3.15119E+00 -6.22523E+00  7.23381E+00  3.82321E+00  1.07755E+00  2.00652E+01  1.50498E+00  1.28529E+01
   1.36768E+01  1.68608E+01  2.69720E+01  2.66660E+01  1.98931E+01  2.12767E+01  2.57725E+01  1.56723E+01  7.76887E+00  7.84327E+00
   1.80321E+01 -4.77960E-01  4.99068E+00  1.30974E+01  3.62323E-01  1.24206E+00  1.18747E+01  7.25324E+00  7.08714E+00  2.17938E+00
   6.72502E+00  2.17459E+00  8.94561E+00  5.49162E+00  8.69782E+00  2.27883E+01  1.62195E+01  2.33128E+01  3.00830E+01  2.68504E+01
   1.68423E+01  1.18200E+01  2.02663E+01  9.06305E+00 -2.74998E+00  6.36106E+00  4.91261E+00  1.37503E+00  4.89874E+00 -2.54487E+00
  -1.75028E-01 -8.56971E+00  1.10152E+01  4.27314E-01  4.19152E+00  5.72667E-01 -7.69690E+00 -3.25906E+00  6.97983E+00 -1.41852E+00
   9.62490E+00  6.94452E+00 -3.51011E+00 -1.26858E+00  8.85013E+00  1.89836E+00 -8.60878E+00 -2.17858E+00  4.64827E-01  2.51296E+00
  -7.55163E+00  4.27901E-01  2.69335E+00  9.84934E+00 -2.46493E+00 -1.66184E+00  7.14481E+00 -4.60281E+00 -2.35599E-01 -4.91525E+00
  -7.92260E+00 -1.67333E+00 -8.27766E+00 -7.25330E+00 -4.10679E+00 -1.06042E+00  1.78009E+00 -2.54779E+00 -4.12806E+00 -1.39752E+01
  -5.20772E+00  1.91528E+00 -5.42592E+00 -2.35611E+00 -9.17721E+00 -3.24372E+00 -4.76941E+00 -9.78054E+00 -2.11339E+00 -1.08041E+00
   6.99282E-01  6.07460E+00 -4.95934E+00 -4.42604E+00 -1.65896E+01 -3.26037E+00  4.71725E+00 -9.67856E+00 -7.76804E+00  6.67135E+00
  -3.34098E+00 -6.73083E+00 -7.42130E+00  1.06603E+01 -9.52122E+00  7.55228E+00 -2.77362E+00 -8.63418E+00 -7.85121E-01 -3.13192E+00
  -4.93660E+00  5.31447E-01 -4.81758E+00  7.26946E-01  1.53973E+01 -1.03437E+01  1.92537E+00 -2.12431E+00 -1.47607E+00 -3.22765E+00
   3.20627E-01 -1.81619E-01  1.97580E+00  2.06581E+00  2.57241E+00  8.34607E+00 -7.82002E+00  4.18601E+00  8.37233E+00  1.65433E+00
   1.74901E+00 -2.30330E+00  3.30032E+00  1.50265E+00  2.45777E+00  3.78997E+00  5.90423E+00 -2.81917E+00 -4.78682E+00  3.68980E+00
   7.19272E+00  4.25920E+00  8.32993E+00  1.88271E+00 -4.79381E+00  3.66554E+00  2.97000E+00  4.00216E+00 -5.93462E+00  1.21341E+01
  -2.15778E+00 -1.93450E+00  2.05480E+00  1.51350E+01  1.27010E+01  1.78155E+01  1.77006E+01  4.01743E+01  2.59310E+01  2.65852E+01
   3.01248E+01  1.55371E+01  8.79276E+00  9.67076E+00 -2.56544E+01 -1.01401E+01 -4.60296E+00 -4.07696E-01  2.09404E+00  1.85734E+00
  -1.55251E+00 -1.82608E+01 -1.04591E+01 -6.23123E+00 -1.85126E+00 -4.16983E+00  8.74269E+00 -8.68465E+00 -1.41262E-01 -9.30212E+00
  -1.13423E+01 -1.53945E+00 -5.53538E+00 -8.93935E+00 -1.15809E+01 -1.37277E+01 -4.38615E+00 -1.45630E+00 -8.02143E+00  1.80021E+00
  -5.54897E+00 -8.22493E+00 -2.23309E+00  3.88504E+00  5.76148E+00  1.70514E+00 -2.60133E+00 -9.97467E+00  1.54510E+00  3.79184E+00
   8.15101E-01  1.12624E-01  3.00317E+00  2.74610E+00  5.46404E+00  3.38934E+00  4.84974E-01  3.10505E+00 -5.45814E-01  8.09332E+00
   2.38379E+00  1.50593E+01  1.93071E+01  8.88584E+00  1.79140E+01  1.59034E+01  4.42040E+00 -5.22469E+00 -1.49916E+01 -1.21550E+01
  -5.27638E+00 -1.75203E+01 -1.84521E+00 -7.86577E+00 -1.19671E+01 -2.12441E+00 -1.95879E-02 -3.44983E-01 -7.42544E+00  3.29907E+00
  -4.97144E+00 -4.60927E+00 -7.05951E+00 -1.13204E+00 -2.87192E+00 -3.31641E+00  2.63195E+00  6.47797E+00 -6.72279E+00 -1.08549E+01
  -2.77121E+00 -3.61464E+00 -8.03124E+00 -2.37623E+00 -1.33071E+01 -2.89160E+00 -1.43861E+01  2.22674E+00 -3.64395E+00  1.00043E+01
  -2.10612E+00  7.54966E+00 -5.75590E+00 -2.38128E+00  2.06677E+00 -6.70036E+00 -5.27833E+00  4.53453E-01 -5.95790E+00 -5.31452E+00
  -1.15480E+01 -2.51985E+00 -4.65486E+00  5.07166E-01  1.00917E+01  2.89209E-01 -1.29136E+00 -9.18202E+00  7.75558E+00 -1.60247E+00
   4.76293E+00 -1.09085E+01 -6.81357E+00  3.24170E+00  5.65400E-02 -1.56476E+00  5.14647E+00 -1.73325E+00 -2.70353E+00  1.27374E+01
   2.87423E+00  8.75596E+00 -2.40173E-01  1.09556E+01 -8.08917E-01  1.51975E+01  3.90279E+00  1.30625E+01  7.70821E+00  1.01634E+01
   7.91814E+00 -1.06937E+00  1.08371E+01  1.10221E+01  1.37265E+01  1.13448E+01  2.39015E+01  9.22872E+00 -2.31599E+00  6.21365E+00
   3.62677E+00  1.23152E+01  5.05102E+00  2.29382E+00  1.45357E+01  1.57242E+00  1.06729E+01  7.18833E+00  1.38463E+01  1.45456E+01
   1.24758E+01  8.10933E+00 -4.85020E+00  3.93925E+00  2.11034E+00  9.59972E+00  8.41150E-01  1.98318E+00 -8.26640E+00  3.05741E+00
  -3.27043E+00  2.10397E+00  1.75183E+00 -9.88550E+00 -1.53594E+00 -3.47530E+00 -4.48797E-01 -3.30159E+00 -1.47953E+00  4.81862E-01
  -3.32345E-01 -4.50208E-01  6.15243E+00  7.60212E+00  1.70493E+00 -3.15263E+00  3.96262E+00  6.46661E+00 -7.84633E+00 -1.37770E+01
   5.08038E+00 -5.31143E+00  1.62389E+00 -7.60786E-01 -5.16427E+00 -1.44361E-01 -5.89585E+00 -1.32969E+01  6.50486E+00 -4.84430E+00
   4.17712E+00  8.75712E+00  3.79426E-01 -3.63889E+00  3.21491E+00  5.29470E+00 -1.22359E+01 -1.44339E+00 -7.10788E+00 -3.84207E+00
  -6.79289E+00 -5.76516E+00 -5.52587E-01  7.03550E+00  4.87160E+00  3.93781E+00  2.72444E+00 -6.15829E+00 -4.65128E+00 -3.55880E+00
  -1.04282E+01 -4.00730E+00 -4.24653E+00 -1.08246E+01 -1.14257E+01 -4.00298E+00 -2.98909E-01  4.18981E+00 -1.71002E+00 -7.86107E+00
   5.76895E+00 -1.07028E-01 -1.33343E-01  7.63832E-01 -3.79369E+00 -7.02845E+00 -1.92492E+00 -8.15435E+00 -1.59516E+00  2.95237E+00
  -8.75024E+00  1.57207E+00 -6.74163E+00 -1.14280E+00 -5.69873E+00 -1.09839E+01 -4.57530E+00 -3.80982E+00
 NY points of the fit to the data follow
   5.05089E+00  4.73880E+00  4.41855E+00  3.92878E+00  3.51549E+00  3.64077E+00  4.34797E+00  5.16105E+00  5.95120E+00  6.97926E+00
   8.71939E+00  1.12537E+01  1.38544E+01  1.56149E+01  1.61413E+01  1.54087E+01  1.33633E+01  1.02626E+01  7.24474E+00  5.47581E+00
   4.85167E+00  4.50758E+00  4.23784E+00  4.05965E+00  4.06508E+00  4.20126E+00  4.41111E+00  4.69384E+00  5.08556E+00  5.64707E+00
   6.33871E+00  6.99590E+00  7.44225E+00  7.56403E+00  7.24808E+00  6.52750E+00  5.63911E+00  4.87761E+00  4.43443E+00  4.23237E+00
   4.23382E+00  4.41478E+00  4.73107E+00  5.12423E+00  5.54722E+00  6.03901E+00  6.66510E+00  7.34597E+00  7.83099E+00  7.91536E+00
   7.57961E+00  6.88072E+00  5.87726E+00  4.79281E+00  3.93723E+00  3.50166E+00  3.47034E+00  3.65504E+00  3.91499E+00  4.17986E+00
   4.40587E+00  4.53282E+00  4.51074E+00  4.34256E+00  4.04914E+00  3.68319E+00  3.35541E+00  3.18031E+00  3.19190E+00  3.36230E+00
   3.63454E+00  3.91057E+00  4.13726E+00  4.28056E+00  4.33544E+00  4.32972E+00  4.26333E+00  4.12597E+00  3.90222E+00  3.64827E+00
   3.48378E+00  3.39360E+00  3.33551E+00  3.33888E+00  3.41747E+00  3.52423E+00  3.59232E+00  3.51970E+00  3.25164E+00  2.85461E+00
   2.45671E+00  2.13355E+00  1.93394E+00  1.92587E+00  2.14424E+00  2.53574E+00  3.41678E+00  5.36462E+00  7.86748E+00  1.06378E+01
   1.37585E+01  1.73683E+01  2.13975E+01  2.50055E+01  2.68434E+01  2.61747E+01  2.32230E+01  1.85564E+01  1.29341E+01  7.52121E+00
   3.83217E+00  2.50226E+00  2.10112E+00  1.90441E+00  1.77804E+00  1.68447E+00  1.62361E+00  1.57937E+00  1.55800E+00  1.60078E+00
   1.89772E+00  3.10364E+00  5.22468E+00  7.72150E+00  1.05289E+01  1.37729E+01  1.75310E+01  2.14039E+01  2.42458E+01  2.49392E+01
   2.32789E+01  1.96717E+01  1.47267E+01  9.35107E+00  4.81183E+00  2.36026E+00  1.48549E+00  1.01635E+00  7.22422E-01  5.96444E-01
   6.38610E-01  8.18307E-01  1.05449E+00  1.24109E+00  1.33279E+00  1.32039E+00  1.21830E+00  1.07307E+00  9.04581E-01  7.12449E-01
   5.25349E-01  3.40375E-01  1.67191E-01  1.96298E-02 -1.24974E-01 -2.60542E-01 -3.37287E-01 -3.26329E-01 -2.49755E-01 -1.60360E-01
  -1.22785E-01 -1.78522E-01 -3.53265E-01 -6.35500E-01 -9.55000E-01 -1.23092E+00 -1.37669E+00 -1.39281E+00 -1.36984E+00 -1.36722E+00
  -1.38052E+00 -1.33775E+00 -1.21351E+00 -1.05720E+00 -9.36963E-01 -8.96316E-01 -9.60827E-01 -1.13148E+00 -1.33500E+00 -1.47159E+00
  -1.47827E+00 -1.38680E+00 -1.23848E+00 -1.05509E+00 -8.07461E-01 -4.36347E-01  3.29084E-02  5.23692E-01  9.35783E-01  1.21619E+00
   1.31462E+00  1.21602E+00  9.93402E-01  6.53655E-01  1.99592E-01 -3.13896E-01 -7.94259E-01 -1.13765E+00 -1.22190E+00 -9.27319E-01
  -2.67546E-01  5.54748E-01  1.27580E+00  1.69599E+00  1.65902E+00  1.19262E+00  4.25695E-01 -5.14017E-01 -1.49389E+00 -2.39701E+00
  -3.04717E+00 -3.27237E+00 -3.02250E+00 -2.36847E+00 -1.48593E+00 -5.70897E-01  1.81990E-01  5.99963E-01  6.78703E-01  6.38258E-01
   6.44620E-01  7.04654E-01  7.93470E-01  9.01008E-01  1.00508E+00  1.03713E+00  9.68542E-01  8.15098E-01  5.85953E-01  3.09382E-01
  -7.22108E-03 -2.98308E-01 -4.79083E-01 -4.95279E-01 -3.38211E-01 -3.70304E-02  2.85960E-01  5.31483E-01  6.91440E-01  6.99950E-01
   5.57254E-01  2.98809E-01 -7.18613E-02 -5.09218E-01 -9.20990E-01 -1.16951E+00 -1.20617E+00 -1.01499E+00 -5.74533E-01  2.95892E-01
   2.28747E+00  5.22828E+00  8.54462E+00  1.21612E+01  1.61985E+01  2.07510E+01  2.52956E+01  2.83957E+01  2.87933E+01  2.63773E+01
   2.17240E+01  1.56060E+01  9.10893E+00  3.80322E+00  1.20475E+00  4.65332E-01  1.57429E-01 -5.31644E-02 -2.25201E-01 -3.56645E-01
  -4.31811E-01 -4.58566E-01 -4.45411E-01 -4.07668E-01 -3.63290E-01 -3.49631E-01 -4.13387E-01 -5.69001E-01 -7.80553E-01 -9.89703E-01
  -1.13770E+00 -1.20619E+00 -1.18558E+00 -1.07550E+00 -9.17695E-01 -7.83789E-01 -6.80105E-01 -5.89984E-01 -5.09367E-01 -4.32960E-01
  -3.39433E-01 -1.90866E-01  3.80460E-02  3.25344E-01  6.55685E-01  1.01014E+00  1.36825E+00  1.71302E+00  2.02878E+00  2.31535E+00
   2.60557E+00  2.91183E+00  3.22206E+00  3.52117E+00  3.79322E+00  4.01986E+00  4.17967E+00  4.25205E+00  4.23691E+00  4.14344E+00
   3.97710E+00  3.74600E+00  3.45912E+00  3.12655E+00  2.75927E+00  2.36886E+00  1.96688E+00  1.56440E+00  1.17125E+00  7.95853E-01
   4.44922E-01  1.23232E-01 -1.66776E-01 -4.23998E-01 -6.48609E-01 -8.41761E-01 -1.00550E+00 -1.14235E+00 -1.25523E+00 -1.34705E+00
  -1.42074E+00 -1.47894E+00 -1.52410E+00 -1.55823E+00 -1.58312E+00 -1.60012E+00 -1.61040E+00 -1.61473E+00 -1.61377E+00 -1.60786E+00
  -1.59729E+00 -1.58211E+00 -1.56239E+00 -1.53803E+00 -1.50900E+00 -1.47517E+00 -1.43653E+00 -1.39299E+00 -1.34461E+00 -1.29147E+00
  -1.23380E+00 -1.17190E+00 -1.10625E+00 -1.03736E+00 -9.66004E-01 -8.92926E-01 -8.19079E-01 -7.45381E-01 -6.72870E-01 -6.02479E-01
  -5.35182E-01 -4.71744E-01 -4.12864E-01 -3.58923E-01 -3.10131E-01 -2.66295E-01 -2.26982E-01 -1.91288E-01 -1.58020E-01 -1.25488E-01
  -9.17149E-02 -5.42376E-02 -1.03334E-02  4.31679E-02  1.09643E-01  1.92839E-01  2.96618E-01  4.25091E-01  5.82338E-01  7.72508E-01
   9.99475E-01  1.26689E+00  1.57777E+00  1.93451E+00  2.33837E+00  2.78953E+00  3.28650E+00  3.82619E+00  4.40347E+00  5.01123E+00
   5.64020E+00  6.27920E+00  6.91516E+00  7.53369E+00  8.11932E+00  8.65636E+00  9.12930E+00  9.52382E+00  9.82722E+00  1.00293E+01
   1.01228E+01  1.01037E+01  9.97182E+00  9.73031E+00  9.38578E+00  8.94794E+00  8.42885E+00  7.84253E+00  7.20403E+00  6.52888E+00
   5.83225E+00  5.12851E+00  4.43056E+00  3.74967E+00  3.09505E+00  2.47396E+00  1.89152E+00  1.35109E+00  8.54193E-01  4.01056E-01
  -9.40161E-03 -3.79038E-01 -7.10470E-01 -1.00660E+00 -1.27066E+00 -1.50581E+00 -1.71526E+00 -1.90193E+00 -2.06867E+00 -2.21793E+00
  -2.35202E+00 -2.47288E+00 -2.58231E+00 -2.68176E+00 -2.77262E+00 -2.85594E+00 -2.93273E+00 -3.00376E+00 -3.06981E+00 -3.13140E+00
  -3.18913E+00 -3.24336E+00 -3.29455E+00 -3.34295E+00 -3.38894E+00 -3.43268E+00 -3.47446E+00 -3.51441E+00 -3.55276E+00 -3.58960E+00
  -3.62511E+00 -3.65936E+00 -3.69251E+00 -3.72459E+00 -3.75575E+00 -3.78599E+00 -3.81546E+00 -3.84414E+00 -3.87216E+00 -3.89950E+00
  -3.92628E+00 -3.95246E+00 -3.97816E+00 -4.00334E+00 -4.02810E+00 -4.05239E+00 -4.07632E+00 -4.09984E+00 -4.12305E+00 -4.14589E+00
  -4.16846E+00 -4.19070E+00 -4.21270E+00 -4.23441E+00 -4.25590E+00 -4.27713E+00 -4.29817E+00 -4.31896E+00 -4.33960E+00 -4.36001E+00
  -4.38027E+00 -4.40033E+00 -4.42026E+00 -4.44001E+00 -4.45963E+00 -4.47909E+00 -4.49844E+00 -4.51762E+00 -4.53671E+00 -4.55565E+00
  -4.57451E+00 -4.59321E+00 -4.61185E+00 -4.63034E+00 -4.64876E+00 -4.66704E+00 -4.68526E+00 -4.70334E+00
 NY background values follow
     2.798E+00    2.783E+00    2.767E+00    2.752E+00    2.737E+00    2.721E+00    2.706E+00    2.690E+00    2.675E+00    2.659E+00
     2.644E+00    2.629E+00    2.613E+00    2.598E+00    2.582E+00    2.567E+00    2.551E+00    2.536E+00    2.521E+00    2.505E+00
     2.490E+00    2.474E+00    2.459E+00    2.443E+00    2.428E+00    2.413E+00    2.397E+00    2.382E+00    2.366E+00    2.351E+00
     2.336E+00    2.320E+00    2.305E+00    2.289E+00    2.274E+00    2.258E+00    2.243E+00    2.228E+00    2.212E+00    2.197E+00
     2.181E+00    2.166E+00    2.150E+00    2.135E+00    2.120E+00    2.104E+00    2.089E+00    2.073E+00    2.058E+00    2.042E+00
     2.027E+00    2.012E+00    1.996E+00    1.981E+00    1.965E+00    1.950E+00    1.934E+00    1.919E+00    1.904E+00    1.888E+00
     1.873E+00    1.857E+00    1.842E+00    1.826E+00    1.811E+00    1.796E+00    1.780E+00    1.765E+00    1.749E+00    1.734E+00
     1.719E+00    1.703E+00    1.688E+00    1.672E+00    1.657E+00    1.641E+00    1.626E+00    1.611E+00    1.595E+00    1.580E+00
     1.564E+00    1.549E+00    1.533E+00    1.518E+00    1.503E+00    1.487E+00    1.472E+00    1.456E+00    1.441E+00    1.425E+00
     1.410E+00    1.395E+00    1.379E+00    1.364E+00    1.348E+00    1.333E+00    1.317E+00    1.302E+00    1.287E+00    1.271E+00
     1.256E+00    1.240E+00    1.225E+00    1.210E+00    1.194E+00    1.179E+00    1.163E+00    1.148E+00    1.132E+00    1.117E+00
     1.102E+00    1.086E+00    1.071E+00    1.055E+00    1.040E+00    1.024E+00    1.009E+00    9.936E-01    9.782E-01    9.627E-01
     9.473E-01    9.319E-01    9.165E-01    9.010E-01    8.856E-01    8.702E-01    8.548E-01    8.393E-01    8.239E-01    8.085E-01
     7.931E-01    7.777E-01    7.622E-01    7.468E-01    7.314E-01    7.160E-01    7.005E-01    6.851E-01    6.697E-01    6.543E-01
     6.388E-01    6.234E-01    6.080E-01    5.926E-01    5.771E-01    5.617E-01    5.463E-01    5.309E-01    5.154E-01    5.000E-01
     4.846E-01    4.692E-01    4.538E-01    4.383E-01    4.229E-01    4.075E-01    3.921E-01    3.766E-01    3.612E-01    3.458E-01
     3.304E-01    3.149E-01    2.995E-01    2.841E-01    2.687E-01    2.532E-01    2.378E-01    2.224E-01    2.070E-01    1.916E-01
     1.761E-01    1.607E-01    1.453E-01    1.299E-01    1.144E-01    9.901E-02    8.359E-02    6.817E-02    5.275E-02    3.732E-02
     2.190E-02    6.475E-03   -8.948E-03   -2.437E-02   -3.979E-02   -5.522E-02   -7.064E-02   -8.606E-02   -1.015E-01   -1.169E-01
    -1.323E-01   -1.478E-01   -1.632E-01   -1.786E-01   -1.940E-01   -2.094E-01   -2.249E-01   -2.403E-01   -2.557E-01   -2.711E-01
    -2.866E-01   -3.020E-01   -3.174E-01   -3.328E-01   -3.483E-01   -3.637E-01   -3.791E-01   -3.945E-01   -4.099E-01   -4.254E-01
    -4.408E-01   -4.562E-01   -4.716E-01   -4.871E-01   -5.025E-01   -5.179E-01   -5.333E-01   -5.487E-01   -5.642E-01   -5.796E-01
    -5.950E-01   -6.104E-01   -6.259E-01   -6.413E-01   -6.567E-01   -6.721E-01   -6.875E-01   -7.030E-01   -7.184E-01   -7.338E-01
    -7.492E-01   -7.647E-01   -7.801E-01   -7.955E-01   -8.109E-01   -8.263E-01   -8.418E-01   -8.572E-01   -8.726E-01   -8.880E-01
    -9.035E-01   -9.189E-01   -9.343E-01   -9.497E-01   -9.651E-01   -9.806E-01   -9.960E-01   -1.011E+00   -1.027E+00   -1.042E+00
    -1.058E+00   -1.073E+00   -1.089E+00   -1.104E+00   -1.119E+00   -1.135E+00   -1.150E+00   -1.166E+00   -1.181E+00   -1.196E+00
    -1.212E+00   -1.227E+00   -1.243E+00   -1.258E+00   -1.274E+00   -1.289E+00   -1.304E+00   -1.320E+00   -1.335E+00   -1.351E+00
    -1.366E+00   -1.382E+00   -1.397E+00   -1.412E+00   -1.428E+00   -1.443E+00   -1.459E+00   -1.474E+00   -1.489E+00   -1.505E+00
    -1.520E+00   -1.536E+00   -1.551E+00   -1.567E+00   -1.582E+00   -1.597E+00   -1.613E+00   -1.628E+00   -1.644E+00   -1.659E+00
    -1.675E+00   -1.690E+00   -1.705E+00   -1.721E+00   -1.736E+00   -1.752E+00   -1.767E+00   -1.782E+00   -1.798E+00   -1.813E+00
    -1.829E+00   -1.844E+00   -1.860E+00   -1.875E+00   -1.890E+00   -1.906E+00   -1.921E+00   -1.937E+00   -1.952E+00   -1.967E+00
    -1.983E+00   -1.998E+00   -2.014E+00   -2.029E+00   -2.045E+00   -2.060E+00   -2.075E+00   -2.091E+00   -2.106E+00   -2.122E+00
    -2.137E+00   -2.153E+00   -2.168E+00   -2.183E+00   -2.199E+00   -2.214E+00   -2.230E+00   -2.245E+00   -2.260E+00   -2.276E+00
    -2.291E+00   -2.307E+00   -2.322E+00   -2.338E+00   -2.353E+00   -2.368E+00   -2.384E+00   -2.399E+00   -2.415E+00   -2.430E+00
    -2.445E+00   -2.461E+00   -2.476E+00   -2.492E+00   -2.507E+00   -2.523E+00   -2.538E+00   -2.553E+00   -2.569E+00   -2.584E+00
    -2.600E+00   -2.615E+00   -2.631E+00   -2.646E+00   -2.661E+00   -2.677E+00   -2.692E+00   -2.708E+00   -2.723E+00   -2.738E+00
    -2.754E+00   -2.769E+00   -2.785E+00   -2.800E+00   -2.816E+00   -2.831E+00   -2.846E+00   -2.862E+00   -2.877E+00   -2.893E+00
    -2.908E+00   -2.923E+00   -2.939E+00   -2.954E+00   -2.970E+00   -2.985E+00   -3.001E+00   -3.016E+00   -3.031E+00   -3.047E+00
    -3.062E+00   -3.078E+00   -3.093E+00   -3.108E+00   -3.124E+00   -3.139E+00   -3.155E+00   -3.170E+00   -3.186E+00   -3.201E+00
    -3.216E+00   -3.232E+00   -3.247E+00   -3.263E+00   -3.278E+00   -3.293E+00   -3.309E+00   -3.324E+00   -3.340E+00   -3.355E+00
    -3.371E+00   -3.386E+00   -3.401E+00   -3.417E+00   -3.432E+00   -3.448E+00   -3.463E+00   -3.479E+00   -3.494E+00   -3.509E+00
    -3.525E+00   -3.540E+00   -3.556E+00   -3.571E+00   -3.586E+00   -3.602E+00   -3.617E+00   -3.633E+00   -3.648E+00   -3.664E+00
    -3.679E+00   -3.694E+00   -3.710E+00   -3.725E+00   -3.741E+00   -3.756E+00   -3.771E+00   -3.787E+00   -3.802E+00   -3.818E+00
    -3.833E+00   -3.849E+00   -3.864E+00   -3.879E+00   -3.895E+00   -3.910E+00   -3.926E+00   -3.941E+00   -3.956E+00   -3.972E+00
    -3.987E+00   -4.003E+00   -4.018E+00   -4.034E+00   -4.049E+00   -4.064E+00   -4.080E+00   -4.095E+00   -4.111E+00   -4.126E+00
    -4.141E+00   -4.157E+00   -4.172E+00   -4.188E+00   -4.203E+00   -4.219E+00   -4.234E+00   -4.249E+00   -4.265E+00   -4.280E+00
    -4.296E+00   -4.311E+00   -4.326E+00   -4.342E+00   -4.357E+00   -4.373E+00   -4.388E+00   -4.404E+00   -4.419E+00   -4.434E+00
    -4.450E+00   -4.465E+00   -4.481E+00   -4.496E+00   -4.511E+00   -4.527E+00   -4.542E+00   -4.558E+00   -4.573E+00   -4.589E+00
    -4.604E+00   -4.619E+00   -4.635E+00   -4.650E+00   -4.666E+00   -4.681E+00   -4.696E+00   -4.712E+00   -4.727E+00   -4.743E+00
    -4.758E+00   -4.774E+00   -4.789E+00   -4.804E+00   -4.820E+00   -4.835E+00   -4.851E+00   -4.866E+00
 Asp      Conc. = 8.82E+01
