 LCModel (Version 6.3-1L) Copyright: S.W. Provencher.          Ref.: Magn. Reson. Med. 30:672-679 (1993).                
 Slice#2 Row#5 Col#9  PD_05_press_2_raw_act
 36 lines in following concentration table = NCONC+1
    Conc.  %SD /Cr+PCr  Metabolite                                         
  205.638 174% 6.2E-02 Ala                                                 
  132.810 418% 4.0E-02 Asp                                                 
  860.161  77%   0.259 Cr                                                  
 2.46E+03  28%   0.741 PCr                                                 
  111.388 344% 3.4E-02 GABA                                                
  128.891 281% 3.9E-02 Glc                                                 
 2.32E+03  33%   0.701 Gln                                                 
 3.65E+03  24%   1.101 Glu                                                 
 1.43E+03   4%   0.432 GPC                                                 
    0.000 999%   0.000 PCh                                                 
 1.17E+03  18%   0.352 GSH                                                 
 3.90E+03  17%   1.177 Ins                                                 
  297.330 140% 9.0E-02 Lac                                                 
 4.65E+03   7%   1.401 NAA                                                 
  554.508  71%   0.167 NAAG                                                
  266.000  27% 8.0E-02 Scyllo                                              
    0.000 999%   0.000 Tau                                                 
  420.927  66%   0.127 -CrCH2                                              
 1.43E+03   4%   0.432 GPC+PCh                                             
 5.20E+03   4%   1.568 NAA+NAAG                                            
 3.32E+03   5%   1.000 Cr+PCr                                              
 5.97E+03  22%   1.802 Glu+Gln                                             
  819.504 226%   0.247 Lip13a                                              
  416.730 208%   0.126 Lip13b                                              
    1.392 999% 4.2E-04 Lip09                                               
 3.43E+03  17%   1.035 MM09                                                
  193.400 140% 5.8E-02 Lip20                                               
 6.79E+03  13%   2.047 MM20                                                
 1.05E+03  37%   0.318 MM12                                                
 6.69E+03  15%   2.016 MM14                                                
 4.22E+03  15%   1.272 MM17                                                
 1.24E+03 101%   0.373 Lip13a+Lip13b                                       
 8.98E+03  10%   2.707 MM14+Lip13a+Lip13b+MM12                             
 3.43E+03  12%   1.035 MM09+Lip09                                          
 6.98E+03  12%   2.106 MM20+Lip20                                          
   6 lines in following misc. output table
  FWHM = 0.069 ppm    S/N =   9                                            
  Data shift = 0.008 ppm                                                   
  Ph: -46 deg      -8.0 deg/ppm                                            
  alphaB,S = 8.5E+01,   1.7E+02                                            
   14 spline knots.   Ns = 8(1)                                            
   2 inflections.     1 extrema                                            
  498 points on ppm-axis = NY
      4.000000     3.992357     3.984714     3.977070     3.969427     3.961784     3.954141     3.946497     3.938854     3.931211
      3.923568     3.915925     3.908281     3.900638     3.892995     3.885352     3.877708     3.870065     3.862422     3.854779
      3.847136     3.839492     3.831849     3.824206     3.816563     3.808919     3.801276     3.793633     3.785990     3.778347
      3.770703     3.763060     3.755417     3.747774     3.740130     3.732487     3.724844     3.717201     3.709558     3.701914
      3.694271     3.686628     3.678985     3.671341     3.663698     3.656055     3.648412     3.640769     3.633125     3.625482
      3.617839     3.610196     3.602552     3.594909     3.587266     3.579623     3.571980     3.564336     3.556693     3.549050
      3.541407     3.533763     3.526120     3.518477     3.510834     3.503191     3.495547     3.487904     3.480261     3.472618
      3.464974     3.457331     3.449688     3.442045     3.434402     3.426758     3.419115     3.411472     3.403829     3.396185
      3.388542     3.380899     3.373256     3.365613     3.357969     3.350326     3.342683     3.335040     3.327396     3.319753
      3.312110     3.304467     3.296824     3.289180     3.281537     3.273894     3.266251     3.258607     3.250964     3.243321
      3.235678     3.228034     3.220391     3.212748     3.205105     3.197462     3.189818     3.182175     3.174532     3.166889
      3.159245     3.151602     3.143959     3.136316     3.128673     3.121029     3.113386     3.105743     3.098100     3.090456
      3.082813     3.075170     3.067527     3.059884     3.052240     3.044597     3.036954     3.029311     3.021667     3.014024
      3.006381     2.998738     2.991095     2.983451     2.975808     2.968165     2.960522     2.952878     2.945235     2.937592
      2.929949     2.922306     2.914662     2.907019     2.899376     2.891733     2.884089     2.876446     2.868803     2.861160
      2.853517     2.845873     2.838230     2.830587     2.822944     2.815300     2.807657     2.800014     2.792371     2.784728
      2.777084     2.769441     2.761798     2.754155     2.746511     2.738868     2.731225     2.723582     2.715939     2.708295
      2.700652     2.693009     2.685366     2.677722     2.670079     2.662436     2.654793     2.647150     2.639506     2.631863
      2.624220     2.616577     2.608933     2.601290     2.593647     2.586004     2.578361     2.570717     2.563074     2.555431
      2.547788     2.540144     2.532501     2.524858     2.517215     2.509572     2.501928     2.494285     2.486642     2.478999
      2.471355     2.463712     2.456069     2.448426     2.440783     2.433139     2.425496     2.417853     2.410210     2.402566
      2.394923     2.387280     2.379637     2.371994     2.364350     2.356707     2.349064     2.341421     2.333777     2.326134
      2.318491     2.310848     2.303205     2.295561     2.287918     2.280275     2.272632     2.264988     2.257345     2.249702
      2.242059     2.234416     2.226772     2.219129     2.211486     2.203843     2.196199     2.188556     2.180913     2.173270
      2.165627     2.157983     2.150340     2.142697     2.135054     2.127410     2.119767     2.112124     2.104481     2.096838
      2.089194     2.081551     2.073908     2.066265     2.058621     2.050978     2.043335     2.035692     2.028049     2.020405
      2.012762     2.005119     1.997476     1.989833     1.982190     1.974546     1.966903     1.959260     1.951617     1.943974
      1.936331     1.928688     1.921045     1.913402     1.905759     1.898115     1.890472     1.882829     1.875186     1.867543
      1.859900     1.852257     1.844614     1.836971     1.829327     1.821684     1.814041     1.806398     1.798755     1.791112
      1.783469     1.775826     1.768183     1.760540     1.752896     1.745253     1.737610     1.729967     1.722324     1.714681
      1.707038     1.699395     1.691752     1.684108     1.676465     1.668822     1.661179     1.653536     1.645893     1.638250
      1.630607     1.622964     1.615321     1.607677     1.600034     1.592391     1.584748     1.577105     1.569462     1.561819
      1.554176     1.546533     1.538890     1.531246     1.523603     1.515960     1.508317     1.500674     1.493031     1.485388
      1.477745     1.470102     1.462458     1.454815     1.447172     1.439529     1.431886     1.424243     1.416600     1.408957
      1.401314     1.393671     1.386027     1.378384     1.370741     1.363098     1.355455     1.347812     1.340169     1.332526
      1.324883     1.317240     1.309596     1.301953     1.294310     1.286667     1.279024     1.271381     1.263738     1.256095
      1.248452     1.240808     1.233165     1.225522     1.217879     1.210236     1.202593     1.194950     1.187307     1.179664
      1.172021     1.164377     1.156734     1.149091     1.141448     1.133805     1.126162     1.118519     1.110876     1.103233
      1.095590     1.087946     1.080303     1.072660     1.065017     1.057374     1.049731     1.042088     1.034445     1.026802
      1.019158     1.011515     1.003872     0.996229     0.988586     0.980943     0.973300     0.965657     0.958014     0.950371
      0.942727     0.935084     0.927441     0.919798     0.912155     0.904512     0.896869     0.889226     0.881583     0.873940
      0.866296     0.858653     0.851010     0.843367     0.835724     0.828081     0.820438     0.812795     0.805152     0.797508
      0.789865     0.782222     0.774579     0.766936     0.759293     0.751650     0.744007     0.736364     0.728721     0.721077
      0.713434     0.705791     0.698148     0.690505     0.682862     0.675219     0.667576     0.659933     0.652290     0.644646
      0.637003     0.629360     0.621717     0.614074     0.606431     0.598788     0.591145     0.583502     0.575858     0.568215
      0.560572     0.552929     0.545286     0.537643     0.530000     0.522357     0.514714     0.507071     0.499427     0.491784
      0.484141     0.476498     0.468855     0.461212     0.453569     0.445925     0.438282     0.430639     0.422996     0.415353
      0.407710     0.400067     0.392424     0.384780     0.377137     0.369494     0.361851     0.354208     0.346565     0.338922
      0.331278     0.323635     0.315992     0.308349     0.300706     0.293063     0.285420     0.277777     0.270133     0.262490
      0.254847     0.247204     0.239561     0.231918     0.224275     0.216631     0.208988     0.201345
 NY phased data points follow
  -1.26079E+01 -1.73487E+01  6.39982E+00  1.82534E+01  1.04428E+01  1.82503E+01  2.91836E+01  4.78380E+01  5.17533E+01  4.93817E+01
   5.97667E+01  5.35577E+01  5.21303E+01  4.34228E+01  2.90734E+01  2.38377E+01  2.68930E+01  1.57983E+01  9.56983E+00 -4.68273E+00
   6.64636E+00  3.67987E+00  1.61327E+01  1.30445E+01  1.61199E+01  7.93167E+00  2.28633E+01  2.56380E+01  2.17015E+01  2.05071E+01
   1.82288E+01  1.27548E+01  1.84807E+01  1.62808E+01  1.48816E+01  1.22563E+01  1.45797E+01  6.70344E+00  1.09357E+01  9.98547E+00
   1.77237E+01  6.46676E+00  5.81154E+00  2.40999E+01  3.40971E+01  2.29576E+01  1.91827E+01  3.15178E+01  2.49331E+01  2.48872E+01
   2.46393E+01  2.61371E+01  1.65823E+01  1.00232E+01  9.28352E+00  1.96622E+01  1.58994E+01  1.88107E+01  1.17524E+01  1.84570E+01
   1.14397E+01 -3.88814E+00 -1.39590E+01 -8.64242E+00 -8.64023E+00 -1.47195E+01  4.26623E+00 -2.22440E+01 -3.38147E+00 -9.88244E+00
  -5.51468E+00 -4.35626E+00  3.70463E+00  5.83782E+00 -9.17513E+00 -6.26893E+00  2.94998E+00 -6.82944E+00  1.01979E+00 -8.41058E+00
   7.52552E+00  7.31410E+00  5.45408E+00  1.07269E+01  2.90994E+00 -5.51886E+00 -7.01970E+00  1.80002E+00  5.98750E-01  1.40100E+01
   9.93418E+00  3.20910E+00  1.29871E+00  1.32883E+01  5.78815E+00  1.16328E+01  2.22608E+01  3.09217E+01  3.88259E+01  4.78944E+01
   5.35476E+01  7.96738E+01  9.67818E+01  1.20066E+02  1.19601E+02  9.46291E+01  8.33378E+01  6.14193E+01  3.62028E+01  3.44297E+01
   1.85757E+01 -2.39918E-01  1.55123E+01  5.20233E+00  2.39784E-01 -1.06366E+01  1.69570E+00 -4.12814E+00  8.03071E+00 -3.91005E+00
   1.73686E+01  1.63444E+01  2.74814E+01  4.31766E+01  6.34695E+01  8.01815E+01  8.77732E+01  9.88906E+01  9.14731E+01  8.26245E+01
   7.97487E+01  5.52844E+01  4.38238E+01  2.35833E+01  1.50464E+01  1.01417E+00 -5.63448E+00  1.30579E+01  5.62059E-01  2.46675E+00
  -4.73418E+00 -1.03190E+00 -5.89081E+00 -3.75563E+00 -9.14535E+00 -2.35474E+00 -1.82774E+00  2.63109E+00  8.68119E+00  6.58076E-01
  -8.88546E+00 -4.11675E-01 -3.50459E+00 -5.36702E+00 -9.62300E+00 -9.41668E+00 -5.66028E+00  2.67228E+00 -1.87558E+01 -1.31727E+01
   2.07415E+00 -9.00228E+00 -6.09919E+00 -1.84545E-01 -7.64545E+00 -2.15964E+01 -2.54991E+01 -9.51260E+00  1.11661E+00 -1.07608E+01
  -1.82624E+01 -2.60516E+01 -2.22952E+01 -2.79729E+01 -2.83892E+01 -3.17739E+01 -2.74310E+01 -3.51711E+01 -1.46685E+01 -1.51617E+01
  -2.88319E+01 -1.83490E+01 -3.66377E+00 -2.82899E+01 -1.36564E+01 -6.49311E+00 -1.36061E+01 -1.75848E+01 -1.66026E+01  6.05147E+00
   4.79491E+00  1.27531E+01 -7.05777E+00  2.51113E+00  8.32900E-01 -3.52226E+00 -2.36792E+00 -1.66148E+01 -6.84688E+00 -2.14832E+01
  -8.13845E+00 -9.16332E+00 -6.00349E-01  1.60367E+01  2.80238E+00  4.48752E+00 -4.50037E+00  8.68764E-01 -1.17602E+01  1.23993E+00
   2.94446E+00  1.79769E+00  7.15044E+00  8.88858E+00  2.33370E+01  1.86631E+01  2.09760E+01  1.72317E+01  1.11592E+01  1.71710E+01
   1.39253E+01  6.43654E+00 -1.16424E+01 -2.48089E+00  7.76347E+00  2.10599E+01  1.01135E+01  1.49764E+01  2.85173E+01  2.77668E+01
   2.20031E+01  1.71061E+01  8.71923E+00  1.22267E+01  1.76368E+01  3.00074E+00  1.39665E+01  9.28421E+00  1.40948E+01  2.22923E+01
   1.00032E+01  8.52071E+00  4.37166E-01  1.84526E+01  1.15714E+01  1.88258E+01  1.74315E+01  2.24212E+01  1.67239E+01  3.66641E+01
   4.00431E+01  3.46372E+01  4.62830E+01  4.69512E+01  6.68147E+01  7.43778E+01  1.05223E+02  1.12003E+02  1.44455E+02  1.55671E+02
   1.67163E+02  1.52834E+02  1.35039E+02  1.21554E+02  1.19789E+02  9.33992E+01  5.34647E+01  5.10333E+01  2.73619E+01  3.41247E+01
   1.99367E+01  1.55066E+01  2.10038E+01  7.65541E+00  1.37181E+01  1.91761E+01  2.87824E+01  2.46872E+01  2.14330E+01  1.20982E+01
   1.85594E+01  1.67374E+01  1.18443E+01  1.90344E+01  1.08074E+01  1.70670E+01  2.38936E+01  8.08263E+00  1.52582E+01  7.75778E+00
   1.24907E+01  1.64681E+01  1.41290E+01  1.94628E+01  1.10528E+01  8.71645E+00  1.11724E+01  2.87443E+01  2.29980E+01  2.09605E+01
   1.73719E+01  1.78671E+01  2.38012E+01  2.89270E+01  2.26842E+01  2.93619E+01  4.29414E+01  3.93328E+01  3.15229E+01  4.36878E+01
   3.94002E+01  3.31076E+01  2.48346E+01  2.50124E+01  1.47213E+01  3.87486E+01  3.07267E+01  4.16815E+01  3.35892E+01  3.61913E+01
   4.13432E+01  3.02455E+01  3.80193E+01  3.36112E+01  3.39422E+01  2.64959E+01  2.60143E+01  2.89011E+01  3.27191E+01  4.92137E+01
   2.90739E+01  3.48780E+01  5.25925E+01  3.20851E+01  2.52641E+01  4.00859E+01  3.29358E+01  3.38652E+01  2.05553E+01  3.59780E+01
   2.76048E+01  4.63903E+01  4.40036E+01  4.20258E+01  4.04007E+01  3.32409E+01  3.61617E+01  2.08411E+01  3.07473E+01  3.47053E+01
   3.21053E+01  2.30145E+01  2.67982E+01  2.79069E+01  1.96579E+01  3.01116E+01  2.51904E+01  2.20619E+01  9.92602E+00  2.25515E+01
   2.09907E+01  2.20309E+01  2.81435E+01  7.09981E+00  1.91641E+01  1.64473E+01  3.83427E+00  1.54630E+01  2.21789E+01  1.58787E+01
   1.21211E+01  1.46996E+01  1.93102E+01  1.67948E+01  1.15346E+01 -1.08824E+00  6.56863E+00  1.60789E+01  1.76825E+01  1.54997E+00
   3.89157E+00  3.80084E+00  1.85358E+01  2.70926E+01  7.95186E+00  6.55535E+00  1.13362E+01  2.60636E+00  8.01588E+00 -3.11865E+00
   1.29205E+01  2.11152E+01  5.66856E+00  1.74151E+01  1.39903E+01  1.21652E+01  1.86891E+01  1.75551E+01  2.96436E+01  2.66556E+01
   1.48347E+01  1.97117E+01  2.65209E+01  2.66179E+01  2.08422E+01  2.49761E+01  1.91617E+01  1.93635E+01  2.27480E+01  2.16096E+01
   3.45433E+01  2.96192E+01  2.91576E+01  2.91687E+01  1.65288E+01  2.51403E+01  2.38643E+01  1.33569E+01  1.80606E+01  1.02952E+01
   1.14410E+01  8.43970E+00  1.64560E+01  1.54706E+01  1.80332E+00  5.40986E+00  2.40614E+01  7.26773E+00  2.81351E+00  1.16721E+01
   1.50143E+01  8.66648E+00  9.22862E+00  7.58308E+00  7.45474E+00  2.11181E+01  1.48479E+00  1.28800E+01  3.93037E+00  1.01685E+01
   1.22286E+01  1.26998E+01  9.43517E+00  4.74060E+00 -1.46524E+01  3.44270E+00 -4.57638E-01  3.88452E+00 -4.57778E+00  4.81084E+00
  -2.75354E+00  3.07088E+00  7.38700E+00  1.16406E+01  8.45930E+00  1.00401E+01 -6.35989E+00  4.96805E+00 -4.47513E+00 -4.83676E-01
   5.97407E+00  2.76346E+00  9.37120E-01  2.59254E+00  3.90354E+00  2.18600E+01 -6.94626E+00  1.49425E+01  3.44243E+00  3.87497E+00
   1.49896E+01 -1.19460E+01  5.27126E+00  7.84590E+00 -4.93068E-01  4.27356E+00  8.39510E+00  6.24887E+00  1.00113E+01  4.76705E+00
   7.31453E+00  8.39867E-01  1.40432E+01  1.33515E+01  9.10805E+00  7.32219E+00  9.53371E+00  1.95786E+00 -6.84535E-01 -4.14127E+00
   6.66000E+00  1.42190E+01  6.24591E+00 -2.51851E+00  1.31551E+00  1.90626E+01  5.41036E+00 -1.20380E+01
 NY points of the fit to the data follow
   1.97249E+00  2.44697E+00  5.17442E+00  9.73303E+00  1.58374E+01  2.33437E+01  3.19534E+01  4.08912E+01  4.88415E+01  5.42961E+01
   5.61589E+01  5.43451E+01  4.95803E+01  4.27633E+01  3.48637E+01  2.69052E+01  1.97503E+01  1.39732E+01  9.70775E+00  6.95025E+00
   5.26079E+00  4.52963E+00  4.80190E+00  5.52014E+00  6.75890E+00  8.81564E+00  1.18067E+01  1.55721E+01  1.96051E+01  2.32132E+01
   2.56302E+01  2.64904E+01  2.58597E+01  2.35562E+01  1.97181E+01  1.51856E+01  1.07735E+01  6.96782E+00  4.42177E+00  4.00303E+00
   5.55639E+00  8.17458E+00  1.15929E+01  1.56476E+01  1.98353E+01  2.33868E+01  2.54665E+01  2.55031E+01  2.34713E+01  1.99564E+01
   1.57723E+01  1.14897E+01  7.62652E+00  4.76582E+00  3.13932E+00  2.59798E+00  2.98128E+00  4.03122E+00  5.16771E+00  5.80623E+00
   5.67396E+00  4.83245E+00  3.49136E+00  2.02713E+00  7.90949E-01 -9.00455E-03 -2.69017E-01 -9.98293E-03  6.88268E-01  1.67949E+00
   2.68484E+00  3.44693E+00  3.78763E+00  3.69724E+00  3.29380E+00  2.69755E+00  2.01917E+00  1.40272E+00  1.05537E+00  1.15999E+00
   1.43918E+00  1.79307E+00  2.28167E+00  2.88651E+00  3.46061E+00  3.76235E+00  3.58649E+00  2.90293E+00  1.96174E+00  1.02852E+00
   2.17860E-01 -4.34094E-01 -8.10239E-01 -7.39049E-01  3.56907E-01  4.82072E+00  1.32674E+01  2.39912E+01  3.65990E+01  5.17941E+01
   6.93981E+01  8.72532E+01  1.01608E+02  1.08788E+02  1.07176E+02  9.80832E+01  8.40872E+01  6.70166E+01  4.86707E+01  3.15684E+01
   1.77119E+01  7.67676E+00  1.19563E+00 -1.73375E+00 -2.35503E+00 -2.34725E+00 -2.08393E+00 -1.51678E+00 -7.36237E-03  4.59679E+00
   1.24467E+01  2.20927E+01  3.33842E+01  4.67932E+01  6.19881E+01  7.70677E+01  8.88321E+01  9.43045E+01  9.24796E+01  8.46931E+01
   7.29658E+01  5.86567E+01  4.31372E+01  2.84838E+01  1.63436E+01  7.34495E+00  1.53773E+00 -9.11147E-01 -1.18694E+00 -6.66876E-01
   1.41146E-01  9.14020E-01  1.44260E+00  1.64422E+00  1.46027E+00  9.00182E-01  7.87326E-02 -8.62391E-01 -1.78511E+00 -2.58745E+00
  -3.25763E+00 -3.76556E+00 -4.16894E+00 -4.57660E+00 -4.99458E+00 -5.36969E+00 -5.70567E+00 -6.01978E+00 -6.39776E+00 -6.87502E+00
  -7.33877E+00 -7.64285E+00 -7.75071E+00 -7.76492E+00 -7.83586E+00 -8.05157E+00 -8.42744E+00 -8.96620E+00 -9.69188E+00 -1.05688E+01
  -1.14272E+01 -1.22149E+01 -1.29516E+01 -1.36804E+01 -1.43292E+01 -1.46957E+01 -1.47523E+01 -1.46294E+01 -1.44836E+01 -1.44422E+01
  -1.43884E+01 -1.40734E+01 -1.34375E+01 -1.25366E+01 -1.13640E+01 -9.85073E+00 -7.96067E+00 -5.73883E+00 -3.43281E+00 -1.48597E+00
  -2.37884E-01  1.82541E-01 -1.77804E-01 -1.08374E+00 -2.17249E+00 -3.02158E+00 -3.19778E+00 -2.40622E+00 -5.79451E-01  2.02148E+00
   4.95700E+00  7.64929E+00  9.28178E+00  9.50917E+00  8.30770E+00  5.60941E+00  1.69188E+00 -2.62131E+00 -6.10028E+00 -8.00297E+00
  -7.98177E+00 -5.88197E+00 -2.03310E+00  2.74660E+00  7.27224E+00  1.03563E+01  1.13283E+01  1.01284E+01  7.14310E+00  3.07152E+00
  -1.24450E+00 -4.54179E+00 -5.79775E+00 -4.89657E+00 -2.27108E+00  1.42516E+00  5.57139E+00  9.36772E+00  1.21337E+01  1.38223E+01
   1.47045E+01  1.50992E+01  1.52679E+01  1.55072E+01  1.60009E+01  1.65813E+01  1.71760E+01  1.77386E+01  1.80155E+01  1.78589E+01
   1.73946E+01  1.67900E+01  1.63062E+01  1.62733E+01  1.68343E+01  1.78824E+01  1.92610E+01  2.11186E+01  2.36859E+01  2.67561E+01
   3.01363E+01  3.43691E+01  4.17799E+01  5.38950E+01  6.85104E+01  8.42552E+01  1.01330E+02  1.19767E+02  1.38063E+02  1.52811E+02
   1.59990E+02  1.57369E+02  1.46013E+02  1.28906E+02  1.08313E+02  8.60207E+01  6.47024E+01  4.66946E+01  3.28710E+01  2.31357E+01
   1.75220E+01  1.52670E+01  1.42048E+01  1.35487E+01  1.30760E+01  1.26480E+01  1.21925E+01  1.17041E+01  1.11777E+01  1.06370E+01
   1.01299E+01  9.70857E+00  9.40324E+00  9.22915E+00  9.19439E+00  9.29070E+00  9.50095E+00  9.81144E+00  1.02224E+01  1.07435E+01
   1.13805E+01  1.21319E+01  1.30002E+01  1.39821E+01  1.50676E+01  1.62440E+01  1.74977E+01  1.88118E+01  2.01691E+01  2.15525E+01
   2.29402E+01  2.43046E+01  2.56174E+01  2.68494E+01  2.79710E+01  2.89565E+01  2.97869E+01  3.04506E+01  3.09439E+01  3.12702E+01
   3.14421E+01  3.14787E+01  3.14042E+01  3.12482E+01  3.10429E+01  3.08225E+01  3.06226E+01  3.04801E+01  3.04383E+01  3.05496E+01
   3.07961E+01  3.11195E+01  3.15133E+01  3.19711E+01  3.24444E+01  3.28449E+01  3.30829E+01  3.31657E+01  3.31968E+01  3.32493E+01
   3.33729E+01  3.36083E+01  3.40045E+01  3.45916E+01  3.53172E+01  3.60465E+01  3.66317E+01  3.69911E+01  3.71030E+01  3.70015E+01
   3.66788E+01  3.60914E+01  3.53074E+01  3.44042E+01  3.33853E+01  3.22023E+01  3.08015E+01  2.92426E+01  2.76687E+01  2.62055E+01
   2.49733E+01  2.40617E+01  2.35400E+01  2.34261E+01  2.36111E+01  2.38738E+01  2.39959E+01  2.38705E+01  2.34487E+01  2.27041E+01
   2.16902E+01  2.05106E+01  1.92812E+01  1.80877E+01  1.69792E+01  1.60132E+01  1.51940E+01  1.44814E+01  1.38519E+01  1.32906E+01
   1.27866E+01  1.23325E+01  1.19230E+01  1.15556E+01  1.12295E+01  1.09455E+01  1.07055E+01  1.05119E+01  1.03678E+01  1.02766E+01
   1.02421E+01  1.02681E+01  1.03582E+01  1.05163E+01  1.07461E+01  1.10513E+01  1.14352E+01  1.19003E+01  1.24486E+01  1.30809E+01
   1.37965E+01  1.45933E+01  1.54667E+01  1.64098E+01  1.74128E+01  1.84633E+01  1.95460E+01  2.06427E+01  2.17326E+01  2.27933E+01
   2.38006E+01  2.47301E+01  2.55580E+01  2.62618E+01  2.68215E+01  2.72205E+01  2.74466E+01  2.74923E+01  2.73556E+01  2.70397E+01
   2.65530E+01  2.59086E+01  2.51235E+01  2.42184E+01  2.32157E+01  2.21392E+01  2.10125E+01  1.98589E+01  1.86997E+01  1.75544E+01
   1.64395E+01  1.53685E+01  1.43521E+01  1.33980E+01  1.25111E+01  1.16940E+01  1.09469E+01  1.02686E+01  9.65623E+00  9.10629E+00
   8.61449E+00  8.17623E+00  7.78666E+00  7.44102E+00  7.13472E+00  6.86356E+00  6.62357E+00  6.41118E+00  6.22308E+00  6.05638E+00
   5.90851E+00  5.77734E+00  5.66089E+00  5.55746E+00  5.46548E+00  5.38368E+00  5.31095E+00  5.24637E+00  5.18906E+00  5.13828E+00
   5.09329E+00  5.05358E+00  5.01866E+00  4.98816E+00  4.96162E+00  4.93868E+00  4.91899E+00  4.90233E+00  4.88847E+00  4.87722E+00
   4.86831E+00  4.86155E+00  4.85676E+00  4.85387E+00  4.85275E+00  4.85329E+00  4.85529E+00  4.85868E+00  4.86335E+00  4.86929E+00
   4.87641E+00  4.88463E+00  4.89383E+00  4.90397E+00  4.91500E+00  4.92696E+00  4.93974E+00  4.95329E+00  4.96750E+00  4.98241E+00
   4.99797E+00  5.01422E+00  5.03106E+00  5.04847E+00  5.06635E+00  5.08479E+00  5.10375E+00  5.12326E+00  5.14323E+00  5.16363E+00
   5.18443E+00  5.20572E+00  5.22748E+00  5.24972E+00  5.27234E+00  5.29539E+00  5.31886E+00  5.34286E+00
 NY background values follow
    -1.152E+01   -1.149E+01   -1.146E+01   -1.143E+01   -1.139E+01   -1.136E+01   -1.133E+01   -1.130E+01   -1.126E+01   -1.123E+01
    -1.120E+01   -1.117E+01   -1.113E+01   -1.110E+01   -1.107E+01   -1.104E+01   -1.100E+01   -1.097E+01   -1.094E+01   -1.091E+01
    -1.087E+01   -1.084E+01   -1.081E+01   -1.078E+01   -1.074E+01   -1.071E+01   -1.068E+01   -1.065E+01   -1.061E+01   -1.058E+01
    -1.055E+01   -1.052E+01   -1.048E+01   -1.045E+01   -1.042E+01   -1.039E+01   -1.035E+01   -1.032E+01   -1.029E+01   -1.025E+01
    -1.022E+01   -1.019E+01   -1.016E+01   -1.012E+01   -1.009E+01   -1.006E+01   -1.003E+01   -9.994E+00   -9.962E+00   -9.929E+00
    -9.897E+00   -9.864E+00   -9.831E+00   -9.799E+00   -9.766E+00   -9.734E+00   -9.701E+00   -9.669E+00   -9.636E+00   -9.603E+00
    -9.571E+00   -9.538E+00   -9.506E+00   -9.473E+00   -9.441E+00   -9.408E+00   -9.375E+00   -9.343E+00   -9.310E+00   -9.278E+00
    -9.245E+00   -9.213E+00   -9.180E+00   -9.147E+00   -9.115E+00   -9.082E+00   -9.050E+00   -9.017E+00   -8.985E+00   -8.952E+00
    -8.919E+00   -8.887E+00   -8.854E+00   -8.822E+00   -8.789E+00   -8.757E+00   -8.724E+00   -8.691E+00   -8.659E+00   -8.626E+00
    -8.594E+00   -8.561E+00   -8.529E+00   -8.496E+00   -8.463E+00   -8.431E+00   -8.398E+00   -8.366E+00   -8.333E+00   -8.301E+00
    -8.268E+00   -8.235E+00   -8.203E+00   -8.170E+00   -8.138E+00   -8.105E+00   -8.073E+00   -8.040E+00   -8.007E+00   -7.975E+00
    -7.942E+00   -7.910E+00   -7.877E+00   -7.844E+00   -7.812E+00   -7.779E+00   -7.747E+00   -7.714E+00   -7.682E+00   -7.649E+00
    -7.616E+00   -7.584E+00   -7.551E+00   -7.519E+00   -7.486E+00   -7.454E+00   -7.421E+00   -7.388E+00   -7.356E+00   -7.323E+00
    -7.291E+00   -7.258E+00   -7.226E+00   -7.193E+00   -7.160E+00   -7.128E+00   -7.095E+00   -7.063E+00   -7.030E+00   -6.997E+00
    -6.965E+00   -6.932E+00   -6.900E+00   -6.867E+00   -6.835E+00   -6.802E+00   -6.769E+00   -6.737E+00   -6.704E+00   -6.672E+00
    -6.639E+00   -6.606E+00   -6.574E+00   -6.541E+00   -6.509E+00   -6.476E+00   -6.444E+00   -6.411E+00   -6.378E+00   -6.346E+00
    -6.313E+00   -6.281E+00   -6.248E+00   -6.216E+00   -6.183E+00   -6.150E+00   -6.118E+00   -6.085E+00   -6.053E+00   -6.020E+00
    -5.987E+00   -5.955E+00   -5.922E+00   -5.890E+00   -5.857E+00   -5.825E+00   -5.792E+00   -5.759E+00   -5.727E+00   -5.694E+00
    -5.662E+00   -5.629E+00   -5.596E+00   -5.564E+00   -5.531E+00   -5.499E+00   -5.466E+00   -5.433E+00   -5.401E+00   -5.368E+00
    -5.336E+00   -5.303E+00   -5.271E+00   -5.238E+00   -5.205E+00   -5.173E+00   -5.140E+00   -5.108E+00   -5.075E+00   -5.042E+00
    -5.010E+00   -4.977E+00   -4.945E+00   -4.912E+00   -4.879E+00   -4.847E+00   -4.814E+00   -4.782E+00   -4.749E+00   -4.717E+00
    -4.684E+00   -4.651E+00   -4.619E+00   -4.586E+00   -4.554E+00   -4.521E+00   -4.488E+00   -4.456E+00   -4.423E+00   -4.391E+00
    -4.358E+00   -4.325E+00   -4.293E+00   -4.260E+00   -4.228E+00   -4.195E+00   -4.163E+00   -4.130E+00   -4.097E+00   -4.065E+00
    -4.032E+00   -4.000E+00   -3.967E+00   -3.934E+00   -3.902E+00   -3.869E+00   -3.837E+00   -3.804E+00   -3.771E+00   -3.739E+00
    -3.706E+00   -3.674E+00   -3.641E+00   -3.609E+00   -3.576E+00   -3.543E+00   -3.511E+00   -3.478E+00   -3.446E+00   -3.413E+00
    -3.380E+00   -3.348E+00   -3.315E+00   -3.283E+00   -3.250E+00   -3.218E+00   -3.185E+00   -3.152E+00   -3.120E+00   -3.087E+00
    -3.055E+00   -3.022E+00   -2.989E+00   -2.957E+00   -2.924E+00   -2.892E+00   -2.859E+00   -2.826E+00   -2.794E+00   -2.761E+00
    -2.729E+00   -2.696E+00   -2.664E+00   -2.631E+00   -2.598E+00   -2.566E+00   -2.533E+00   -2.501E+00   -2.468E+00   -2.435E+00
    -2.403E+00   -2.370E+00   -2.338E+00   -2.305E+00   -2.273E+00   -2.240E+00   -2.207E+00   -2.175E+00   -2.142E+00   -2.110E+00
    -2.077E+00   -2.044E+00   -2.012E+00   -1.979E+00   -1.947E+00   -1.914E+00   -1.882E+00   -1.849E+00   -1.816E+00   -1.784E+00
    -1.751E+00   -1.719E+00   -1.686E+00   -1.654E+00   -1.621E+00   -1.588E+00   -1.556E+00   -1.523E+00   -1.491E+00   -1.458E+00
    -1.425E+00   -1.393E+00   -1.360E+00   -1.328E+00   -1.295E+00   -1.263E+00   -1.230E+00   -1.197E+00   -1.165E+00   -1.132E+00
    -1.100E+00   -1.067E+00   -1.034E+00   -1.002E+00   -9.693E-01   -9.368E-01   -9.042E-01   -8.716E-01   -8.390E-01   -8.064E-01
    -7.739E-01   -7.413E-01   -7.087E-01   -6.761E-01   -6.436E-01   -6.110E-01   -5.784E-01   -5.458E-01   -5.133E-01   -4.807E-01
    -4.481E-01   -4.155E-01   -3.829E-01   -3.504E-01   -3.178E-01   -2.852E-01   -2.526E-01   -2.201E-01   -1.875E-01   -1.549E-01
    -1.223E-01   -8.976E-02   -5.718E-02   -2.461E-02    7.967E-03    4.054E-02    7.312E-02    1.057E-01    1.383E-01    1.708E-01
     2.034E-01    2.360E-01    2.686E-01    3.011E-01    3.337E-01    3.663E-01    3.989E-01    4.314E-01    4.640E-01    4.966E-01
     5.292E-01    5.617E-01    5.943E-01    6.269E-01    6.595E-01    6.920E-01    7.246E-01    7.572E-01    7.898E-01    8.223E-01
     8.549E-01    8.875E-01    9.201E-01    9.526E-01    9.852E-01    1.018E+00    1.050E+00    1.083E+00    1.116E+00    1.148E+00
     1.181E+00    1.213E+00    1.246E+00    1.278E+00    1.311E+00    1.344E+00    1.376E+00    1.409E+00    1.441E+00    1.474E+00
     1.506E+00    1.539E+00    1.572E+00    1.604E+00    1.637E+00    1.669E+00    1.702E+00    1.734E+00    1.767E+00    1.800E+00
     1.832E+00    1.865E+00    1.897E+00    1.930E+00    1.962E+00    1.995E+00    2.028E+00    2.060E+00    2.093E+00    2.125E+00
     2.158E+00    2.190E+00    2.223E+00    2.256E+00    2.288E+00    2.321E+00    2.353E+00    2.386E+00    2.418E+00    2.451E+00
     2.484E+00    2.516E+00    2.549E+00    2.581E+00    2.614E+00    2.646E+00    2.679E+00    2.712E+00    2.744E+00    2.777E+00
     2.809E+00    2.842E+00    2.875E+00    2.907E+00    2.940E+00    2.972E+00    3.005E+00    3.037E+00    3.070E+00    3.103E+00
     3.135E+00    3.168E+00    3.200E+00    3.233E+00    3.265E+00    3.298E+00    3.331E+00    3.363E+00    3.396E+00    3.428E+00
     3.461E+00    3.493E+00    3.526E+00    3.559E+00    3.591E+00    3.624E+00    3.656E+00    3.689E+00    3.721E+00    3.754E+00
     3.787E+00    3.819E+00    3.852E+00    3.884E+00    3.917E+00    3.949E+00    3.982E+00    4.015E+00    4.047E+00    4.080E+00
     4.112E+00    4.145E+00    4.178E+00    4.210E+00    4.243E+00    4.275E+00    4.308E+00    4.340E+00    4.373E+00    4.406E+00
     4.438E+00    4.471E+00    4.503E+00    4.536E+00    4.568E+00    4.601E+00    4.634E+00    4.666E+00
 Ala      Conc. = 2.06E+02
