 LCModel (Version 6.3-1L) Copyright: S.W. Provencher.          Ref.: Magn. Reson. Med. 30:672-679 (1993).                
 Slice#1 Row#7 Col#13  PD_24_press_1_raw_act
 36 lines in following concentration table = NCONC+1
    Conc.  %SD /Cr+PCr  Metabolite                                         
    1.460 999% 4.1E-02 Ala                                                 
    7.177  76%   0.202 Asp                                                 
   35.464  51%   1.000 Cr                                                  
    0.000 999%   0.000 PCr                                                 
    4.309  76%   0.122 GABA                                                
    4.353  76%   0.123 Glc                                                 
    0.000 999%   0.000 Gln                                                 
   59.357  91%   1.674 Glu                                                 
   24.141  38%   0.681 GPC                                                 
    0.000 999%   0.000 PCh                                                 
    0.000 999%   0.000 GSH                                                 
   92.086  74%   2.597 Ins                                                 
    9.971 304%   0.281 Lac                                                 
   33.028  57%   0.931 NAA                                                 
    0.000 999%   0.000 NAAG                                                
    1.372  80% 3.9E-02 Scyllo                                              
    6.900  79%   0.195 Tau                                                 
    1.872 374% 5.3E-02 -CrCH2                                              
   24.141  38%   0.681 GPC+PCh                                             
   33.028  57%   0.931 NAA+NAAG                                            
   35.464  51%   1.000 Cr+PCr                                              
   59.357  91%   1.674 Glu+Gln                                             
 2.01E+04  18% 566.228 Lip13a                                              
  130.095 134%   3.668 Lip13b                                              
 9.76E+03  13% 275.269 Lip09                                               
 5.90E+03  18% 166.329 MM09                                                
 1.02E+03  41%  28.672 Lip20                                               
  742.851  41%  20.947 MM20                                                
 4.93E+03  30% 138.898 MM12                                                
 3.25E+03  33%  91.648 MM14                                                
  790.983  43%  22.304 MM17                                                
 2.02E+04  17% 569.897 Lip13a+Lip13b                                       
 2.84E+04   9% 800.444 MM14+Lip13a+Lip13b+MM12                             
 1.57E+04   8% 441.598 MM09+Lip09                                          
 1.76E+03  17%  49.619 MM20+Lip20                                          
   6 lines in following misc. output table
  FWHM = 0.046 ppm    S/N =  20                                            
  Data shift = 0.031 ppm                                                   
  Ph: -17 deg      -4.0 deg/ppm                                            
  alphaB,S = 2.0E+00,   1.1E+01                                            
   14 spline knots.   Ns = 6(1)                                            
  ( 9) 4 infls.   ( 8) 2 extrs.                                            
  498 points on ppm-axis = NY
      4.000000     3.992357     3.984714     3.977070     3.969427     3.961784     3.954141     3.946497     3.938854     3.931211
      3.923568     3.915925     3.908281     3.900638     3.892995     3.885352     3.877708     3.870065     3.862422     3.854779
      3.847136     3.839492     3.831849     3.824206     3.816563     3.808919     3.801276     3.793633     3.785990     3.778347
      3.770703     3.763060     3.755417     3.747774     3.740130     3.732487     3.724844     3.717201     3.709558     3.701914
      3.694271     3.686628     3.678985     3.671341     3.663698     3.656055     3.648412     3.640769     3.633125     3.625482
      3.617839     3.610196     3.602552     3.594909     3.587266     3.579623     3.571980     3.564336     3.556693     3.549050
      3.541407     3.533763     3.526120     3.518477     3.510834     3.503191     3.495547     3.487904     3.480261     3.472618
      3.464974     3.457331     3.449688     3.442045     3.434402     3.426758     3.419115     3.411472     3.403829     3.396185
      3.388542     3.380899     3.373256     3.365613     3.357969     3.350326     3.342683     3.335040     3.327396     3.319753
      3.312110     3.304467     3.296824     3.289180     3.281537     3.273894     3.266251     3.258607     3.250964     3.243321
      3.235678     3.228034     3.220391     3.212748     3.205105     3.197462     3.189818     3.182175     3.174532     3.166889
      3.159245     3.151602     3.143959     3.136316     3.128673     3.121029     3.113386     3.105743     3.098100     3.090456
      3.082813     3.075170     3.067527     3.059884     3.052240     3.044597     3.036954     3.029311     3.021667     3.014024
      3.006381     2.998738     2.991095     2.983451     2.975808     2.968165     2.960522     2.952878     2.945235     2.937592
      2.929949     2.922306     2.914662     2.907019     2.899376     2.891733     2.884089     2.876446     2.868803     2.861160
      2.853517     2.845873     2.838230     2.830587     2.822944     2.815300     2.807657     2.800014     2.792371     2.784728
      2.777084     2.769441     2.761798     2.754155     2.746511     2.738868     2.731225     2.723582     2.715939     2.708295
      2.700652     2.693009     2.685366     2.677722     2.670079     2.662436     2.654793     2.647150     2.639506     2.631863
      2.624220     2.616577     2.608933     2.601290     2.593647     2.586004     2.578361     2.570717     2.563074     2.555431
      2.547788     2.540144     2.532501     2.524858     2.517215     2.509572     2.501928     2.494285     2.486642     2.478999
      2.471355     2.463712     2.456069     2.448426     2.440783     2.433139     2.425496     2.417853     2.410210     2.402566
      2.394923     2.387280     2.379637     2.371994     2.364350     2.356707     2.349064     2.341421     2.333777     2.326134
      2.318491     2.310848     2.303205     2.295561     2.287918     2.280275     2.272632     2.264988     2.257345     2.249702
      2.242059     2.234416     2.226772     2.219129     2.211486     2.203843     2.196199     2.188556     2.180913     2.173270
      2.165627     2.157983     2.150340     2.142697     2.135054     2.127410     2.119767     2.112124     2.104481     2.096838
      2.089194     2.081551     2.073908     2.066265     2.058621     2.050978     2.043335     2.035692     2.028049     2.020405
      2.012762     2.005119     1.997476     1.989833     1.982190     1.974546     1.966903     1.959260     1.951617     1.943974
      1.936331     1.928688     1.921045     1.913402     1.905759     1.898115     1.890472     1.882829     1.875186     1.867543
      1.859900     1.852257     1.844614     1.836971     1.829327     1.821684     1.814041     1.806398     1.798755     1.791112
      1.783469     1.775826     1.768183     1.760540     1.752896     1.745253     1.737610     1.729967     1.722324     1.714681
      1.707038     1.699395     1.691752     1.684108     1.676465     1.668822     1.661179     1.653536     1.645893     1.638250
      1.630607     1.622964     1.615321     1.607677     1.600034     1.592391     1.584748     1.577105     1.569462     1.561819
      1.554176     1.546533     1.538890     1.531246     1.523603     1.515960     1.508317     1.500674     1.493031     1.485388
      1.477745     1.470102     1.462458     1.454815     1.447172     1.439529     1.431886     1.424243     1.416600     1.408957
      1.401314     1.393671     1.386027     1.378384     1.370741     1.363098     1.355455     1.347812     1.340169     1.332526
      1.324883     1.317240     1.309596     1.301953     1.294310     1.286667     1.279024     1.271381     1.263738     1.256095
      1.248452     1.240808     1.233165     1.225522     1.217879     1.210236     1.202593     1.194950     1.187307     1.179664
      1.172021     1.164377     1.156734     1.149091     1.141448     1.133805     1.126162     1.118519     1.110876     1.103233
      1.095590     1.087946     1.080303     1.072660     1.065017     1.057374     1.049731     1.042088     1.034445     1.026802
      1.019158     1.011515     1.003872     0.996229     0.988586     0.980943     0.973300     0.965657     0.958014     0.950371
      0.942727     0.935084     0.927441     0.919798     0.912155     0.904512     0.896869     0.889226     0.881583     0.873940
      0.866296     0.858653     0.851010     0.843367     0.835724     0.828081     0.820438     0.812795     0.805152     0.797508
      0.789865     0.782222     0.774579     0.766936     0.759293     0.751650     0.744007     0.736364     0.728721     0.721077
      0.713434     0.705791     0.698148     0.690505     0.682862     0.675219     0.667576     0.659933     0.652290     0.644646
      0.637003     0.629360     0.621717     0.614074     0.606431     0.598788     0.591145     0.583502     0.575858     0.568215
      0.560572     0.552929     0.545286     0.537643     0.530000     0.522357     0.514714     0.507071     0.499427     0.491784
      0.484141     0.476498     0.468855     0.461212     0.453569     0.445925     0.438282     0.430639     0.422996     0.415353
      0.407710     0.400067     0.392424     0.384780     0.377137     0.369494     0.361851     0.354208     0.346565     0.338922
      0.331278     0.323635     0.315992     0.308349     0.300706     0.293063     0.285420     0.277777     0.270133     0.262490
      0.254847     0.247204     0.239561     0.231918     0.224275     0.216631     0.208988     0.201345
 NY phased data points follow
   2.42262E+00  4.33063E+00  3.44146E+00  2.13693E+00  3.79499E+00  1.76934E+00  4.03096E+00  4.38371E+00  3.98564E+00  5.20840E+00
   4.26070E+00  5.30674E+00  6.91458E+00  8.13534E+00  6.78610E+00  7.87567E+00  4.99185E+00  6.28642E+00  4.19146E+00  8.87610E+00
   3.73870E+00  4.64046E+00  5.08622E+00  6.35856E+00  4.31507E+00  5.75748E+00  4.27434E+00  6.74750E+00  7.75676E+00  4.04086E+00
   7.20932E+00  4.09574E+00  3.93729E+00  4.09066E+00  3.51030E+00  4.75469E+00  4.75446E+00  5.40652E+00  4.08107E+00  3.65113E+00
   6.56167E+00  3.74665E+00  7.22784E+00  4.57357E+00  2.46291E+00  7.69839E+00  5.22243E+00  4.17673E+00  5.36150E+00  6.81300E+00
   5.74613E+00  8.67490E+00  5.84339E+00  8.53486E+00  6.15687E+00  8.51476E+00  6.58848E+00  6.47637E+00  5.93931E+00  1.00289E+01
   1.12328E+01  4.42113E+00  5.17775E+00  6.85628E+00  6.49093E+00  7.28957E+00  5.23632E+00  6.93962E+00  6.45752E+00  5.73908E+00
   5.36341E+00  4.59106E+00  6.68498E+00  6.38555E+00  4.97313E+00  6.48707E+00  6.12602E+00  5.03819E+00  4.34097E+00  6.78350E+00
   6.46573E+00  8.09494E+00  4.52206E+00  5.18312E+00  8.03785E+00  6.68573E+00  6.94527E+00  7.03000E+00  6.34768E+00  4.00312E+00
   3.08613E+00  3.47578E+00  6.45555E+00  2.58722E+00  6.19476E+00  5.77714E+00  2.98353E+00  2.63051E+00  1.91265E+00  5.99559E+00
   2.60107E+00  6.10771E+00  8.69614E+00  9.28469E+00  8.16186E+00  8.77684E+00  8.04224E+00  9.11215E+00  6.58645E+00  8.66463E+00
   5.57872E+00  4.73993E+00  7.60632E+00  8.17781E+00  5.02884E+00  6.44563E+00  6.79357E+00  5.81736E+00  4.13012E+00  5.60614E+00
   3.61805E+00  4.70175E+00  2.14702E+00  6.11817E+00  5.05393E+00  6.11376E+00  6.45489E+00  9.34696E+00  5.74692E+00  9.01913E+00
   8.23021E+00  6.83646E+00  5.97388E+00  8.52823E+00  6.06178E+00  6.20152E+00  7.85666E+00  6.29644E+00  6.51028E+00  8.88393E+00
   5.05789E+00  7.37932E+00  6.04390E+00  1.05736E+01  8.10395E+00  7.26490E+00  6.15498E+00  8.87509E+00  7.41799E+00  4.65217E+00
   9.68198E+00  8.11228E+00  5.85608E+00  6.34688E+00  5.62245E+00  6.98081E+00  7.62398E+00  1.00764E+01  6.84661E+00  7.53909E+00
   3.38195E+00  9.77830E+00  3.35225E+00  7.13280E+00  5.77101E+00  9.44853E+00  8.42904E+00  1.09337E+01  6.08433E+00  1.00456E+01
   6.46676E+00  6.75333E+00  5.96397E+00  9.74771E+00  7.79232E+00  6.64107E+00  5.67942E+00  5.81857E+00  6.63786E+00  7.92779E+00
   6.52670E+00  7.02160E+00  5.91979E+00  6.87941E+00  5.90046E+00  6.47465E+00  9.05151E+00  4.74757E+00  8.45450E+00  7.10991E+00
   7.63204E+00  9.41070E+00  5.96397E+00  8.23522E+00  8.00378E+00  6.83257E+00  7.48142E+00  6.03209E+00  1.04267E+01  9.24703E+00
   7.78414E+00  9.86581E+00  8.78893E+00  6.36637E+00  8.21075E+00  9.73844E+00  1.07278E+01  8.67414E+00  1.02469E+01  8.09452E+00
   8.52082E+00  9.77916E+00  9.17412E+00  8.83975E+00  8.63959E+00  9.27190E+00  9.67005E+00  1.28391E+01  8.97201E+00  9.68410E+00
   1.06720E+01  8.91930E+00  8.90528E+00  7.39181E+00  7.43660E+00  1.04817E+01  9.64190E+00  9.56553E+00  1.29965E+01  1.02192E+01
   7.24023E+00  1.08159E+01  6.75907E+00  8.21142E+00  9.10760E+00  1.39644E+01  1.02559E+01  1.19932E+01  8.68881E+00  8.18859E+00
   9.40960E+00  1.16516E+01  9.85187E+00  1.06162E+01  9.54779E+00  1.17317E+01  1.26162E+01  1.26038E+01  1.14077E+01  1.31574E+01
   1.38160E+01  1.60870E+01  1.52314E+01  1.74824E+01  1.37227E+01  1.42303E+01  9.78970E+00  1.19418E+01  1.42661E+01  1.42667E+01
   1.37674E+01  1.40868E+01  1.63828E+01  1.41893E+01  1.17698E+01  9.93561E+00  1.44833E+01  1.39121E+01  1.26920E+01  1.03530E+01
   1.17465E+01  9.02640E+00  9.02330E+00  1.00702E+01  6.66248E+00  7.00085E+00  1.07347E+01  9.78641E+00  9.80474E+00  1.06237E+01
   8.11567E+00  1.12249E+01  1.21893E+01  1.10426E+01  1.11922E+01  1.33120E+01  9.91045E+00  1.15219E+01  1.18810E+01  9.73470E+00
   9.09919E+00  1.09785E+01  1.22747E+01  1.00518E+01  1.07505E+01  1.06043E+01  1.16125E+01  1.20656E+01  1.10651E+01  1.45162E+01
   1.54126E+01  1.25000E+01  1.65492E+01  1.55197E+01  1.58304E+01  1.93703E+01  2.01733E+01  1.64916E+01  2.08498E+01  1.96485E+01
   1.87426E+01  2.21222E+01  2.18837E+01  2.13514E+01  1.92802E+01  2.22855E+01  2.24019E+01  2.53428E+01  2.11097E+01  2.41369E+01
   2.54025E+01  2.79848E+01  2.86465E+01  3.37176E+01  3.00549E+01  3.15512E+01  3.40371E+01  3.59536E+01  3.69720E+01  3.89317E+01
   4.06895E+01  4.10455E+01  4.32557E+01  4.51620E+01  4.32948E+01  4.62209E+01  4.80013E+01  4.99733E+01  4.97261E+01  5.09067E+01
   5.26057E+01  5.37198E+01  5.49484E+01  5.62684E+01  5.56707E+01  6.20719E+01  6.03290E+01  6.20007E+01  6.33090E+01  6.51514E+01
   6.38344E+01  6.40774E+01  6.90162E+01  7.20805E+01  7.15617E+01  7.11998E+01  7.32119E+01  7.60687E+01  7.43752E+01  7.58935E+01
   7.64835E+01  7.75221E+01  7.99003E+01  7.90399E+01  7.95965E+01  7.96427E+01  7.84267E+01  8.19473E+01  7.70117E+01  8.05735E+01
   8.16939E+01  7.89506E+01  8.16739E+01  7.79817E+01  7.98237E+01  7.99576E+01  7.89928E+01  8.11406E+01  7.87483E+01  8.07548E+01
   8.07332E+01  7.89319E+01  7.95982E+01  7.73269E+01  7.80082E+01  7.98541E+01  7.84401E+01  7.89686E+01  7.57033E+01  8.01982E+01
   7.67370E+01  7.67869E+01  7.49911E+01  7.78006E+01  7.57225E+01  7.23406E+01  7.50337E+01  7.32010E+01  7.27508E+01  7.16095E+01
   7.41933E+01  6.98042E+01  6.89202E+01  6.71995E+01  6.46447E+01  6.60899E+01  6.74532E+01  6.43242E+01  6.37880E+01  6.16105E+01
   5.75335E+01  6.10277E+01  5.90255E+01  5.61723E+01  5.62887E+01  5.37326E+01  5.57342E+01  5.27188E+01  5.04409E+01  5.05422E+01
   5.10235E+01  4.69753E+01  4.62134E+01  4.46583E+01  4.30598E+01  4.53880E+01  4.15795E+01  4.06996E+01  4.01560E+01  4.00854E+01
   3.78274E+01  3.88235E+01  3.52544E+01  3.58594E+01  3.52499E+01  3.33724E+01  3.27122E+01  3.21633E+01  3.14539E+01  3.07863E+01
   2.81975E+01  2.92263E+01  2.38998E+01  2.76508E+01  2.26849E+01  2.75565E+01  2.55467E+01  2.33469E+01  2.34876E+01  2.22765E+01
   2.13815E+01  1.97998E+01  2.22467E+01  1.70420E+01  1.65487E+01  1.53469E+01  1.64165E+01  1.45916E+01  1.57875E+01  1.63238E+01
   1.60533E+01  1.35832E+01  1.35978E+01  9.85310E+00  1.38565E+01  9.54917E+00  1.05298E+01  1.12455E+01  8.47324E+00  1.18184E+01
   8.73514E+00  9.74435E+00  9.28409E+00  9.51845E+00  6.41575E+00  5.68277E+00  4.63909E+00  6.16080E+00  5.42357E+00  6.30744E+00
   4.43050E+00  3.07692E+00  2.96797E+00  4.08947E+00  2.33449E+00  1.14004E+00  5.65876E+00  1.96757E+00  1.78582E-01  2.35279E+00
   1.74232E+00  3.73931E+00  6.40621E-01  1.53330E+00  9.92986E-01 -1.07105E+00  3.15732E+00  2.00470E+00
 NY points of the fit to the data follow
   4.93941E+00  4.82378E+00  4.75352E+00  4.71340E+00  4.67797E+00  4.47940E+00  4.23323E+00  4.22567E+00  4.50623E+00  4.96742E+00
   5.46583E+00  5.87393E+00  6.12350E+00  6.19645E+00  6.12089E+00  5.96757E+00  5.79066E+00  5.56720E+00  5.29488E+00  5.11628E+00
   5.04647E+00  5.02336E+00  5.06315E+00  5.13516E+00  5.19494E+00  5.21550E+00  5.16620E+00  5.04653E+00  4.90052E+00  4.80746E+00
   4.82312E+00  4.93105E+00  5.07509E+00  5.22441E+00  5.37466E+00  5.51140E+00  5.57508E+00  5.54869E+00  5.48396E+00  5.40704E+00
   5.28955E+00  5.09553E+00  4.84553E+00  4.69010E+00  4.77781E+00  5.12683E+00  5.62581E+00  6.12269E+00  6.47989E+00  6.60833E+00
   6.52113E+00  6.30589E+00  6.04724E+00  5.76351E+00  5.45056E+00  5.18605E+00  5.06831E+00  5.12683E+00  5.31202E+00  5.54299E+00
   5.75466E+00  5.88475E+00  5.90452E+00  5.82807E+00  5.70769E+00  5.59511E+00  5.47450E+00  5.37596E+00  5.35191E+00  5.39163E+00
   5.47480E+00  5.57852E+00  5.68372E+00  5.77028E+00  5.82460E+00  5.84381E+00  5.82986E+00  5.79762E+00  5.75443E+00  5.69718E+00
   5.64448E+00  5.64034E+00  5.70036E+00  5.79535E+00  5.86550E+00  5.86293E+00  5.77920E+00  5.64274E+00  5.49165E+00  5.36632E+00
   5.29450E+00  5.28021E+00  5.32515E+00  5.40926E+00  5.52123E+00  5.58600E+00  5.31104E+00  4.42163E+00  3.78005E+00  4.01898E+00
   5.03825E+00  6.48783E+00  7.93826E+00  9.01637E+00  9.53197E+00  9.48971E+00  9.04376E+00  8.45750E+00  7.84233E+00  7.11643E+00
   6.42754E+00  6.17041E+00  6.12767E+00  6.13022E+00  6.15265E+00  6.18058E+00  6.20913E+00  6.23698E+00  6.26171E+00  6.27131E+00
   6.18658E+00  5.81381E+00  5.44848E+00  5.49450E+00  5.97756E+00  6.73367E+00  7.55157E+00  8.22773E+00  8.63214E+00  8.73710E+00
   8.59917E+00  8.34509E+00  8.06719E+00  7.73947E+00  7.38025E+00  7.20291E+00  7.18365E+00  7.20586E+00  7.24002E+00  7.27763E+00
   7.31433E+00  7.35302E+00  7.39814E+00  7.44861E+00  7.50368E+00  7.55918E+00  7.61017E+00  7.65599E+00  7.69768E+00  7.73684E+00
   7.77257E+00  7.80441E+00  7.83290E+00  7.85905E+00  7.88800E+00  7.92267E+00  7.95194E+00  7.96261E+00  7.95109E+00  7.91802E+00
   7.87906E+00  7.84742E+00  7.82530E+00  7.81121E+00  7.80023E+00  7.78587E+00  7.76456E+00  7.73717E+00  7.70428E+00  7.66395E+00
   7.62266E+00  7.58065E+00  7.52340E+00  7.45739E+00  7.39290E+00  7.34249E+00  7.30690E+00  7.27444E+00  7.23886E+00  7.19974E+00
   7.16507E+00  7.14403E+00  7.13007E+00  7.11152E+00  7.08661E+00  7.05923E+00  7.04273E+00  7.04454E+00  7.05929E+00  7.07408E+00
   7.08185E+00  7.08043E+00  7.08244E+00  7.10190E+00  7.13567E+00  7.17042E+00  7.20046E+00  7.22201E+00  7.22566E+00  7.22256E+00
   7.22763E+00  7.26213E+00  7.32795E+00  7.40995E+00  7.51305E+00  7.61787E+00  7.69523E+00  7.73418E+00  7.71792E+00  7.64119E+00
   7.49962E+00  7.41865E+00  7.51192E+00  7.77107E+00  8.13527E+00  8.53008E+00  8.91360E+00  9.20601E+00  9.27831E+00  9.11987E+00
   8.85334E+00  8.58710E+00  8.39842E+00  8.34590E+00  8.48418E+00  8.76373E+00  9.09049E+00  9.39232E+00  9.64882E+00  9.86070E+00
   1.00024E+01  1.00730E+01  1.01282E+01  1.02091E+01  1.03213E+01  1.04654E+01  1.06221E+01  1.07883E+01  1.09360E+01  1.10423E+01
   1.11282E+01  1.12330E+01  1.13668E+01  1.15387E+01  1.17626E+01  1.20265E+01  1.22902E+01  1.25110E+01  1.26701E+01  1.27786E+01
   1.28612E+01  1.29226E+01  1.29901E+01  1.30309E+01  1.28427E+01  1.24004E+01  1.21503E+01  1.23005E+01  1.27595E+01  1.33625E+01
   1.39227E+01  1.42750E+01  1.43405E+01  1.41334E+01  1.37483E+01  1.33041E+01  1.28142E+01  1.22413E+01  1.17189E+01  1.13866E+01
   1.11295E+01  1.09078E+01  1.07270E+01  1.05815E+01  1.04599E+01  1.03608E+01  1.02759E+01  1.01982E+01  1.01262E+01  1.00609E+01
   1.00017E+01  9.95467E+00  9.92897E+00  9.92815E+00  9.95337E+00  1.00063E+01  1.00875E+01  1.01974E+01  1.03363E+01  1.05041E+01
   1.07024E+01  1.09328E+01  1.11958E+01  1.14924E+01  1.18235E+01  1.21890E+01  1.25871E+01  1.30156E+01  1.34716E+01  1.39514E+01
   1.44504E+01  1.49641E+01  1.54872E+01  1.60149E+01  1.65428E+01  1.70674E+01  1.75866E+01  1.80994E+01  1.86069E+01  1.91118E+01
   1.96183E+01  2.01325E+01  2.06622E+01  2.12157E+01  2.18025E+01  2.24320E+01  2.31134E+01  2.38552E+01  2.46646E+01  2.55469E+01
   2.65050E+01  2.75390E+01  2.86541E+01  2.98534E+01  3.11276E+01  3.24628E+01  3.38458E+01  3.52640E+01  3.67065E+01  3.81588E+01
   3.96075E+01  4.10509E+01  4.24872E+01  4.39097E+01  4.53114E+01  4.66878E+01  4.80305E+01  4.93314E+01  5.05887E+01  5.18042E+01
   5.29796E+01  5.41116E+01  5.52458E+01  5.64449E+01  5.77028E+01  5.89869E+01  6.02766E+01  6.15651E+01  6.28545E+01  6.41140E+01
   6.53499E+01  6.66211E+01  6.79561E+01  6.93367E+01  7.07297E+01  7.21103E+01  7.34271E+01  7.46206E+01  7.56733E+01  7.65922E+01
   7.73966E+01  7.80938E+01  7.86816E+01  7.91888E+01  7.96330E+01  8.00051E+01  8.02977E+01  8.05056E+01  8.06259E+01  8.06588E+01
   8.06086E+01  8.04829E+01  8.02931E+01  8.00534E+01  7.97798E+01  7.94892E+01  7.91984E+01  7.89229E+01  7.86764E+01  7.84690E+01
   7.83078E+01  7.81954E+01  7.81303E+01  7.81067E+01  7.81148E+01  7.81413E+01  7.81704E+01  7.81844E+01  7.81648E+01  7.80933E+01
   7.79529E+01  7.77288E+01  7.74091E+01  7.69856E+01  7.64537E+01  7.58130E+01  7.50670E+01  7.42224E+01  7.32892E+01  7.22795E+01
   7.12072E+01  7.00867E+01  6.89327E+01  6.77590E+01  6.65784E+01  6.54018E+01  6.42380E+01  6.30937E+01  6.19735E+01  6.08796E+01
   5.98122E+01  5.87699E+01  5.77498E+01  5.67481E+01  5.57602E+01  5.47811E+01  5.38057E+01  5.28293E+01  5.18475E+01  5.08565E+01
   4.98534E+01  4.88358E+01  4.78025E+01  4.67529E+01  4.56872E+01  4.46064E+01  4.35120E+01  4.24063E+01  4.12916E+01  4.01709E+01
   3.90471E+01  3.79236E+01  3.68035E+01  3.56898E+01  3.45857E+01  3.34938E+01  3.24169E+01  3.13572E+01  3.03169E+01  2.92976E+01
   2.83009E+01  2.73280E+01  2.63799E+01  2.54572E+01  2.45603E+01  2.36896E+01  2.28450E+01  2.20264E+01  2.12337E+01  2.04663E+01
   1.97238E+01  1.90056E+01  1.83111E+01  1.76395E+01  1.69902E+01  1.63624E+01  1.57552E+01  1.51680E+01  1.46000E+01  1.40503E+01
   1.35183E+01  1.30031E+01  1.25041E+01  1.20205E+01  1.15517E+01  1.10970E+01  1.06558E+01  1.02275E+01  9.81142E+00  9.40711E+00
   9.01400E+00  8.63161E+00  8.25945E+00  7.89705E+00  7.54399E+00  7.19985E+00  6.86424E+00  6.53679E+00  6.21714E+00  5.90495E+00
   5.59991E+00  5.30172E+00  5.01009E+00  4.72476E+00  4.44544E+00  4.17191E+00  3.90392E+00  3.64127E+00  3.38375E+00  3.13114E+00
   2.88326E+00  2.63993E+00  2.40099E+00  2.16626E+00  1.93561E+00  1.70887E+00  1.48591E+00  1.26659E+00
 NY background values follow
     4.384E+00    4.400E+00    4.417E+00    4.434E+00    4.451E+00    4.467E+00    4.484E+00    4.501E+00    4.518E+00    4.534E+00
     4.551E+00    4.568E+00    4.584E+00    4.601E+00    4.617E+00    4.634E+00    4.650E+00    4.667E+00    4.683E+00    4.699E+00
     4.715E+00    4.732E+00    4.748E+00    4.764E+00    4.779E+00    4.795E+00    4.811E+00    4.826E+00    4.842E+00    4.857E+00
     4.872E+00    4.888E+00    4.903E+00    4.917E+00    4.932E+00    4.947E+00    4.961E+00    4.975E+00    4.990E+00    5.004E+00
     5.017E+00    5.031E+00    5.045E+00    5.058E+00    5.071E+00    5.084E+00    5.097E+00    5.109E+00    5.122E+00    5.134E+00
     5.146E+00    5.158E+00    5.170E+00    5.181E+00    5.193E+00    5.204E+00    5.215E+00    5.226E+00    5.237E+00    5.247E+00
     5.258E+00    5.268E+00    5.279E+00    5.289E+00    5.299E+00    5.309E+00    5.319E+00    5.329E+00    5.338E+00    5.348E+00
     5.357E+00    5.367E+00    5.376E+00    5.385E+00    5.395E+00    5.404E+00    5.413E+00    5.422E+00    5.431E+00    5.440E+00
     5.449E+00    5.457E+00    5.466E+00    5.475E+00    5.484E+00    5.493E+00    5.501E+00    5.510E+00    5.519E+00    5.527E+00
     5.536E+00    5.545E+00    5.553E+00    5.562E+00    5.571E+00    5.580E+00    5.589E+00    5.597E+00    5.606E+00    5.615E+00
     5.624E+00    5.633E+00    5.642E+00    5.651E+00    5.660E+00    5.670E+00    5.679E+00    5.688E+00    5.698E+00    5.707E+00
     5.717E+00    5.727E+00    5.736E+00    5.746E+00    5.756E+00    5.767E+00    5.777E+00    5.787E+00    5.798E+00    5.808E+00
     5.819E+00    5.830E+00    5.841E+00    5.852E+00    5.863E+00    5.875E+00    5.886E+00    5.898E+00    5.910E+00    5.922E+00
     5.934E+00    5.947E+00    5.959E+00    5.972E+00    5.985E+00    5.998E+00    6.012E+00    6.025E+00    6.039E+00    6.053E+00
     6.067E+00    6.081E+00    6.096E+00    6.110E+00    6.125E+00    6.140E+00    6.155E+00    6.170E+00    6.185E+00    6.200E+00
     6.215E+00    6.231E+00    6.246E+00    6.261E+00    6.277E+00    6.292E+00    6.307E+00    6.323E+00    6.338E+00    6.354E+00
     6.369E+00    6.384E+00    6.399E+00    6.415E+00    6.430E+00    6.445E+00    6.459E+00    6.474E+00    6.489E+00    6.504E+00
     6.518E+00    6.532E+00    6.546E+00    6.560E+00    6.574E+00    6.588E+00    6.601E+00    6.614E+00    6.627E+00    6.640E+00
     6.652E+00    6.665E+00    6.677E+00    6.688E+00    6.700E+00    6.711E+00    6.722E+00    6.733E+00    6.743E+00    6.753E+00
     6.763E+00    6.772E+00    6.781E+00    6.790E+00    6.799E+00    6.807E+00    6.814E+00    6.822E+00    6.829E+00    6.836E+00
     6.842E+00    6.848E+00    6.854E+00    6.859E+00    6.864E+00    6.868E+00    6.872E+00    6.876E+00    6.879E+00    6.882E+00
     6.884E+00    6.886E+00    6.888E+00    6.889E+00    6.889E+00    6.889E+00    6.889E+00    6.888E+00    6.887E+00    6.885E+00
     6.883E+00    6.880E+00    6.877E+00    6.873E+00    6.869E+00    6.864E+00    6.859E+00    6.853E+00    6.846E+00    6.839E+00
     6.832E+00    6.824E+00    6.816E+00    6.807E+00    6.797E+00    6.787E+00    6.777E+00    6.766E+00    6.754E+00    6.742E+00
     6.730E+00    6.717E+00    6.703E+00    6.689E+00    6.675E+00    6.660E+00    6.645E+00    6.629E+00    6.613E+00    6.596E+00
     6.579E+00    6.561E+00    6.543E+00    6.525E+00    6.506E+00    6.487E+00    6.467E+00    6.447E+00    6.426E+00    6.405E+00
     6.384E+00    6.362E+00    6.339E+00    6.317E+00    6.293E+00    6.270E+00    6.246E+00    6.222E+00    6.197E+00    6.172E+00
     6.146E+00    6.121E+00    6.094E+00    6.068E+00    6.041E+00    6.013E+00    5.986E+00    5.958E+00    5.929E+00    5.900E+00
     5.871E+00    5.841E+00    5.811E+00    5.781E+00    5.750E+00    5.719E+00    5.688E+00    5.656E+00    5.624E+00    5.591E+00
     5.559E+00    5.525E+00    5.492E+00    5.458E+00    5.423E+00    5.389E+00    5.354E+00    5.318E+00    5.283E+00    5.246E+00
     5.210E+00    5.173E+00    5.136E+00    5.099E+00    5.061E+00    5.022E+00    4.984E+00    4.945E+00    4.906E+00    4.866E+00
     4.826E+00    4.786E+00    4.745E+00    4.704E+00    4.663E+00    4.621E+00    4.579E+00    4.537E+00    4.494E+00    4.451E+00
     4.408E+00    4.364E+00    4.320E+00    4.275E+00    4.231E+00    4.186E+00    4.140E+00    4.095E+00    4.049E+00    4.002E+00
     3.955E+00    3.908E+00    3.861E+00    3.813E+00    3.765E+00    3.717E+00    3.668E+00    3.619E+00    3.570E+00    3.520E+00
     3.470E+00    3.420E+00    3.369E+00    3.318E+00    3.267E+00    3.216E+00    3.164E+00    3.112E+00    3.059E+00    3.006E+00
     2.953E+00    2.900E+00    2.846E+00    2.792E+00    2.737E+00    2.682E+00    2.627E+00    2.572E+00    2.516E+00    2.461E+00
     2.404E+00    2.348E+00    2.291E+00    2.234E+00    2.176E+00    2.118E+00    2.060E+00    2.002E+00    1.943E+00    1.884E+00
     1.825E+00    1.765E+00    1.706E+00    1.645E+00    1.585E+00    1.524E+00    1.463E+00    1.402E+00    1.340E+00    1.278E+00
     1.216E+00    1.154E+00    1.091E+00    1.028E+00    9.643E-01    9.007E-01    8.368E-01    7.726E-01    7.081E-01    6.434E-01
     5.783E-01    5.130E-01    4.474E-01    3.816E-01    3.154E-01    2.490E-01    1.823E-01    1.154E-01    4.812E-02   -1.938E-02
    -8.715E-02   -1.552E-01   -2.235E-01   -2.921E-01   -3.609E-01   -4.300E-01   -4.994E-01   -5.690E-01   -6.389E-01   -7.091E-01
    -7.795E-01   -8.502E-01   -9.211E-01   -9.923E-01   -1.064E+00   -1.136E+00   -1.207E+00   -1.280E+00   -1.352E+00   -1.425E+00
    -1.498E+00   -1.571E+00   -1.645E+00   -1.719E+00   -1.793E+00   -1.867E+00   -1.942E+00   -2.017E+00   -2.092E+00   -2.167E+00
    -2.243E+00   -2.319E+00   -2.395E+00   -2.471E+00   -2.548E+00   -2.625E+00   -2.702E+00   -2.780E+00   -2.857E+00   -2.935E+00
    -3.014E+00   -3.092E+00   -3.171E+00   -3.250E+00   -3.329E+00   -3.409E+00   -3.489E+00   -3.569E+00   -3.649E+00   -3.730E+00
    -3.810E+00   -3.891E+00   -3.973E+00   -4.054E+00   -4.136E+00   -4.218E+00   -4.301E+00   -4.383E+00   -4.466E+00   -4.549E+00
    -4.632E+00   -4.716E+00   -4.800E+00   -4.883E+00   -4.967E+00   -5.052E+00   -5.136E+00   -5.220E+00   -5.305E+00   -5.390E+00
    -5.475E+00   -5.560E+00   -5.645E+00   -5.730E+00   -5.816E+00   -5.901E+00   -5.987E+00   -6.072E+00   -6.158E+00   -6.244E+00
    -6.330E+00   -6.416E+00   -6.502E+00   -6.588E+00   -6.674E+00   -6.760E+00   -6.846E+00   -6.932E+00   -7.018E+00   -7.104E+00
    -7.191E+00   -7.277E+00   -7.363E+00   -7.449E+00   -7.535E+00   -7.621E+00   -7.707E+00   -7.793E+00
 Ala      Conc. = 1.46E+00
