 LCModel (Version 6.3-1L) Copyright: S.W. Provencher.          Ref.: Magn. Reson. Med. 30:672-679 (1993).                
 Slice#1 Row#9 Col#12  PD_24_press_1_raw_act
 36 lines in following concentration table = NCONC+1
    Conc.  %SD /Cr+PCr  Metabolite                                         
  213.240  30%   1.855 Ala                                                 
   46.052 149%   0.401 Asp                                                 
   70.987 128%   0.618 Cr                                                  
   43.940 211%   0.382 PCr                                                 
   32.386 133%   0.282 GABA                                                
   60.215  71%   0.524 Glc                                                 
  236.890  58%   2.061 Gln                                                 
  687.210  23%   5.980 Glu                                                 
   22.940 303%   0.200 GPC                                                 
   15.191 458%   0.132 PCh                                                 
    9.269 421% 8.1E-02 GSH                                                 
  206.277  61%   1.795 Ins                                                 
    0.000 999%   0.000 Lac                                                 
 1.18E+03   4%  10.230 NAA                                                 
    0.000 999%   0.000 NAAG                                                
   19.280  54%   0.168 Scyllo                                              
  127.089  52%   1.106 Tau                                                 
   12.031 262%   0.105 -CrCH2                                              
   38.131  26%   0.332 GPC+PCh                                             
 1.18E+03   4%  10.230 NAA+NAAG                                            
  114.927  23%   1.000 Cr+PCr                                              
  924.100  25%   8.041 Glu+Gln                                             
  897.969  30%   7.813 Lip13a                                              
    0.000 999%   0.000 Lip13b                                              
  223.057  53%   1.941 Lip09                                               
  774.019  18%   6.735 MM09                                                
  153.580  52%   1.336 Lip20                                               
 1.56E+03  11%  13.606 MM20                                                
  228.844  46%   1.991 MM12                                                
  254.584  68%   2.215 MM14                                                
    0.000 999%   0.000 MM17                                                
  897.969  30%   7.813 Lip13a+Lip13b                                       
 1.38E+03  13%  12.020 MM14+Lip13a+Lip13b+MM12                             
  997.076   9%   8.676 MM09+Lip09                                          
 1.72E+03  10%  14.942 MM20+Lip20                                          
   6 lines in following misc. output table
  FWHM = 0.061 ppm    S/N =  11                                            
  Data shift =-0.031 ppm                                                   
  Ph: -50 deg     -18.2 deg/ppm                                            
  alphaB,S = 8.5E+01,   2.0E+02                                            
   14 spline knots.   Ns = 8(1)                                            
   2 inflections.     1 extrema                                            
  498 points on ppm-axis = NY
      4.000000     3.992357     3.984714     3.977070     3.969427     3.961784     3.954141     3.946497     3.938854     3.931211
      3.923568     3.915925     3.908281     3.900638     3.892995     3.885352     3.877708     3.870065     3.862422     3.854779
      3.847136     3.839492     3.831849     3.824206     3.816563     3.808919     3.801276     3.793633     3.785990     3.778347
      3.770703     3.763060     3.755417     3.747774     3.740130     3.732487     3.724844     3.717201     3.709558     3.701914
      3.694271     3.686628     3.678985     3.671341     3.663698     3.656055     3.648412     3.640769     3.633125     3.625482
      3.617839     3.610196     3.602552     3.594909     3.587266     3.579623     3.571980     3.564336     3.556693     3.549050
      3.541407     3.533763     3.526120     3.518477     3.510834     3.503191     3.495547     3.487904     3.480261     3.472618
      3.464974     3.457331     3.449688     3.442045     3.434402     3.426758     3.419115     3.411472     3.403829     3.396185
      3.388542     3.380899     3.373256     3.365613     3.357969     3.350326     3.342683     3.335040     3.327396     3.319753
      3.312110     3.304467     3.296824     3.289180     3.281537     3.273894     3.266251     3.258607     3.250964     3.243321
      3.235678     3.228034     3.220391     3.212748     3.205105     3.197462     3.189818     3.182175     3.174532     3.166889
      3.159245     3.151602     3.143959     3.136316     3.128673     3.121029     3.113386     3.105743     3.098100     3.090456
      3.082813     3.075170     3.067527     3.059884     3.052240     3.044597     3.036954     3.029311     3.021667     3.014024
      3.006381     2.998738     2.991095     2.983451     2.975808     2.968165     2.960522     2.952878     2.945235     2.937592
      2.929949     2.922306     2.914662     2.907019     2.899376     2.891733     2.884089     2.876446     2.868803     2.861160
      2.853517     2.845873     2.838230     2.830587     2.822944     2.815300     2.807657     2.800014     2.792371     2.784728
      2.777084     2.769441     2.761798     2.754155     2.746511     2.738868     2.731225     2.723582     2.715939     2.708295
      2.700652     2.693009     2.685366     2.677722     2.670079     2.662436     2.654793     2.647150     2.639506     2.631863
      2.624220     2.616577     2.608933     2.601290     2.593647     2.586004     2.578361     2.570717     2.563074     2.555431
      2.547788     2.540144     2.532501     2.524858     2.517215     2.509572     2.501928     2.494285     2.486642     2.478999
      2.471355     2.463712     2.456069     2.448426     2.440783     2.433139     2.425496     2.417853     2.410210     2.402566
      2.394923     2.387280     2.379637     2.371994     2.364350     2.356707     2.349064     2.341421     2.333777     2.326134
      2.318491     2.310848     2.303205     2.295561     2.287918     2.280275     2.272632     2.264988     2.257345     2.249702
      2.242059     2.234416     2.226772     2.219129     2.211486     2.203843     2.196199     2.188556     2.180913     2.173270
      2.165627     2.157983     2.150340     2.142697     2.135054     2.127410     2.119767     2.112124     2.104481     2.096838
      2.089194     2.081551     2.073908     2.066265     2.058621     2.050978     2.043335     2.035692     2.028049     2.020405
      2.012762     2.005119     1.997476     1.989833     1.982190     1.974546     1.966903     1.959260     1.951617     1.943974
      1.936331     1.928688     1.921045     1.913402     1.905759     1.898115     1.890472     1.882829     1.875186     1.867543
      1.859900     1.852257     1.844614     1.836971     1.829327     1.821684     1.814041     1.806398     1.798755     1.791112
      1.783469     1.775826     1.768183     1.760540     1.752896     1.745253     1.737610     1.729967     1.722324     1.714681
      1.707038     1.699395     1.691752     1.684108     1.676465     1.668822     1.661179     1.653536     1.645893     1.638250
      1.630607     1.622964     1.615321     1.607677     1.600034     1.592391     1.584748     1.577105     1.569462     1.561819
      1.554176     1.546533     1.538890     1.531246     1.523603     1.515960     1.508317     1.500674     1.493031     1.485388
      1.477745     1.470102     1.462458     1.454815     1.447172     1.439529     1.431886     1.424243     1.416600     1.408957
      1.401314     1.393671     1.386027     1.378384     1.370741     1.363098     1.355455     1.347812     1.340169     1.332526
      1.324883     1.317240     1.309596     1.301953     1.294310     1.286667     1.279024     1.271381     1.263738     1.256095
      1.248452     1.240808     1.233165     1.225522     1.217879     1.210236     1.202593     1.194950     1.187307     1.179664
      1.172021     1.164377     1.156734     1.149091     1.141448     1.133805     1.126162     1.118519     1.110876     1.103233
      1.095590     1.087946     1.080303     1.072660     1.065017     1.057374     1.049731     1.042088     1.034445     1.026802
      1.019158     1.011515     1.003872     0.996229     0.988586     0.980943     0.973300     0.965657     0.958014     0.950371
      0.942727     0.935084     0.927441     0.919798     0.912155     0.904512     0.896869     0.889226     0.881583     0.873940
      0.866296     0.858653     0.851010     0.843367     0.835724     0.828081     0.820438     0.812795     0.805152     0.797508
      0.789865     0.782222     0.774579     0.766936     0.759293     0.751650     0.744007     0.736364     0.728721     0.721077
      0.713434     0.705791     0.698148     0.690505     0.682862     0.675219     0.667576     0.659933     0.652290     0.644646
      0.637003     0.629360     0.621717     0.614074     0.606431     0.598788     0.591145     0.583502     0.575858     0.568215
      0.560572     0.552929     0.545286     0.537643     0.530000     0.522357     0.514714     0.507071     0.499427     0.491784
      0.484141     0.476498     0.468855     0.461212     0.453569     0.445925     0.438282     0.430639     0.422996     0.415353
      0.407710     0.400067     0.392424     0.384780     0.377137     0.369494     0.361851     0.354208     0.346565     0.338922
      0.331278     0.323635     0.315992     0.308349     0.300706     0.293063     0.285420     0.277777     0.270133     0.262490
      0.254847     0.247204     0.239561     0.231918     0.224275     0.216631     0.208988     0.201345
 NY phased data points follow
   1.00724E+00 -2.59177E+00 -1.98388E+00 -6.83563E-01  1.83275E-01  1.33923E+00 -5.52621E-01  1.18996E-01  5.28119E-01 -8.67137E-01
  -3.85180E-01  2.48030E+00 -9.09370E-02 -1.64974E+00 -9.08536E-01  1.61764E-01  3.99572E-01  9.74660E-01 -6.27060E-01 -5.81870E-01
   7.58856E-01  1.68142E-01  6.58633E-01  4.52931E-01 -2.72569E+00  1.79630E+00  1.84414E+00 -1.72609E+00 -2.65184E+00 -8.05506E-01
  -1.12224E-01 -1.86696E+00 -7.23206E-02 -4.99211E-01 -1.92972E+00  7.24006E-01  2.45497E+00 -1.01968E+00 -2.39166E+00 -5.99609E-01
   1.45398E+00  1.12076E+00  5.85579E-01 -2.80172E-01 -1.54580E+00 -2.19745E+00  9.96267E-02  1.42300E-01  9.70530E-02 -9.28706E-02
  -1.91452E+00  2.36464E-01 -1.17242E+00 -1.85710E+00 -3.17184E+00 -1.43856E+00 -1.34788E-01 -3.77286E-01 -3.17470E-01  4.28611E-01
   7.60152E-01 -3.90583E-01 -1.08655E+00 -2.97071E-01 -2.08699E+00  1.86174E+00 -3.73630E-01  1.62851E+00  1.84892E+00  1.60260E+00
  -2.90908E+00  8.32284E-01 -1.90882E+00 -1.31093E+00  1.73265E+00 -2.19194E+00 -2.97747E-01  2.77584E+00  6.60298E-01  2.28385E+00
  -1.34086E+00  2.12994E+00 -1.29258E-01 -2.32376E+00 -1.07465E+00  1.94176E+00 -4.07818E-01 -1.27976E-01 -2.02004E+00 -1.35641E+00
   2.22461E+00  1.79434E+00 -1.22609E+00 -6.97069E-01 -1.03418E+00  2.05405E+00  1.18060E-01 -6.19526E-01  5.62379E-01  8.06524E-01
   2.40691E+00  1.08546E+00  8.12174E-01  2.64585E+00  2.03317E+00  3.77042E+00  2.58159E+00  1.77393E+00 -2.39579E+00 -1.96129E+00
  -2.79138E+00 -3.58387E-01 -2.93830E-01  2.69940E+00  2.43137E+00 -4.30872E-01  2.50539E+00  8.86977E-01  1.94075E+00  6.90131E-01
  -2.54508E+00 -2.28725E+00  2.59692E-01 -3.74088E-01  2.00778E+00  2.54068E+00  2.70687E+00  4.57846E+00  6.31002E+00  2.08621E+00
   3.92157E+00  3.37426E+00  5.42294E-01 -7.03874E-01  2.45111E+00  4.20273E-01  1.27564E+00  3.28557E+00 -3.67308E-03  1.84291E+00
   2.25440E+00  7.87217E-02 -7.08834E-01  1.53928E-01  9.95667E-01  2.03112E+00 -1.53007E+00  2.71429E+00  4.60366E-01 -1.09380E-01
  -1.23535E+00 -2.07466E-01 -7.23651E-01  3.79318E-01 -3.43953E+00  2.05088E+00  1.82580E-01 -2.61989E+00  7.29990E-01 -1.59398E+00
   5.96804E-01  6.41424E-02 -2.19755E+00  2.56186E-01 -1.53048E+00 -3.08880E+00 -5.36354E-01 -3.47890E+00 -3.57717E+00 -2.69757E+00
  -3.83790E+00 -3.58695E+00 -2.53546E+00 -1.63447E+00 -1.06529E+00 -2.48760E+00 -4.45178E+00  9.35268E-01 -3.72776E+00 -5.06346E+00
  -3.27206E+00 -5.29696E+00 -5.75485E+00  3.76000E-01 -3.44646E+00 -2.52782E+00 -2.64677E+00 -1.59783E+00 -4.34849E+00 -1.89186E+00
  -1.08359E+00 -1.19530E+00 -2.32636E+00 -2.60369E+00 -6.36172E+00 -2.33944E+00 -1.83627E+00 -3.02728E+00 -1.43043E+00 -2.89339E+00
  -2.84019E+00 -4.04305E+00 -3.44409E+00 -2.78035E+00 -4.38146E-01 -1.93715E+00 -2.30529E+00 -1.77251E+00  5.37777E-02 -7.99432E-02
  -8.23311E-01  8.01099E-01  1.05347E+00  1.90527E+00  3.25449E+00  2.41557E+00  5.56197E+00  2.98589E+00  1.06746E-01 -2.22795E+00
   1.93498E-01 -1.28530E+00 -3.04897E+00 -8.03266E-01 -2.58355E+00  3.84683E+00  2.67628E+00  2.52539E+00  3.85082E+00  5.03431E+00
   4.19578E+00  4.00397E-01  3.19677E+00  4.64318E+00  1.31950E+00  3.24213E+00  5.17289E+00  1.95823E+00  2.99425E+00  5.35234E+00
   6.13304E+00  2.89833E+00  3.08532E+00  5.31033E+00  3.49185E+00  5.20853E+00  5.38377E+00  5.66883E+00  7.66896E+00  6.49948E+00
   6.03966E+00  8.38089E+00  9.14628E+00  1.31234E+01  1.44963E+01  1.98426E+01  2.77772E+01  3.04797E+01  3.39377E+01  3.63762E+01
   4.20049E+01  3.96656E+01  3.67685E+01  2.94377E+01  2.07630E+01  1.31627E+01  1.03742E+01  8.00384E+00  6.98335E+00  5.50694E+00
   3.51555E+00  3.16828E+00  2.44184E+00  7.27420E-01  2.29917E+00  3.55185E+00 -1.74923E-01 -1.11684E+00  1.04942E+00  4.97928E-01
   1.67097E-01 -1.57398E+00  4.42052E-01 -4.35064E-02  1.19578E+00  1.13274E+00 -1.21006E+00 -5.47984E-02 -1.94691E+00  8.05650E-02
  -2.50426E+00 -1.17871E+00  3.21906E-01 -2.49538E+00  2.58239E-01  1.36580E+00 -4.31683E-01 -2.13872E+00 -3.55777E+00 -1.40300E+00
  -6.80810E-01 -1.36838E+00 -1.15097E+00 -1.93986E+00  3.03573E+00  1.75369E+00  2.01932E+00 -1.84233E+00  1.88573E+00  1.68792E+00
   1.63049E+00  2.95056E+00  8.56357E-01  1.26595E+00  1.72473E+00  1.51387E+00 -6.12238E-01 -7.42602E-01  1.51126E+00  6.95450E-01
  -1.86077E-01  3.72871E-02  1.39649E+00  2.04118E+00  5.75756E-02 -9.68157E-01 -2.79173E+00 -1.34804E-01 -1.49498E+00 -5.04622E-01
  -2.63017E+00 -4.61769E-01  7.74334E-01  2.98299E+00 -3.04943E-01  4.78172E+00  5.17445E+00  6.01837E+00  4.85749E+00  1.58263E+00
   5.60357E+00 -4.01948E-01  4.84013E+00  6.59756E+00  4.20509E+00  6.97993E+00  4.63160E+00  5.24703E+00  5.35582E+00  7.51873E+00
   6.92016E+00  6.90552E+00  4.35356E+00  4.29583E+00  4.58887E+00  3.35827E+00  4.03013E+00  1.96802E+00  2.60989E+00  5.78672E+00
   4.63284E+00  3.49395E+00  2.67280E+00  2.49561E+00  3.04132E+00  2.41677E+00  4.92326E+00  3.15742E+00  5.88319E+00  5.68426E+00
   3.65740E+00  4.48172E+00  3.71782E+00  5.08146E+00  1.95808E+00  3.48620E+00  2.34053E+00 -1.15741E+00  2.32037E-01  1.97245E+00
   1.52912E+00  2.33813E+00  1.74134E+00  2.92265E+00  1.95396E+00  1.28102E+00  6.51535E-01  3.30212E+00  1.35650E+00  1.95738E+00
   2.94422E+00  5.07074E+00  4.49950E+00  3.92749E+00  4.21371E+00  3.75104E+00  9.33285E+00  5.94327E+00  6.42801E+00  3.50636E+00
   7.03264E+00  7.19753E+00  7.57685E+00  7.34358E+00  5.15017E+00  6.14843E+00  4.88243E+00  6.73632E+00  6.36472E+00  6.83825E+00
   8.05485E+00  7.15422E+00  5.00350E+00  4.50888E+00  6.66698E+00  3.39826E+00  5.79577E+00  3.28714E+00  3.30246E+00  1.84110E+00
   2.92670E+00  2.46704E+00  2.38429E+00  1.71950E+00  1.56086E+00  1.75763E+00 -1.80281E+00 -1.15034E+00  1.52344E+00  1.29311E-01
   2.25621E+00 -6.00905E-01  9.39168E-01  9.23584E-01 -1.65018E+00  1.46753E+00 -1.42912E+00  7.08241E-01 -6.73073E-01  1.38648E+00
  -1.18507E+00 -1.01574E+00 -8.26131E-02 -2.80482E+00 -1.12233E+00 -2.44338E+00  3.12843E-01  6.34616E-01 -1.29604E+00  4.84218E-01
   7.68932E-01 -1.17702E+00 -1.09497E+00 -2.57662E-01 -1.49598E+00 -1.26972E+00  9.17599E-01 -2.40277E+00 -1.20663E+00 -1.05499E+00
  -2.45908E+00 -2.31164E+00  8.08826E-01 -3.67540E+00  1.21920E+00  3.68657E-01  8.39344E-01 -1.38732E+00 -1.24429E+00  3.26423E-01
   9.33952E-03  9.83304E-01  9.67761E-01 -1.49999E-02 -2.45017E+00  2.03307E+00  3.82875E+00  1.57665E+00 -5.35839E-01 -5.36826E-01
  -1.17378E+00 -1.22481E+00  1.21019E-02  2.24152E+00  2.42235E-01 -1.64558E+00  1.39139E-01 -5.62143E-01  1.39446E+00 -5.47075E-01
   1.02074E-01  2.43246E+00 -4.19181E-01 -9.91739E-01  1.15629E+00  8.49210E-01  1.74912E+00 -2.87210E-01
 NY points of the fit to the data follow
  -1.05467E+00 -1.09831E+00 -1.08642E+00 -1.00146E+00 -8.26716E-01 -5.87928E-01 -3.13494E-01 -3.18127E-02  2.27828E-01  4.36222E-01
   5.65292E-01  5.90427E-01  4.90336E-01  2.72529E-01 -1.58487E-02 -3.01985E-01 -5.05953E-01 -5.79213E-01 -5.37659E-01 -4.25068E-01
  -3.26923E-01 -2.94988E-01 -3.48885E-01 -5.07262E-01 -7.28972E-01 -9.45767E-01 -1.10042E+00 -1.14823E+00 -1.05591E+00 -8.03303E-01
  -4.15689E-01  3.07628E-02  4.26394E-01  6.40382E-01  5.87052E-01  2.73340E-01 -2.04447E-01 -6.90546E-01 -1.04268E+00 -1.16216E+00
  -1.04647E+00 -7.81384E-01 -4.63761E-01 -1.65836E-01  7.33958E-02  2.43991E-01  3.45495E-01  3.70069E-01  2.96469E-01  1.13956E-01
  -1.51795E-01 -4.40993E-01 -6.82530E-01 -8.28531E-01 -8.71447E-01 -8.41929E-01 -7.77671E-01 -7.00432E-01 -6.19000E-01 -5.43211E-01
  -4.91499E-01 -4.70680E-01 -4.85973E-01 -5.33431E-01 -5.86968E-01 -6.21657E-01 -6.26820E-01 -5.93738E-01 -5.20398E-01 -4.23981E-01
  -3.20123E-01 -2.20182E-01 -1.38595E-01 -8.74705E-02 -6.76299E-02 -8.34684E-02 -1.42888E-01 -2.40026E-01 -3.37602E-01 -3.98216E-01
  -4.09496E-01 -3.66025E-01 -2.79247E-01 -1.82223E-01 -1.05642E-01 -7.00227E-02 -9.71622E-02 -2.05276E-01 -3.82353E-01 -5.91731E-01
  -7.82961E-01 -9.08073E-01 -9.63222E-01 -9.69677E-01 -9.24978E-01 -7.59285E-01 -4.32731E-01  2.07783E-02  5.44370E-01  1.06728E+00
   1.53732E+00  1.92610E+00  2.20662E+00  2.32595E+00  2.22700E+00  1.90024E+00  1.40943E+00  8.70533E-01  4.01661E-01  6.60951E-02
  -1.52040E-01 -3.00223E-01 -4.04512E-01 -4.53847E-01 -4.59874E-01 -4.48459E-01 -4.26906E-01 -3.94083E-01 -3.27480E-01 -1.49628E-01
   1.88359E-01  6.50201E-01  1.19654E+00  1.78054E+00  2.35156E+00  2.87036E+00  3.28859E+00  3.52555E+00  3.49957E+00  3.18498E+00
   2.64379E+00  2.00998E+00  1.42555E+00  9.73418E-01  6.56072E-01  4.27944E-01  2.53717E-01  1.41171E-01  8.49577E-02  5.06768E-02
   2.24601E-02 -7.30422E-03 -4.30760E-02 -8.51470E-02 -1.31214E-01 -1.79575E-01 -2.29590E-01 -2.82598E-01 -3.38172E-01 -3.91681E-01
  -4.37461E-01 -4.72076E-01 -5.03073E-01 -5.64136E-01 -6.68403E-01 -8.05164E-01 -9.54313E-01 -1.07912E+00 -1.17804E+00 -1.26650E+00
  -1.34483E+00 -1.40031E+00 -1.41362E+00 -1.38020E+00 -1.33116E+00 -1.32703E+00 -1.42043E+00 -1.62222E+00 -1.90828E+00 -2.22163E+00
  -2.48635E+00 -2.68733E+00 -2.83388E+00 -2.95462E+00 -3.05819E+00 -3.11681E+00 -3.11411E+00 -3.04054E+00 -2.91696E+00 -2.80923E+00
  -2.74910E+00 -2.71259E+00 -2.65713E+00 -2.53461E+00 -2.32726E+00 -2.06302E+00 -1.78340E+00 -1.49006E+00 -1.15713E+00 -7.81702E-01
  -4.23508E-01 -1.60694E-01 -2.16772E-02  2.39213E-02  3.10885E-02  5.85683E-02  1.48757E-01  2.91024E-01  4.73530E-01  6.79245E-01
   8.85128E-01  1.05349E+00  1.10640E+00  1.00814E+00  7.27209E-01  2.34088E-01 -4.01004E-01 -1.02376E+00 -1.44051E+00 -1.54762E+00
  -1.31103E+00 -7.63027E-01 -2.31106E-02  7.41740E-01  1.33473E+00  1.58223E+00  1.41370E+00  8.54709E-01  2.43686E-02 -8.65812E-01
  -1.59252E+00 -1.95267E+00 -1.84720E+00 -1.31166E+00 -4.61790E-01  5.35139E-01  1.49512E+00  2.22555E+00  2.63884E+00  2.79719E+00
   2.82054E+00  2.81360E+00  2.82647E+00  2.89337E+00  3.03203E+00  3.21344E+00  3.42124E+00  3.65089E+00  3.88463E+00  4.10164E+00
   4.29193E+00  4.44562E+00  4.57657E+00  4.72860E+00  4.93909E+00  5.21739E+00  5.54166E+00  5.88580E+00  6.22092E+00  6.54200E+00
   6.87234E+00  7.38429E+00  8.84344E+00  1.18602E+01  1.60130E+01  2.08603E+01  2.59261E+01  3.07135E+01  3.48994E+01  3.81222E+01
   3.96655E+01  3.86963E+01  3.49121E+01  2.89196E+01  2.20576E+01  1.58058E+01  1.10743E+01  7.90076E+00  5.75378E+00  4.16283E+00
   3.15430E+00  2.71019E+00  2.45666E+00  2.27339E+00  2.12532E+00  1.98042E+00  1.81651E+00  1.63103E+00  1.43021E+00  1.22658E+00
   1.03312E+00  8.59340E-01  7.09313E-01  5.84884E-01  4.84687E-01  4.03003E-01  3.33495E-01  2.71957E-01  2.16117E-01  1.65187E-01
   1.18683E-01  7.64573E-02  3.94260E-02  7.83657E-03 -1.85317E-02 -3.95571E-02 -5.50872E-02 -6.54659E-02 -7.13446E-02 -7.31614E-02
  -7.12106E-02 -6.59016E-02 -5.74359E-02 -4.57371E-02 -3.08541E-02 -1.27291E-02  8.81259E-03  3.41510E-02  6.39254E-02  9.89746E-02
   1.40227E-01  1.88710E-01  2.45738E-01  3.13249E-01  3.94111E-01  4.92786E-01  6.16968E-01  7.82603E-01  1.02571E+00  1.34797E+00
   1.66042E+00  1.90523E+00  2.04221E+00  2.03877E+00  1.87823E+00  1.53875E+00  1.02074E+00  4.28285E-01 -1.25165E-01 -5.05716E-01
  -5.87246E-01 -3.18202E-01  2.65576E-01  1.07022E+00  1.97153E+00  2.83601E+00  3.55182E+00  4.03240E+00  4.23880E+00  4.24717E+00
   4.17771E+00  4.12207E+00  4.11006E+00  4.12404E+00  4.15509E+00  4.22651E+00  4.32530E+00  4.43435E+00  4.54473E+00  4.65055E+00
   4.74720E+00  4.83084E+00  4.89820E+00  4.94659E+00  4.97389E+00  4.97852E+00  4.95946E+00  4.91633E+00  4.84938E+00  4.75950E+00
   4.64816E+00  4.51730E+00  4.36925E+00  4.20671E+00  4.03263E+00  3.85014E+00  3.66239E+00  3.47248E+00  3.28338E+00  3.09794E+00
   2.91884E+00  2.74852E+00  2.58917E+00  2.44273E+00  2.31093E+00  2.19533E+00  2.09739E+00  2.01842E+00  1.95961E+00  1.92212E+00
   1.90710E+00  1.91572E+00  1.94918E+00  2.00865E+00  2.09521E+00  2.20988E+00  2.35350E+00  2.52667E+00  2.72957E+00  2.96183E+00
   3.22235E+00  3.50925E+00  3.81970E+00  4.14986E+00  4.49476E+00  4.84832E+00  5.20347E+00  5.55229E+00  5.88626E+00  6.19653E+00
   6.47427E+00  6.71102E+00  6.89916E+00  7.03231E+00  7.10560E+00  7.11597E+00  7.06229E+00  6.94547E+00  6.76841E+00  6.53584E+00
   6.25407E+00  5.93058E+00  5.57370E+00  5.19218E+00  4.79483E+00  4.39015E+00  3.98595E+00  3.58916E+00  3.20564E+00  2.84011E+00
   2.49612E+00  2.17614E+00  1.88156E+00  1.61285E+00  1.36974E+00  1.15135E+00  9.56405E-01  7.83282E-01  6.30169E-01  4.95164E-01
   3.76378E-01  2.72010E-01  1.80368E-01  9.98882E-02  2.91310E-02 -3.31857E-02 -8.81800E-02 -1.36810E-01 -1.79911E-01 -2.18217E-01
  -2.52372E-01 -2.82923E-01 -3.10319E-01 -3.34936E-01 -3.57104E-01 -3.77125E-01 -3.95263E-01 -4.11732E-01 -4.26701E-01 -4.40314E-01
  -4.52714E-01 -4.64035E-01 -4.74396E-01 -4.83881E-01 -4.92556E-01 -5.00485E-01 -5.07744E-01 -5.14405E-01 -5.20524E-01 -5.26132E-01
  -5.31257E-01 -5.35934E-01 -5.40212E-01 -5.44132E-01 -5.47718E-01 -5.50977E-01 -5.53924E-01 -5.56585E-01 -5.58996E-01 -5.61177E-01
  -5.63136E-01 -5.64867E-01 -5.66382E-01 -5.67706E-01 -5.68863E-01 -5.69861E-01 -5.70694E-01 -5.71360E-01 -5.71871E-01 -5.72250E-01
  -5.72512E-01 -5.72651E-01 -5.72658E-01 -5.72532E-01 -5.72288E-01 -5.71944E-01 -5.71504E-01 -5.70954E-01 -5.70285E-01 -5.69500E-01
  -5.68615E-01 -5.67639E-01 -5.66564E-01 -5.65372E-01 -5.64053E-01 -5.62612E-01 -5.61059E-01 -5.59390E-01
 NY background values follow
    -1.502E+00   -1.500E+00   -1.498E+00   -1.496E+00   -1.494E+00   -1.492E+00   -1.490E+00   -1.488E+00   -1.486E+00   -1.484E+00
    -1.482E+00   -1.480E+00   -1.478E+00   -1.476E+00   -1.474E+00   -1.472E+00   -1.470E+00   -1.468E+00   -1.466E+00   -1.464E+00
    -1.462E+00   -1.460E+00   -1.458E+00   -1.456E+00   -1.454E+00   -1.452E+00   -1.451E+00   -1.449E+00   -1.447E+00   -1.445E+00
    -1.443E+00   -1.441E+00   -1.439E+00   -1.437E+00   -1.435E+00   -1.433E+00   -1.431E+00   -1.429E+00   -1.427E+00   -1.425E+00
    -1.423E+00   -1.421E+00   -1.419E+00   -1.417E+00   -1.415E+00   -1.413E+00   -1.411E+00   -1.409E+00   -1.407E+00   -1.405E+00
    -1.403E+00   -1.401E+00   -1.399E+00   -1.397E+00   -1.395E+00   -1.393E+00   -1.391E+00   -1.389E+00   -1.387E+00   -1.385E+00
    -1.383E+00   -1.381E+00   -1.379E+00   -1.377E+00   -1.375E+00   -1.373E+00   -1.371E+00   -1.369E+00   -1.367E+00   -1.365E+00
    -1.363E+00   -1.361E+00   -1.359E+00   -1.357E+00   -1.355E+00   -1.353E+00   -1.351E+00   -1.349E+00   -1.347E+00   -1.345E+00
    -1.343E+00   -1.341E+00   -1.339E+00   -1.337E+00   -1.335E+00   -1.333E+00   -1.331E+00   -1.329E+00   -1.327E+00   -1.325E+00
    -1.323E+00   -1.321E+00   -1.319E+00   -1.317E+00   -1.315E+00   -1.313E+00   -1.311E+00   -1.309E+00   -1.307E+00   -1.305E+00
    -1.303E+00   -1.301E+00   -1.299E+00   -1.297E+00   -1.295E+00   -1.293E+00   -1.291E+00   -1.289E+00   -1.287E+00   -1.285E+00
    -1.283E+00   -1.281E+00   -1.279E+00   -1.277E+00   -1.275E+00   -1.273E+00   -1.271E+00   -1.269E+00   -1.267E+00   -1.265E+00
    -1.263E+00   -1.261E+00   -1.259E+00   -1.257E+00   -1.255E+00   -1.253E+00   -1.251E+00   -1.249E+00   -1.247E+00   -1.245E+00
    -1.243E+00   -1.241E+00   -1.239E+00   -1.237E+00   -1.235E+00   -1.233E+00   -1.231E+00   -1.229E+00   -1.227E+00   -1.225E+00
    -1.223E+00   -1.221E+00   -1.219E+00   -1.217E+00   -1.215E+00   -1.213E+00   -1.211E+00   -1.209E+00   -1.207E+00   -1.205E+00
    -1.203E+00   -1.201E+00   -1.199E+00   -1.197E+00   -1.195E+00   -1.193E+00   -1.191E+00   -1.189E+00   -1.187E+00   -1.185E+00
    -1.183E+00   -1.181E+00   -1.179E+00   -1.177E+00   -1.175E+00   -1.173E+00   -1.170E+00   -1.168E+00   -1.166E+00   -1.164E+00
    -1.162E+00   -1.160E+00   -1.158E+00   -1.156E+00   -1.154E+00   -1.152E+00   -1.150E+00   -1.148E+00   -1.146E+00   -1.144E+00
    -1.142E+00   -1.140E+00   -1.138E+00   -1.136E+00   -1.134E+00   -1.132E+00   -1.130E+00   -1.128E+00   -1.126E+00   -1.124E+00
    -1.122E+00   -1.120E+00   -1.118E+00   -1.116E+00   -1.114E+00   -1.112E+00   -1.110E+00   -1.108E+00   -1.106E+00   -1.104E+00
    -1.102E+00   -1.100E+00   -1.098E+00   -1.096E+00   -1.094E+00   -1.092E+00   -1.089E+00   -1.087E+00   -1.085E+00   -1.083E+00
    -1.081E+00   -1.079E+00   -1.077E+00   -1.075E+00   -1.073E+00   -1.071E+00   -1.069E+00   -1.067E+00   -1.065E+00   -1.063E+00
    -1.061E+00   -1.059E+00   -1.057E+00   -1.055E+00   -1.053E+00   -1.051E+00   -1.049E+00   -1.047E+00   -1.045E+00   -1.043E+00
    -1.041E+00   -1.039E+00   -1.037E+00   -1.035E+00   -1.033E+00   -1.031E+00   -1.028E+00   -1.026E+00   -1.024E+00   -1.022E+00
    -1.020E+00   -1.018E+00   -1.016E+00   -1.014E+00   -1.012E+00   -1.010E+00   -1.008E+00   -1.006E+00   -1.004E+00   -1.002E+00
    -1.000E+00   -9.979E-01   -9.959E-01   -9.938E-01   -9.918E-01   -9.898E-01   -9.877E-01   -9.857E-01   -9.836E-01   -9.816E-01
    -9.796E-01   -9.775E-01   -9.755E-01   -9.734E-01   -9.714E-01   -9.694E-01   -9.673E-01   -9.653E-01   -9.632E-01   -9.612E-01
    -9.591E-01   -9.571E-01   -9.551E-01   -9.530E-01   -9.510E-01   -9.489E-01   -9.469E-01   -9.448E-01   -9.428E-01   -9.408E-01
    -9.387E-01   -9.367E-01   -9.346E-01   -9.326E-01   -9.305E-01   -9.285E-01   -9.264E-01   -9.244E-01   -9.224E-01   -9.203E-01
    -9.183E-01   -9.162E-01   -9.142E-01   -9.121E-01   -9.101E-01   -9.080E-01   -9.060E-01   -9.039E-01   -9.019E-01   -8.999E-01
    -8.978E-01   -8.958E-01   -8.937E-01   -8.917E-01   -8.896E-01   -8.876E-01   -8.855E-01   -8.835E-01   -8.814E-01   -8.794E-01
    -8.773E-01   -8.753E-01   -8.732E-01   -8.712E-01   -8.691E-01   -8.671E-01   -8.650E-01   -8.630E-01   -8.609E-01   -8.589E-01
    -8.568E-01   -8.548E-01   -8.527E-01   -8.507E-01   -8.486E-01   -8.466E-01   -8.445E-01   -8.425E-01   -8.404E-01   -8.384E-01
    -8.363E-01   -8.343E-01   -8.322E-01   -8.302E-01   -8.281E-01   -8.261E-01   -8.240E-01   -8.220E-01   -8.199E-01   -8.179E-01
    -8.158E-01   -8.138E-01   -8.117E-01   -8.097E-01   -8.076E-01   -8.056E-01   -8.035E-01   -8.015E-01   -7.994E-01   -7.974E-01
    -7.953E-01   -7.933E-01   -7.912E-01   -7.892E-01   -7.871E-01   -7.851E-01   -7.830E-01   -7.810E-01   -7.789E-01   -7.769E-01
    -7.748E-01   -7.728E-01   -7.707E-01   -7.686E-01   -7.666E-01   -7.645E-01   -7.625E-01   -7.604E-01   -7.584E-01   -7.563E-01
    -7.543E-01   -7.522E-01   -7.502E-01   -7.481E-01   -7.461E-01   -7.440E-01   -7.420E-01   -7.399E-01   -7.379E-01   -7.358E-01
    -7.337E-01   -7.317E-01   -7.296E-01   -7.276E-01   -7.255E-01   -7.235E-01   -7.214E-01   -7.194E-01   -7.173E-01   -7.153E-01
    -7.132E-01   -7.112E-01   -7.091E-01   -7.070E-01   -7.050E-01   -7.029E-01   -7.009E-01   -6.988E-01   -6.968E-01   -6.947E-01
    -6.927E-01   -6.906E-01   -6.886E-01   -6.865E-01   -6.844E-01   -6.824E-01   -6.803E-01   -6.783E-01   -6.762E-01   -6.742E-01
    -6.721E-01   -6.701E-01   -6.680E-01   -6.660E-01   -6.639E-01   -6.619E-01   -6.598E-01   -6.577E-01   -6.557E-01   -6.536E-01
    -6.516E-01   -6.495E-01   -6.475E-01   -6.454E-01   -6.434E-01   -6.413E-01   -6.393E-01   -6.372E-01   -6.351E-01   -6.331E-01
    -6.310E-01   -6.290E-01   -6.269E-01   -6.249E-01   -6.228E-01   -6.208E-01   -6.187E-01   -6.167E-01   -6.146E-01   -6.126E-01
    -6.105E-01   -6.084E-01   -6.064E-01   -6.043E-01   -6.023E-01   -6.002E-01   -5.982E-01   -5.961E-01   -5.941E-01   -5.920E-01
    -5.900E-01   -5.879E-01   -5.859E-01   -5.838E-01   -5.817E-01   -5.797E-01   -5.776E-01   -5.756E-01   -5.735E-01   -5.715E-01
    -5.694E-01   -5.674E-01   -5.653E-01   -5.633E-01   -5.612E-01   -5.592E-01   -5.571E-01   -5.551E-01   -5.530E-01   -5.510E-01
    -5.489E-01   -5.468E-01   -5.448E-01   -5.427E-01   -5.407E-01   -5.386E-01   -5.366E-01   -5.345E-01   -5.325E-01   -5.304E-01
    -5.284E-01   -5.263E-01   -5.243E-01   -5.222E-01   -5.202E-01   -5.181E-01   -5.161E-01   -5.140E-01   -5.120E-01   -5.099E-01
    -5.079E-01   -5.058E-01   -5.038E-01   -5.017E-01   -4.997E-01   -4.976E-01   -4.956E-01   -4.935E-01
 Ala      Conc. = 2.13E+02
