 LCModel (Version 6.3-1L) Copyright: S.W. Provencher.          Ref.: Magn. Reson. Med. 30:672-679 (1993).                
 Slice#1 Row#13 Col#13  PD_24_press_1_raw_act
 36 lines in following concentration table = NCONC+1
    Conc.  %SD /Cr+PCr  Metabolite                                         
    0.000 999%   0.000 Ala                                                 
    5.385  57%   0.203 Asp                                                 
    0.000 999%   0.000 Cr                                                  
   26.575  36%   1.000 PCr                                                 
    3.238  56%   0.122 GABA                                                
    3.177  58%   0.120 Glc                                                 
   13.225 172%   0.498 Gln                                                 
   24.178 105%   0.910 Glu                                                 
    0.000 999%   0.000 GPC                                                 
   12.587  33%   0.474 PCh                                                 
    0.000 999%   0.000 GSH                                                 
   39.736  79%   1.495 Ins                                                 
   20.234  67%   0.761 Lac                                                 
   44.448  29%   1.673 NAA                                                 
    0.000 999%   0.000 NAAG                                                
    1.139  54% 4.3E-02 Scyllo                                              
    5.758  53%   0.217 Tau                                                 
    5.483  70%   0.206 -CrCH2                                              
   12.587  33%   0.474 GPC+PCh                                             
   44.448  29%   1.673 NAA+NAAG                                            
   26.575  36%   1.000 Cr+PCr                                              
   37.403  83%   1.407 Glu+Gln                                             
 2.07E+03  15%  77.994 Lip13a                                              
    0.000 999%   0.000 Lip13b                                              
  474.325  25%  17.849 Lip09                                               
  443.047  22%  16.672 MM09                                                
  211.881  46%   7.973 Lip20                                               
    0.000 999%   0.000 MM20                                                
  271.350  45%  10.211 MM12                                                
    0.000 999%   0.000 MM14                                                
  308.460  30%  11.607 MM17                                                
 2.07E+03  15%  77.994 Lip13a+Lip13b                                       
 2.34E+03  11%  88.204 MM14+Lip13a+Lip13b+MM12                             
  917.372  14%  34.520 MM09+Lip09                                          
  211.881  46%   7.973 MM20+Lip20                                          
   6 lines in following misc. output table
  FWHM = 0.031 ppm    S/N =   4                                            
  Data shift =-0.008 ppm                                                   
  Ph:  81 deg     -35.2 deg/ppm                                            
  alphaB,S = 4.3E+01,   7.2E+00                                            
   14 spline knots.   Ns = 5(1)                                            
   2 inflections.     2 extrema                                            
  498 points on ppm-axis = NY
      4.000000     3.992357     3.984714     3.977070     3.969427     3.961784     3.954141     3.946497     3.938854     3.931211
      3.923568     3.915925     3.908281     3.900638     3.892995     3.885352     3.877708     3.870065     3.862422     3.854779
      3.847136     3.839492     3.831849     3.824206     3.816563     3.808919     3.801276     3.793633     3.785990     3.778347
      3.770703     3.763060     3.755417     3.747774     3.740130     3.732487     3.724844     3.717201     3.709558     3.701914
      3.694271     3.686628     3.678985     3.671341     3.663698     3.656055     3.648412     3.640769     3.633125     3.625482
      3.617839     3.610196     3.602552     3.594909     3.587266     3.579623     3.571980     3.564336     3.556693     3.549050
      3.541407     3.533763     3.526120     3.518477     3.510834     3.503191     3.495547     3.487904     3.480261     3.472618
      3.464974     3.457331     3.449688     3.442045     3.434402     3.426758     3.419115     3.411472     3.403829     3.396185
      3.388542     3.380899     3.373256     3.365613     3.357969     3.350326     3.342683     3.335040     3.327396     3.319753
      3.312110     3.304467     3.296824     3.289180     3.281537     3.273894     3.266251     3.258607     3.250964     3.243321
      3.235678     3.228034     3.220391     3.212748     3.205105     3.197462     3.189818     3.182175     3.174532     3.166889
      3.159245     3.151602     3.143959     3.136316     3.128673     3.121029     3.113386     3.105743     3.098100     3.090456
      3.082813     3.075170     3.067527     3.059884     3.052240     3.044597     3.036954     3.029311     3.021667     3.014024
      3.006381     2.998738     2.991095     2.983451     2.975808     2.968165     2.960522     2.952878     2.945235     2.937592
      2.929949     2.922306     2.914662     2.907019     2.899376     2.891733     2.884089     2.876446     2.868803     2.861160
      2.853517     2.845873     2.838230     2.830587     2.822944     2.815300     2.807657     2.800014     2.792371     2.784728
      2.777084     2.769441     2.761798     2.754155     2.746511     2.738868     2.731225     2.723582     2.715939     2.708295
      2.700652     2.693009     2.685366     2.677722     2.670079     2.662436     2.654793     2.647150     2.639506     2.631863
      2.624220     2.616577     2.608933     2.601290     2.593647     2.586004     2.578361     2.570717     2.563074     2.555431
      2.547788     2.540144     2.532501     2.524858     2.517215     2.509572     2.501928     2.494285     2.486642     2.478999
      2.471355     2.463712     2.456069     2.448426     2.440783     2.433139     2.425496     2.417853     2.410210     2.402566
      2.394923     2.387280     2.379637     2.371994     2.364350     2.356707     2.349064     2.341421     2.333777     2.326134
      2.318491     2.310848     2.303205     2.295561     2.287918     2.280275     2.272632     2.264988     2.257345     2.249702
      2.242059     2.234416     2.226772     2.219129     2.211486     2.203843     2.196199     2.188556     2.180913     2.173270
      2.165627     2.157983     2.150340     2.142697     2.135054     2.127410     2.119767     2.112124     2.104481     2.096838
      2.089194     2.081551     2.073908     2.066265     2.058621     2.050978     2.043335     2.035692     2.028049     2.020405
      2.012762     2.005119     1.997476     1.989833     1.982190     1.974546     1.966903     1.959260     1.951617     1.943974
      1.936331     1.928688     1.921045     1.913402     1.905759     1.898115     1.890472     1.882829     1.875186     1.867543
      1.859900     1.852257     1.844614     1.836971     1.829327     1.821684     1.814041     1.806398     1.798755     1.791112
      1.783469     1.775826     1.768183     1.760540     1.752896     1.745253     1.737610     1.729967     1.722324     1.714681
      1.707038     1.699395     1.691752     1.684108     1.676465     1.668822     1.661179     1.653536     1.645893     1.638250
      1.630607     1.622964     1.615321     1.607677     1.600034     1.592391     1.584748     1.577105     1.569462     1.561819
      1.554176     1.546533     1.538890     1.531246     1.523603     1.515960     1.508317     1.500674     1.493031     1.485388
      1.477745     1.470102     1.462458     1.454815     1.447172     1.439529     1.431886     1.424243     1.416600     1.408957
      1.401314     1.393671     1.386027     1.378384     1.370741     1.363098     1.355455     1.347812     1.340169     1.332526
      1.324883     1.317240     1.309596     1.301953     1.294310     1.286667     1.279024     1.271381     1.263738     1.256095
      1.248452     1.240808     1.233165     1.225522     1.217879     1.210236     1.202593     1.194950     1.187307     1.179664
      1.172021     1.164377     1.156734     1.149091     1.141448     1.133805     1.126162     1.118519     1.110876     1.103233
      1.095590     1.087946     1.080303     1.072660     1.065017     1.057374     1.049731     1.042088     1.034445     1.026802
      1.019158     1.011515     1.003872     0.996229     0.988586     0.980943     0.973300     0.965657     0.958014     0.950371
      0.942727     0.935084     0.927441     0.919798     0.912155     0.904512     0.896869     0.889226     0.881583     0.873940
      0.866296     0.858653     0.851010     0.843367     0.835724     0.828081     0.820438     0.812795     0.805152     0.797508
      0.789865     0.782222     0.774579     0.766936     0.759293     0.751650     0.744007     0.736364     0.728721     0.721077
      0.713434     0.705791     0.698148     0.690505     0.682862     0.675219     0.667576     0.659933     0.652290     0.644646
      0.637003     0.629360     0.621717     0.614074     0.606431     0.598788     0.591145     0.583502     0.575858     0.568215
      0.560572     0.552929     0.545286     0.537643     0.530000     0.522357     0.514714     0.507071     0.499427     0.491784
      0.484141     0.476498     0.468855     0.461212     0.453569     0.445925     0.438282     0.430639     0.422996     0.415353
      0.407710     0.400067     0.392424     0.384780     0.377137     0.369494     0.361851     0.354208     0.346565     0.338922
      0.331278     0.323635     0.315992     0.308349     0.300706     0.293063     0.285420     0.277777     0.270133     0.262490
      0.254847     0.247204     0.239561     0.231918     0.224275     0.216631     0.208988     0.201345
 NY phased data points follow
  -1.60029E+00 -7.26216E-01 -1.55678E+00 -4.18973E-01  2.56639E-01 -8.04689E-01 -4.45955E-01 -1.65738E+00 -1.51372E+00 -2.27426E+00
  -7.89762E-01 -8.08482E-01 -7.01262E-01 -2.87021E+00 -2.83688E+00 -2.47175E+00 -2.72447E+00 -1.28516E-01 -6.92339E-01 -2.61624E+00
  -2.59636E+00  1.62904E-01 -1.55342E+00 -1.26311E-01  6.03751E-01 -1.75965E+00 -1.84697E+00  4.04764E-01 -1.59635E+00 -2.49184E+00
  -1.30951E-01 -1.97346E+00 -1.78150E+00 -3.44245E-01 -5.21289E-01 -1.87726E+00 -1.56566E+00 -1.70458E+00  3.72585E-01 -1.58809E+00
  -9.02907E-01 -1.16753E+00 -1.39361E+00 -5.12523E-01 -6.10387E-01 -1.97550E+00 -7.60214E-01  5.33777E-01  1.80785E+00  1.48897E+00
  -5.79558E-01 -6.05331E-01 -1.95055E+00 -2.29140E+00 -2.60435E+00 -1.26384E+00  2.67744E-01 -5.44296E-02 -2.31791E+00 -1.92942E+00
  -1.42863E+00 -1.60033E+00  1.06077E-01 -3.40255E-01 -7.25675E-01  4.25191E-01 -1.83714E-01 -3.09467E-01 -2.84224E-01 -5.69757E-01
  -1.94066E+00 -8.39865E-02 -1.65052E+00 -2.54049E+00  8.37447E-01 -6.59064E-01 -1.39760E+00 -3.01572E-01 -8.90872E-01 -9.19123E-01
   1.55891E+00 -7.83832E-01 -1.85766E+00 -8.20138E-01  9.64891E-01 -6.92610E-01  5.45788E-01  6.35204E-01 -1.22790E+00 -3.27261E-01
  -1.06820E-01  1.44716E+00 -1.72574E-01  6.56775E-01  6.49604E-01  7.28764E-01 -1.17977E-03 -6.34303E-02 -9.80399E-01 -2.41520E+00
   6.90566E-01  1.23761E+00  9.61986E-01  9.19891E-01  2.67105E+00  1.25011E+00  3.11652E+00  1.04043E+00 -7.50018E-01 -5.27930E-01
   8.69518E-01  3.05431E+00  8.81613E-01 -5.39663E-01 -2.34623E-01 -3.26477E-01 -2.03124E-01 -8.58460E-01  9.95343E-01 -8.42872E-01
  -1.31342E+00 -5.87758E-01 -8.19666E-01 -7.58036E-01 -1.12091E+00  1.67609E-01  2.59665E-01  3.08571E+00  2.45638E+00  1.75664E+00
   3.06728E+00  1.18723E+00  8.66471E-01 -7.51153E-01  1.38792E-01 -6.10731E-01  3.61493E-01 -1.42465E+00  6.62140E-01 -1.09102E+00
  -9.80645E-02 -1.97169E+00 -6.68375E-01  4.32604E-01 -2.30812E-01 -1.34176E+00  1.96189E+00  6.64446E-01  6.52742E-01 -5.07380E-03
   1.22363E-01  1.36652E+00 -8.65183E-02  1.23284E+00  5.57490E-01  9.62593E-01 -6.17305E-01  5.85091E-01  2.47830E-01  1.50983E+00
   1.68927E+00  1.39466E-01  6.11055E-01  1.43370E+00  1.04357E+00 -7.76583E-01  1.57223E+00  5.48926E-01  9.02473E-01 -1.42900E-01
   1.53699E+00  2.63243E+00 -8.27450E-01  2.01739E-01  6.67785E-02  1.51621E+00 -1.53079E+00  4.62664E-02 -4.66639E-01  8.91521E-02
  -8.40521E-01 -7.52258E-01  1.40425E+00  4.68720E-01  3.23589E-01  1.08946E+00 -1.43575E+00  1.45288E+00  3.66084E-01  1.65680E+00
   1.00882E+00  1.92233E+00  1.31196E+00  1.51837E-01  4.32652E-01  2.43614E+00  1.22177E+00  9.62688E-01  8.12519E-01  2.00318E+00
   7.79617E-01  5.14447E-01  3.85951E-01  6.54679E-01  9.55816E-02  1.74774E+00  3.33422E-01  2.11333E+00  1.05396E+00 -7.80550E-01
  -7.99780E-01  1.29246E+00  6.94301E-02  1.11924E+00 -4.66076E-01  2.88116E+00 -1.35939E-01  3.57285E+00  1.86670E+00  2.30664E+00
   1.66935E+00  2.04027E+00  2.46423E+00  1.14427E+00  2.07069E+00  6.60619E-01  8.71594E-01  3.45358E-04  9.56663E-01  2.63632E+00
   1.70353E+00  3.30557E-01 -2.11137E-01  9.89772E-01 -1.30648E-01  6.70163E-01  2.13543E+00  2.64200E-01  1.54285E+00  3.75663E+00
   4.08331E-01  1.24767E+00 -1.88817E-01  1.66471E+00  8.26883E-01  1.40006E+00 -6.21534E-01  1.00401E+00  1.20330E+00  1.13547E+00
   2.58886E-01  7.32045E-01  2.44073E-01 -4.85916E-02 -4.48942E-01 -3.93168E-01 -4.34311E-01  1.00964E+00  7.58697E-01  5.19001E-01
   2.97744E+00  4.41767E+00  4.00735E+00  3.93263E+00  5.30663E+00  3.18514E+00 -1.47368E-01 -7.08857E-01  2.31824E+00  2.21064E+00
   7.60009E-01  2.19738E+00  2.23178E+00  2.19349E+00  1.89369E+00  2.03555E+00  3.82126E+00  2.61439E+00  3.37323E+00  4.01537E-01
   1.53626E+00  3.44012E+00  3.06354E+00  1.64217E+00  3.18795E+00  2.66271E+00  1.72470E+00  3.13122E+00  2.60206E+00  2.07804E+00
  -3.64054E-01  2.37099E+00  2.83828E+00  3.45775E+00  1.91900E+00  2.84044E+00  2.45798E+00  2.00825E+00  2.28669E+00  2.32687E+00
   1.03929E+00  2.73602E+00  3.67125E+00  2.77242E+00  2.83288E+00  4.07577E+00  3.14758E+00  1.85759E+00  2.93120E+00  2.30349E+00
   4.30095E+00  2.98124E+00  3.69383E+00  3.73567E+00  4.30033E+00  2.73958E+00  4.26432E+00  5.99699E+00  3.06037E+00  2.71994E+00
   4.56982E+00  2.93202E+00  3.23310E+00  2.58839E+00  3.15877E+00  4.04224E+00  1.96258E+00  4.04171E+00  3.97800E+00  2.35409E+00
   3.14938E+00  1.81335E+00  4.91059E+00  3.45333E+00  5.99730E+00  5.34633E+00  3.39478E+00  5.49216E+00  4.30990E+00  5.28874E+00
   5.55639E+00  4.56752E+00  5.65502E+00  5.45257E+00  5.29290E+00  7.64475E+00  7.56921E+00  8.88794E+00  7.31250E+00  8.11694E+00
   5.59042E+00  8.50701E+00  8.65763E+00  7.88508E+00  7.51787E+00  9.78093E+00  1.12423E+01  9.41900E+00  9.79375E+00  1.05711E+01
   9.89835E+00  9.96235E+00  1.00499E+01  1.05883E+01  1.11743E+01  1.07782E+01  9.34682E+00  1.05118E+01  1.00654E+01  8.80260E+00
   1.02557E+01  8.99641E+00  8.50674E+00  8.20592E+00  7.76596E+00  8.91632E+00  8.00937E+00  8.78011E+00  7.95697E+00  6.23893E+00
   8.72596E+00  9.23599E+00  8.30063E+00  8.99618E+00  6.76565E+00  6.63783E+00  8.49945E+00  4.80858E+00  8.23451E+00  8.84345E+00
   6.85829E+00  8.31774E+00  6.09794E+00  7.09551E+00  6.92190E+00  5.11183E+00  6.88350E+00  5.86236E+00  6.06840E+00  6.41120E+00
   6.16950E+00  5.53672E+00  4.80683E+00  4.53143E+00  4.61584E+00  4.91311E+00  5.54260E+00  4.65189E+00  2.62632E+00  5.44432E+00
   6.88884E+00  5.42232E+00  5.74855E+00  3.86315E+00  5.64216E+00  4.66844E+00  5.91975E+00  4.18253E+00  3.24997E+00  3.01976E+00
   3.73092E+00  1.87197E+00  4.86263E+00  4.81715E+00  3.26004E+00  3.98444E+00  1.90626E+00  4.71138E+00  3.32651E+00  2.82279E+00
   2.56064E+00  3.97680E+00  2.37134E+00  2.38473E+00  2.43264E+00  2.70518E+00  1.58308E+00  3.56850E+00  3.22145E+00  2.28906E+00
   3.16629E+00  2.81960E+00  3.60320E+00  1.10248E+00  2.38911E+00  1.76841E+00  3.22234E+00  3.99542E+00  2.93282E+00  3.02707E+00
   2.68529E+00  1.71611E+00  1.82555E-02  2.06832E+00  1.19360E+00  1.17809E+00  2.41603E+00  1.57938E+00  1.38813E+00  1.56200E+00
   1.57246E+00  2.52621E+00  1.32264E+00  2.58267E+00  1.76261E+00  6.75758E-01  1.88639E+00  1.55580E+00  1.72666E+00  3.25822E+00
   1.40138E+00  1.95697E+00  1.68426E-01  3.12725E-01 -1.21231E-01  6.61753E-01  1.83879E+00 -2.05598E-01  7.86138E-01  1.91667E+00
   1.37417E+00  1.54849E+00  7.19769E-02  1.16705E+00  1.89455E+00  1.39328E+00  2.72858E+00  1.48799E+00  7.41809E-01 -4.61141E-01
   2.64050E+00  9.23251E-01  1.01743E+00  2.09499E+00  2.43833E+00  3.55653E+00  1.80538E-02  1.31997E+00
 NY points of the fit to the data follow
  -1.00179E+00 -1.04970E+00 -1.06082E+00 -1.09432E+00 -1.24016E+00 -1.33689E+00 -1.25390E+00 -1.02516E+00 -6.83107E-01 -3.06251E-01
  -4.97289E-02 -5.43126E-04 -1.47575E-01 -4.59303E-01 -7.79745E-01 -9.14587E-01 -9.38367E-01 -9.50622E-01 -9.59803E-01 -9.68777E-01
  -9.75326E-01 -9.64056E-01 -9.26365E-01 -8.61513E-01 -7.96782E-01 -7.61810E-01 -7.75105E-01 -8.47432E-01 -9.47067E-01 -1.02038E+00
  -1.02783E+00 -9.47336E-01 -8.00866E-01 -6.44944E-01 -5.32600E-01 -5.01204E-01 -5.59695E-01 -6.59193E-01 -7.43441E-01 -7.97874E-01
  -8.16684E-01 -8.32375E-01 -9.01958E-01 -9.81134E-01 -9.75547E-01 -8.50710E-01 -6.16247E-01 -3.35281E-01 -1.14051E-01 -3.63306E-02
  -1.26998E-01 -3.59463E-01 -6.26446E-01 -7.92678E-01 -8.37724E-01 -8.21519E-01 -7.90457E-01 -7.49428E-01 -6.71113E-01 -5.59523E-01
  -4.47682E-01 -3.69159E-01 -3.48549E-01 -3.95384E-01 -4.95935E-01 -5.88461E-01 -6.38889E-01 -6.50851E-01 -6.20555E-01 -5.65466E-01
  -5.14060E-01 -4.77289E-01 -4.39895E-01 -4.02694E-01 -3.72827E-01 -3.46134E-01 -3.41418E-01 -3.61636E-01 -3.86554E-01 -4.17350E-01
  -4.55739E-01 -4.87018E-01 -4.74366E-01 -4.18239E-01 -3.51333E-01 -3.03649E-01 -2.96542E-01 -3.40794E-01 -4.17046E-01 -4.93713E-01
  -5.46554E-01 -5.56227E-01 -5.04633E-01 -4.28503E-01 -3.76309E-01 -3.51504E-01 -3.61450E-01 -4.99043E-01 -9.27273E-01 -1.20251E+00
  -1.00030E+00 -4.00396E-01  5.15406E-01  1.51012E+00  2.17330E+00  2.28842E+00  1.86728E+00  1.00397E+00  1.44871E-01 -2.12977E-01
  -2.70851E-01 -2.79224E-01 -2.76226E-01 -2.70003E-01 -2.59278E-01 -2.47282E-01 -2.38202E-01 -2.33215E-01 -2.30233E-01 -2.32769E-01
  -2.54716E-01 -3.77392E-01 -6.90915E-01 -8.28248E-01 -6.07599E-01 -1.08441E-01  5.95253E-01  1.31783E+00  1.76119E+00  1.79439E+00
   1.44438E+00  7.96962E-01  2.11693E-01  3.45726E-03 -3.05646E-02 -3.86045E-02 -3.38035E-02 -1.67454E-02  7.39560E-03  3.22452E-02
   5.27794E-02  6.74905E-02  8.27515E-02  1.01107E-01  1.22472E-01  1.48359E-01  1.77011E-01  2.02471E-01  2.18704E-01  2.27439E-01
   2.33247E-01  2.40676E-01  2.53210E-01  2.67803E-01  2.81955E-01  2.98924E-01  3.25116E-01  3.48252E-01  3.51525E-01  3.32539E-01
   2.89899E-01  2.47083E-01  2.28592E-01  2.39024E-01  2.75784E-01  3.28299E-01  3.69804E-01  3.76317E-01  3.54518E-01  3.20750E-01
   2.93346E-01  2.92068E-01  2.98605E-01  2.80193E-01  2.46881E-01  2.15110E-01  1.99948E-01  2.04977E-01  2.20786E-01  2.38685E-01
   2.52477E-01  2.61907E-01  2.64390E-01  2.56694E-01  2.48677E-01  2.51671E-01  2.59346E-01  2.60636E-01  2.72666E-01  3.08622E-01
   3.56875E-01  4.06635E-01  4.32103E-01  4.28663E-01  4.23211E-01  4.31139E-01  4.42153E-01  4.49804E-01  4.47320E-01  4.29764E-01
   4.19468E-01  4.39982E-01  5.04776E-01  6.10379E-01  7.25450E-01  8.27594E-01  8.57673E-01  7.96210E-01  6.82324E-01  5.35286E-01
   3.86743E-01  2.79458E-01  2.71585E-01  3.78420E-01  5.76985E-01  8.11942E-01  1.00819E+00  1.14942E+00  1.20235E+00  1.11668E+00
   9.21057E-01  7.18043E-01  5.89242E-01  5.51019E-01  6.04454E-01  7.37655E-01  9.15594E-01  1.08205E+00  1.17172E+00  1.17860E+00
   1.15813E+00  1.14907E+00  1.13641E+00  1.12155E+00  1.11124E+00  1.10774E+00  1.11216E+00  1.13507E+00  1.19624E+00  1.27108E+00
   1.33829E+00  1.37893E+00  1.37411E+00  1.33722E+00  1.30276E+00  1.29156E+00  1.30383E+00  1.34096E+00  1.38010E+00  1.39600E+00
   1.40710E+00  1.42748E+00  1.45379E+00  1.48023E+00  1.45917E+00  1.15625E+00  6.54449E-01  6.11688E-01  1.11502E+00  2.03414E+00
   3.23157E+00  4.29291E+00  4.76511E+00  4.55730E+00  3.73306E+00  2.57122E+00  1.77201E+00  1.56480E+00  1.50860E+00  1.47034E+00
   1.44485E+00  1.42821E+00  1.41879E+00  1.42624E+00  1.44998E+00  1.48177E+00  1.51507E+00  1.54382E+00  1.56311E+00  1.57640E+00
   1.58854E+00  1.60200E+00  1.62142E+00  1.64994E+00  1.68699E+00  1.73249E+00  1.78565E+00  1.84409E+00  1.90705E+00  1.97429E+00
   2.04496E+00  2.11943E+00  2.19852E+00  2.28174E+00  2.36816E+00  2.45763E+00  2.54979E+00  2.64330E+00  2.73688E+00  2.82924E+00
   2.91855E+00  3.00332E+00  3.08216E+00  3.15379E+00  3.21703E+00  3.27092E+00  3.31474E+00  3.34812E+00  3.37103E+00  3.38390E+00
   3.38743E+00  3.38259E+00  3.37064E+00  3.35304E+00  3.33143E+00  3.30756E+00  3.28323E+00  3.26021E+00  3.24016E+00  3.22467E+00
   3.21514E+00  3.21285E+00  3.21891E+00  3.23425E+00  3.25962E+00  3.29570E+00  3.34299E+00  3.40197E+00  3.47301E+00  3.55645E+00
   3.65259E+00  3.76176E+00  3.88428E+00  4.02045E+00  4.17055E+00  4.33480E+00  4.51327E+00  4.70591E+00  4.91220E+00  5.13071E+00
   5.35724E+00  5.57858E+00  5.79488E+00  6.13393E+00  6.60907E+00  7.12080E+00  7.60620E+00  7.99492E+00  8.22062E+00  8.27686E+00
   8.15262E+00  8.00465E+00  8.04877E+00  8.35716E+00  8.81875E+00  9.34869E+00  9.86288E+00  1.02749E+01  1.05282E+01  1.05696E+01
   1.04680E+01  1.03808E+01  1.03123E+01  1.02282E+01  1.01197E+01  9.98525E+00  9.82653E+00  9.64667E+00  9.44981E+00  9.24074E+00
   9.02453E+00  8.80641E+00  8.59146E+00  8.38449E+00  8.18981E+00  8.01116E+00  7.85150E+00  7.71294E+00  7.59660E+00  7.50268E+00
   7.43036E+00  7.37796E+00  7.34291E+00  7.32196E+00  7.31127E+00  7.30670E+00  7.30394E+00  7.29882E+00  7.28742E+00  7.26636E+00
   7.23292E+00  7.18520E+00  7.12212E+00  7.04355E+00  6.95012E+00  6.84325E+00  6.72492E+00  6.59755E+00  6.46380E+00  6.32636E+00
   6.18777E+00  6.05028E+00  5.91572E+00  5.78545E+00  5.66025E+00  5.54043E+00  5.42578E+00  5.31569E+00  5.20924E+00  5.10531E+00
   5.00269E+00  4.90018E+00  4.79666E+00  4.69122E+00  4.58316E+00  4.47207E+00  4.35779E+00  4.24045E+00  4.12042E+00  3.99827E+00
   3.87475E+00  3.75071E+00  3.62708E+00  3.50479E+00  3.38474E+00  3.26779E+00  3.15468E+00  3.04608E+00  2.94249E+00  2.84431E+00
   2.75181E+00  2.66515E+00  2.58436E+00  2.50941E+00  2.44015E+00  2.37640E+00  2.31792E+00  2.26444E+00  2.21566E+00  2.17126E+00
   2.13094E+00  2.09438E+00  2.06128E+00  2.03137E+00  2.00437E+00  1.98003E+00  1.95810E+00  1.93839E+00  1.92067E+00  1.90480E+00
   1.89058E+00  1.87789E+00  1.86657E+00  1.85652E+00  1.84761E+00  1.83977E+00  1.83288E+00  1.82689E+00  1.82170E+00  1.81726E+00
   1.81351E+00  1.81039E+00  1.80785E+00  1.80586E+00  1.80436E+00  1.80333E+00  1.80273E+00  1.80253E+00  1.80270E+00  1.80322E+00
   1.80405E+00  1.80520E+00  1.80662E+00  1.80831E+00  1.81024E+00  1.81240E+00  1.81478E+00  1.81737E+00  1.82014E+00  1.82311E+00
   1.82623E+00  1.82952E+00  1.83296E+00  1.83654E+00  1.84026E+00  1.84411E+00  1.84807E+00  1.85215E+00  1.85634E+00  1.86063E+00
   1.86502E+00  1.86951E+00  1.87407E+00  1.87873E+00  1.88347E+00  1.88829E+00  1.89317E+00  1.89813E+00
 NY background values follow
    -1.201E+00   -1.195E+00   -1.188E+00   -1.182E+00   -1.176E+00   -1.169E+00   -1.163E+00   -1.156E+00   -1.150E+00   -1.144E+00
    -1.137E+00   -1.131E+00   -1.125E+00   -1.118E+00   -1.112E+00   -1.106E+00   -1.099E+00   -1.093E+00   -1.086E+00   -1.080E+00
    -1.074E+00   -1.067E+00   -1.061E+00   -1.055E+00   -1.048E+00   -1.042E+00   -1.036E+00   -1.029E+00   -1.023E+00   -1.017E+00
    -1.010E+00   -1.004E+00   -9.974E-01   -9.911E-01   -9.847E-01   -9.784E-01   -9.720E-01   -9.656E-01   -9.593E-01   -9.529E-01
    -9.466E-01   -9.402E-01   -9.338E-01   -9.275E-01   -9.211E-01   -9.148E-01   -9.084E-01   -9.020E-01   -8.957E-01   -8.893E-01
    -8.830E-01   -8.766E-01   -8.703E-01   -8.639E-01   -8.575E-01   -8.512E-01   -8.448E-01   -8.385E-01   -8.321E-01   -8.258E-01
    -8.194E-01   -8.130E-01   -8.067E-01   -8.003E-01   -7.940E-01   -7.876E-01   -7.813E-01   -7.749E-01   -7.686E-01   -7.622E-01
    -7.559E-01   -7.495E-01   -7.431E-01   -7.368E-01   -7.304E-01   -7.241E-01   -7.177E-01   -7.114E-01   -7.050E-01   -6.987E-01
    -6.923E-01   -6.860E-01   -6.796E-01   -6.733E-01   -6.669E-01   -6.605E-01   -6.542E-01   -6.478E-01   -6.415E-01   -6.351E-01
    -6.288E-01   -6.224E-01   -6.161E-01   -6.097E-01   -6.034E-01   -5.970E-01   -5.907E-01   -5.843E-01   -5.780E-01   -5.716E-01
    -5.653E-01   -5.589E-01   -5.526E-01   -5.462E-01   -5.399E-01   -5.335E-01   -5.272E-01   -5.208E-01   -5.145E-01   -5.081E-01
    -5.018E-01   -4.954E-01   -4.891E-01   -4.827E-01   -4.764E-01   -4.701E-01   -4.637E-01   -4.574E-01   -4.510E-01   -4.447E-01
    -4.383E-01   -4.320E-01   -4.256E-01   -4.193E-01   -4.129E-01   -4.066E-01   -4.002E-01   -3.939E-01   -3.876E-01   -3.812E-01
    -3.749E-01   -3.685E-01   -3.622E-01   -3.558E-01   -3.495E-01   -3.432E-01   -3.368E-01   -3.305E-01   -3.241E-01   -3.178E-01
    -3.114E-01   -3.051E-01   -2.988E-01   -2.924E-01   -2.861E-01   -2.797E-01   -2.734E-01   -2.671E-01   -2.607E-01   -2.544E-01
    -2.480E-01   -2.417E-01   -2.354E-01   -2.290E-01   -2.227E-01   -2.163E-01   -2.100E-01   -2.037E-01   -1.973E-01   -1.910E-01
    -1.846E-01   -1.783E-01   -1.720E-01   -1.656E-01   -1.593E-01   -1.530E-01   -1.466E-01   -1.403E-01   -1.339E-01   -1.276E-01
    -1.213E-01   -1.149E-01   -1.086E-01   -1.023E-01   -9.593E-02   -8.960E-02   -8.327E-02   -7.693E-02   -7.060E-02   -6.426E-02
    -5.793E-02   -5.160E-02   -4.526E-02   -3.893E-02   -3.260E-02   -2.627E-02   -1.993E-02   -1.360E-02   -7.270E-03   -9.382E-04
     5.393E-03    1.172E-02    1.805E-02    2.439E-02    3.072E-02    3.705E-02    4.338E-02    4.971E-02    5.603E-02    6.236E-02
     6.869E-02    7.502E-02    8.135E-02    8.768E-02    9.401E-02    1.003E-01    1.067E-01    1.130E-01    1.193E-01    1.256E-01
     1.320E-01    1.383E-01    1.446E-01    1.509E-01    1.573E-01    1.636E-01    1.699E-01    1.762E-01    1.826E-01    1.889E-01
     1.952E-01    2.015E-01    2.079E-01    2.142E-01    2.205E-01    2.268E-01    2.332E-01    2.395E-01    2.458E-01    2.521E-01
     2.585E-01    2.648E-01    2.711E-01    2.774E-01    2.837E-01    2.901E-01    2.964E-01    3.027E-01    3.090E-01    3.153E-01
     3.217E-01    3.280E-01    3.343E-01    3.406E-01    3.469E-01    3.533E-01    3.596E-01    3.659E-01    3.722E-01    3.785E-01
     3.848E-01    3.912E-01    3.975E-01    4.038E-01    4.101E-01    4.164E-01    4.227E-01    4.291E-01    4.354E-01    4.417E-01
     4.480E-01    4.543E-01    4.606E-01    4.669E-01    4.733E-01    4.796E-01    4.859E-01    4.922E-01    4.985E-01    5.048E-01
     5.111E-01    5.174E-01    5.238E-01    5.301E-01    5.364E-01    5.427E-01    5.490E-01    5.553E-01    5.616E-01    5.679E-01
     5.742E-01    5.806E-01    5.869E-01    5.932E-01    5.995E-01    6.058E-01    6.121E-01    6.184E-01    6.247E-01    6.310E-01
     6.373E-01    6.436E-01    6.500E-01    6.563E-01    6.626E-01    6.689E-01    6.752E-01    6.815E-01    6.878E-01    6.941E-01
     7.004E-01    7.067E-01    7.130E-01    7.193E-01    7.256E-01    7.319E-01    7.382E-01    7.445E-01    7.508E-01    7.571E-01
     7.634E-01    7.697E-01    7.760E-01    7.823E-01    7.887E-01    7.950E-01    8.013E-01    8.076E-01    8.139E-01    8.202E-01
     8.265E-01    8.328E-01    8.391E-01    8.454E-01    8.517E-01    8.580E-01    8.643E-01    8.706E-01    8.769E-01    8.832E-01
     8.894E-01    8.957E-01    9.020E-01    9.083E-01    9.146E-01    9.209E-01    9.272E-01    9.335E-01    9.398E-01    9.461E-01
     9.524E-01    9.587E-01    9.650E-01    9.713E-01    9.776E-01    9.839E-01    9.902E-01    9.965E-01    1.003E+00    1.009E+00
     1.015E+00    1.022E+00    1.028E+00    1.034E+00    1.041E+00    1.047E+00    1.053E+00    1.059E+00    1.066E+00    1.072E+00
     1.078E+00    1.085E+00    1.091E+00    1.097E+00    1.103E+00    1.110E+00    1.116E+00    1.122E+00    1.129E+00    1.135E+00
     1.141E+00    1.147E+00    1.154E+00    1.160E+00    1.166E+00    1.173E+00    1.179E+00    1.185E+00    1.191E+00    1.198E+00
     1.204E+00    1.210E+00    1.217E+00    1.223E+00    1.229E+00    1.235E+00    1.242E+00    1.248E+00    1.254E+00    1.261E+00
     1.267E+00    1.273E+00    1.279E+00    1.286E+00    1.292E+00    1.298E+00    1.305E+00    1.311E+00    1.317E+00    1.323E+00
     1.330E+00    1.336E+00    1.342E+00    1.349E+00    1.355E+00    1.361E+00    1.367E+00    1.374E+00    1.380E+00    1.386E+00
     1.393E+00    1.399E+00    1.405E+00    1.411E+00    1.418E+00    1.424E+00    1.430E+00    1.436E+00    1.443E+00    1.449E+00
     1.455E+00    1.462E+00    1.468E+00    1.474E+00    1.480E+00    1.487E+00    1.493E+00    1.499E+00    1.505E+00    1.512E+00
     1.518E+00    1.524E+00    1.531E+00    1.537E+00    1.543E+00    1.549E+00    1.556E+00    1.562E+00    1.568E+00    1.574E+00
     1.581E+00    1.587E+00    1.593E+00    1.600E+00    1.606E+00    1.612E+00    1.618E+00    1.625E+00    1.631E+00    1.637E+00
     1.643E+00    1.650E+00    1.656E+00    1.662E+00    1.669E+00    1.675E+00    1.681E+00    1.687E+00    1.694E+00    1.700E+00
     1.706E+00    1.712E+00    1.719E+00    1.725E+00    1.731E+00    1.737E+00    1.744E+00    1.750E+00    1.756E+00    1.762E+00
     1.769E+00    1.775E+00    1.781E+00    1.788E+00    1.794E+00    1.800E+00    1.806E+00    1.813E+00    1.819E+00    1.825E+00
     1.831E+00    1.838E+00    1.844E+00    1.850E+00    1.856E+00    1.863E+00    1.869E+00    1.875E+00    1.881E+00    1.888E+00
     1.894E+00    1.900E+00    1.906E+00    1.913E+00    1.919E+00    1.925E+00    1.932E+00    1.938E+00
 Asp      Conc. = 5.39E+00
