 LCModel (Version 6.3-1L) Copyright: S.W. Provencher.          Ref.: Magn. Reson. Med. 30:672-679 (1993).                
 Slice#1 Row#10 Col#1  PD_24_press_1_raw_act
 36 lines in following concentration table = NCONC+1
    Conc.  %SD /Cr+PCr  Metabolite                                         
 4.89E-02 999% 1.7E-03 Ala                                                 
    3.243 286%   0.115 Asp                                                 
   14.177  73%   0.503 Cr                                                  
   13.982  75%   0.497 PCr                                                 
    1.967 269% 7.0E-02 GABA                                                
    6.032  96%   0.214 Glc                                                 
    8.110 157%   0.288 Gln                                                 
   15.170  98%   0.539 Glu                                                 
    3.820 300%   0.136 GPC                                                 
    7.034 167%   0.250 PCh                                                 
   12.088  59%   0.429 GSH                                                 
    6.001 275%   0.213 Ins                                                 
    6.530 107%   0.232 Lac                                                 
   39.866  40%   1.416 NAA                                                 
   18.346  51%   0.652 NAAG                                                
    0.909 175% 3.2E-02 Scyllo                                              
    7.529 115%   0.267 Tau                                                 
    2.325 346% 8.3E-02 -CrCH2                                              
   10.854  43%   0.385 GPC+PCh                                             
   58.212  41%   2.067 NAA+NAAG                                            
   28.159  44%   1.000 Cr+PCr                                              
   23.280  81%   0.827 Glu+Gln                                             
 7.12E-03 999% 2.5E-04 Lip13a                                              
    0.000 999%   0.000 Lip13b                                              
    0.000 999%   0.000 Lip09                                               
  112.951  39%   4.011 MM09                                                
    0.000 999%   0.000 Lip20                                               
  169.426  39%   6.017 MM20                                                
   33.885  39%   1.203 MM12                                                
   84.716  39%   3.009 MM14                                                
   42.363  39%   1.504 MM17                                                
 7.12E-03 999% 2.5E-04 Lip13a+Lip13b                                       
  118.609  39%   4.212 MM14+Lip13a+Lip13b+MM12                             
  112.951  39%   4.011 MM09+Lip09                                          
  169.426  39%   6.017 MM20+Lip20                                          
   6 lines in following misc. output table
  FWHM = 0.023 ppm    S/N =   2                                            
  Data shift = 0.015 ppm                                                   
  Ph: 179 deg      -2.7 deg/ppm                                            
  alphaB,S = 8.5E+01,   1.0E+00                                            
   14 spline knots.   Ns = 5(1)                                            
  ( 7) 2 infls.   ( 5) 2 extrs.                                            
  498 points on ppm-axis = NY
      4.000000     3.992357     3.984714     3.977070     3.969427     3.961784     3.954141     3.946497     3.938854     3.931211
      3.923568     3.915925     3.908281     3.900638     3.892995     3.885352     3.877708     3.870065     3.862422     3.854779
      3.847136     3.839492     3.831849     3.824206     3.816563     3.808919     3.801276     3.793633     3.785990     3.778347
      3.770703     3.763060     3.755417     3.747774     3.740130     3.732487     3.724844     3.717201     3.709558     3.701914
      3.694271     3.686628     3.678985     3.671341     3.663698     3.656055     3.648412     3.640769     3.633125     3.625482
      3.617839     3.610196     3.602552     3.594909     3.587266     3.579623     3.571980     3.564336     3.556693     3.549050
      3.541407     3.533763     3.526120     3.518477     3.510834     3.503191     3.495547     3.487904     3.480261     3.472618
      3.464974     3.457331     3.449688     3.442045     3.434402     3.426758     3.419115     3.411472     3.403829     3.396185
      3.388542     3.380899     3.373256     3.365613     3.357969     3.350326     3.342683     3.335040     3.327396     3.319753
      3.312110     3.304467     3.296824     3.289180     3.281537     3.273894     3.266251     3.258607     3.250964     3.243321
      3.235678     3.228034     3.220391     3.212748     3.205105     3.197462     3.189818     3.182175     3.174532     3.166889
      3.159245     3.151602     3.143959     3.136316     3.128673     3.121029     3.113386     3.105743     3.098100     3.090456
      3.082813     3.075170     3.067527     3.059884     3.052240     3.044597     3.036954     3.029311     3.021667     3.014024
      3.006381     2.998738     2.991095     2.983451     2.975808     2.968165     2.960522     2.952878     2.945235     2.937592
      2.929949     2.922306     2.914662     2.907019     2.899376     2.891733     2.884089     2.876446     2.868803     2.861160
      2.853517     2.845873     2.838230     2.830587     2.822944     2.815300     2.807657     2.800014     2.792371     2.784728
      2.777084     2.769441     2.761798     2.754155     2.746511     2.738868     2.731225     2.723582     2.715939     2.708295
      2.700652     2.693009     2.685366     2.677722     2.670079     2.662436     2.654793     2.647150     2.639506     2.631863
      2.624220     2.616577     2.608933     2.601290     2.593647     2.586004     2.578361     2.570717     2.563074     2.555431
      2.547788     2.540144     2.532501     2.524858     2.517215     2.509572     2.501928     2.494285     2.486642     2.478999
      2.471355     2.463712     2.456069     2.448426     2.440783     2.433139     2.425496     2.417853     2.410210     2.402566
      2.394923     2.387280     2.379637     2.371994     2.364350     2.356707     2.349064     2.341421     2.333777     2.326134
      2.318491     2.310848     2.303205     2.295561     2.287918     2.280275     2.272632     2.264988     2.257345     2.249702
      2.242059     2.234416     2.226772     2.219129     2.211486     2.203843     2.196199     2.188556     2.180913     2.173270
      2.165627     2.157983     2.150340     2.142697     2.135054     2.127410     2.119767     2.112124     2.104481     2.096838
      2.089194     2.081551     2.073908     2.066265     2.058621     2.050978     2.043335     2.035692     2.028049     2.020405
      2.012762     2.005119     1.997476     1.989833     1.982190     1.974546     1.966903     1.959260     1.951617     1.943974
      1.936331     1.928688     1.921045     1.913402     1.905759     1.898115     1.890472     1.882829     1.875186     1.867543
      1.859900     1.852257     1.844614     1.836971     1.829327     1.821684     1.814041     1.806398     1.798755     1.791112
      1.783469     1.775826     1.768183     1.760540     1.752896     1.745253     1.737610     1.729967     1.722324     1.714681
      1.707038     1.699395     1.691752     1.684108     1.676465     1.668822     1.661179     1.653536     1.645893     1.638250
      1.630607     1.622964     1.615321     1.607677     1.600034     1.592391     1.584748     1.577105     1.569462     1.561819
      1.554176     1.546533     1.538890     1.531246     1.523603     1.515960     1.508317     1.500674     1.493031     1.485388
      1.477745     1.470102     1.462458     1.454815     1.447172     1.439529     1.431886     1.424243     1.416600     1.408957
      1.401314     1.393671     1.386027     1.378384     1.370741     1.363098     1.355455     1.347812     1.340169     1.332526
      1.324883     1.317240     1.309596     1.301953     1.294310     1.286667     1.279024     1.271381     1.263738     1.256095
      1.248452     1.240808     1.233165     1.225522     1.217879     1.210236     1.202593     1.194950     1.187307     1.179664
      1.172021     1.164377     1.156734     1.149091     1.141448     1.133805     1.126162     1.118519     1.110876     1.103233
      1.095590     1.087946     1.080303     1.072660     1.065017     1.057374     1.049731     1.042088     1.034445     1.026802
      1.019158     1.011515     1.003872     0.996229     0.988586     0.980943     0.973300     0.965657     0.958014     0.950371
      0.942727     0.935084     0.927441     0.919798     0.912155     0.904512     0.896869     0.889226     0.881583     0.873940
      0.866296     0.858653     0.851010     0.843367     0.835724     0.828081     0.820438     0.812795     0.805152     0.797508
      0.789865     0.782222     0.774579     0.766936     0.759293     0.751650     0.744007     0.736364     0.728721     0.721077
      0.713434     0.705791     0.698148     0.690505     0.682862     0.675219     0.667576     0.659933     0.652290     0.644646
      0.637003     0.629360     0.621717     0.614074     0.606431     0.598788     0.591145     0.583502     0.575858     0.568215
      0.560572     0.552929     0.545286     0.537643     0.530000     0.522357     0.514714     0.507071     0.499427     0.491784
      0.484141     0.476498     0.468855     0.461212     0.453569     0.445925     0.438282     0.430639     0.422996     0.415353
      0.407710     0.400067     0.392424     0.384780     0.377137     0.369494     0.361851     0.354208     0.346565     0.338922
      0.331278     0.323635     0.315992     0.308349     0.300706     0.293063     0.285420     0.277777     0.270133     0.262490
      0.254847     0.247204     0.239561     0.231918     0.224275     0.216631     0.208988     0.201345
 NY phased data points follow
  -2.32393E+00 -1.64416E+00 -1.69628E+00 -1.36213E+00 -1.39409E+00 -1.00722E-01  5.60878E-01  9.77201E-02  4.75150E-01 -2.05945E+00
   2.70616E+00 -1.79604E+00 -3.84684E-01 -1.15114E-01 -3.04393E+00 -4.17802E+00 -2.78591E+00 -3.37108E+00 -1.32999E+00 -7.26431E-01
  -1.36317E+00 -2.21450E+00  2.51759E-01 -1.64969E+00  2.00566E-01 -1.60135E+00 -1.67417E+00 -7.37062E-02  6.06173E-01 -3.72645E-01
  -1.00004E+00  1.48445E-01 -5.79273E-01 -1.62353E+00 -9.73965E-01 -3.94945E+00 -1.43732E+00  6.93450E-02  3.66889E-01 -2.14805E+00
   8.30653E-02 -2.20162E+00 -9.72527E-04  1.46343E+00  1.76565E+00 -6.34297E-01 -7.16765E-01  1.46417E-01 -7.91678E-01 -1.23438E+00
   1.65790E+00 -2.26883E+00  1.35071E+00  1.66530E+00 -3.57576E-01  2.18295E+00 -6.64538E-01  2.62614E-01 -6.44531E-01 -6.28452E-01
  -2.28549E+00 -2.19915E+00 -2.85318E+00  1.96639E-01  3.02778E+00 -1.16730E+00 -9.69700E-01  1.80948E+00 -3.30667E-01 -2.51993E-01
   1.92058E+00 -3.20907E-01  9.11960E-01  2.67318E+00 -3.71339E-01  2.32304E+00  3.57309E-01 -1.15059E+00  4.35004E-01  7.44525E-01
   6.14390E-01  2.15529E+00  1.89828E+00 -8.65208E-01  2.84387E-01  5.34593E-02  3.03221E-01 -1.78879E+00 -1.03314E+00 -1.76208E+00
  -6.70724E-01 -3.03687E-01  1.28776E+00 -7.50694E-01  1.48436E+00 -1.38681E+00  5.75345E-01 -2.22821E+00  3.93196E-01 -4.22430E-01
   2.49640E+00  4.95362E+00  3.53307E+00  3.66962E+00  1.90625E-01  1.24972E+00 -1.14015E+00 -2.66082E+00 -4.72825E+00 -2.87306E+00
  -4.82833E-01 -5.90979E-01  2.76713E-01 -1.56320E+00 -9.22957E-02  1.85856E+00 -9.82614E-02 -9.99115E-01 -2.92130E-01  1.00847E+00
  -8.29776E-01  8.85980E-02 -8.30954E-01  6.45491E-01  3.20726E+00  2.94612E+00  5.71033E+00  3.29729E+00  2.90650E+00 -1.08293E+00
   1.92542E-01 -8.33538E-01  1.75386E-02 -1.91832E+00 -1.57638E+00  1.89570E-01 -2.81349E+00 -9.81999E-01  8.28855E-01 -7.40745E-01
  -8.71963E-01 -2.06312E+00 -3.18672E-01 -1.75695E+00 -7.98380E-01 -4.87189E-01 -2.07380E+00 -6.51013E-01 -1.06113E+00  5.99962E-01
  -1.60803E+00 -3.54827E-01 -1.77892E+00  5.28143E-01  3.58093E-01 -2.50009E+00 -1.55644E-01 -1.74583E+00  5.81941E-02 -6.12055E-01
   1.35687E-01 -1.08245E+00  2.26733E-02  1.87840E+00 -2.04100E+00 -3.36726E+00 -1.21448E+00 -1.74141E+00 -1.55900E+00  2.40286E-01
   1.50017E+00 -3.17460E-01  1.21227E+00 -1.76320E+00 -2.78724E+00 -2.45717E+00  6.72171E-01 -2.33742E-01 -1.87580E-01 -1.13628E+00
   2.12650E+00 -1.06505E+00  8.65685E-01 -6.18402E-01  4.36249E-01 -8.52048E-01  1.50067E-01  6.80189E-01  9.81447E-01  1.26399E+00
   1.45814E+00  2.18161E+00  1.22528E+00 -2.29820E+00 -1.44018E+00 -1.19170E+00 -1.80798E-01 -8.76338E-01 -2.26133E-01 -8.24165E-01
   2.13117E+00 -1.36754E-01 -6.14347E-01  1.07419E+00 -2.00486E-01 -2.26672E-01  6.32404E-01 -2.28089E+00 -6.91563E-01  6.60594E-01
   3.54909E-01 -4.16829E-01 -3.94420E-01 -3.84077E-01  8.80259E-01  1.11708E+00  2.18057E+00 -1.12259E+00 -2.13521E+00  1.06383E-01
  -1.48141E+00  2.37764E+00 -1.68417E+00  4.57795E-01  7.10478E-01  1.45440E+00 -1.18794E-01  1.79449E+00  7.87050E-01 -1.63445E-01
   1.30155E+00  8.23181E-02  6.96992E-01  1.21256E+00 -3.78330E-01  2.37927E+00  1.19933E+00 -2.97751E+00 -7.95271E-01  9.01811E-01
   1.26268E+00 -4.77172E-01 -1.52651E+00  4.12801E+00 -1.38921E+00 -7.23753E-01  3.60608E-01  2.50123E+00  1.45708E+00  1.69104E+00
   1.41965E+00 -2.59918E+00  1.52434E+00  2.91111E+00  4.31820E+00  2.78707E+00  2.72560E+00  5.01453E+00  5.60471E+00  6.03307E+00
   5.56016E+00  2.38443E+00  3.77838E-01 -1.81362E+00 -1.49442E+00 -2.28155E+00 -7.22312E-01  8.45990E-01  1.96466E+00  1.60387E+00
   2.28372E+00  3.00203E+00  5.90445E-01  2.45045E+00  9.20950E-01  3.51580E-01  2.51996E+00 -3.66672E-01  2.15919E+00  6.72339E-01
   1.17390E+00  3.06818E+00  1.63755E+00  1.89113E+00  1.55702E+00  6.80768E-01  4.03002E+00  1.91424E+00  6.89354E-01  2.56258E+00
   2.08875E+00  1.12152E+00  2.82106E+00  1.80611E+00  1.60649E-01 -6.94193E-02  1.16814E+00  2.01843E+00  9.77040E-01  4.51325E+00
   2.17249E+00  3.64960E+00  1.51324E+00  3.57666E+00  2.35127E+00 -2.28649E-01  2.18167E+00  3.25899E+00  1.60574E+00  1.25765E+00
   1.88385E+00  2.13321E+00  3.14925E+00  2.34679E+00  2.73300E+00  1.77317E+00  2.96060E+00  2.78217E+00  3.72373E+00  2.95006E+00
   3.62026E+00  3.68891E-01  2.70941E+00  1.90013E+00  2.33824E+00 -6.99227E-01  3.54473E+00  2.42420E+00  2.24162E+00  1.02115E+00
   2.20406E+00 -1.01752E+00  1.59168E+00  1.94504E+00  1.26739E+00  2.26028E-01  3.11359E+00 -2.70827E+00 -1.73275E-01  5.55223E-01
  -9.89710E-01  1.76187E+00  2.18079E+00  1.41783E+00  2.09765E+00  3.68282E+00  2.87093E+00  1.30955E+00  6.73242E-01  5.94789E-01
   9.49486E-01  2.08308E-01  1.64566E+00  1.89386E+00  1.93014E+00  7.80066E-01  2.83095E+00 -1.47591E+00  7.14742E-01 -1.89197E-01
   2.90366E+00  1.11995E+00  2.75870E+00  2.69931E+00  1.06545E+00 -5.99148E-02  2.85475E+00  1.75802E+00  1.56410E+00  2.33673E+00
   2.46549E+00  2.11916E+00  1.26394E+00  8.35687E-01 -5.27071E-01 -4.89349E-01 -6.93916E-01 -1.31328E+00  1.33464E+00  1.03165E+00
   3.10078E+00  2.99247E-02  3.79885E+00  4.43500E-01  3.33425E+00  1.31132E+00  6.97348E-01  9.41717E-01  1.94192E+00  1.61494E+00
  -2.59739E-01  2.08956E+00  4.64647E-02  2.27331E+00  1.56555E+00  3.26788E+00  8.17895E-01  7.59469E-01  2.06170E+00  2.03007E+00
   1.55282E+00  1.84708E+00  1.00959E+00 -1.30502E+00  1.35668E+00  8.82381E-01  3.17064E+00  2.25297E+00  2.99759E+00  2.19851E-01
   1.49775E+00  2.35965E+00 -9.02795E-01  3.50996E+00  1.16591E+00  4.58379E-01  1.78691E+00  1.48886E+00  2.06964E+00 -5.04079E-01
   3.63051E+00  5.37936E-01  8.70497E-01  1.26339E+00  3.23344E-01  3.05821E-01  2.46202E+00  1.75558E+00  1.94612E+00  2.64136E+00
  -5.96518E-01  6.52297E-01  2.79140E+00 -7.40228E-01  2.67124E+00  1.77782E+00  2.66303E+00  2.10359E+00  4.44407E-01  2.72075E+00
   1.04547E+00  2.32569E-02  1.13266E+00  2.84535E-01  3.14471E+00  1.06223E+00  1.97424E+00 -6.81503E-01  2.39043E+00  5.99029E+00
   3.51879E+00  1.91927E+00 -5.25379E-01  1.12220E+00  3.56219E+00  3.95707E-01  1.49336E+00 -5.78569E-01  1.75864E+00  2.92682E+00
   1.43886E+00  2.92711E+00  7.12724E-01  9.47339E-01  1.83591E+00  1.86249E-01  3.42998E+00  2.49392E+00  2.42008E+00  1.93618E+00
  -3.49428E-01 -1.08886E+00  6.97341E-01  4.20598E+00  3.36560E+00  2.08670E+00  1.49877E-01  2.03877E+00  1.06201E+00  2.01091E+00
   2.00796E+00  6.68603E-01  4.42803E-02  3.85222E-01  2.37786E+00  1.02863E+00  8.49608E-01  1.90594E+00  7.46907E-01  5.61566E-01
   9.46244E-01  3.27699E-01  3.52674E+00 -3.90964E-02  1.79777E+00  7.89283E-01 -1.23039E+00 -1.28603E+00
 NY points of the fit to the data follow
  -9.78600E-01 -9.61552E-01 -9.27299E-01 -9.23053E-01 -1.00132E+00 -7.01913E-01 -1.79866E-01  1.37289E-01  6.47518E-01  1.12615E+00
   1.10181E+00  4.89891E-01 -2.05442E-01 -8.81191E-01 -1.48597E+00 -1.53573E+00 -1.53976E+00 -1.51178E+00 -1.12432E+00 -8.47274E-01
  -7.59138E-01 -7.55863E-01 -7.64442E-01 -7.58014E-01 -8.74859E-01 -1.09873E+00 -7.25843E-01  4.56287E-02  6.05453E-01  7.44712E-01
   5.55484E-01  1.41214E-01 -4.93807E-01 -9.60155E-01 -1.33499E+00 -1.54445E+00 -1.25053E+00 -9.51927E-01 -7.55066E-01 -6.04269E-01
  -5.10695E-01 -5.10993E-01 -6.09095E-01 -6.34146E-01 -5.81046E-01 -5.24678E-01 -4.64718E-01 -4.59508E-01 -5.19351E-01 -5.89118E-01
  -6.29034E-01 -6.56683E-01 -6.57082E-01 -6.07386E-01 -5.82716E-01 -5.96183E-01 -5.87322E-01 -5.67149E-01 -5.38248E-01 -5.11964E-01
  -5.11203E-01 -5.37880E-01 -5.61672E-01 -5.50564E-01 -5.51928E-01 -5.32851E-01 -5.09759E-01 -5.20102E-01 -5.40114E-01 -5.41517E-01
  -5.47580E-01 -5.43576E-01 -4.18093E-01 -2.60365E-01 -2.15735E-01 -2.53340E-01 -3.66694E-01 -5.39808E-01 -6.52168E-01 -6.54269E-01
  -6.23663E-01 -5.73887E-01 -4.25060E-01 -2.50832E-01 -1.74966E-01 -2.21904E-01 -3.43583E-01 -4.72423E-01 -5.43344E-01 -5.36829E-01
  -5.35759E-01 -5.86738E-01 -5.98650E-01 -6.04741E-01 -6.19991E-01 -5.28178E-01 -4.12041E-01 -4.59825E-01 -8.26487E-01 -1.46945E-01
   2.25443E+00  4.30982E+00  4.67169E+00  3.53969E+00  1.77867E+00 -2.04443E-01 -1.66120E+00 -2.30745E+00 -2.61573E+00 -1.92264E+00
  -8.56527E-01 -4.89329E-01 -3.82054E-01 -3.39835E-01 -2.96529E-01 -2.63615E-01 -2.59387E-01 -2.73570E-01 -2.83351E-01 -2.89523E-01
  -3.03640E-01 -4.04603E-01 -6.16552E-01  2.22902E-01  2.37003E+00  4.07954E+00  4.26418E+00  3.22998E+00  1.64992E+00 -4.01421E-02
  -1.07118E+00 -1.50933E+00 -1.77272E+00 -1.32673E+00 -7.38237E-01 -6.43993E-01 -5.95125E-01 -3.96552E-01 -1.04921E-01  1.88014E-01
   3.88826E-01  3.76799E-01  2.69875E-01  1.42804E-01 -4.34499E-04 -6.70890E-02 -8.68049E-02 -7.94100E-02 -4.92764E-02 -3.69522E-02
  -4.47562E-02 -1.01826E-01 -1.46345E-01 -1.45990E-01 -1.02820E-01 -3.22137E-04  1.08378E-01  9.97759E-02 -3.75590E-02 -1.70948E-01
  -2.46633E-01 -2.04350E-01 -6.33791E-02  4.41461E-02  6.46278E-02  4.56381E-02 -3.62863E-02 -1.77824E-01 -2.25415E-01 -1.67365E-01
  -6.98163E-02  3.49469E-02  3.19388E-03 -1.71647E-01 -2.66410E-01 -2.10083E-01 -8.55652E-02  1.99526E-03  6.41397E-03 -6.92266E-02
  -9.60523E-02 -4.12050E-02 -7.33857E-04 -2.22426E-02 -5.09330E-02 -1.23703E-02  1.23867E-01  3.16720E-01  5.31795E-01  7.00659E-01
   7.05040E-01  5.27815E-01  2.88501E-01  3.64438E-02 -2.38561E-01 -3.75581E-01 -2.98294E-01 -7.57245E-02  1.87689E-01  3.89966E-01
   5.60145E-01  6.68034E-01  7.15577E-01  6.58650E-01  4.65272E-01  2.67920E-01  9.13704E-03 -2.57171E-01 -3.53723E-01 -3.04850E-01
  -1.69892E-01  2.64887E-02  3.99107E-01  7.67012E-01  9.48581E-01  9.29093E-01  7.12453E-01  4.63376E-01  1.97234E-01 -1.04351E-01
  -2.68004E-01 -1.52781E-01  1.87360E-01  5.27651E-01  7.66644E-01  8.97788E-01  9.35869E-01  8.27579E-01  5.47204E-01  2.71927E-01
   2.03164E-01  3.41377E-01  5.28576E-01  7.68322E-01  1.01230E+00  1.13246E+00  1.07620E+00  8.59891E-01  6.37945E-01  4.03498E-01
   2.26485E-01  2.62563E-01  4.84705E-01  7.96395E-01  1.10220E+00  1.27945E+00  1.28889E+00  1.21199E+00  1.09828E+00  9.78131E-01
   8.51493E-01  7.37653E-01  1.67790E+00  3.22938E+00  4.01081E+00  3.28454E+00  2.89088E+00  4.76347E+00  6.36486E+00  6.29217E+00
   4.57674E+00  2.29112E+00  3.46189E-01 -1.15351E+00 -1.76318E+00 -2.11580E+00 -1.35543E+00  1.66907E-01  6.50814E-01  7.63113E-01
   8.36914E-01  8.98150E-01  9.44267E-01  9.55752E-01  9.19646E-01  8.63653E-01  8.09763E-01  7.69941E-01  7.46653E-01  7.47443E-01
   7.73873E-01  8.05363E-01  8.29539E-01  8.35936E-01  8.30594E-01  8.20918E-01  8.09603E-01  7.91183E-01  7.81534E-01  7.99930E-01
   8.34125E-01  8.62061E-01  8.87397E-01  9.07108E-01  9.17887E-01  9.20749E-01  9.17574E-01  9.16506E-01  9.31901E-01  9.56519E-01
   9.82998E-01  1.00989E+00  1.03161E+00  1.04925E+00  1.06291E+00  1.06865E+00  1.07343E+00  1.07889E+00  1.08322E+00  1.08709E+00
   1.09001E+00  1.09195E+00  1.09330E+00  1.09457E+00  1.09612E+00  1.09836E+00  1.10166E+00  1.10627E+00  1.11243E+00  1.12028E+00
   1.12956E+00  1.14032E+00  1.15264E+00  1.16729E+00  1.18309E+00  1.19812E+00  1.21237E+00  1.22673E+00  1.24156E+00  1.25663E+00
   1.27139E+00  1.28586E+00  1.30082E+00  1.31562E+00  1.32782E+00  1.33690E+00  1.34387E+00  1.34898E+00  1.35304E+00  1.35722E+00
   1.36162E+00  1.36573E+00  1.37813E+00  1.51158E+00  1.67290E+00  1.61580E+00  1.36654E+00  1.08767E+00  8.81445E-01  7.41975E-01
   6.54736E-01  7.51892E-01  1.06817E+00  1.49204E+00  1.74276E+00  1.75492E+00  1.67234E+00  1.50417E+00  1.35261E+00  1.23703E+00
   1.12814E+00  1.14383E+00  1.21221E+00  1.24409E+00  1.26019E+00  1.27024E+00  1.27729E+00  1.28268E+00  1.28700E+00  1.29067E+00
   1.29390E+00  1.29696E+00  1.30007E+00  1.30348E+00  1.30739E+00  1.31203E+00  1.31758E+00  1.32433E+00  1.33250E+00  1.34237E+00
   1.35414E+00  1.36805E+00  1.38429E+00  1.40313E+00  1.42473E+00  1.44929E+00  1.47685E+00  1.50750E+00  1.54116E+00  1.57780E+00
   1.61717E+00  1.65898E+00  1.70269E+00  1.74776E+00  1.79347E+00  1.83905E+00  1.88357E+00  1.92608E+00  1.96551E+00  2.00093E+00
   2.03140E+00  2.05614E+00  2.07444E+00  2.08581E+00  2.08993E+00  2.08677E+00  2.07650E+00  2.05955E+00  2.03645E+00  2.00798E+00
   1.97498E+00  1.93847E+00  1.89944E+00  1.85892E+00  1.81779E+00  1.77696E+00  1.73713E+00  1.69902E+00  1.66308E+00  1.62972E+00
   1.59912E+00  1.57144E+00  1.54668E+00  1.52484E+00  1.50579E+00  1.48936E+00  1.47532E+00  1.46348E+00  1.45362E+00  1.44558E+00
   1.43909E+00  1.43400E+00  1.43007E+00  1.42720E+00  1.42524E+00  1.42409E+00  1.42362E+00  1.42373E+00  1.42433E+00  1.42538E+00
   1.42682E+00  1.42863E+00  1.43070E+00  1.43304E+00  1.43557E+00  1.43834E+00  1.44128E+00  1.44441E+00  1.44764E+00  1.45101E+00
   1.45447E+00  1.45806E+00  1.46175E+00  1.46554E+00  1.46937E+00  1.47328E+00  1.47723E+00  1.48129E+00  1.48538E+00  1.48953E+00
   1.49370E+00  1.49791E+00  1.50216E+00  1.50648E+00  1.51082E+00  1.51519E+00  1.51955E+00  1.52396E+00  1.52840E+00  1.53288E+00
   1.53736E+00  1.54187E+00  1.54636E+00  1.55090E+00  1.55546E+00  1.56006E+00  1.56464E+00  1.56923E+00  1.57382E+00  1.57845E+00
   1.58309E+00  1.58776E+00  1.59240E+00  1.59706E+00  1.60171E+00  1.60642E+00  1.61112E+00  1.61584E+00  1.62053E+00  1.62525E+00
   1.62996E+00  1.63473E+00  1.63948E+00  1.64425E+00  1.64899E+00  1.65377E+00  1.65855E+00  1.66338E+00
 NY background values follow
    -8.250E-01   -8.203E-01   -8.155E-01   -8.108E-01   -8.061E-01   -8.013E-01   -7.966E-01   -7.918E-01   -7.871E-01   -7.823E-01
    -7.776E-01   -7.728E-01   -7.680E-01   -7.633E-01   -7.585E-01   -7.537E-01   -7.490E-01   -7.442E-01   -7.394E-01   -7.346E-01
    -7.298E-01   -7.250E-01   -7.202E-01   -7.154E-01   -7.106E-01   -7.058E-01   -7.010E-01   -6.962E-01   -6.914E-01   -6.866E-01
    -6.818E-01   -6.769E-01   -6.721E-01   -6.673E-01   -6.625E-01   -6.576E-01   -6.528E-01   -6.480E-01   -6.431E-01   -6.383E-01
    -6.334E-01   -6.286E-01   -6.237E-01   -6.189E-01   -6.140E-01   -6.091E-01   -6.043E-01   -5.994E-01   -5.945E-01   -5.897E-01
    -5.848E-01   -5.799E-01   -5.750E-01   -5.701E-01   -5.653E-01   -5.604E-01   -5.555E-01   -5.506E-01   -5.457E-01   -5.408E-01
    -5.359E-01   -5.310E-01   -5.261E-01   -5.212E-01   -5.163E-01   -5.113E-01   -5.064E-01   -5.015E-01   -4.966E-01   -4.917E-01
    -4.867E-01   -4.818E-01   -4.769E-01   -4.719E-01   -4.670E-01   -4.621E-01   -4.571E-01   -4.522E-01   -4.472E-01   -4.423E-01
    -4.373E-01   -4.324E-01   -4.274E-01   -4.225E-01   -4.175E-01   -4.125E-01   -4.076E-01   -4.026E-01   -3.976E-01   -3.927E-01
    -3.877E-01   -3.827E-01   -3.777E-01   -3.728E-01   -3.678E-01   -3.628E-01   -3.578E-01   -3.528E-01   -3.478E-01   -3.428E-01
    -3.378E-01   -3.329E-01   -3.279E-01   -3.229E-01   -3.178E-01   -3.128E-01   -3.078E-01   -3.028E-01   -2.978E-01   -2.928E-01
    -2.878E-01   -2.828E-01   -2.778E-01   -2.727E-01   -2.677E-01   -2.627E-01   -2.577E-01   -2.526E-01   -2.476E-01   -2.426E-01
    -2.375E-01   -2.325E-01   -2.275E-01   -2.224E-01   -2.174E-01   -2.123E-01   -2.073E-01   -2.022E-01   -1.972E-01   -1.921E-01
    -1.871E-01   -1.820E-01   -1.770E-01   -1.719E-01   -1.669E-01   -1.618E-01   -1.567E-01   -1.517E-01   -1.466E-01   -1.415E-01
    -1.365E-01   -1.314E-01   -1.263E-01   -1.212E-01   -1.162E-01   -1.111E-01   -1.060E-01   -1.009E-01   -9.585E-02   -9.077E-02
    -8.568E-02   -8.059E-02   -7.551E-02   -7.042E-02   -6.533E-02   -6.023E-02   -5.514E-02   -5.004E-02   -4.494E-02   -3.985E-02
    -3.475E-02   -2.964E-02   -2.454E-02   -1.944E-02   -1.433E-02   -9.225E-03   -4.117E-03    9.928E-04    6.104E-03    1.122E-02
     1.633E-02    2.144E-02    2.656E-02    3.168E-02    3.680E-02    4.192E-02    4.704E-02    5.216E-02    5.728E-02    6.241E-02
     6.753E-02    7.266E-02    7.779E-02    8.292E-02    8.805E-02    9.318E-02    9.831E-02    1.034E-01    1.086E-01    1.137E-01
     1.188E-01    1.240E-01    1.291E-01    1.343E-01    1.394E-01    1.445E-01    1.497E-01    1.548E-01    1.600E-01    1.651E-01
     1.703E-01    1.754E-01    1.806E-01    1.857E-01    1.909E-01    1.960E-01    2.012E-01    2.063E-01    2.115E-01    2.166E-01
     2.218E-01    2.269E-01    2.321E-01    2.372E-01    2.424E-01    2.476E-01    2.527E-01    2.579E-01    2.630E-01    2.682E-01
     2.733E-01    2.785E-01    2.837E-01    2.888E-01    2.940E-01    2.992E-01    3.043E-01    3.095E-01    3.147E-01    3.198E-01
     3.250E-01    3.302E-01    3.353E-01    3.405E-01    3.457E-01    3.508E-01    3.560E-01    3.612E-01    3.663E-01    3.715E-01
     3.767E-01    3.818E-01    3.870E-01    3.922E-01    3.973E-01    4.025E-01    4.077E-01    4.129E-01    4.180E-01    4.232E-01
     4.284E-01    4.335E-01    4.387E-01    4.439E-01    4.491E-01    4.542E-01    4.594E-01    4.646E-01    4.698E-01    4.749E-01
     4.801E-01    4.853E-01    4.904E-01    4.956E-01    5.008E-01    5.060E-01    5.111E-01    5.163E-01    5.215E-01    5.267E-01
     5.318E-01    5.370E-01    5.422E-01    5.473E-01    5.525E-01    5.577E-01    5.629E-01    5.680E-01    5.732E-01    5.784E-01
     5.835E-01    5.887E-01    5.939E-01    5.990E-01    6.042E-01    6.094E-01    6.145E-01    6.197E-01    6.249E-01    6.300E-01
     6.352E-01    6.404E-01    6.455E-01    6.507E-01    6.559E-01    6.610E-01    6.662E-01    6.714E-01    6.765E-01    6.817E-01
     6.869E-01    6.920E-01    6.972E-01    7.023E-01    7.075E-01    7.127E-01    7.178E-01    7.230E-01    7.281E-01    7.333E-01
     7.384E-01    7.436E-01    7.487E-01    7.539E-01    7.590E-01    7.642E-01    7.694E-01    7.745E-01    7.797E-01    7.848E-01
     7.899E-01    7.951E-01    8.002E-01    8.054E-01    8.105E-01    8.157E-01    8.208E-01    8.260E-01    8.311E-01    8.362E-01
     8.414E-01    8.465E-01    8.517E-01    8.568E-01    8.619E-01    8.671E-01    8.722E-01    8.773E-01    8.825E-01    8.876E-01
     8.927E-01    8.979E-01    9.030E-01    9.081E-01    9.132E-01    9.184E-01    9.235E-01    9.286E-01    9.337E-01    9.389E-01
     9.440E-01    9.491E-01    9.542E-01    9.593E-01    9.644E-01    9.696E-01    9.747E-01    9.798E-01    9.849E-01    9.900E-01
     9.951E-01    1.000E+00    1.005E+00    1.010E+00    1.016E+00    1.021E+00    1.026E+00    1.031E+00    1.036E+00    1.041E+00
     1.046E+00    1.051E+00    1.056E+00    1.061E+00    1.066E+00    1.072E+00    1.077E+00    1.082E+00    1.087E+00    1.092E+00
     1.097E+00    1.102E+00    1.107E+00    1.112E+00    1.117E+00    1.122E+00    1.127E+00    1.133E+00    1.138E+00    1.143E+00
     1.148E+00    1.153E+00    1.158E+00    1.163E+00    1.168E+00    1.173E+00    1.178E+00    1.183E+00    1.188E+00    1.193E+00
     1.198E+00    1.203E+00    1.208E+00    1.213E+00    1.219E+00    1.224E+00    1.229E+00    1.234E+00    1.239E+00    1.244E+00
     1.249E+00    1.254E+00    1.259E+00    1.264E+00    1.269E+00    1.274E+00    1.279E+00    1.284E+00    1.289E+00    1.294E+00
     1.299E+00    1.304E+00    1.309E+00    1.314E+00    1.319E+00    1.324E+00    1.329E+00    1.334E+00    1.339E+00    1.344E+00
     1.349E+00    1.354E+00    1.359E+00    1.364E+00    1.369E+00    1.374E+00    1.379E+00    1.384E+00    1.389E+00    1.394E+00
     1.399E+00    1.404E+00    1.409E+00    1.414E+00    1.419E+00    1.424E+00    1.429E+00    1.434E+00    1.439E+00    1.444E+00
     1.449E+00    1.454E+00    1.459E+00    1.464E+00    1.468E+00    1.473E+00    1.478E+00    1.483E+00    1.488E+00    1.493E+00
     1.498E+00    1.503E+00    1.508E+00    1.513E+00    1.518E+00    1.523E+00    1.528E+00    1.533E+00    1.538E+00    1.542E+00
     1.547E+00    1.552E+00    1.557E+00    1.562E+00    1.567E+00    1.572E+00    1.577E+00    1.582E+00    1.587E+00    1.591E+00
     1.596E+00    1.601E+00    1.606E+00    1.611E+00    1.616E+00    1.621E+00    1.626E+00    1.631E+00    1.635E+00    1.640E+00
     1.645E+00    1.650E+00    1.655E+00    1.660E+00    1.665E+00    1.669E+00    1.674E+00    1.679E+00
 Ala      Conc. = 4.89E-02
