 LCModel (Version 6.3-1L) Copyright: S.W. Provencher.          Ref.: Magn. Reson. Med. 30:672-679 (1993).                
 Slice#1 Row#1 Col#1  PD_24_press_1_raw_act
 36 lines in following concentration table = NCONC+1
    Conc.  %SD /Cr+PCr  Metabolite                                         
    0.000 999%   0.000 Ala                                                 
    5.848  44%   0.207 Asp                                                 
   14.004 160%   0.495 Cr                                                  
   14.286 159%   0.505 PCr                                                 
    3.518  44%   0.124 GABA                                                
    3.576  43%   0.126 Glc                                                 
   38.621  84%   1.365 Gln                                                 
   11.945 289%   0.422 Glu                                                 
    0.000 999%   0.000 GPC                                                 
   10.744  35%   0.380 PCh                                                 
    8.815 136%   0.312 GSH                                                 
   44.604  85%   1.577 Ins                                                 
    0.000 999%   0.000 Lac                                                 
   37.532  32%   1.327 NAA                                                 
   18.602  65%   0.658 NAAG                                                
    1.191  43% 4.2E-02 Scyllo                                              
    5.898  43%   0.208 Tau                                                 
    3.764  87%   0.133 -CrCH2                                              
   10.744  35%   0.380 GPC+PCh                                             
   56.134  26%   1.984 NAA+NAAG                                            
   28.290  35%   1.000 Cr+PCr                                              
   50.566  87%   1.787 Glu+Gln                                             
    0.000 999%   0.000 Lip13a                                              
    0.000 999%   0.000 Lip13b                                              
    1.503 982% 5.3E-02 Lip09                                               
   47.987  52%   1.696 MM09                                                
    1.305 821% 4.6E-02 Lip20                                               
   75.713  56%   2.676 MM20                                                
   14.684  72%   0.519 MM12                                                
    0.000 999%   0.000 MM14                                                
   17.315 127%   0.612 MM17                                                
    0.000 999%   0.000 Lip13a+Lip13b                                       
   14.684  72%   0.519 MM14+Lip13a+Lip13b+MM12                             
   49.489  51%   1.749 MM09+Lip09                                          
   77.018  56%   2.722 MM20+Lip20                                          
   6 lines in following misc. output table
  FWHM = 0.038 ppm    S/N =   1                                            
  Data shift = 0.000 ppm                                                   
  Ph:  75 deg       0.4 deg/ppm                                            
  alphaB,S = 8.5E+01,   2.6E+01                                            
   14 spline knots.   Ns = 5(1)                                            
   2 inflections.     1 extrema                                            
  498 points on ppm-axis = NY
      4.000000     3.992357     3.984714     3.977070     3.969427     3.961784     3.954141     3.946497     3.938854     3.931211
      3.923568     3.915925     3.908281     3.900638     3.892995     3.885352     3.877708     3.870065     3.862422     3.854779
      3.847136     3.839492     3.831849     3.824206     3.816563     3.808919     3.801276     3.793633     3.785990     3.778347
      3.770703     3.763060     3.755417     3.747774     3.740130     3.732487     3.724844     3.717201     3.709558     3.701914
      3.694271     3.686628     3.678985     3.671341     3.663698     3.656055     3.648412     3.640769     3.633125     3.625482
      3.617839     3.610196     3.602552     3.594909     3.587266     3.579623     3.571980     3.564336     3.556693     3.549050
      3.541407     3.533763     3.526120     3.518477     3.510834     3.503191     3.495547     3.487904     3.480261     3.472618
      3.464974     3.457331     3.449688     3.442045     3.434402     3.426758     3.419115     3.411472     3.403829     3.396185
      3.388542     3.380899     3.373256     3.365613     3.357969     3.350326     3.342683     3.335040     3.327396     3.319753
      3.312110     3.304467     3.296824     3.289180     3.281537     3.273894     3.266251     3.258607     3.250964     3.243321
      3.235678     3.228034     3.220391     3.212748     3.205105     3.197462     3.189818     3.182175     3.174532     3.166889
      3.159245     3.151602     3.143959     3.136316     3.128673     3.121029     3.113386     3.105743     3.098100     3.090456
      3.082813     3.075170     3.067527     3.059884     3.052240     3.044597     3.036954     3.029311     3.021667     3.014024
      3.006381     2.998738     2.991095     2.983451     2.975808     2.968165     2.960522     2.952878     2.945235     2.937592
      2.929949     2.922306     2.914662     2.907019     2.899376     2.891733     2.884089     2.876446     2.868803     2.861160
      2.853517     2.845873     2.838230     2.830587     2.822944     2.815300     2.807657     2.800014     2.792371     2.784728
      2.777084     2.769441     2.761798     2.754155     2.746511     2.738868     2.731225     2.723582     2.715939     2.708295
      2.700652     2.693009     2.685366     2.677722     2.670079     2.662436     2.654793     2.647150     2.639506     2.631863
      2.624220     2.616577     2.608933     2.601290     2.593647     2.586004     2.578361     2.570717     2.563074     2.555431
      2.547788     2.540144     2.532501     2.524858     2.517215     2.509572     2.501928     2.494285     2.486642     2.478999
      2.471355     2.463712     2.456069     2.448426     2.440783     2.433139     2.425496     2.417853     2.410210     2.402566
      2.394923     2.387280     2.379637     2.371994     2.364350     2.356707     2.349064     2.341421     2.333777     2.326134
      2.318491     2.310848     2.303205     2.295561     2.287918     2.280275     2.272632     2.264988     2.257345     2.249702
      2.242059     2.234416     2.226772     2.219129     2.211486     2.203843     2.196199     2.188556     2.180913     2.173270
      2.165627     2.157983     2.150340     2.142697     2.135054     2.127410     2.119767     2.112124     2.104481     2.096838
      2.089194     2.081551     2.073908     2.066265     2.058621     2.050978     2.043335     2.035692     2.028049     2.020405
      2.012762     2.005119     1.997476     1.989833     1.982190     1.974546     1.966903     1.959260     1.951617     1.943974
      1.936331     1.928688     1.921045     1.913402     1.905759     1.898115     1.890472     1.882829     1.875186     1.867543
      1.859900     1.852257     1.844614     1.836971     1.829327     1.821684     1.814041     1.806398     1.798755     1.791112
      1.783469     1.775826     1.768183     1.760540     1.752896     1.745253     1.737610     1.729967     1.722324     1.714681
      1.707038     1.699395     1.691752     1.684108     1.676465     1.668822     1.661179     1.653536     1.645893     1.638250
      1.630607     1.622964     1.615321     1.607677     1.600034     1.592391     1.584748     1.577105     1.569462     1.561819
      1.554176     1.546533     1.538890     1.531246     1.523603     1.515960     1.508317     1.500674     1.493031     1.485388
      1.477745     1.470102     1.462458     1.454815     1.447172     1.439529     1.431886     1.424243     1.416600     1.408957
      1.401314     1.393671     1.386027     1.378384     1.370741     1.363098     1.355455     1.347812     1.340169     1.332526
      1.324883     1.317240     1.309596     1.301953     1.294310     1.286667     1.279024     1.271381     1.263738     1.256095
      1.248452     1.240808     1.233165     1.225522     1.217879     1.210236     1.202593     1.194950     1.187307     1.179664
      1.172021     1.164377     1.156734     1.149091     1.141448     1.133805     1.126162     1.118519     1.110876     1.103233
      1.095590     1.087946     1.080303     1.072660     1.065017     1.057374     1.049731     1.042088     1.034445     1.026802
      1.019158     1.011515     1.003872     0.996229     0.988586     0.980943     0.973300     0.965657     0.958014     0.950371
      0.942727     0.935084     0.927441     0.919798     0.912155     0.904512     0.896869     0.889226     0.881583     0.873940
      0.866296     0.858653     0.851010     0.843367     0.835724     0.828081     0.820438     0.812795     0.805152     0.797508
      0.789865     0.782222     0.774579     0.766936     0.759293     0.751650     0.744007     0.736364     0.728721     0.721077
      0.713434     0.705791     0.698148     0.690505     0.682862     0.675219     0.667576     0.659933     0.652290     0.644646
      0.637003     0.629360     0.621717     0.614074     0.606431     0.598788     0.591145     0.583502     0.575858     0.568215
      0.560572     0.552929     0.545286     0.537643     0.530000     0.522357     0.514714     0.507071     0.499427     0.491784
      0.484141     0.476498     0.468855     0.461212     0.453569     0.445925     0.438282     0.430639     0.422996     0.415353
      0.407710     0.400067     0.392424     0.384780     0.377137     0.369494     0.361851     0.354208     0.346565     0.338922
      0.331278     0.323635     0.315992     0.308349     0.300706     0.293063     0.285420     0.277777     0.270133     0.262490
      0.254847     0.247204     0.239561     0.231918     0.224275     0.216631     0.208988     0.201345
 NY phased data points follow
   1.05382E+00  8.37268E-03  2.32176E-04 -1.03284E+00  2.26709E-01 -1.46648E+00 -2.39601E-01 -5.55866E-01  1.34769E+00 -2.90006E-01
  -1.72116E+00 -4.04755E-01  6.48362E-01  2.35282E-01  1.23402E-01 -3.18500E+00  2.22057E-01 -1.06031E+00 -5.13490E-02  7.78347E-01
   9.36951E-01 -4.76343E-02 -1.49316E+00  9.40003E-01 -3.84299E-01  4.77762E-01  2.59943E-01  9.92877E-01  1.05432E+00 -2.61680E-01
   1.94494E-01  7.82994E-01 -9.89661E-01 -4.99372E-04  9.08854E-01 -1.21689E+00 -1.55371E+00  4.23600E-01 -4.49570E-01 -2.01702E-01
   9.06133E-01  1.58141E-01  9.87551E-01 -7.77465E-01  1.26984E-02 -1.38883E-01  6.44271E-01 -6.95514E-01  1.32208E+00 -2.88623E-01
   1.67672E-02 -9.38933E-01 -8.12376E-01  1.18902E+00 -9.86514E-01 -4.02992E-01  5.70199E-01  2.16799E-01  6.15238E-01  4.89396E-01
   3.99399E-01 -1.82463E+00  7.94096E-01  9.87726E-03 -1.15235E+00 -5.57082E-01 -7.44618E-01  9.21009E-01  1.45871E+00 -4.31346E-01
   1.85260E-01  1.20599E+00  9.98419E-01  9.36959E-01  8.85908E-02 -1.98090E-01  4.27249E-01  2.27403E-02 -9.22376E-01  4.42764E-01
   2.19850E-01 -2.00262E+00  4.73511E-01 -2.88661E-01  4.35833E-01  7.69778E-01 -7.91192E-01  6.96769E-01 -3.57598E-01  8.91158E-01
  -3.82915E-01 -1.73500E-02 -8.77689E-01 -4.94419E-01 -1.62873E+00  3.93497E-01 -7.82386E-01  5.14984E-01 -1.56973E-01 -6.21858E-01
   1.67981E+00  1.62729E+00  1.81907E+00  1.46908E+00 -5.89876E-01 -3.82854E-01 -1.83497E-01 -5.62614E-01 -9.67850E-01 -7.85961E-01
   9.61471E-01  1.13746E+00 -5.25413E-01 -6.10639E-02  9.33037E-02  7.94732E-02  1.06681E+00 -4.38443E-03  3.99008E-01  9.26634E-01
   4.93765E-01 -1.06129E+00 -1.46839E+00 -2.86788E-01  1.59646E+00  2.00876E+00  3.67774E+00  7.67562E-01  5.05853E-01 -1.70040E+00
  -2.03392E-01  2.16120E-01 -1.92241E-01 -1.17588E+00 -7.96115E-01  1.44080E+00  1.59094E-01 -7.02007E-01  8.42972E-01 -4.07844E-01
  -1.35658E-01 -8.40305E-01 -2.42714E-01  1.10274E+00 -1.57584E-01  1.35040E+00  1.55719E-01 -1.84399E-01 -8.74787E-01  5.09548E-02
  -2.50312E-02  1.61679E+00 -2.17382E-01 -3.11549E-01  1.17606E+00 -2.72160E-01 -8.33680E-02 -9.36317E-01  7.94643E-01 -1.15414E+00
   3.77463E-02  3.93166E-01  2.24242E-01  5.25792E-01  7.00984E-01 -1.51186E-01 -9.84726E-01  6.58004E-01 -8.26203E-01 -5.51783E-01
   8.96516E-01  1.29764E+00 -1.02680E+00 -1.88124E+00 -6.49871E-01 -6.78287E-01 -1.90635E-01  7.86902E-01  1.81070E+00 -1.01333E+00
  -2.78780E-02  1.20444E+00 -6.50171E-02  1.15572E+00 -1.41971E-01 -6.50505E-01 -1.19648E+00 -8.14119E-01 -5.56328E-01 -9.08543E-02
  -8.51802E-01 -8.09805E-01 -7.37184E-01 -1.28054E+00  5.36847E-01 -1.08383E+00 -6.27266E-01 -5.66861E-01 -4.62471E-01 -1.10508E+00
  -4.41229E-01  6.84734E-01  1.62989E-01 -4.75855E-01  9.24738E-01 -6.29219E-01 -1.09609E+00 -2.83572E-01 -7.00508E-01  4.43231E-02
  -2.49562E-01 -9.59857E-01  3.86895E-01  5.12703E-01 -5.44025E-02  3.42852E-01  9.04735E-01 -1.20809E+00  6.32417E-02  2.98413E-01
   3.80376E-01  3.15251E-01 -8.06233E-01  5.33570E-01  1.29165E+00  1.85885E+00  2.75594E-01 -1.75924E+00  8.20177E-01 -1.01793E+00
   1.23407E+00  2.51897E-01  6.40630E-01  7.05216E-01 -4.69652E-02 -5.66523E-01 -7.52692E-01  5.09790E-01 -6.61310E-01  8.94651E-01
   9.74136E-01 -3.44199E-01 -2.18683E-01  2.47543E-01  1.15475E+00  1.43600E-01  7.62136E-01 -2.01909E+00  1.16066E+00 -9.65578E-01
   7.96911E-01  3.01241E-01  6.16460E-01  1.29693E+00  1.96939E+00  1.81794E+00  1.79261E+00  1.34047E+00  1.43845E+00  2.26706E+00
   3.41372E+00  1.57808E+00 -7.14271E-01 -2.07584E+00 -1.00930E+00  6.09965E-01  2.56946E-01  1.30595E+00  2.53538E+00  4.11579E-01
   1.88245E+00  1.44870E+00  2.04460E+00 -4.43014E-02  9.19417E-01  8.74750E-01  1.58728E-02  2.82095E-01  1.17440E+00  3.17122E-01
  -1.72142E+00  1.62363E-01  2.39257E-01 -3.87453E-01 -2.18197E+00  1.53774E-01  2.27545E-01  7.38663E-01 -1.02014E+00  1.88273E-01
   1.87989E-01  2.97383E-01  1.22957E+00 -2.37087E-02  1.23611E+00  1.02496E+00 -6.51651E-01 -6.41504E-02  4.23385E-01 -1.83608E-02
   2.08565E+00  5.36483E-01  3.26774E-01 -9.63810E-01 -1.33642E+00 -1.30837E+00  5.43911E-01 -9.57895E-01  8.90504E-01  1.52552E+00
   1.01651E+00 -5.86477E-01  3.24631E-01 -6.51222E-01 -4.92073E-01  1.02646E+00 -1.39580E+00  4.57872E-01  5.14101E-01 -5.32548E-01
  -1.49717E-01  2.40584E-01  1.01746E+00 -1.17198E+00 -1.17676E-01 -6.93745E-01 -2.84674E-01 -3.05622E-01  1.80647E+00  7.21096E-01
  -1.68296E+00 -6.29488E-01 -6.09941E-01 -1.12089E-01 -4.81127E-01 -5.30089E-01 -5.67470E-01  1.01807E+00 -1.03591E+00 -1.01137E+00
   9.86058E-02 -1.95748E+00 -1.55413E-02 -2.26251E+00 -2.70053E-02  1.17058E+00  7.14637E-01 -3.98059E-01 -9.21025E-01 -7.48495E-01
  -4.58994E-01 -4.77811E-01 -9.48949E-01  8.36803E-01 -6.90901E-01 -2.27410E+00 -3.29969E-01  5.59973E-01  5.19514E-01 -1.06460E+00
  -9.86557E-02  3.43242E-01 -1.17404E+00  3.92799E-01  1.05661E+00  1.63283E+00  1.72742E+00  3.78123E-01  8.58687E-01  8.70294E-01
   5.19296E-01 -1.15018E+00  6.67439E-01  2.35253E+00  9.23312E-01  1.48117E+00  9.91367E-01  5.53270E-01  5.36649E-01  1.40688E+00
   7.15557E-01 -1.90306E+00  9.82930E-01  9.88755E-01  6.93199E-02  3.13843E-01 -1.28531E+00 -3.48956E-01  6.95136E-01 -9.27038E-01
  -1.26611E+00 -2.53879E+00 -2.70871E-02 -4.98651E-01  4.02077E-01  6.53581E-01  1.27704E-01  1.43309E+00  1.80928E+00  8.78185E-01
   1.39400E+00  9.00307E-01 -5.46464E-01  2.04896E+00  5.22964E-01  1.45088E+00  1.14032E+00  1.76645E+00  1.52540E+00 -1.33606E-01
  -8.69087E-01  7.65013E-01 -1.11900E+00  8.30885E-01  1.75987E+00 -8.23069E-01 -6.91717E-01  1.13301E+00  1.25163E+00 -9.74507E-01
   5.16301E-02 -4.48335E-01 -1.23815E+00  3.61116E-01  1.29328E-02  1.07067E+00 -6.46232E-01 -8.14113E-01 -1.40854E-01 -2.89415E-01
  -2.76039E-02 -1.24515E+00  1.09367E+00 -3.33883E-01  3.01771E-01  1.57357E+00  3.30002E-02 -6.82339E-02 -1.41820E+00  1.03034E+00
   5.10873E-01  9.56715E-01  1.12966E+00 -1.10375E+00  3.49242E-01 -6.99968E-01 -7.05178E-01  1.56140E-01 -4.77110E-01  1.11541E+00
   8.70853E-01 -1.09822E+00 -2.87140E-01 -9.31213E-01 -1.35455E+00  2.51533E-02  1.62331E-01  2.14956E-01  6.95017E-01  2.44738E-01
   3.69572E-01  1.16492E+00 -3.06677E-01 -4.35613E-01  1.20838E+00 -2.93662E-02  1.50515E+00  2.46539E-01 -1.73958E-01 -1.54398E-01
  -3.97106E-01  7.99378E-01  8.94518E-01  1.58594E+00  3.00589E-01 -4.33638E-01 -1.51210E-01  2.25934E+00  1.32628E+00  3.83329E-01
   1.50687E-02 -1.48565E-01  2.65112E-01  4.19059E-01 -4.31275E-01  2.14523E+00  1.05915E-01  9.89433E-01  1.29320E+00 -1.13430E+00
  -1.18718E+00 -5.76316E-01  1.19885E+00  1.15127E+00 -4.11614E-01 -1.68452E+00  1.31394E+00  9.52366E-01
 NY points of the fit to the data follow
  -1.99095E-01 -1.97262E-01 -1.88793E-01 -1.71136E-01 -1.16353E-01 -1.22605E-02  1.43793E-01  3.31668E-01  4.81897E-01  5.30658E-01
   4.55267E-01  2.85325E-01  8.56411E-02 -7.88103E-02 -1.74530E-01 -2.07930E-01 -2.06911E-01 -1.92505E-01 -1.73210E-01 -1.51272E-01
  -1.25724E-01 -1.07480E-01 -1.14761E-01 -1.51817E-01 -1.96329E-01 -1.96027E-01 -1.26050E-01  1.10448E-02  1.80502E-01  3.11683E-01
   3.46103E-01  2.70528E-01  1.21282E-01 -4.23818E-02 -1.68147E-01 -2.30625E-01 -2.34044E-01 -2.05018E-01 -1.72712E-01 -1.54110E-01
  -1.51457E-01 -1.49200E-01 -1.09076E-01  1.64252E-03  1.62588E-01  3.04662E-01  3.54249E-01  2.79356E-01  1.08488E-01 -8.47320E-02
  -2.24104E-01 -2.74306E-01 -2.53312E-01 -2.05691E-01 -1.57769E-01 -1.08445E-01 -5.17395E-02  9.03400E-03  5.44705E-02  6.35223E-02
   2.81096E-02 -3.94993E-02 -1.09978E-01 -1.55737E-01 -1.63070E-01 -1.39214E-01 -1.03039E-01 -6.49427E-02 -3.14099E-02 -7.33507E-03
   8.31193E-03  1.80119E-02  1.93724E-02  9.91221E-03 -9.49032E-03 -3.58799E-02 -6.49327E-02 -8.91865E-02 -1.01784E-01 -1.01067E-01
  -8.93146E-02 -6.75866E-02 -4.77778E-02 -4.84808E-02 -7.99962E-02 -1.36189E-01 -1.97200E-01 -2.37356E-01 -2.40090E-01 -2.07781E-01
  -1.60215E-01 -1.17985E-01 -9.17444E-02 -8.23457E-02 -8.20133E-02 -8.59792E-02 -8.78870E-02 -5.64147E-02  1.30542E-01  5.31331E-01
   1.01161E+00  1.37510E+00  1.45552E+00  1.20570E+00  7.36948E-01  2.58953E-01 -5.70241E-02 -1.74001E-01 -1.68074E-01 -1.30122E-01
  -1.07596E-01 -1.01678E-01 -9.89769E-02 -9.69599E-02 -9.56636E-02 -9.63295E-02 -9.83118E-02 -9.93974E-02 -9.74553E-02 -8.88273E-02
  -6.48007E-02  1.33642E-02  2.57888E-01  6.68512E-01  1.09970E+00  1.37597E+00  1.37254E+00  1.08491E+00  6.47847E-01  2.53484E-01
   2.08009E-02 -5.85923E-02 -6.98213E-02 -8.41025E-02 -1.17730E-01 -1.43772E-01 -1.39602E-01 -1.05952E-01 -6.07077E-02 -2.38005E-02
  -6.87929E-03 -9.23714E-03 -2.27258E-02 -3.90075E-02 -5.27164E-02 -6.32811E-02 -7.26379E-02 -8.16617E-02 -8.99707E-02 -9.90521E-02
  -1.10553E-01 -1.22386E-01 -1.30238E-01 -1.29713E-01 -1.19217E-01 -1.06384E-01 -1.05025E-01 -1.21539E-01 -1.49893E-01 -1.75605E-01
  -1.82403E-01 -1.68075E-01 -1.44013E-01 -1.26253E-01 -1.25915E-01 -1.43666E-01 -1.67850E-01 -1.83606E-01 -1.84161E-01 -1.72977E-01
  -1.61587E-01 -1.63885E-01 -1.82963E-01 -2.05610E-01 -2.16647E-01 -2.08853E-01 -1.90485E-01 -1.77029E-01 -1.78075E-01 -1.86814E-01
  -1.89318E-01 -1.77885E-01 -1.58376E-01 -1.39389E-01 -1.22510E-01 -1.01613E-01 -6.71162E-02 -1.75585E-02  3.11036E-02  5.30820E-02
   3.51810E-02 -1.82535E-02 -9.15403E-02 -1.65439E-01 -2.17497E-01 -2.30920E-01 -1.98282E-01 -1.18921E-01 -5.51368E-03  1.14786E-01
   2.13453E-01  2.68527E-01  2.65215E-01  2.02472E-01  8.48350E-02 -8.91974E-02 -2.89162E-01 -4.43711E-01 -4.98695E-01 -4.35346E-01
  -2.75379E-01 -7.36099E-02  1.00209E-01  2.00568E-01  2.24678E-01  1.95965E-01  1.40010E-01  7.48223E-02  1.61606E-02 -1.81607E-02
  -1.63072E-02  1.79440E-02  7.20307E-02  1.26808E-01  1.64747E-01  1.76079E-01  1.58569E-01  1.20945E-01  8.08968E-02  5.60472E-02
   5.46883E-02  6.33842E-02  7.25099E-02  8.68388E-02  1.11107E-01  1.52516E-01  2.17562E-01  2.91050E-01  3.27869E-01  3.04666E-01
   2.32153E-01  1.42960E-01  7.36249E-02  4.96152E-02  6.97674E-02  1.14578E-01  1.68526E-01  2.27070E-01  2.92148E-01  3.66678E-01
   4.73104E-01  6.75174E-01  9.52433E-01  1.21441E+00  1.38568E+00  1.53208E+00  1.75884E+00  2.01559E+00  2.19333E+00  2.16291E+00
   1.84299E+00  1.29381E+00  7.15451E-01  3.05943E-01  1.31073E-01  1.12234E-01  1.38810E-01  1.50689E-01  1.44848E-01  1.40793E-01
   1.42535E-01  1.46856E-01  1.48168E-01  1.42494E-01  1.29666E-01  1.12804E-01  9.58890E-02  8.23476E-02  7.41861E-02  7.11861E-02
   7.13122E-02  7.29265E-02  7.46703E-02  7.53744E-02  7.45898E-02  7.24337E-02  6.95726E-02  6.79441E-02  6.91775E-02  7.35277E-02
   8.00494E-02  8.70654E-02  9.29535E-02  9.67778E-02  9.84243E-02  9.89819E-02  9.98220E-02  1.01818E-01  1.05348E-01  1.10190E-01
   1.15613E-01  1.20602E-01  1.24338E-01  1.26574E-01  1.27520E-01  1.27474E-01  1.26642E-01  1.25082E-01  1.22842E-01  1.19973E-01
   1.16537E-01  1.12621E-01  1.08342E-01  1.03832E-01  9.92308E-02  9.46602E-02  9.02211E-02  8.59891E-02  8.20252E-02  7.83727E-02
   7.50649E-02  7.21238E-02  6.95647E-02  6.73924E-02  6.56021E-02  6.41723E-02  6.30765E-02  6.22875E-02  6.17871E-02  6.15571E-02
   6.15786E-02  6.18265E-02  6.22788E-02  6.29178E-02  6.37373E-02  6.47314E-02  6.58951E-02  6.72202E-02  6.87047E-02  7.03507E-02
   7.21666E-02  7.41568E-02  7.63241E-02  7.86682E-02  8.11948E-02  8.39112E-02  8.68255E-02  8.99364E-02  9.32373E-02  9.67147E-02
   1.00358E-01  1.04150E-01  1.08074E-01  1.12094E-01  1.16175E-01  1.20272E-01  1.24345E-01  1.28349E-01  1.32237E-01  1.35956E-01
   1.39457E-01  1.42696E-01  1.45646E-01  1.48279E-01  1.50580E-01  1.52539E-01  1.54163E-01  1.55473E-01  1.56508E-01  1.57315E-01
   1.57951E-01  1.58480E-01  1.58983E-01  1.59548E-01  1.60278E-01  1.61269E-01  1.62628E-01  1.64462E-01  1.66888E-01  1.70027E-01
   1.74003E-01  1.78934E-01  1.84940E-01  1.92138E-01  2.00643E-01  2.10556E-01  2.21960E-01  2.34907E-01  2.49417E-01  2.65468E-01
   2.82990E-01  3.01849E-01  3.21846E-01  3.42703E-01  3.64081E-01  3.85572E-01  4.06717E-01  4.27010E-01  4.45921E-01  4.62915E-01
   4.77489E-01  4.89188E-01  4.97634E-01  5.02539E-01  5.03727E-01  5.01147E-01  4.94876E-01  4.85114E-01  4.72173E-01  4.56452E-01
   4.38421E-01  4.18598E-01  3.97526E-01  3.75738E-01  3.53738E-01  3.31979E-01  3.10855E-01  2.90691E-01  2.71741E-01  2.54182E-01
   2.38121E-01  2.23602E-01  2.10621E-01  1.99130E-01  1.89054E-01  1.80291E-01  1.72725E-01  1.66234E-01  1.60699E-01  1.56007E-01
   1.52052E-01  1.48732E-01  1.45958E-01  1.43649E-01  1.41740E-01  1.40174E-01  1.38902E-01  1.37878E-01  1.37065E-01  1.36431E-01
   1.35956E-01  1.35618E-01  1.35400E-01  1.35282E-01  1.35253E-01  1.35300E-01  1.35419E-01  1.35601E-01  1.35838E-01  1.36122E-01
   1.36447E-01  1.36811E-01  1.37214E-01  1.37651E-01  1.38116E-01  1.38605E-01  1.39116E-01  1.39651E-01  1.40208E-01  1.40784E-01
   1.41376E-01  1.41981E-01  1.42602E-01  1.43237E-01  1.43888E-01  1.44549E-01  1.45219E-01  1.45897E-01  1.46586E-01  1.47285E-01
   1.47995E-01  1.48710E-01  1.49431E-01  1.50157E-01  1.50893E-01  1.51637E-01  1.52387E-01  1.53140E-01  1.53898E-01  1.54660E-01
   1.55431E-01  1.56208E-01  1.56989E-01  1.57771E-01  1.58558E-01  1.59350E-01  1.60151E-01  1.60955E-01  1.61763E-01  1.62573E-01
   1.63388E-01  1.64210E-01  1.65041E-01  1.65875E-01  1.66713E-01  1.67555E-01  1.68406E-01  1.69266E-01
 NY background values follow
    -2.476E-01   -2.468E-01   -2.460E-01   -2.451E-01   -2.443E-01   -2.434E-01   -2.426E-01   -2.417E-01   -2.409E-01   -2.401E-01
    -2.392E-01   -2.384E-01   -2.375E-01   -2.367E-01   -2.358E-01   -2.350E-01   -2.341E-01   -2.333E-01   -2.325E-01   -2.316E-01
    -2.308E-01   -2.299E-01   -2.291E-01   -2.282E-01   -2.274E-01   -2.266E-01   -2.257E-01   -2.249E-01   -2.240E-01   -2.232E-01
    -2.223E-01   -2.215E-01   -2.206E-01   -2.198E-01   -2.190E-01   -2.181E-01   -2.173E-01   -2.164E-01   -2.156E-01   -2.147E-01
    -2.139E-01   -2.130E-01   -2.122E-01   -2.114E-01   -2.105E-01   -2.097E-01   -2.088E-01   -2.080E-01   -2.071E-01   -2.063E-01
    -2.054E-01   -2.046E-01   -2.038E-01   -2.029E-01   -2.021E-01   -2.012E-01   -2.004E-01   -1.995E-01   -1.987E-01   -1.978E-01
    -1.970E-01   -1.961E-01   -1.953E-01   -1.945E-01   -1.936E-01   -1.928E-01   -1.919E-01   -1.911E-01   -1.902E-01   -1.894E-01
    -1.885E-01   -1.877E-01   -1.869E-01   -1.860E-01   -1.852E-01   -1.843E-01   -1.835E-01   -1.826E-01   -1.818E-01   -1.809E-01
    -1.801E-01   -1.792E-01   -1.784E-01   -1.776E-01   -1.767E-01   -1.759E-01   -1.750E-01   -1.742E-01   -1.733E-01   -1.725E-01
    -1.716E-01   -1.708E-01   -1.700E-01   -1.691E-01   -1.683E-01   -1.674E-01   -1.666E-01   -1.657E-01   -1.649E-01   -1.640E-01
    -1.632E-01   -1.623E-01   -1.615E-01   -1.607E-01   -1.598E-01   -1.590E-01   -1.581E-01   -1.573E-01   -1.564E-01   -1.556E-01
    -1.547E-01   -1.539E-01   -1.530E-01   -1.522E-01   -1.514E-01   -1.505E-01   -1.497E-01   -1.488E-01   -1.480E-01   -1.471E-01
    -1.463E-01   -1.454E-01   -1.446E-01   -1.437E-01   -1.429E-01   -1.421E-01   -1.412E-01   -1.404E-01   -1.395E-01   -1.387E-01
    -1.378E-01   -1.370E-01   -1.361E-01   -1.353E-01   -1.344E-01   -1.336E-01   -1.327E-01   -1.319E-01   -1.311E-01   -1.302E-01
    -1.294E-01   -1.285E-01   -1.277E-01   -1.268E-01   -1.260E-01   -1.251E-01   -1.243E-01   -1.234E-01   -1.226E-01   -1.218E-01
    -1.209E-01   -1.201E-01   -1.192E-01   -1.184E-01   -1.175E-01   -1.167E-01   -1.158E-01   -1.150E-01   -1.141E-01   -1.133E-01
    -1.124E-01   -1.116E-01   -1.108E-01   -1.099E-01   -1.091E-01   -1.082E-01   -1.074E-01   -1.065E-01   -1.057E-01   -1.048E-01
    -1.040E-01   -1.031E-01   -1.023E-01   -1.015E-01   -1.006E-01   -9.976E-02   -9.891E-02   -9.807E-02   -9.722E-02   -9.638E-02
    -9.553E-02   -9.468E-02   -9.384E-02   -9.299E-02   -9.215E-02   -9.130E-02   -9.045E-02   -8.961E-02   -8.876E-02   -8.792E-02
    -8.707E-02   -8.622E-02   -8.538E-02   -8.453E-02   -8.369E-02   -8.284E-02   -8.199E-02   -8.115E-02   -8.030E-02   -7.946E-02
    -7.861E-02   -7.777E-02   -7.692E-02   -7.607E-02   -7.523E-02   -7.438E-02   -7.354E-02   -7.269E-02   -7.184E-02   -7.100E-02
    -7.015E-02   -6.931E-02   -6.846E-02   -6.761E-02   -6.677E-02   -6.592E-02   -6.508E-02   -6.423E-02   -6.339E-02   -6.254E-02
    -6.169E-02   -6.085E-02   -6.000E-02   -5.916E-02   -5.831E-02   -5.747E-02   -5.662E-02   -5.577E-02   -5.493E-02   -5.408E-02
    -5.324E-02   -5.239E-02   -5.155E-02   -5.070E-02   -4.985E-02   -4.901E-02   -4.816E-02   -4.732E-02   -4.647E-02   -4.563E-02
    -4.478E-02   -4.393E-02   -4.309E-02   -4.224E-02   -4.140E-02   -4.055E-02   -3.971E-02   -3.886E-02   -3.802E-02   -3.717E-02
    -3.632E-02   -3.548E-02   -3.463E-02   -3.379E-02   -3.294E-02   -3.210E-02   -3.125E-02   -3.041E-02   -2.956E-02   -2.871E-02
    -2.787E-02   -2.702E-02   -2.618E-02   -2.533E-02   -2.449E-02   -2.364E-02   -2.280E-02   -2.195E-02   -2.111E-02   -2.026E-02
    -1.942E-02   -1.857E-02   -1.773E-02   -1.688E-02   -1.603E-02   -1.519E-02   -1.434E-02   -1.350E-02   -1.265E-02   -1.181E-02
    -1.096E-02   -1.012E-02   -9.273E-03   -8.428E-03   -7.583E-03   -6.738E-03   -5.893E-03   -5.048E-03   -4.203E-03   -3.358E-03
    -2.513E-03   -1.668E-03   -8.233E-04    2.164E-05    8.666E-04    1.711E-03    2.556E-03    3.401E-03    4.246E-03    5.091E-03
     5.936E-03    6.780E-03    7.625E-03    8.470E-03    9.315E-03    1.016E-02    1.100E-02    1.185E-02    1.269E-02    1.354E-02
     1.438E-02    1.523E-02    1.607E-02    1.692E-02    1.776E-02    1.861E-02    1.945E-02    2.029E-02    2.114E-02    2.198E-02
     2.283E-02    2.367E-02    2.452E-02    2.536E-02    2.620E-02    2.705E-02    2.789E-02    2.874E-02    2.958E-02    3.043E-02
     3.127E-02    3.211E-02    3.296E-02    3.380E-02    3.465E-02    3.549E-02    3.633E-02    3.718E-02    3.802E-02    3.887E-02
     3.971E-02    4.055E-02    4.140E-02    4.224E-02    4.309E-02    4.393E-02    4.477E-02    4.562E-02    4.646E-02    4.731E-02
     4.815E-02    4.899E-02    4.984E-02    5.068E-02    5.152E-02    5.237E-02    5.321E-02    5.405E-02    5.490E-02    5.574E-02
     5.658E-02    5.743E-02    5.827E-02    5.911E-02    5.996E-02    6.080E-02    6.164E-02    6.249E-02    6.333E-02    6.417E-02
     6.502E-02    6.586E-02    6.670E-02    6.755E-02    6.839E-02    6.923E-02    7.007E-02    7.092E-02    7.176E-02    7.260E-02
     7.345E-02    7.429E-02    7.513E-02    7.597E-02    7.682E-02    7.766E-02    7.850E-02    7.935E-02    8.019E-02    8.103E-02
     8.187E-02    8.272E-02    8.356E-02    8.440E-02    8.524E-02    8.608E-02    8.693E-02    8.777E-02    8.861E-02    8.945E-02
     9.030E-02    9.114E-02    9.198E-02    9.282E-02    9.366E-02    9.451E-02    9.535E-02    9.619E-02    9.703E-02    9.787E-02
     9.872E-02    9.956E-02    1.004E-01    1.012E-01    1.021E-01    1.029E-01    1.038E-01    1.046E-01    1.054E-01    1.063E-01
     1.071E-01    1.080E-01    1.088E-01    1.097E-01    1.105E-01    1.113E-01    1.122E-01    1.130E-01    1.139E-01    1.147E-01
     1.155E-01    1.164E-01    1.172E-01    1.181E-01    1.189E-01    1.197E-01    1.206E-01    1.214E-01    1.223E-01    1.231E-01
     1.240E-01    1.248E-01    1.256E-01    1.265E-01    1.273E-01    1.282E-01    1.290E-01    1.298E-01    1.307E-01    1.315E-01
     1.324E-01    1.332E-01    1.340E-01    1.349E-01    1.357E-01    1.366E-01    1.374E-01    1.382E-01    1.391E-01    1.399E-01
     1.408E-01    1.416E-01    1.424E-01    1.433E-01    1.441E-01    1.450E-01    1.458E-01    1.466E-01    1.475E-01    1.483E-01
     1.492E-01    1.500E-01    1.508E-01    1.517E-01    1.525E-01    1.533E-01    1.542E-01    1.550E-01    1.559E-01    1.567E-01
     1.575E-01    1.584E-01    1.592E-01    1.601E-01    1.609E-01    1.617E-01    1.626E-01    1.634E-01    1.643E-01    1.651E-01
     1.659E-01    1.668E-01    1.676E-01    1.684E-01    1.693E-01    1.701E-01    1.710E-01    1.718E-01
 Asp      Conc. = 5.85E+00
