 LCModel (Version 6.3-1L) Copyright: S.W. Provencher.          Ref.: Magn. Reson. Med. 30:672-679 (1993).                
 Slice#2 Row#4 Col#11  PD_24_press_1_raw_act
 36 lines in following concentration table = NCONC+1
    Conc.  %SD /Cr+PCr  Metabolite                                         
  265.594 102%   0.191 Ala                                                 
    0.000 999%   0.000 Asp                                                 
  360.587 155%   0.259 Cr                                                  
 1.03E+03  53%   0.741 PCr                                                 
  393.667  49%   0.283 GABA                                                
   98.694 184% 7.1E-02 Glc                                                 
 4.72E+03  17%   3.391 Gln                                                 
 4.87E+03  21%   3.500 Glu                                                 
  555.447   6%   0.399 GPC                                                 
    0.000 999%   0.000 PCh                                                 
  458.049  38%   0.329 GSH                                                 
 2.44E+03  22%   1.757 Ins                                                 
    0.000 999%   0.000 Lac                                                 
 1.84E+03  11%   1.322 NAA                                                 
  463.519  45%   0.333 NAAG                                                
  198.231  19%   0.142 Scyllo                                              
    0.000 999%   0.000 Tau                                                 
  102.463 201% 7.4E-02 -CrCH2                                              
  555.447   6%   0.399 GPC+PCh                                             
 2.30E+03   4%   1.655 NAA+NAAG                                            
 1.39E+03   5%   1.000 Cr+PCr                                              
 9.59E+03  18%   6.891 Glu+Gln                                             
    0.000 999%   0.000 Lip13a                                              
   90.126  82% 6.5E-02 Lip13b                                              
   23.942  84% 1.7E-02 Lip09                                               
  511.302  27%   0.368 MM09                                                
   13.611  83% 9.8E-03 Lip20                                               
  781.103  27%   0.561 MM20                                                
  152.798  28%   0.110 MM12                                                
  355.448  31%   0.255 MM14                                                
  199.026  28%   0.143 MM17                                                
   90.126  82% 6.5E-02 Lip13a+Lip13b                                       
  598.372  28%   0.430 MM14+Lip13a+Lip13b+MM12                             
  535.244  26%   0.385 MM09+Lip09                                          
  794.714  27%   0.571 MM20+Lip20                                          
   6 lines in following misc. output table
  FWHM = 0.122 ppm    S/N =   7                                            
  Data shift = 0.023 ppm                                                   
  Ph: -16 deg     -11.5 deg/ppm                                            
  alphaB,S = 3.4E-01,   1.0E+02                                            
   14 spline knots.   Ns = 7(2)                                            
  (11) 5 infls.   ( 7) 1 extrs.                                            
  498 points on ppm-axis = NY
      4.000000     3.992357     3.984714     3.977070     3.969427     3.961784     3.954141     3.946497     3.938854     3.931211
      3.923568     3.915925     3.908281     3.900638     3.892995     3.885352     3.877708     3.870065     3.862422     3.854779
      3.847136     3.839492     3.831849     3.824206     3.816563     3.808919     3.801276     3.793633     3.785990     3.778347
      3.770703     3.763060     3.755417     3.747774     3.740130     3.732487     3.724844     3.717201     3.709558     3.701914
      3.694271     3.686628     3.678985     3.671341     3.663698     3.656055     3.648412     3.640769     3.633125     3.625482
      3.617839     3.610196     3.602552     3.594909     3.587266     3.579623     3.571980     3.564336     3.556693     3.549050
      3.541407     3.533763     3.526120     3.518477     3.510834     3.503191     3.495547     3.487904     3.480261     3.472618
      3.464974     3.457331     3.449688     3.442045     3.434402     3.426758     3.419115     3.411472     3.403829     3.396185
      3.388542     3.380899     3.373256     3.365613     3.357969     3.350326     3.342683     3.335040     3.327396     3.319753
      3.312110     3.304467     3.296824     3.289180     3.281537     3.273894     3.266251     3.258607     3.250964     3.243321
      3.235678     3.228034     3.220391     3.212748     3.205105     3.197462     3.189818     3.182175     3.174532     3.166889
      3.159245     3.151602     3.143959     3.136316     3.128673     3.121029     3.113386     3.105743     3.098100     3.090456
      3.082813     3.075170     3.067527     3.059884     3.052240     3.044597     3.036954     3.029311     3.021667     3.014024
      3.006381     2.998738     2.991095     2.983451     2.975808     2.968165     2.960522     2.952878     2.945235     2.937592
      2.929949     2.922306     2.914662     2.907019     2.899376     2.891733     2.884089     2.876446     2.868803     2.861160
      2.853517     2.845873     2.838230     2.830587     2.822944     2.815300     2.807657     2.800014     2.792371     2.784728
      2.777084     2.769441     2.761798     2.754155     2.746511     2.738868     2.731225     2.723582     2.715939     2.708295
      2.700652     2.693009     2.685366     2.677722     2.670079     2.662436     2.654793     2.647150     2.639506     2.631863
      2.624220     2.616577     2.608933     2.601290     2.593647     2.586004     2.578361     2.570717     2.563074     2.555431
      2.547788     2.540144     2.532501     2.524858     2.517215     2.509572     2.501928     2.494285     2.486642     2.478999
      2.471355     2.463712     2.456069     2.448426     2.440783     2.433139     2.425496     2.417853     2.410210     2.402566
      2.394923     2.387280     2.379637     2.371994     2.364350     2.356707     2.349064     2.341421     2.333777     2.326134
      2.318491     2.310848     2.303205     2.295561     2.287918     2.280275     2.272632     2.264988     2.257345     2.249702
      2.242059     2.234416     2.226772     2.219129     2.211486     2.203843     2.196199     2.188556     2.180913     2.173270
      2.165627     2.157983     2.150340     2.142697     2.135054     2.127410     2.119767     2.112124     2.104481     2.096838
      2.089194     2.081551     2.073908     2.066265     2.058621     2.050978     2.043335     2.035692     2.028049     2.020405
      2.012762     2.005119     1.997476     1.989833     1.982190     1.974546     1.966903     1.959260     1.951617     1.943974
      1.936331     1.928688     1.921045     1.913402     1.905759     1.898115     1.890472     1.882829     1.875186     1.867543
      1.859900     1.852257     1.844614     1.836971     1.829327     1.821684     1.814041     1.806398     1.798755     1.791112
      1.783469     1.775826     1.768183     1.760540     1.752896     1.745253     1.737610     1.729967     1.722324     1.714681
      1.707038     1.699395     1.691752     1.684108     1.676465     1.668822     1.661179     1.653536     1.645893     1.638250
      1.630607     1.622964     1.615321     1.607677     1.600034     1.592391     1.584748     1.577105     1.569462     1.561819
      1.554176     1.546533     1.538890     1.531246     1.523603     1.515960     1.508317     1.500674     1.493031     1.485388
      1.477745     1.470102     1.462458     1.454815     1.447172     1.439529     1.431886     1.424243     1.416600     1.408957
      1.401314     1.393671     1.386027     1.378384     1.370741     1.363098     1.355455     1.347812     1.340169     1.332526
      1.324883     1.317240     1.309596     1.301953     1.294310     1.286667     1.279024     1.271381     1.263738     1.256095
      1.248452     1.240808     1.233165     1.225522     1.217879     1.210236     1.202593     1.194950     1.187307     1.179664
      1.172021     1.164377     1.156734     1.149091     1.141448     1.133805     1.126162     1.118519     1.110876     1.103233
      1.095590     1.087946     1.080303     1.072660     1.065017     1.057374     1.049731     1.042088     1.034445     1.026802
      1.019158     1.011515     1.003872     0.996229     0.988586     0.980943     0.973300     0.965657     0.958014     0.950371
      0.942727     0.935084     0.927441     0.919798     0.912155     0.904512     0.896869     0.889226     0.881583     0.873940
      0.866296     0.858653     0.851010     0.843367     0.835724     0.828081     0.820438     0.812795     0.805152     0.797508
      0.789865     0.782222     0.774579     0.766936     0.759293     0.751650     0.744007     0.736364     0.728721     0.721077
      0.713434     0.705791     0.698148     0.690505     0.682862     0.675219     0.667576     0.659933     0.652290     0.644646
      0.637003     0.629360     0.621717     0.614074     0.606431     0.598788     0.591145     0.583502     0.575858     0.568215
      0.560572     0.552929     0.545286     0.537643     0.530000     0.522357     0.514714     0.507071     0.499427     0.491784
      0.484141     0.476498     0.468855     0.461212     0.453569     0.445925     0.438282     0.430639     0.422996     0.415353
      0.407710     0.400067     0.392424     0.384780     0.377137     0.369494     0.361851     0.354208     0.346565     0.338922
      0.331278     0.323635     0.315992     0.308349     0.300706     0.293063     0.285420     0.277777     0.270133     0.262490
      0.254847     0.247204     0.239561     0.231918     0.224275     0.216631     0.208988     0.201345
 NY phased data points follow
   1.08296E+01  1.20445E+01  1.06529E+01  9.65374E+00  1.16028E+01  1.56952E+01  1.80198E+01  1.34765E+01  1.89834E+01  1.64135E+01
   1.89242E+01  1.85089E+01  1.58062E+01  1.74079E+01  1.54946E+01  1.93572E+01  1.63148E+01  1.46291E+01  1.39822E+01  1.17503E+01
   1.32040E+01  1.06178E+01  1.28675E+01  1.27608E+01  1.36323E+01  1.40154E+01  1.22605E+01  1.67684E+01  1.41588E+01  1.31031E+01
   9.96699E+00  1.46344E+01  1.26474E+01  1.50094E+01  1.42525E+01  1.44761E+01  1.32997E+01  1.33780E+01  1.23148E+01  9.93228E+00
   1.43991E+01  9.94196E+00  1.32078E+01  1.49096E+01  1.64624E+01  1.32017E+01  1.68308E+01  1.48769E+01  1.37463E+01  1.29516E+01
   1.34070E+01  1.38451E+01  1.56831E+01  1.28556E+01  1.70851E+01  1.40624E+01  1.07802E+01  1.47299E+01  1.33193E+01  8.01120E+00
   7.86803E+00  8.07093E+00  7.86230E+00  6.16348E+00  4.50468E+00  5.21883E+00  3.63318E+00  5.62863E+00  6.73438E+00  4.10310E+00
   8.56909E+00  5.07494E+00  4.82112E+00  4.08823E+00  6.56160E+00  9.50896E+00  4.67886E+00  9.48491E+00  8.61985E+00  6.36904E+00
   5.15245E+00  6.54165E+00  6.43175E+00  8.17534E+00  5.13898E+00  9.13741E+00  1.10621E+01  8.89492E+00  8.17293E+00  9.59308E+00
   1.05037E+01  1.08950E+01  5.86963E+00  9.30025E+00  4.91652E+00  1.14039E+01  1.21222E+01  1.53128E+01  1.86810E+01  2.53461E+01
   2.95441E+01  2.94270E+01  2.38739E+01  2.36796E+01  2.65638E+01  2.39330E+01  2.24963E+01  2.19325E+01  1.60538E+01  1.59360E+01
   2.13292E+01  1.83386E+01  1.55305E+01  1.52531E+01  1.20889E+01  1.01039E+01  8.54392E+00  9.63673E+00  1.10867E+01  9.44127E+00
   1.43803E+01  1.63748E+01  1.94168E+01  2.18369E+01  2.44324E+01  2.69389E+01  2.43481E+01  2.73583E+01  2.06748E+01  2.44495E+01
   1.79116E+01  2.10433E+01  1.98155E+01  1.99860E+01  1.90590E+01  1.53151E+01  1.62875E+01  1.39360E+01  1.31207E+01  1.00168E+01
   9.58751E+00  9.78875E+00  7.62713E+00  7.45421E+00  6.37722E+00  5.53716E+00  8.28422E+00  5.35063E+00  4.66430E+00  6.76632E+00
   3.45244E+00  1.32133E+00  3.08045E+00  2.24102E+00  4.34829E+00  3.82425E+00  4.75395E+00  4.85375E+00  1.35433E-01  1.56804E+00
   3.62225E+00  4.13096E+00  1.97673E+00  6.71119E-02  2.26871E+00  2.84090E+00 -2.08384E+00  3.36110E+00 -9.80568E-01  1.96862E-01
  -1.21964E-01 -1.18868E+00 -2.03573E+00 -2.31783E+00 -6.49041E+00 -3.29611E+00 -2.31605E+00 -4.46255E+00 -3.02377E+00 -4.02743E+00
  -3.56506E+00 -5.63311E+00 -3.42534E+00 -4.39967E+00 -2.65628E+00 -2.11448E+00  9.49735E-02 -1.31533E+00  3.93739E-01 -1.83324E+00
   5.65572E-01 -2.44218E+00  2.92674E+00  8.92181E-02 -3.06712E+00  1.24821E+00 -5.59892E-01 -2.25387E+00  3.15588E-01  2.74177E+00
   4.09385E+00  1.48197E+00 -6.04337E-01  3.40831E+00  2.88959E+00  2.44215E+00  1.16229E+00  8.99603E-01  1.44419E+00  1.07921E+00
   3.36017E+00  7.10565E+00  3.81590E+00  3.51802E+00  7.47304E+00  9.91430E+00  4.21194E+00  5.79665E+00  4.86155E+00  3.00036E+00
   5.51739E+00  4.74436E+00  4.45300E+00  5.92817E+00  5.43525E+00  3.81865E+00  7.73989E+00  6.70698E+00  6.84043E+00  6.04439E+00
   7.76912E+00  9.32593E+00  7.10118E+00  9.34168E+00  1.00255E+01  1.20954E+01  8.52659E+00  9.09812E+00  1.01202E+01  8.50063E+00
   8.29068E+00  1.04708E+01  9.87148E+00  1.08192E+01  1.02614E+01  1.07616E+01  1.08501E+01  1.05858E+01  1.30539E+01  1.56805E+01
   1.48066E+01  1.83243E+01  1.76297E+01  1.76593E+01  2.23758E+01  3.02165E+01  3.44239E+01  4.00365E+01  4.07185E+01  3.83235E+01
   3.80425E+01  4.38697E+01  3.98808E+01  4.12034E+01  3.97750E+01  3.42870E+01  3.39272E+01  3.38577E+01  2.91163E+01  2.26481E+01
   2.64515E+01  2.06158E+01  2.02758E+01  1.78867E+01  1.51350E+01  1.45742E+01  1.48774E+01  1.28065E+01  1.29646E+01  1.11953E+01
   1.08282E+01  8.15471E+00  6.53962E+00  7.51660E+00  7.90508E+00  8.50319E+00  7.13648E+00  7.96941E+00  6.10417E+00  7.69481E+00
   5.64810E+00  6.51476E+00  4.76013E+00  6.61536E+00  2.78717E+00  3.77647E+00  3.94469E+00  4.04099E+00  5.67094E+00  5.12814E+00
   3.83841E+00  2.83577E+00  4.68837E+00  6.44251E+00  4.68007E+00  5.15660E+00  4.16441E+00  2.25898E+00  5.66167E+00  3.99396E+00
   4.74433E+00 -7.16635E-01  1.86370E+00  1.41212E+00  1.95802E+00 -4.84488E+00  5.12452E-01  2.04325E-02  5.06440E-01  3.80007E+00
  -1.06173E+00  2.34745E+00  7.67823E-01  5.42241E+00  5.38762E+00  4.70146E+00  1.73614E+00 -1.73407E+00 -3.71430E+00 -3.63880E+00
  -4.09195E+00 -9.48174E+00 -4.91197E+00 -9.11689E+00 -7.90039E+00 -6.54385E+00 -5.50024E+00 -5.69053E+00 -5.26793E+00 -2.35156E+00
   6.69147E-01  3.12385E-01  1.35577E+00 -3.54793E+00 -1.16806E-01 -2.34009E+00 -2.78277E+00 -6.89965E+00 -3.98975E+00 -2.38129E+00
  -2.97952E+00 -2.03609E+00  1.84494E+00  2.68037E+00  3.94809E+00  2.79404E+00 -2.93059E+00 -2.15410E-01 -9.81251E-01 -2.73241E+00
  -4.64795E+00 -2.86543E+00 -5.35813E+00 -6.23886E+00 -8.67231E+00 -6.13903E+00 -2.64607E+00 -4.73270E+00 -7.11532E-01 -5.73388E+00
  -4.52976E+00 -1.30260E+00 -2.68814E+00 -4.39619E+00 -2.96864E+00 -2.23798E+00 -2.71823E+00 -2.85296E+00 -1.49550E+00 -2.24432E+00
  -3.10618E+00 -2.74998E+00 -2.02898E+00  2.07140E-01 -9.42476E-02 -2.52239E+00 -4.99145E+00 -2.12653E+00 -6.03575E+00 -4.43307E+00
  -2.20725E+00 -3.94301E+00 -4.35979E+00 -2.22142E+00 -4.88290E+00 -5.28606E+00 -1.99753E+00  1.02205E+00 -1.39986E-01 -2.36595E+00
  -2.62704E+00  7.43494E-01 -8.85075E-01 -2.16816E+00  3.38201E+00  2.76720E+00 -1.23132E+00 -7.46598E-01 -3.50319E+00 -1.77112E+00
   5.72160E-01 -1.01977E+00 -8.45990E-01 -5.12429E+00  1.65497E+00 -5.01538E+00 -1.03913E+00 -2.26341E+00 -3.40790E+00 -3.75239E-01
  -3.22602E+00 -2.60207E+00 -3.73923E+00 -5.11906E-01 -2.59247E+00 -4.30282E+00 -3.69607E+00 -6.16054E+00 -2.79909E+00 -1.60789E+00
  -1.39405E+00 -5.57919E+00 -3.64819E+00 -2.98127E+00 -3.72228E+00 -3.31473E+00 -5.59514E+00  1.11851E+00 -3.84541E+00  9.17558E-01
  -2.36364E+00  3.65710E-01 -2.97471E+00 -5.29549E-01 -2.75260E+00 -1.96640E+00 -1.70087E+00  4.28369E-01  1.85615E+00  1.88393E-01
  -2.73060E+00 -3.40416E-02 -1.61967E+00  4.46663E-01 -7.26301E+00 -1.94025E+00 -1.05992E-01 -1.01450E+00 -3.54735E-02 -8.93380E-01
   2.45334E+00  2.18616E+00 -1.61110E+00  5.40476E-01  6.44335E-01 -3.98745E+00 -3.41679E+00  1.29583E+00 -3.81415E-02  2.93560E+00
   1.30363E+00  8.18359E-01 -1.43983E+00 -2.05309E+00 -8.04186E-01 -1.46854E+00 -3.00071E-01  9.96060E-01  1.87449E+00 -9.05511E-01
  -1.29580E+00 -7.16391E-02  1.56087E+00  1.36767E+00  2.16951E+00 -2.16720E-01 -4.57892E-01  1.21732E+00  3.10684E-01 -1.02187E+00
   3.42352E+00 -1.86440E+00 -1.78497E-01  2.65716E+00  2.10620E-01  1.70419E+00 -6.42339E-01  2.89772E+00
 NY points of the fit to the data follow
   9.02056E+00  9.90802E+00  1.05805E+01  1.22483E+01  1.31066E+01  1.47458E+01  1.54327E+01  1.63030E+01  1.68722E+01  1.71721E+01
   1.74331E+01  1.77525E+01  1.76191E+01  1.71056E+01  1.65489E+01  1.59780E+01  1.56036E+01  1.53116E+01  1.51409E+01  1.48773E+01
   1.39479E+01  1.34446E+01  1.19519E+01  1.17038E+01  1.09889E+01  1.14300E+01  1.21429E+01  1.33345E+01  1.39386E+01  1.46665E+01
   1.43997E+01  1.44742E+01  1.39623E+01  1.41148E+01  1.41139E+01  1.44120E+01  1.43149E+01  1.41532E+01  1.39235E+01  1.37136E+01
   1.37824E+01  1.37904E+01  1.45968E+01  1.49907E+01  1.59649E+01  1.57842E+01  1.58241E+01  1.48366E+01  1.42943E+01  1.33605E+01
   1.31960E+01  1.25527E+01  1.26558E+01  1.21453E+01  1.22516E+01  1.13489E+01  1.10152E+01  1.01972E+01  9.83020E+00  9.02861E+00
   8.66350E+00  8.07392E+00  7.83042E+00  7.17788E+00  6.81495E+00  6.28479E+00  6.45520E+00  6.42310E+00  6.63815E+00  6.61316E+00
   6.69050E+00  6.64622E+00  6.90317E+00  7.03180E+00  6.97671E+00  7.04866E+00  6.73392E+00  6.88643E+00  6.77567E+00  7.31631E+00
   7.28940E+00  8.12637E+00  7.54238E+00  8.39052E+00  7.02562E+00  7.73639E+00  6.23167E+00  7.14733E+00  5.90819E+00  8.33259E+00
   7.19998E+00  9.07078E+00  7.90883E+00  1.00505E+01  9.28317E+00  1.28064E+01  1.28894E+01  1.78715E+01  1.83406E+01  2.27074E+01
   2.26832E+01  2.48635E+01  2.40355E+01  2.52067E+01  2.46400E+01  2.50333E+01  2.39448E+01  2.29140E+01  2.14757E+01  1.99625E+01
   1.83773E+01  1.62816E+01  1.50926E+01  1.43013E+01  1.33006E+01  1.26525E+01  1.18564E+01  1.19893E+01  1.14500E+01  1.19877E+01
   1.22564E+01  1.66354E+01  1.71631E+01  2.15260E+01  2.11487E+01  2.40924E+01  2.30904E+01  2.53621E+01  2.39214E+01  2.51391E+01
   2.31461E+01  2.29814E+01  2.08255E+01  2.01101E+01  1.80907E+01  1.66889E+01  1.50570E+01  1.33802E+01  1.21283E+01  1.05682E+01
   9.67801E+00  8.24754E+00  7.30622E+00  4.89566E+00  4.65005E+00  4.07797E+00  4.16798E+00  3.72256E+00  3.74352E+00  3.37920E+00
   3.33787E+00  3.19325E+00  3.18088E+00  3.05258E+00  2.90680E+00  2.71899E+00  2.37823E+00  2.26453E+00  1.91615E+00  1.90574E+00
   1.66203E+00  1.58147E+00  1.31225E+00  1.12971E+00  8.82570E-01  7.41720E-01  5.44569E-01  3.48642E-01  1.09192E-01 -1.46411E-01
  -3.23018E-01 -5.86346E-01 -7.52654E-01 -9.84655E-01 -1.16495E+00 -1.24869E+00 -1.36244E+00 -1.29154E+00 -1.27674E+00 -1.18984E+00
  -1.30840E+00 -1.14063E+00 -1.42076E+00 -1.00967E+00 -1.15532E+00 -5.52286E-01 -6.80076E-01  9.52595E-02 -2.87656E-01  4.69407E-01
  -2.60873E-01  8.70188E-01  1.96808E-01  1.52754E+00  1.05355E+00  2.45880E+00  1.65231E+00  3.96185E+00  3.52904E+00  5.74732E+00
   4.56022E+00  6.31472E+00  4.32675E+00  5.18034E+00  1.87027E+00  3.06187E+00  6.42515E-02  2.10676E+00  4.64375E-01  2.55217E+00
   2.56418E+00  4.42149E+00  4.68554E+00  5.47230E+00  5.03478E+00  4.70813E+00  3.91771E+00  3.09940E+00  2.81340E+00  2.76196E+00
   3.16173E+00  3.40707E+00  3.45279E+00  4.42951E+00  4.55620E+00  6.13884E+00  6.77209E+00  7.77137E+00  6.56895E+00  7.44129E+00
   6.17610E+00  7.39831E+00  5.69689E+00  7.91896E+00  7.33500E+00  8.99739E+00  8.20183E+00  8.79795E+00  8.53622E+00  8.15491E+00
   7.67468E+00  6.48263E+00  6.91328E+00  5.35868E+00  6.23295E+00  4.87322E+00  7.09249E+00  8.17786E+00  1.11590E+01  1.19534E+01
   1.52149E+01  1.65406E+01  2.03002E+01  2.26698E+01  2.61165E+01  3.02692E+01  3.33352E+01  3.71177E+01  3.88511E+01  4.11834E+01
   4.10441E+01  4.22005E+01  4.09305E+01  4.09937E+01  3.83841E+01  3.71083E+01  3.40603E+01  3.23748E+01  2.91188E+01  2.68398E+01
   2.37360E+01  2.13437E+01  1.84142E+01  1.68068E+01  1.49227E+01  1.35915E+01  1.14890E+01  8.80609E+00  7.62530E+00  7.17069E+00
   6.67611E+00  6.46012E+00  6.23945E+00  5.95947E+00  5.79828E+00  5.59259E+00  5.49988E+00  5.31045E+00  5.23918E+00  5.02933E+00
   4.87865E+00  4.69331E+00  4.57967E+00  4.43298E+00  4.34802E+00  4.22535E+00  4.14590E+00  4.04629E+00  3.94130E+00  3.81334E+00
   3.69077E+00  3.54074E+00  3.38976E+00  3.23056E+00  3.07798E+00  2.91140E+00  2.75087E+00  2.58772E+00  2.42544E+00  2.26814E+00
   2.12660E+00  1.99613E+00  1.89690E+00  1.84995E+00  1.74866E+00  1.62108E+00  1.54073E+00  1.43248E+00  1.39698E+00  1.31940E+00
   1.27818E+00  1.18706E+00  1.23622E+00  9.14706E-01  9.14041E-01  3.55271E-01  3.73206E-01 -2.14397E-01 -5.38436E-02 -6.41182E-01
  -2.37483E-01 -8.48399E-01 -2.64386E-01 -8.82574E-01 -3.12858E-01 -9.27159E-01 -3.55302E-01 -9.00930E-01 -3.61769E-01 -8.53241E-01
  -4.38290E-01 -8.71731E-01 -5.73052E-01 -9.99100E-01 -7.64193E-01 -9.38113E-01 -7.84639E-01 -9.23096E-01 -8.07245E-01 -8.65058E-01
  -7.39615E-01 -8.05444E-01 -8.68407E-01 -8.87936E-01 -9.17310E-01 -9.73015E-01 -1.07204E+00 -1.21046E+00 -1.38968E+00 -1.59347E+00
  -1.81507E+00 -2.03495E+00 -2.24767E+00 -2.43864E+00 -2.60934E+00 -2.75239E+00 -2.87543E+00 -2.97540E+00 -3.06217E+00 -3.13319E+00
  -3.19756E+00 -3.25136E+00 -3.30206E+00 -3.34419E+00 -3.38392E+00 -3.41479E+00 -3.44224E+00 -3.45937E+00 -3.47133E+00 -3.47100E+00
  -3.46338E+00 -3.44131E+00 -3.40977E+00 -3.36165E+00 -3.30204E+00 -3.22402E+00 -3.13294E+00 -3.02228E+00 -2.89792E+00 -2.75404E+00
  -2.59732E+00 -2.42291E+00 -2.23856E+00 -2.04056E+00 -1.83788E+00 -1.62801E+00 -1.42096E+00 -1.21508E+00 -1.02104E+00 -8.37509E-01
  -6.75074E-01 -5.31972E-01 -4.17877E-01 -3.29736E-01 -2.75611E-01 -2.50587E-01 -2.60688E-01 -2.98919E-01 -3.69263E-01 -4.62883E-01
  -5.82198E-01 -7.17155E-01 -8.69341E-01 -1.02827E+00 -1.19550E+00 -1.36089E+00 -1.52665E+00 -1.68358E+00 -1.83492E+00 -1.97262E+00
  -2.10109E+00 -2.21342E+00 -2.31504E+00 -2.39998E+00 -2.47439E+00 -2.53293E+00 -2.58218E+00 -2.61713E+00 -2.64457E+00 -2.65956E+00
  -2.66891E+00 -2.66762E+00 -2.66238E+00 -2.64810E+00 -2.63133E+00 -2.60682E+00 -2.58098E+00 -2.54841E+00 -2.51542E+00 -2.47647E+00
  -2.43781E+00 -2.39380E+00 -2.35058E+00 -2.30246E+00 -2.25555E+00 -2.20409E+00 -2.15416E+00 -2.09996E+00 -2.04753E+00 -1.99104E+00
  -1.93653E+00 -1.87815E+00 -1.82192E+00 -1.76197E+00 -1.70428E+00 -1.64297E+00 -1.58400E+00 -1.52151E+00 -1.46142E+00 -1.39787E+00
  -1.33678E+00 -1.27229E+00 -1.21031E+00 -1.14499E+00 -1.08221E+00 -1.01615E+00 -9.52654E-01 -8.85918E-01 -8.21789E-01 -7.54455E-01
  -6.89748E-01 -6.21868E-01 -5.56645E-01 -4.88285E-01 -4.22607E-01 -3.53813E-01 -2.87716E-01 -2.18531E-01 -1.52067E-01 -8.25378E-02
  -1.57513E-02  5.40857E-02  1.21168E-01  1.91282E-01  2.58625E-01  3.28983E-01  3.96566E-01  4.67151E-01  5.34955E-01  6.05754E-01
   6.73764E-01  7.44768E-01  8.12995E-01  8.84223E-01  9.52691E-01  1.02418E+00  1.09294E+00  1.16477E+00
 NY background values follow
    -2.121E+00   -2.090E+00   -2.058E+00   -2.027E+00   -1.996E+00   -1.964E+00   -1.933E+00   -1.901E+00   -1.870E+00   -1.838E+00
    -1.807E+00   -1.775E+00   -1.743E+00   -1.712E+00   -1.680E+00   -1.648E+00   -1.616E+00   -1.585E+00   -1.553E+00   -1.521E+00
    -1.489E+00   -1.457E+00   -1.425E+00   -1.393E+00   -1.360E+00   -1.328E+00   -1.296E+00   -1.264E+00   -1.231E+00   -1.199E+00
    -1.167E+00   -1.134E+00   -1.102E+00   -1.069E+00   -1.037E+00   -1.004E+00   -9.713E-01   -9.386E-01   -9.058E-01   -8.730E-01
    -8.401E-01   -8.072E-01   -7.743E-01   -7.413E-01   -7.082E-01   -6.751E-01   -6.420E-01   -6.088E-01   -5.756E-01   -5.423E-01
    -5.090E-01   -4.756E-01   -4.422E-01   -4.088E-01   -3.753E-01   -3.418E-01   -3.083E-01   -2.747E-01   -2.412E-01   -2.076E-01
    -1.740E-01   -1.404E-01   -1.067E-01   -7.309E-02   -3.943E-02   -5.770E-03    2.790E-02    6.157E-02    9.524E-02    1.289E-01
     1.626E-01    1.962E-01    2.299E-01    2.635E-01    2.971E-01    3.308E-01    3.644E-01    3.979E-01    4.315E-01    4.650E-01
     4.985E-01    5.320E-01    5.654E-01    5.988E-01    6.322E-01    6.655E-01    6.988E-01    7.321E-01    7.653E-01    7.985E-01
     8.316E-01    8.646E-01    8.977E-01    9.306E-01    9.635E-01    9.963E-01    1.029E+00    1.062E+00    1.094E+00    1.127E+00
     1.159E+00    1.191E+00    1.224E+00    1.256E+00    1.288E+00    1.319E+00    1.351E+00    1.383E+00    1.414E+00    1.445E+00
     1.476E+00    1.507E+00    1.538E+00    1.569E+00    1.599E+00    1.630E+00    1.660E+00    1.690E+00    1.719E+00    1.749E+00
     1.778E+00    1.807E+00    1.836E+00    1.865E+00    1.893E+00    1.922E+00    1.950E+00    1.977E+00    2.005E+00    2.032E+00
     2.059E+00    2.086E+00    2.112E+00    2.139E+00    2.165E+00    2.190E+00    2.216E+00    2.241E+00    2.266E+00    2.290E+00
     2.314E+00    2.339E+00    2.362E+00    2.386E+00    2.410E+00    2.433E+00    2.456E+00    2.479E+00    2.502E+00    2.524E+00
     2.547E+00    2.569E+00    2.592E+00    2.614E+00    2.636E+00    2.658E+00    2.680E+00    2.702E+00    2.724E+00    2.746E+00
     2.768E+00    2.790E+00    2.812E+00    2.834E+00    2.856E+00    2.878E+00    2.900E+00    2.923E+00    2.945E+00    2.968E+00
     2.990E+00    3.013E+00    3.036E+00    3.059E+00    3.082E+00    3.106E+00    3.129E+00    3.153E+00    3.177E+00    3.202E+00
     3.226E+00    3.251E+00    3.276E+00    3.301E+00    3.327E+00    3.352E+00    3.378E+00    3.404E+00    3.430E+00    3.455E+00
     3.481E+00    3.507E+00    3.533E+00    3.558E+00    3.584E+00    3.609E+00    3.634E+00    3.658E+00    3.683E+00    3.707E+00
     3.730E+00    3.754E+00    3.776E+00    3.799E+00    3.820E+00    3.842E+00    3.862E+00    3.882E+00    3.901E+00    3.920E+00
     3.938E+00    3.955E+00    3.971E+00    3.987E+00    4.001E+00    4.015E+00    4.028E+00    4.039E+00    4.050E+00    4.060E+00
     4.068E+00    4.076E+00    4.082E+00    4.087E+00    4.091E+00    4.093E+00    4.095E+00    4.095E+00    4.093E+00    4.090E+00
     4.086E+00    4.081E+00    4.074E+00    4.065E+00    4.056E+00    4.045E+00    4.032E+00    4.018E+00    4.002E+00    3.985E+00
     3.967E+00    3.947E+00    3.926E+00    3.903E+00    3.878E+00    3.852E+00    3.825E+00    3.796E+00    3.765E+00    3.733E+00
     3.699E+00    3.664E+00    3.627E+00    3.588E+00    3.548E+00    3.506E+00    3.462E+00    3.417E+00    3.370E+00    3.322E+00
     3.271E+00    3.220E+00    3.166E+00    3.110E+00    3.053E+00    2.994E+00    2.934E+00    2.871E+00    2.807E+00    2.741E+00
     2.674E+00    2.604E+00    2.533E+00    2.459E+00    2.384E+00    2.308E+00    2.230E+00    2.150E+00    2.069E+00    1.986E+00
     1.902E+00    1.817E+00    1.730E+00    1.642E+00    1.553E+00    1.463E+00    1.371E+00    1.279E+00    1.186E+00    1.092E+00
     9.965E-01    9.007E-01    8.041E-01    7.068E-01    6.089E-01    5.104E-01    4.114E-01    3.119E-01    2.120E-01    1.117E-01
     1.111E-02   -8.974E-02   -1.908E-01   -2.920E-01   -3.933E-01   -4.946E-01   -5.959E-01   -6.972E-01   -7.983E-01   -8.992E-01
    -9.999E-01   -1.100E+00   -1.200E+00   -1.300E+00   -1.399E+00   -1.498E+00   -1.596E+00   -1.694E+00   -1.791E+00   -1.887E+00
    -1.983E+00   -2.077E+00   -2.171E+00   -2.265E+00   -2.357E+00   -2.449E+00   -2.539E+00   -2.629E+00   -2.718E+00   -2.806E+00
    -2.892E+00   -2.978E+00   -3.063E+00   -3.147E+00   -3.229E+00   -3.310E+00   -3.391E+00   -3.470E+00   -3.547E+00   -3.624E+00
    -3.699E+00   -3.773E+00   -3.845E+00   -3.916E+00   -3.986E+00   -4.054E+00   -4.121E+00   -4.186E+00   -4.250E+00   -4.312E+00
    -4.372E+00   -4.431E+00   -4.488E+00   -4.544E+00   -4.598E+00   -4.650E+00   -4.700E+00   -4.748E+00   -4.795E+00   -4.840E+00
    -4.883E+00   -4.924E+00   -4.963E+00   -5.000E+00   -5.035E+00   -5.068E+00   -5.099E+00   -5.129E+00   -5.156E+00   -5.182E+00
    -5.205E+00   -5.227E+00   -5.247E+00   -5.265E+00   -5.282E+00   -5.297E+00   -5.309E+00   -5.320E+00   -5.330E+00   -5.338E+00
    -5.343E+00   -5.348E+00   -5.350E+00   -5.351E+00   -5.350E+00   -5.348E+00   -5.344E+00   -5.338E+00   -5.331E+00   -5.322E+00
    -5.312E+00   -5.300E+00   -5.286E+00   -5.271E+00   -5.255E+00   -5.237E+00   -5.217E+00   -5.196E+00   -5.174E+00   -5.150E+00
    -5.124E+00   -5.098E+00   -5.070E+00   -5.040E+00   -5.009E+00   -4.977E+00   -4.944E+00   -4.909E+00   -4.873E+00   -4.835E+00
    -4.796E+00   -4.757E+00   -4.715E+00   -4.673E+00   -4.630E+00   -4.585E+00   -4.539E+00   -4.493E+00   -4.445E+00   -4.396E+00
    -4.346E+00   -4.295E+00   -4.243E+00   -4.190E+00   -4.137E+00   -4.082E+00   -4.027E+00   -3.970E+00   -3.913E+00   -3.855E+00
    -3.797E+00   -3.737E+00   -3.677E+00   -3.616E+00   -3.555E+00   -3.493E+00   -3.430E+00   -3.366E+00   -3.302E+00   -3.238E+00
    -3.173E+00   -3.107E+00   -3.041E+00   -2.975E+00   -2.908E+00   -2.841E+00   -2.773E+00   -2.705E+00   -2.637E+00   -2.568E+00
    -2.499E+00   -2.430E+00   -2.360E+00   -2.291E+00   -2.221E+00   -2.151E+00   -2.081E+00   -2.010E+00   -1.939E+00   -1.869E+00
    -1.798E+00   -1.727E+00   -1.655E+00   -1.584E+00   -1.512E+00   -1.440E+00   -1.369E+00   -1.297E+00   -1.225E+00   -1.152E+00
    -1.080E+00   -1.008E+00   -9.352E-01   -8.627E-01   -7.900E-01   -7.173E-01   -6.446E-01   -5.717E-01   -4.988E-01   -4.259E-01
    -3.530E-01   -2.800E-01   -2.070E-01   -1.340E-01   -6.091E-02    1.213E-02    8.517E-02    1.582E-01    2.312E-01    3.042E-01
     3.772E-01    4.501E-01    5.230E-01    5.958E-01    6.686E-01    7.413E-01    8.140E-01    8.865E-01
 Ala      Conc. = 2.66E+02
