 LCModel (Version 6.3-1L) Copyright: S.W. Provencher.          Ref.: Magn. Reson. Med. 30:672-679 (1993).                
 Slice#1 Row#5 Col#8  PD_24_press_1_raw_act
 36 lines in following concentration table = NCONC+1
    Conc.  %SD /Cr+PCr  Metabolite                                         
   85.372 180%   0.105 Ala                                                 
   75.502 230% 9.3E-02 Asp                                                 
  629.386  35%   0.777 Cr                                                  
  180.995 126%   0.223 PCr                                                 
   93.840 117%   0.116 GABA                                                
  147.984  73%   0.183 Glc                                                 
  642.100  49%   0.792 Gln                                                 
 1.18E+03  30%   1.451 Glu                                                 
  483.125   5%   0.596 GPC                                                 
    0.000 999%   0.000 PCh                                                 
  318.224  28%   0.393 GSH                                                 
 1.63E+03  18%   2.006 Ins                                                 
    0.000 999%   0.000 Lac                                                 
 1.22E+03  10%   1.507 NAA                                                 
  328.719  42%   0.406 NAAG                                                
  116.325  23%   0.144 Scyllo                                              
  191.686  85%   0.237 Tau                                                 
    0.000 999%   0.000 -CrCH2                                              
  483.125   5%   0.596 GPC+PCh                                             
 1.55E+03   6%   1.912 NAA+NAAG                                            
  810.381   8%   1.000 Cr+PCr                                              
 1.82E+03  29%   2.244 Glu+Gln                                             
 3.98E+03  22%   4.907 Lip13a                                              
    0.000 999%   0.000 Lip13b                                              
  762.500  58%   0.941 Lip09                                               
 1.01E+03  40%   1.246 MM09                                                
  256.555 114%   0.317 Lip20                                               
 2.35E+03  20%   2.900 MM20                                                
  277.446 111%   0.342 MM12                                                
 2.89E+03  27%   3.570 MM14                                                
  886.301  33%   1.094 MM17                                                
 3.98E+03  22%   4.907 Lip13a+Lip13b                                       
 7.15E+03   6%   8.820 MM14+Lip13a+Lip13b+MM12                             
 1.77E+03  13%   2.187 MM09+Lip09                                          
 2.61E+03  16%   3.217 MM20+Lip20                                          
   6 lines in following misc. output table
  FWHM = 0.069 ppm    S/N =   6                                            
  Data shift =-0.031 ppm                                                   
  Ph: -33 deg       2.7 deg/ppm                                            
  alphaB,S = 8.5E+01,   1.5E+02                                            
   14 spline knots.   Ns = 7(1)                                            
   4 inflections.     1 extrema                                            
  498 points on ppm-axis = NY
      4.000000     3.992357     3.984714     3.977070     3.969427     3.961784     3.954141     3.946497     3.938854     3.931211
      3.923568     3.915925     3.908281     3.900638     3.892995     3.885352     3.877708     3.870065     3.862422     3.854779
      3.847136     3.839492     3.831849     3.824206     3.816563     3.808919     3.801276     3.793633     3.785990     3.778347
      3.770703     3.763060     3.755417     3.747774     3.740130     3.732487     3.724844     3.717201     3.709558     3.701914
      3.694271     3.686628     3.678985     3.671341     3.663698     3.656055     3.648412     3.640769     3.633125     3.625482
      3.617839     3.610196     3.602552     3.594909     3.587266     3.579623     3.571980     3.564336     3.556693     3.549050
      3.541407     3.533763     3.526120     3.518477     3.510834     3.503191     3.495547     3.487904     3.480261     3.472618
      3.464974     3.457331     3.449688     3.442045     3.434402     3.426758     3.419115     3.411472     3.403829     3.396185
      3.388542     3.380899     3.373256     3.365613     3.357969     3.350326     3.342683     3.335040     3.327396     3.319753
      3.312110     3.304467     3.296824     3.289180     3.281537     3.273894     3.266251     3.258607     3.250964     3.243321
      3.235678     3.228034     3.220391     3.212748     3.205105     3.197462     3.189818     3.182175     3.174532     3.166889
      3.159245     3.151602     3.143959     3.136316     3.128673     3.121029     3.113386     3.105743     3.098100     3.090456
      3.082813     3.075170     3.067527     3.059884     3.052240     3.044597     3.036954     3.029311     3.021667     3.014024
      3.006381     2.998738     2.991095     2.983451     2.975808     2.968165     2.960522     2.952878     2.945235     2.937592
      2.929949     2.922306     2.914662     2.907019     2.899376     2.891733     2.884089     2.876446     2.868803     2.861160
      2.853517     2.845873     2.838230     2.830587     2.822944     2.815300     2.807657     2.800014     2.792371     2.784728
      2.777084     2.769441     2.761798     2.754155     2.746511     2.738868     2.731225     2.723582     2.715939     2.708295
      2.700652     2.693009     2.685366     2.677722     2.670079     2.662436     2.654793     2.647150     2.639506     2.631863
      2.624220     2.616577     2.608933     2.601290     2.593647     2.586004     2.578361     2.570717     2.563074     2.555431
      2.547788     2.540144     2.532501     2.524858     2.517215     2.509572     2.501928     2.494285     2.486642     2.478999
      2.471355     2.463712     2.456069     2.448426     2.440783     2.433139     2.425496     2.417853     2.410210     2.402566
      2.394923     2.387280     2.379637     2.371994     2.364350     2.356707     2.349064     2.341421     2.333777     2.326134
      2.318491     2.310848     2.303205     2.295561     2.287918     2.280275     2.272632     2.264988     2.257345     2.249702
      2.242059     2.234416     2.226772     2.219129     2.211486     2.203843     2.196199     2.188556     2.180913     2.173270
      2.165627     2.157983     2.150340     2.142697     2.135054     2.127410     2.119767     2.112124     2.104481     2.096838
      2.089194     2.081551     2.073908     2.066265     2.058621     2.050978     2.043335     2.035692     2.028049     2.020405
      2.012762     2.005119     1.997476     1.989833     1.982190     1.974546     1.966903     1.959260     1.951617     1.943974
      1.936331     1.928688     1.921045     1.913402     1.905759     1.898115     1.890472     1.882829     1.875186     1.867543
      1.859900     1.852257     1.844614     1.836971     1.829327     1.821684     1.814041     1.806398     1.798755     1.791112
      1.783469     1.775826     1.768183     1.760540     1.752896     1.745253     1.737610     1.729967     1.722324     1.714681
      1.707038     1.699395     1.691752     1.684108     1.676465     1.668822     1.661179     1.653536     1.645893     1.638250
      1.630607     1.622964     1.615321     1.607677     1.600034     1.592391     1.584748     1.577105     1.569462     1.561819
      1.554176     1.546533     1.538890     1.531246     1.523603     1.515960     1.508317     1.500674     1.493031     1.485388
      1.477745     1.470102     1.462458     1.454815     1.447172     1.439529     1.431886     1.424243     1.416600     1.408957
      1.401314     1.393671     1.386027     1.378384     1.370741     1.363098     1.355455     1.347812     1.340169     1.332526
      1.324883     1.317240     1.309596     1.301953     1.294310     1.286667     1.279024     1.271381     1.263738     1.256095
      1.248452     1.240808     1.233165     1.225522     1.217879     1.210236     1.202593     1.194950     1.187307     1.179664
      1.172021     1.164377     1.156734     1.149091     1.141448     1.133805     1.126162     1.118519     1.110876     1.103233
      1.095590     1.087946     1.080303     1.072660     1.065017     1.057374     1.049731     1.042088     1.034445     1.026802
      1.019158     1.011515     1.003872     0.996229     0.988586     0.980943     0.973300     0.965657     0.958014     0.950371
      0.942727     0.935084     0.927441     0.919798     0.912155     0.904512     0.896869     0.889226     0.881583     0.873940
      0.866296     0.858653     0.851010     0.843367     0.835724     0.828081     0.820438     0.812795     0.805152     0.797508
      0.789865     0.782222     0.774579     0.766936     0.759293     0.751650     0.744007     0.736364     0.728721     0.721077
      0.713434     0.705791     0.698148     0.690505     0.682862     0.675219     0.667576     0.659933     0.652290     0.644646
      0.637003     0.629360     0.621717     0.614074     0.606431     0.598788     0.591145     0.583502     0.575858     0.568215
      0.560572     0.552929     0.545286     0.537643     0.530000     0.522357     0.514714     0.507071     0.499427     0.491784
      0.484141     0.476498     0.468855     0.461212     0.453569     0.445925     0.438282     0.430639     0.422996     0.415353
      0.407710     0.400067     0.392424     0.384780     0.377137     0.369494     0.361851     0.354208     0.346565     0.338922
      0.331278     0.323635     0.315992     0.308349     0.300706     0.293063     0.285420     0.277777     0.270133     0.262490
      0.254847     0.247204     0.239561     0.231918     0.224275     0.216631     0.208988     0.201345
 NY phased data points follow
  -3.82518E+00  1.30792E+01  1.39126E+00  6.89481E+00  5.87484E+00  7.72047E+00  8.64489E+00  2.06116E+01  1.63817E+01  1.87635E+01
   1.76491E+01  2.64417E+01  1.56097E+01  2.49276E+01  1.06699E+01  2.07304E+01  1.11586E+01  7.30535E+00  9.62354E+00  1.61590E+01
   1.30734E+01  1.43664E+01  6.61316E+00  1.48853E+01  1.76345E+00  1.11849E+01  7.92404E-01  1.61072E+01  8.17036E+00  1.26999E+01
   8.46217E+00  1.29880E+01  7.78900E+00  1.22214E+01  1.20120E+01  8.87773E+00  7.82390E+00  1.69761E+01  1.17623E+01  1.43389E+01
   5.83875E+00  1.06957E+01  6.55704E+00  1.49824E+01  9.72607E+00  2.11864E+01  8.98635E+00  1.09702E+01  1.02618E+01  2.07086E+01
   1.44860E+01  1.01052E+01  6.60633E+00  1.08265E+01  2.74118E+00  9.83533E+00  6.02235E+00  8.09501E+00  5.67662E+00  8.82369E+00
   6.55771E+00  6.89347E+00  6.52186E-01  7.45342E+00  3.84136E+00  6.30751E+00 -4.45195E+00  1.55411E+00 -1.60177E+00  7.01757E+00
  -2.03559E+00  6.82522E+00  4.96541E+00  1.01189E+01  2.70767E+00  1.30370E+01  5.21694E+00  4.63227E+00  1.26477E-01  9.49889E+00
   4.73469E+00  7.89527E+00  1.02382E+00  8.75075E+00  6.01864E+00  5.51719E+00  8.35765E+00  9.89318E+00  2.86837E+00  1.04183E+01
   4.67236E+00  9.41350E+00  3.66905E+00  7.21805E+00  5.61440E+00  9.85256E+00  3.34795E+00  7.10084E+00  9.08486E-02  1.50605E+01
   2.04578E+01  3.70619E+01  4.00796E+01  4.76303E+01  4.18827E+01  3.73292E+01  2.39027E+01  2.33174E+01  1.55109E+01  2.02010E+01
   1.16174E+01  4.71802E+00  4.50823E+00  8.20419E+00 -1.52009E+00  5.34759E+00  4.03949E+00  5.35117E+00  6.31674E+00  7.88258E+00
  -7.06835E-01  3.06568E+00  4.39159E+00  5.64128E+00  1.56095E+01  2.26241E+01  2.37731E+01  2.66297E+01  2.30542E+01  2.24529E+01
   1.45298E+01  2.21113E+01  1.68669E+01  1.19858E+01  1.39117E+01  9.38102E+00  2.63050E+00  4.40853E+00  8.97551E+00 -3.49805E+00
  -2.12005E+00  1.13999E+01 -7.52739E-01  5.47561E+00 -5.61117E+00 -1.18982E+00 -3.62536E+00  1.40968E+00  1.47098E+00 -1.99527E+00
   6.29409E-01 -7.35951E+00 -6.63705E+00 -9.92792E-01 -7.30456E-01  2.61651E+00 -1.75707E+00 -2.38986E+00  1.89329E+00  3.68806E+00
  -6.22733E+00 -2.45946E+00 -4.11214E+00  1.43884E+00 -1.07203E+00 -4.25506E+00 -2.28814E+00 -3.57955E-01 -3.39497E+00  1.70617E+00
  -4.74040E+00 -8.87209E+00 -1.07211E+01 -1.11421E+01 -6.13672E+00 -6.37619E+00 -1.40227E+01 -1.18176E+01 -1.39158E+01 -9.48598E+00
  -1.09568E+01 -7.71036E+00 -7.18115E+00 -7.18161E+00 -5.41482E+00 -6.95684E+00 -7.28279E+00 -3.72981E+00 -9.59584E+00 -1.85533E+00
  -1.94781E+00 -1.97457E+00 -5.65431E+00 -6.65060E+00 -4.46097E+00 -4.10495E+00 -5.19769E+00  1.09082E+00 -9.10101E+00 -3.24757E+00
  -8.64074E+00 -2.70929E+00 -1.76019E+00  1.85999E+00 -4.45329E+00  3.44065E+00 -1.82168E-01  4.95279E+00 -3.59177E+00 -4.70266E+00
  -6.47098E+00  7.09862E-03 -4.66572E+00  2.69287E-01  5.55410E+00  5.37101E+00 -9.43542E-01  3.49776E+00  4.82917E-01 -1.95994E+00
  -3.28525E+00  2.37840E-01 -4.01180E+00 -5.04709E-01 -2.32546E+00  1.15379E+00  1.31270E-01  6.48138E+00  8.75923E-01  5.22236E+00
   4.31440E+00  1.08399E+01  4.10679E-01  2.05430E+00  6.54760E-01 -4.36064E-01  4.23671E+00  1.00965E+01  5.08360E+00  3.52954E+00
   1.88243E+00  7.23787E+00 -3.66017E+00  4.08489E+00  1.65283E+00  9.23687E+00  8.69974E+00  9.05543E+00  5.95532E+00  1.00496E+01
   1.17279E+01  1.16460E+01  1.65150E+01  1.45313E+01  1.51877E+01  2.70564E+01  3.48052E+01  3.19132E+01  4.11767E+01  4.65874E+01
   5.44176E+01  4.59702E+01  3.87149E+01  3.25121E+01  3.19541E+01  2.25532E+01  1.35574E+01  1.43745E+01  4.54709E+00  6.43177E+00
  -2.55088E-01  2.68243E+00  2.00069E+00  6.14526E+00 -2.46763E+00  5.22400E-01 -3.33465E-01  6.45530E+00 -1.44146E+00  1.80787E+00
   3.04111E+00 -1.17417E+00 -1.82319E+00 -5.56060E+00 -5.10998E+00  5.23182E-01 -2.48099E+00  2.82665E-01 -4.00009E+00  4.35349E-01
  -4.07353E+00  4.44468E+00 -3.44620E+00  3.03787E-01 -2.52556E+00  1.85756E+00 -2.55150E+00  3.17481E+00  2.40176E+00 -5.08939E+00
   1.94101E+00  4.41750E+00 -1.06974E+00  3.97148E+00  5.13865E+00  4.43069E+00  2.62924E+00  4.97319E+00  5.05593E+00  2.88772E+00
   1.81211E+00  2.62349E+00  3.70659E+00  5.42903E+00  3.66037E+00  1.21123E+00  6.80532E+00  7.07264E+00  1.92181E+00  5.67411E+00
   5.91649E+00  5.80305E-01  1.20243E+01 -1.37885E+00  6.66309E+00  8.74334E+00  3.06024E+00  6.59584E+00  7.80541E+00  1.00564E+01
   9.34241E+00  6.26283E+00  1.40156E+01  1.25471E+01  1.43218E+01  1.01805E+01  2.11332E+01  1.84703E+01  2.44597E+01  1.36327E+01
   1.62663E+01  2.68982E+01  1.93967E+01  2.76823E+01  2.09475E+01  2.80559E+01  3.12077E+01  3.29536E+01  3.43444E+01  3.70644E+01
   3.09970E+01  4.02637E+01  3.77717E+01  3.08384E+01  3.48693E+01  3.25555E+01  2.86396E+01  2.39149E+01  2.17259E+01  2.89374E+01
   2.25922E+01  2.40592E+01  1.80446E+01  1.38467E+01  1.89639E+01  1.30097E+01  6.10588E+00  1.03366E+01  9.31326E+00  2.90882E+00
  -3.25033E-01  4.56040E+00 -3.00857E+00 -2.79411E-01  4.63996E+00  2.39601E+00 -6.84324E+00  3.32837E+00  4.86609E-02  4.44502E+00
   2.71262E+00  2.58266E+00 -2.04616E+00  1.37579E+00  1.38182E+00  1.35975E+00 -4.39650E+00  5.38566E+00  5.00446E+00  7.15310E+00
   6.81922E+00  4.67758E+00  7.94528E+00  2.34905E+00 -1.16698E+00  7.19405E+00  1.54062E+00  8.79279E-01  7.27482E+00  1.90585E+00
   5.12390E+00  6.66472E+00  7.69894E+00  3.23056E+00  7.21886E+00  7.45256E+00  5.38466E+00  1.56860E+00  1.70307E+00  3.67440E+00
   1.34451E+00  5.97316E+00  1.02428E+01  5.33635E+00  2.41745E-01  5.58954E+00  6.54995E+00  7.09699E+00  2.31996E+00  1.47550E+00
  -7.28129E-01 -2.29078E+00  2.95863E+00 -2.26055E+00  1.71689E+00 -1.17696E+00 -4.26087E+00 -4.58820E+00 -4.53466E+00  1.46691E+00
  -2.22447E+00 -4.70458E+00 -6.53843E+00 -4.67585E+00 -6.86358E+00 -7.11761E+00 -1.00812E+01 -4.85433E+00 -7.57332E+00 -8.46153E+00
  -9.40377E+00 -9.57255E+00 -5.73739E+00 -4.64913E+00 -1.04918E+01 -2.00851E+00 -5.24925E+00 -2.48713E+00 -8.58044E+00 -3.19969E+00
  -5.70578E+00 -2.30209E+00 -7.93052E+00 -1.10648E+00 -4.89523E+00 -5.43014E+00 -7.95941E+00 -6.36717E+00 -6.17046E+00 -7.54553E+00
  -6.36531E+00 -1.20878E+00 -7.27730E+00  9.91228E-01 -7.38094E+00 -2.91448E+00 -7.83942E+00 -9.28205E+00 -8.61427E+00 -8.34034E+00
  -4.97809E+00 -5.16556E+00 -4.59868E+00  4.19973E+00 -5.59557E+00 -3.55918E+00 -4.82957E+00 -9.50155E+00 -6.02395E+00 -3.48846E+00
  -8.83299E+00 -8.33457E+00 -5.28206E+00 -3.98768E+00 -9.11213E+00 -1.76836E+00 -5.20935E+00 -3.71276E+00 -4.08088E+00 -1.26088E+01
  -5.95855E+00 -9.60977E+00 -2.39875E+00 -5.80348E+00 -3.22380E+00 -2.93720E+00 -1.08307E+00 -4.97117E+00
 NY points of the fit to the data follow
   6.81308E+00  6.23163E+00  6.12819E+00  6.41400E+00  7.18699E+00  8.67366E+00  1.08276E+01  1.34666E+01  1.62690E+01  1.87990E+01
   2.06095E+01  2.13649E+01  2.09622E+01  1.96055E+01  1.77023E+01  1.56296E+01  1.35662E+01  1.15885E+01  9.78745E+00  8.17758E+00
   6.98495E+00  6.44767E+00  6.13379E+00  5.83769E+00  5.67222E+00  5.85277E+00  6.57635E+00  7.87731E+00  9.58043E+00  1.13176E+01
   1.26640E+01  1.33192E+01  1.32145E+01  1.25079E+01  1.14527E+01  1.02318E+01  8.90823E+00  7.53164E+00  6.31856E+00  5.58370E+00
   5.41838E+00  5.96020E+00  7.30997E+00  9.28814E+00  1.15047E+01  1.34701E+01  1.47465E+01  1.49973E+01  1.41999E+01  1.27316E+01
   1.09747E+01  9.23937E+00  7.72883E+00  6.46444E+00  5.41493E+00  4.80264E+00  4.91983E+00  5.61571E+00  6.38827E+00  6.86651E+00
   6.93313E+00  6.60204E+00  6.02388E+00  5.39069E+00  4.87752E+00  4.57855E+00  4.44880E+00  4.44250E+00  4.61718E+00  4.98732E+00
   5.48343E+00  5.99358E+00  6.37166E+00  6.53823E+00  6.47195E+00  6.21028E+00  5.82616E+00  5.38042E+00  4.96552E+00  4.67056E+00
   4.63711E+00  4.91888E+00  5.38840E+00  5.86880E+00  6.21342E+00  6.28267E+00  5.96877E+00  5.32690E+00  4.56010E+00  3.88649E+00
   3.40481E+00  3.07330E+00  2.79279E+00  2.50060E+00  2.27468E+00  2.41729E+00  3.52486E+00  6.20752E+00  1.08615E+01  1.75111E+01
   2.54218E+01  3.31886E+01  3.90692E+01  4.16642E+01  4.06324E+01  3.69059E+01  3.19184E+01  2.66956E+01  2.15056E+01  1.61836E+01
   1.06717E+01  5.61858E+00  2.53927E+00  1.64460E+00  1.38545E+00  1.26507E+00  1.19131E+00  1.16269E+00  1.19400E+00  1.37169E+00
   2.00281E+00  3.57201E+00  6.34734E+00  1.03126E+01  1.50500E+01  1.97763E+01  2.35334E+01  2.55298E+01  2.54857E+01  2.37786E+01
   2.11382E+01  1.81173E+01  1.48638E+01  1.13454E+01  7.62605E+00  4.16552E+00  1.86126E+00  1.04420E+00  9.17048E-01  1.01718E+00
   1.17317E+00  1.30472E+00  1.41529E+00  1.51158E+00  1.53430E+00  1.45861E+00  1.28157E+00  1.00196E+00  6.60301E-01  3.09587E-01
  -1.77754E-02 -2.82462E-01 -4.89911E-01 -6.41369E-01 -7.55433E-01 -8.65361E-01 -1.01394E+00 -1.22289E+00 -1.46334E+00 -1.68837E+00
  -1.84552E+00 -1.90636E+00 -1.90216E+00 -1.91903E+00 -2.02712E+00 -2.22605E+00 -2.46398E+00 -2.67032E+00 -2.81173E+00 -2.94645E+00
  -3.16029E+00 -3.45281E+00 -3.77732E+00 -4.06365E+00 -4.24864E+00 -4.34649E+00 -4.38371E+00 -4.38703E+00 -4.40455E+00 -4.45906E+00
  -4.51633E+00 -4.51712E+00 -4.42780E+00 -4.24672E+00 -3.98954E+00 -3.64256E+00 -3.12743E+00 -2.39922E+00 -1.56973E+00 -8.34348E-01
  -3.85421E-01 -2.99749E-01 -5.22711E-01 -9.30831E-01 -1.40534E+00 -1.83463E+00 -2.10649E+00 -2.07650E+00 -1.65671E+00 -8.81526E-01
   1.13720E-01  1.12800E+00  1.90929E+00  2.19591E+00  1.86136E+00  9.18268E-01 -5.10750E-01 -2.16145E+00 -3.59645E+00 -4.37058E+00
  -4.25408E+00 -3.26590E+00 -1.67725E+00  1.07333E-01  1.66333E+00  2.59923E+00  2.65396E+00  1.89359E+00  5.56426E-01 -1.07354E+00
  -2.51022E+00 -3.35365E+00 -3.50942E+00 -3.00363E+00 -1.97923E+00 -6.53893E-01  5.73140E-01  1.52537E+00  2.24147E+00  2.76499E+00
   3.08765E+00  3.18526E+00  3.19488E+00  3.33510E+00  3.65495E+00  4.05802E+00  4.45694E+00  4.76314E+00  4.91055E+00  4.87464E+00
   4.67015E+00  4.43070E+00  4.33857E+00  4.47345E+00  4.77382E+00  5.09930E+00  5.44113E+00  5.86334E+00  6.42362E+00  7.32856E+00
   8.77349E+00  1.07428E+01  1.30636E+01  1.60048E+01  1.99846E+01  2.50508E+01  3.10083E+01  3.73417E+01  4.31126E+01  4.70683E+01
   4.81078E+01  4.59096E+01  4.12130E+01  3.53123E+01  2.93704E+01  2.39248E+01  1.86137E+01  1.31301E+01  8.03620E+00  4.74089E+00
   3.43960E+00  2.80794E+00  2.41366E+00  2.14355E+00  1.89608E+00  1.62312E+00  1.33641E+00  1.04023E+00  7.39832E-01  4.41427E-01
   1.54808E-01 -1.10802E-01 -3.36250E-01 -5.06544E-01 -6.26381E-01 -7.05117E-01 -7.50117E-01 -7.61811E-01 -7.37601E-01 -6.79010E-01
  -5.90319E-01 -4.70628E-01 -3.21153E-01 -1.47367E-01  4.64989E-02  2.62998E-01  5.01203E-01  7.57988E-01  1.03112E+00  1.31596E+00
   1.60648E+00  1.89969E+00  2.18803E+00  2.46114E+00  2.71141E+00  2.93354E+00  3.12363E+00  3.27782E+00  3.39317E+00  3.47274E+00
   3.52185E+00  3.54691E+00  3.55649E+00  3.56021E+00  3.56849E+00  3.59262E+00  3.64428E+00  3.73549E+00  3.87907E+00  4.09079E+00
   4.39169E+00  4.78715E+00  5.26089E+00  5.78093E+00  6.30443E+00  6.79078E+00  7.21597E+00  7.58505E+00  7.94876E+00  8.38643E+00
   8.96230E+00  9.70868E+00  1.06284E+01  1.17050E+01  1.29096E+01  1.42119E+01  1.55789E+01  1.69477E+01  1.82983E+01  1.96627E+01
   2.10578E+01  2.24776E+01  2.38990E+01  2.53061E+01  2.67247E+01  2.81582E+01  2.95470E+01  3.08340E+01  3.19660E+01  3.28923E+01
   3.35665E+01  3.39488E+01  3.40086E+01  3.37267E+01  3.30969E+01  3.21267E+01  3.08369E+01  2.92605E+01  2.74410E+01  2.54293E+01
   2.32811E+01  2.10535E+01  1.88021E+01  1.65788E+01  1.44289E+01  1.23899E+01  1.04910E+01  8.75248E+00  7.18645E+00  5.79753E+00
   4.58399E+00  3.53907E+00  2.65245E+00  1.91158E+00  1.30283E+00  8.12428E-01  4.27181E-01  1.35065E-01 -7.44160E-02 -2.10074E-01
  -2.79072E-01 -2.87074E-01 -2.38441E-01 -1.36454E-01  1.64314E-02  2.18254E-01  4.67190E-01  7.61224E-01  1.09789E+00  1.47402E+00
   1.88560E+00  2.32752E+00  2.79347E+00  3.27590E+00  3.76610E+00  4.25442E+00  4.73045E+00  5.18329E+00  5.60189E+00  5.97550E+00
   6.29412E+00  6.54889E+00  6.73254E+00  6.83959E+00  6.86660E+00  6.81235E+00  6.67787E+00  6.46639E+00  6.18306E+00  5.83469E+00
   5.42941E+00  4.97633E+00  4.48513E+00  3.96567E+00  3.42762E+00  2.88006E+00  2.33132E+00  1.78881E+00  1.25887E+00  7.46700E-01
   2.56356E-01 -2.09231E-01 -6.48113E-01 -1.05920E+00 -1.44214E+00 -1.79725E+00 -2.12535E+00 -2.42765E+00 -2.70560E+00 -2.96079E+00
  -3.19491E+00 -3.40967E+00 -3.60680E+00 -3.78795E+00 -3.95465E+00 -4.10830E+00 -4.25023E+00 -4.38163E+00 -4.50362E+00 -4.61720E+00
  -4.72321E+00 -4.82241E+00 -4.91550E+00 -5.00309E+00 -5.08578E+00 -5.16402E+00 -5.23823E+00 -5.30877E+00 -5.37598E+00 -5.44018E+00
  -5.50167E+00 -5.56066E+00 -5.61733E+00 -5.67186E+00 -5.72445E+00 -5.77527E+00 -5.82446E+00 -5.87212E+00 -5.91835E+00 -5.96325E+00
  -6.00695E+00 -6.04954E+00 -6.09108E+00 -6.13162E+00 -6.17122E+00 -6.20995E+00 -6.24790E+00 -6.28511E+00 -6.32161E+00 -6.35743E+00
  -6.39260E+00 -6.42718E+00 -6.46123E+00 -6.49476E+00 -6.52779E+00 -6.56032E+00 -6.59241E+00 -6.62408E+00 -6.65538E+00 -6.68632E+00
  -6.71687E+00 -6.74707E+00 -6.77696E+00 -6.80656E+00 -6.83589E+00 -6.86494E+00 -6.89371E+00 -6.92223E+00 -6.95053E+00 -6.97863E+00
  -7.00654E+00 -7.03423E+00 -7.06172E+00 -7.08904E+00 -7.11621E+00 -7.14326E+00 -7.17015E+00 -7.19690E+00
 NY background values follow
     1.283E+00    1.264E+00    1.246E+00    1.227E+00    1.208E+00    1.190E+00    1.171E+00    1.152E+00    1.134E+00    1.115E+00
     1.097E+00    1.078E+00    1.059E+00    1.041E+00    1.022E+00    1.003E+00    9.847E-01    9.661E-01    9.474E-01    9.288E-01
     9.101E-01    8.915E-01    8.728E-01    8.542E-01    8.356E-01    8.169E-01    7.983E-01    7.796E-01    7.610E-01    7.423E-01
     7.237E-01    7.050E-01    6.864E-01    6.677E-01    6.491E-01    6.304E-01    6.118E-01    5.931E-01    5.745E-01    5.558E-01
     5.372E-01    5.185E-01    4.999E-01    4.812E-01    4.626E-01    4.439E-01    4.253E-01    4.066E-01    3.880E-01    3.693E-01
     3.506E-01    3.320E-01    3.133E-01    2.947E-01    2.760E-01    2.574E-01    2.387E-01    2.201E-01    2.014E-01    1.827E-01
     1.641E-01    1.454E-01    1.268E-01    1.081E-01    8.946E-02    7.080E-02    5.214E-02    3.348E-02    1.482E-02   -3.839E-03
    -2.250E-02   -4.116E-02   -5.982E-02   -7.848E-02   -9.714E-02   -1.158E-01   -1.345E-01   -1.531E-01   -1.718E-01   -1.904E-01
    -2.091E-01   -2.278E-01   -2.464E-01   -2.651E-01   -2.838E-01   -3.024E-01   -3.211E-01   -3.397E-01   -3.584E-01   -3.771E-01
    -3.957E-01   -4.144E-01   -4.331E-01   -4.517E-01   -4.704E-01   -4.891E-01   -5.077E-01   -5.264E-01   -5.450E-01   -5.637E-01
    -5.824E-01   -6.010E-01   -6.197E-01   -6.384E-01   -6.570E-01   -6.757E-01   -6.944E-01   -7.130E-01   -7.317E-01   -7.504E-01
    -7.690E-01   -7.877E-01   -8.064E-01   -8.250E-01   -8.437E-01   -8.623E-01   -8.810E-01   -8.997E-01   -9.183E-01   -9.370E-01
    -9.557E-01   -9.743E-01   -9.930E-01   -1.012E+00   -1.030E+00   -1.049E+00   -1.068E+00   -1.086E+00   -1.105E+00   -1.124E+00
    -1.142E+00   -1.161E+00   -1.180E+00   -1.198E+00   -1.217E+00   -1.236E+00   -1.254E+00   -1.273E+00   -1.292E+00   -1.310E+00
    -1.329E+00   -1.348E+00   -1.366E+00   -1.385E+00   -1.404E+00   -1.422E+00   -1.441E+00   -1.460E+00   -1.478E+00   -1.497E+00
    -1.516E+00   -1.534E+00   -1.553E+00   -1.572E+00   -1.590E+00   -1.609E+00   -1.628E+00   -1.646E+00   -1.665E+00   -1.684E+00
    -1.702E+00   -1.721E+00   -1.740E+00   -1.758E+00   -1.777E+00   -1.796E+00   -1.814E+00   -1.833E+00   -1.852E+00   -1.870E+00
    -1.889E+00   -1.908E+00   -1.926E+00   -1.945E+00   -1.964E+00   -1.982E+00   -2.001E+00   -2.019E+00   -2.038E+00   -2.057E+00
    -2.075E+00   -2.094E+00   -2.113E+00   -2.131E+00   -2.150E+00   -2.169E+00   -2.187E+00   -2.206E+00   -2.225E+00   -2.243E+00
    -2.262E+00   -2.281E+00   -2.299E+00   -2.318E+00   -2.337E+00   -2.355E+00   -2.374E+00   -2.393E+00   -2.411E+00   -2.430E+00
    -2.449E+00   -2.467E+00   -2.486E+00   -2.505E+00   -2.523E+00   -2.542E+00   -2.560E+00   -2.579E+00   -2.598E+00   -2.616E+00
    -2.635E+00   -2.654E+00   -2.672E+00   -2.691E+00   -2.710E+00   -2.728E+00   -2.747E+00   -2.766E+00   -2.784E+00   -2.803E+00
    -2.822E+00   -2.840E+00   -2.859E+00   -2.877E+00   -2.896E+00   -2.915E+00   -2.933E+00   -2.952E+00   -2.971E+00   -2.989E+00
    -3.008E+00   -3.027E+00   -3.045E+00   -3.064E+00   -3.083E+00   -3.101E+00   -3.120E+00   -3.138E+00   -3.157E+00   -3.176E+00
    -3.194E+00   -3.213E+00   -3.232E+00   -3.250E+00   -3.269E+00   -3.288E+00   -3.306E+00   -3.325E+00   -3.343E+00   -3.362E+00
    -3.381E+00   -3.399E+00   -3.418E+00   -3.437E+00   -3.455E+00   -3.474E+00   -3.492E+00   -3.511E+00   -3.530E+00   -3.548E+00
    -3.567E+00   -3.586E+00   -3.604E+00   -3.623E+00   -3.641E+00   -3.660E+00   -3.679E+00   -3.697E+00   -3.716E+00   -3.735E+00
    -3.753E+00   -3.772E+00   -3.790E+00   -3.809E+00   -3.828E+00   -3.846E+00   -3.865E+00   -3.884E+00   -3.902E+00   -3.921E+00
    -3.939E+00   -3.958E+00   -3.977E+00   -3.995E+00   -4.014E+00   -4.032E+00   -4.051E+00   -4.070E+00   -4.088E+00   -4.107E+00
    -4.125E+00   -4.144E+00   -4.163E+00   -4.181E+00   -4.200E+00   -4.219E+00   -4.237E+00   -4.256E+00   -4.274E+00   -4.293E+00
    -4.312E+00   -4.330E+00   -4.349E+00   -4.367E+00   -4.386E+00   -4.405E+00   -4.423E+00   -4.442E+00   -4.460E+00   -4.479E+00
    -4.498E+00   -4.516E+00   -4.535E+00   -4.553E+00   -4.572E+00   -4.590E+00   -4.609E+00   -4.628E+00   -4.646E+00   -4.665E+00
    -4.683E+00   -4.702E+00   -4.721E+00   -4.739E+00   -4.758E+00   -4.776E+00   -4.795E+00   -4.814E+00   -4.832E+00   -4.851E+00
    -4.869E+00   -4.888E+00   -4.906E+00   -4.925E+00   -4.944E+00   -4.962E+00   -4.981E+00   -4.999E+00   -5.018E+00   -5.036E+00
    -5.055E+00   -5.074E+00   -5.092E+00   -5.111E+00   -5.129E+00   -5.148E+00   -5.166E+00   -5.185E+00   -5.204E+00   -5.222E+00
    -5.241E+00   -5.259E+00   -5.278E+00   -5.296E+00   -5.315E+00   -5.334E+00   -5.352E+00   -5.371E+00   -5.389E+00   -5.408E+00
    -5.426E+00   -5.445E+00   -5.463E+00   -5.482E+00   -5.501E+00   -5.519E+00   -5.538E+00   -5.556E+00   -5.575E+00   -5.593E+00
    -5.612E+00   -5.630E+00   -5.649E+00   -5.668E+00   -5.686E+00   -5.705E+00   -5.723E+00   -5.742E+00   -5.760E+00   -5.779E+00
    -5.797E+00   -5.816E+00   -5.834E+00   -5.853E+00   -5.871E+00   -5.890E+00   -5.909E+00   -5.927E+00   -5.946E+00   -5.964E+00
    -5.983E+00   -6.001E+00   -6.020E+00   -6.038E+00   -6.057E+00   -6.075E+00   -6.094E+00   -6.112E+00   -6.131E+00   -6.149E+00
    -6.168E+00   -6.186E+00   -6.205E+00   -6.223E+00   -6.242E+00   -6.261E+00   -6.279E+00   -6.298E+00   -6.316E+00   -6.335E+00
    -6.353E+00   -6.372E+00   -6.390E+00   -6.409E+00   -6.427E+00   -6.446E+00   -6.464E+00   -6.483E+00   -6.501E+00   -6.520E+00
    -6.538E+00   -6.557E+00   -6.575E+00   -6.594E+00   -6.612E+00   -6.631E+00   -6.649E+00   -6.668E+00   -6.686E+00   -6.705E+00
    -6.723E+00   -6.742E+00   -6.760E+00   -6.779E+00   -6.797E+00   -6.816E+00   -6.834E+00   -6.852E+00   -6.871E+00   -6.889E+00
    -6.908E+00   -6.926E+00   -6.945E+00   -6.963E+00   -6.982E+00   -7.000E+00   -7.019E+00   -7.037E+00   -7.056E+00   -7.074E+00
    -7.093E+00   -7.111E+00   -7.130E+00   -7.148E+00   -7.167E+00   -7.185E+00   -7.203E+00   -7.222E+00   -7.240E+00   -7.259E+00
    -7.277E+00   -7.296E+00   -7.314E+00   -7.333E+00   -7.351E+00   -7.370E+00   -7.388E+00   -7.406E+00   -7.425E+00   -7.443E+00
    -7.462E+00   -7.480E+00   -7.499E+00   -7.517E+00   -7.536E+00   -7.554E+00   -7.572E+00   -7.591E+00   -7.609E+00   -7.628E+00
    -7.646E+00   -7.665E+00   -7.683E+00   -7.701E+00   -7.720E+00   -7.738E+00   -7.757E+00   -7.775E+00   -7.794E+00   -7.812E+00
    -7.830E+00   -7.849E+00   -7.867E+00   -7.886E+00   -7.904E+00   -7.923E+00   -7.941E+00   -7.959E+00
 Ala      Conc. = 8.54E+01
