 LCModel (Version 6.3-1L) Copyright: S.W. Provencher.          Ref.: Magn. Reson. Med. 30:672-679 (1993).                
 Slice#3 Row#12 Col#7  PD_24_press_1_raw_act
 36 lines in following concentration table = NCONC+1
    Conc.  %SD /Cr+PCr  Metabolite                                         
  103.219  96%   0.101 Ala                                                 
  255.666  59%   0.251 Asp                                                 
    0.000 999%   0.000 Cr                                                  
 1.02E+03   4%   1.000 PCr                                                 
    0.000 999%   0.000 GABA                                                
  188.439  53%   0.185 Glc                                                 
  725.201  31%   0.712 Gln                                                 
 1.30E+03  19%   1.277 Glu                                                 
  341.798   5%   0.335 GPC                                                 
    0.000 999%   0.000 PCh                                                 
  337.908  17%   0.332 GSH                                                 
  787.538  24%   0.773 Ins                                                 
    0.000 999%   0.000 Lac                                                 
 1.37E+03   7%   1.341 NAA                                                 
    4.097 999% 4.0E-03 NAAG                                                
   75.907  26% 7.4E-02 Scyllo                                              
  113.387 120%   0.111 Tau                                                 
    0.000 999%   0.000 -CrCH2                                              
  341.798   5%   0.335 GPC+PCh                                             
 1.37E+03   4%   1.345 NAA+NAAG                                            
 1.02E+03   4%   1.000 Cr+PCr                                              
 2.03E+03  19%   1.989 Glu+Gln                                             
 2.45E+03   9%   2.404 Lip13a                                              
    0.000 999%   0.000 Lip13b                                              
    0.000 999%   0.000 Lip09                                               
  368.683  25%   0.362 MM09                                                
  308.308  58%   0.303 Lip20                                               
  590.168  27%   0.579 MM20                                                
  112.771  34%   0.111 MM12                                                
  365.035  34%   0.358 MM14                                                
  269.241  28%   0.264 MM17                                                
 2.45E+03   9%   2.404 Lip13a+Lip13b                                       
 2.93E+03   7%   2.873 MM14+Lip13a+Lip13b+MM12                             
  368.683  25%   0.362 MM09+Lip09                                          
  898.476  23%   0.882 MM20+Lip20                                          
   6 lines in following misc. output table
  FWHM = 0.069 ppm    S/N =   8                                            
  Data shift = 0.023 ppm                                                   
  Ph: -27 deg     -10.2 deg/ppm                                            
  alphaB,S = 3.2E+00,   1.9E+02                                            
   14 spline knots.   Ns = 8(1)                                            
  (14) 4 infls.   (13) 1 extrs.                                            
  498 points on ppm-axis = NY
      4.000000     3.992357     3.984714     3.977070     3.969427     3.961784     3.954141     3.946497     3.938854     3.931211
      3.923568     3.915925     3.908281     3.900638     3.892995     3.885352     3.877708     3.870065     3.862422     3.854779
      3.847136     3.839492     3.831849     3.824206     3.816563     3.808919     3.801276     3.793633     3.785990     3.778347
      3.770703     3.763060     3.755417     3.747774     3.740130     3.732487     3.724844     3.717201     3.709558     3.701914
      3.694271     3.686628     3.678985     3.671341     3.663698     3.656055     3.648412     3.640769     3.633125     3.625482
      3.617839     3.610196     3.602552     3.594909     3.587266     3.579623     3.571980     3.564336     3.556693     3.549050
      3.541407     3.533763     3.526120     3.518477     3.510834     3.503191     3.495547     3.487904     3.480261     3.472618
      3.464974     3.457331     3.449688     3.442045     3.434402     3.426758     3.419115     3.411472     3.403829     3.396185
      3.388542     3.380899     3.373256     3.365613     3.357969     3.350326     3.342683     3.335040     3.327396     3.319753
      3.312110     3.304467     3.296824     3.289180     3.281537     3.273894     3.266251     3.258607     3.250964     3.243321
      3.235678     3.228034     3.220391     3.212748     3.205105     3.197462     3.189818     3.182175     3.174532     3.166889
      3.159245     3.151602     3.143959     3.136316     3.128673     3.121029     3.113386     3.105743     3.098100     3.090456
      3.082813     3.075170     3.067527     3.059884     3.052240     3.044597     3.036954     3.029311     3.021667     3.014024
      3.006381     2.998738     2.991095     2.983451     2.975808     2.968165     2.960522     2.952878     2.945235     2.937592
      2.929949     2.922306     2.914662     2.907019     2.899376     2.891733     2.884089     2.876446     2.868803     2.861160
      2.853517     2.845873     2.838230     2.830587     2.822944     2.815300     2.807657     2.800014     2.792371     2.784728
      2.777084     2.769441     2.761798     2.754155     2.746511     2.738868     2.731225     2.723582     2.715939     2.708295
      2.700652     2.693009     2.685366     2.677722     2.670079     2.662436     2.654793     2.647150     2.639506     2.631863
      2.624220     2.616577     2.608933     2.601290     2.593647     2.586004     2.578361     2.570717     2.563074     2.555431
      2.547788     2.540144     2.532501     2.524858     2.517215     2.509572     2.501928     2.494285     2.486642     2.478999
      2.471355     2.463712     2.456069     2.448426     2.440783     2.433139     2.425496     2.417853     2.410210     2.402566
      2.394923     2.387280     2.379637     2.371994     2.364350     2.356707     2.349064     2.341421     2.333777     2.326134
      2.318491     2.310848     2.303205     2.295561     2.287918     2.280275     2.272632     2.264988     2.257345     2.249702
      2.242059     2.234416     2.226772     2.219129     2.211486     2.203843     2.196199     2.188556     2.180913     2.173270
      2.165627     2.157983     2.150340     2.142697     2.135054     2.127410     2.119767     2.112124     2.104481     2.096838
      2.089194     2.081551     2.073908     2.066265     2.058621     2.050978     2.043335     2.035692     2.028049     2.020405
      2.012762     2.005119     1.997476     1.989833     1.982190     1.974546     1.966903     1.959260     1.951617     1.943974
      1.936331     1.928688     1.921045     1.913402     1.905759     1.898115     1.890472     1.882829     1.875186     1.867543
      1.859900     1.852257     1.844614     1.836971     1.829327     1.821684     1.814041     1.806398     1.798755     1.791112
      1.783469     1.775826     1.768183     1.760540     1.752896     1.745253     1.737610     1.729967     1.722324     1.714681
      1.707038     1.699395     1.691752     1.684108     1.676465     1.668822     1.661179     1.653536     1.645893     1.638250
      1.630607     1.622964     1.615321     1.607677     1.600034     1.592391     1.584748     1.577105     1.569462     1.561819
      1.554176     1.546533     1.538890     1.531246     1.523603     1.515960     1.508317     1.500674     1.493031     1.485388
      1.477745     1.470102     1.462458     1.454815     1.447172     1.439529     1.431886     1.424243     1.416600     1.408957
      1.401314     1.393671     1.386027     1.378384     1.370741     1.363098     1.355455     1.347812     1.340169     1.332526
      1.324883     1.317240     1.309596     1.301953     1.294310     1.286667     1.279024     1.271381     1.263738     1.256095
      1.248452     1.240808     1.233165     1.225522     1.217879     1.210236     1.202593     1.194950     1.187307     1.179664
      1.172021     1.164377     1.156734     1.149091     1.141448     1.133805     1.126162     1.118519     1.110876     1.103233
      1.095590     1.087946     1.080303     1.072660     1.065017     1.057374     1.049731     1.042088     1.034445     1.026802
      1.019158     1.011515     1.003872     0.996229     0.988586     0.980943     0.973300     0.965657     0.958014     0.950371
      0.942727     0.935084     0.927441     0.919798     0.912155     0.904512     0.896869     0.889226     0.881583     0.873940
      0.866296     0.858653     0.851010     0.843367     0.835724     0.828081     0.820438     0.812795     0.805152     0.797508
      0.789865     0.782222     0.774579     0.766936     0.759293     0.751650     0.744007     0.736364     0.728721     0.721077
      0.713434     0.705791     0.698148     0.690505     0.682862     0.675219     0.667576     0.659933     0.652290     0.644646
      0.637003     0.629360     0.621717     0.614074     0.606431     0.598788     0.591145     0.583502     0.575858     0.568215
      0.560572     0.552929     0.545286     0.537643     0.530000     0.522357     0.514714     0.507071     0.499427     0.491784
      0.484141     0.476498     0.468855     0.461212     0.453569     0.445925     0.438282     0.430639     0.422996     0.415353
      0.407710     0.400067     0.392424     0.384780     0.377137     0.369494     0.361851     0.354208     0.346565     0.338922
      0.331278     0.323635     0.315992     0.308349     0.300706     0.293063     0.285420     0.277777     0.270133     0.262490
      0.254847     0.247204     0.239561     0.231918     0.224275     0.216631     0.208988     0.201345
 NY phased data points follow
  -2.27389E+01 -2.27640E+01 -1.85963E+01 -1.38679E+01 -1.46744E+01 -1.25216E+01 -4.21702E+00 -7.79090E+00 -1.51630E+00  3.68539E-01
   5.27339E+00 -1.69446E+00 -3.03870E-01 -5.39691E+00 -9.89717E-01 -1.40044E+01 -9.55097E+00 -1.30523E+01 -1.87532E+01 -1.86017E+01
  -1.57889E+01 -1.90142E+01 -1.40768E+01 -1.49912E+01 -1.46576E+01 -1.43688E+01 -1.05173E+01 -1.10514E+01 -1.23273E+01 -1.35132E+01
  -8.98668E+00 -1.33317E+01 -8.41384E+00 -9.81318E+00 -1.09223E+01 -1.46628E+01 -1.13792E+01 -1.47457E+01 -1.11471E+01 -1.39662E+01
  -1.42762E+01 -1.52726E+01 -1.30689E+01 -1.28334E+01 -1.25956E+01 -1.58543E+01 -8.56417E+00 -1.19751E+01 -1.09559E+01 -1.25153E+01
  -9.86967E+00 -1.44154E+01 -1.32625E+01 -1.64858E+01 -1.01472E+01 -1.45558E+01 -1.28376E+01 -1.54032E+01 -1.24456E+01 -1.59880E+01
  -1.27187E+01 -1.81877E+01 -1.57457E+01 -2.01298E+01 -1.67184E+01 -1.62941E+01 -1.81245E+01 -2.14709E+01 -1.54413E+01 -2.11526E+01
  -1.39688E+01 -1.82135E+01 -1.42839E+01 -1.73880E+01 -1.36118E+01 -1.41296E+01 -1.21701E+01 -1.60869E+01 -1.37517E+01 -1.42224E+01
  -1.28638E+01 -1.65068E+01 -1.52093E+01 -1.28099E+01 -1.56982E+01 -1.71083E+01 -1.25587E+01 -1.38198E+01 -1.32408E+01 -1.57949E+01
  -1.33905E+01 -1.59896E+01 -1.23049E+01 -1.57126E+01 -1.32867E+01 -1.27170E+01 -1.29718E+01 -1.45847E+01 -6.63996E+00 -7.40117E+00
   3.89188E-01  6.13469E+00  8.92605E+00  7.53544E+00  8.15568E+00  7.26783E+00  7.97562E+00 -3.47514E-01 -1.65517E+00 -6.21394E+00
  -7.59849E+00 -7.25344E+00 -1.27469E+01 -1.37793E+01 -1.21358E+01 -1.54323E+01 -1.73003E+01 -1.45383E+01 -1.66724E+01 -1.42319E+01
  -1.14901E+01 -1.47563E+01 -1.17793E+01 -5.12428E+00  8.45810E-01  3.20811E+00  1.01617E+01  1.29988E+01  1.10919E+01  1.04332E+01
   9.69943E+00  1.52845E+00  5.50018E+00 -2.28611E+00 -2.01604E+00 -7.08340E+00 -6.23665E+00 -1.46317E+01 -1.57633E+01 -1.23833E+01
  -1.21196E+01 -1.30274E+01 -1.41031E+01 -1.62939E+01 -1.74160E+01 -1.86569E+01 -1.68585E+01 -1.54845E+01 -1.75997E+01 -1.43810E+01
  -1.84838E+01 -1.66621E+01 -1.60840E+01 -1.82755E+01 -1.60145E+01 -1.68065E+01 -1.75426E+01 -1.62956E+01 -1.73966E+01 -1.67080E+01
  -1.42514E+01 -1.92165E+01 -1.47318E+01 -1.64506E+01 -1.92274E+01 -1.53513E+01 -1.61747E+01 -1.77294E+01 -1.48041E+01 -1.51575E+01
  -1.52649E+01 -1.72532E+01 -1.82023E+01 -1.75814E+01 -1.96964E+01 -1.76102E+01 -1.72391E+01 -1.86194E+01 -1.75427E+01 -1.63352E+01
  -2.03494E+01 -2.28415E+01 -1.87909E+01 -1.70804E+01 -2.04427E+01 -1.85950E+01 -1.95852E+01 -1.69014E+01 -1.36278E+01 -1.30256E+01
  -1.45004E+01 -1.29726E+01 -1.18711E+01 -1.08217E+01 -6.55618E+00 -1.12758E+01 -1.01559E+01 -1.53602E+01 -1.01255E+01 -1.28470E+01
  -1.34679E+01 -1.05136E+01 -1.32080E+01 -1.50966E+01 -1.00613E+01 -1.10155E+01 -1.09012E+01 -1.37461E+01 -1.23792E+01 -1.56084E+01
  -1.48718E+01 -1.37908E+01 -1.09445E+01 -1.18312E+01 -5.93458E+00 -6.50609E+00 -7.47108E+00 -8.45133E+00 -8.06506E+00 -6.19131E+00
  -9.56777E+00 -1.50039E+01 -1.35548E+01 -1.32659E+01 -8.64994E+00 -1.33106E+01 -9.40386E+00 -8.53515E+00 -9.81193E+00 -7.65527E+00
  -3.06842E+00 -9.77543E+00 -4.88828E+00 -7.98538E+00 -7.56867E+00 -7.44146E+00 -8.22946E+00 -8.72735E+00 -1.11850E+01 -9.95463E+00
  -9.65161E+00 -1.01769E+01 -1.52651E+01 -1.26185E+01 -1.17717E+01 -1.07413E+01 -9.31693E+00 -7.56523E+00 -9.91102E+00 -9.48171E+00
  -9.36714E+00 -1.11785E+01 -8.42764E+00 -3.53025E+00 -2.22265E+00  6.07437E+00  5.33233E+00  7.84837E+00  1.56657E+01  2.55288E+01
   3.02771E+01  2.65331E+01  2.79501E+01  2.19691E+01  1.91736E+01  1.46881E+01  9.81121E+00  1.84163E+00  7.91433E-01  5.40053E-01
  -1.57652E+00 -9.34556E+00 -5.40220E+00 -5.78981E+00 -7.01229E+00 -5.64021E+00 -4.35516E+00 -9.32851E+00 -9.31534E+00 -1.02130E+01
  -9.92520E+00 -8.02731E+00 -1.10543E+01 -1.11820E+01 -9.99592E+00 -1.23166E+01 -7.47389E+00 -8.36080E+00 -6.60542E+00 -7.21348E+00
  -7.66024E+00 -7.39409E+00 -8.21929E+00 -9.88535E+00 -7.53944E+00 -8.04180E+00 -6.93492E+00 -8.35658E+00 -9.96148E+00 -8.62049E+00
  -8.32814E+00 -6.95233E+00 -5.52918E+00 -7.78865E+00 -8.93819E+00 -8.49471E+00 -4.17878E+00 -7.18169E+00 -5.02497E+00 -1.06278E+01
  -4.28582E+00 -6.29133E+00 -4.52799E+00 -3.91221E+00 -4.49505E+00 -8.22166E+00 -4.09047E+00 -4.66089E+00 -8.37425E+00 -3.52809E+00
  -5.46406E+00 -9.33159E+00 -6.28108E+00 -6.03914E+00 -1.85703E+00 -7.78888E+00 -3.85799E+00 -6.44626E+00 -4.39531E+00 -9.47798E+00
  -4.18820E+00 -5.99239E+00 -5.79000E+00 -3.94317E+00 -9.28354E+00 -5.44828E+00 -5.13740E+00 -4.19241E+00 -4.76661E+00 -4.85463E+00
  -4.90407E+00 -3.90298E+00 -8.84870E-01 -5.11081E+00 -3.21404E+00 -2.34005E+00  1.28910E+00 -2.36949E+00 -3.66815E-01  4.45976E+00
   2.11617E+00  2.38075E+00  2.47950E+00  5.66056E+00  3.87353E+00  4.62324E+00  7.42743E+00  7.77741E+00  7.73066E+00  8.86856E+00
   7.74693E+00  5.48880E+00  6.38048E+00  4.39943E+00  3.35291E+00  6.56948E+00  1.88142E+00  3.99459E+00  6.26359E+00  3.84211E+00
  -5.77421E-01  8.61250E-01  3.85840E+00 -2.35544E-01 -5.15995E-01 -4.64639E+00 -1.52415E+00 -1.63757E+00 -3.34855E+00 -3.69730E+00
  -5.97906E+00 -6.44615E+00 -6.15504E+00 -5.67788E+00 -4.35025E+00 -5.84463E+00 -6.86167E+00 -6.06852E+00 -5.98342E+00 -8.14049E+00
  -6.30755E+00 -6.85227E+00 -5.29861E+00 -7.70700E+00 -4.21085E+00 -7.49624E+00 -4.73813E+00 -7.83814E+00 -6.52056E+00 -5.26990E+00
  -5.83787E+00 -5.34423E+00 -5.11951E+00 -4.31893E+00 -8.10070E+00 -7.90768E+00 -5.73683E+00 -3.60062E+00 -4.81843E+00 -8.08616E+00
  -3.62225E+00 -4.96325E+00 -4.78669E+00 -1.16349E+00 -3.47298E+00 -7.16408E+00 -2.28413E+00 -6.54772E+00 -5.32284E+00 -5.48939E+00
  -4.96819E+00 -5.53821E+00 -4.34164E+00 -6.52895E+00 -3.71884E+00 -5.26304E+00 -4.99516E+00 -5.33000E+00 -3.14527E+00 -5.31136E+00
  -4.20960E+00 -6.11967E+00 -5.84975E+00 -7.22273E+00 -5.58409E+00 -8.42836E+00 -6.10444E+00 -6.18804E+00 -7.05163E+00 -6.47880E+00
  -5.05194E+00 -5.75906E+00 -4.36047E+00 -8.37259E+00 -6.50252E+00 -5.45179E+00 -7.76569E+00 -2.21858E+00 -3.91566E+00 -3.75193E+00
  -3.15076E+00 -7.54740E+00 -5.28021E+00 -4.79196E+00 -7.33011E+00 -6.49998E+00 -3.50079E+00 -5.21343E+00 -7.47163E+00 -3.25669E+00
  -7.74232E+00 -5.18216E+00 -5.83478E+00 -9.15431E+00 -5.58607E+00 -7.19891E+00 -8.53407E+00 -5.91677E+00 -6.03242E+00 -3.65457E+00
  -6.58389E+00 -5.31633E+00 -8.83177E+00 -6.31340E+00 -5.25405E+00 -5.94342E+00 -6.77238E+00 -6.34654E+00 -7.98508E+00 -6.42041E+00
  -6.19567E+00 -5.95754E+00 -7.39832E+00 -7.68725E+00 -4.41009E+00 -4.78705E+00 -3.67239E+00 -3.31822E+00 -3.80915E+00 -9.38654E+00
  -4.94481E+00 -6.19378E+00 -7.31275E+00 -6.57482E+00 -5.02768E+00 -5.50368E+00 -5.63995E+00 -2.49425E+00
 NY points of the fit to the data follow
  -1.80487E+01 -1.79192E+01 -1.70727E+01 -1.56165E+01 -1.37220E+01 -1.13289E+01 -8.40222E+00 -5.15491E+00 -2.13654E+00 -8.68570E-02
   5.68807E-01 -4.24955E-02 -1.54623E+00 -3.57380E+00 -5.80546E+00 -8.02204E+00 -1.01110E+01 -1.21370E+01 -1.41689E+01 -1.57446E+01
  -1.63050E+01 -1.64067E+01 -1.62820E+01 -1.60395E+01 -1.57214E+01 -1.52559E+01 -1.45190E+01 -1.34263E+01 -1.21019E+01 -1.08141E+01
  -9.83989E+00 -9.32018E+00 -9.29442E+00 -9.79491E+00 -1.07387E+01 -1.18755E+01 -1.29966E+01 -1.40233E+01 -1.49666E+01 -1.56150E+01
  -1.57268E+01 -1.55083E+01 -1.50383E+01 -1.43185E+01 -1.34173E+01 -1.24995E+01 -1.18448E+01 -1.16036E+01 -1.17979E+01 -1.23303E+01
  -1.30061E+01 -1.37196E+01 -1.43807E+01 -1.48897E+01 -1.52707E+01 -1.56165E+01 -1.58549E+01 -1.58497E+01 -1.56745E+01 -1.55192E+01
  -1.54843E+01 -1.55667E+01 -1.57410E+01 -1.59504E+01 -1.61298E+01 -1.62318E+01 -1.62435E+01 -1.61964E+01 -1.61041E+01 -1.59414E+01
  -1.57152E+01 -1.54535E+01 -1.52002E+01 -1.49963E+01 -1.48667E+01 -1.48376E+01 -1.49042E+01 -1.50187E+01 -1.51110E+01 -1.51093E+01
  -1.50636E+01 -1.49626E+01 -1.47673E+01 -1.45063E+01 -1.42446E+01 -1.40700E+01 -1.40650E+01 -1.42515E+01 -1.45483E+01 -1.48779E+01
  -1.52007E+01 -1.54867E+01 -1.57157E+01 -1.58679E+01 -1.58473E+01 -1.51790E+01 -1.35878E+01 -1.12468E+01 -8.27407E+00 -4.59633E+00
  -2.63916E-01  4.20139E+00  7.79171E+00  9.59119E+00  9.42141E+00  7.72211E+00  5.05072E+00  1.86521E+00 -1.44451E+00 -4.60152E+00
  -7.60413E+00 -1.06392E+01 -1.34742E+01 -1.51116E+01 -1.55775E+01 -1.57212E+01 -1.57658E+01 -1.57435E+01 -1.55972E+01 -1.49759E+01
  -1.34151E+01 -1.11574E+01 -8.27991E+00 -4.65869E+00 -2.51341E-01  4.61414E+00  9.02444E+00  1.18328E+01  1.25217E+01  1.13990E+01
   9.02512E+00  5.88901E+00  2.39177E+00 -1.16739E+00 -4.61342E+00 -8.03736E+00 -1.13953E+01 -1.37902E+01 -1.44877E+01 -1.45216E+01
  -1.44099E+01 -1.42885E+01 -1.41905E+01 -1.40772E+01 -1.39488E+01 -1.38850E+01 -1.39149E+01 -1.40312E+01 -1.42211E+01 -1.44392E+01
  -1.46424E+01 -1.48010E+01 -1.49144E+01 -1.50252E+01 -1.51454E+01 -1.52662E+01 -1.53848E+01 -1.55117E+01 -1.56583E+01 -1.58062E+01
  -1.59128E+01 -1.59371E+01 -1.58699E+01 -1.57441E+01 -1.56158E+01 -1.55295E+01 -1.54931E+01 -1.55000E+01 -1.55499E+01 -1.56387E+01
  -1.57456E+01 -1.58910E+01 -1.60934E+01 -1.63389E+01 -1.65938E+01 -1.67685E+01 -1.68321E+01 -1.68295E+01 -1.68153E+01 -1.68257E+01
  -1.68393E+01 -1.67952E+01 -1.66704E+01 -1.64705E+01 -1.61931E+01 -1.58345E+01 -1.54089E+01 -1.49237E+01 -1.43774E+01 -1.38513E+01
  -1.34644E+01 -1.33027E+01 -1.33650E+01 -1.35399E+01 -1.37107E+01 -1.37945E+01 -1.37200E+01 -1.34507E+01 -1.29747E+01 -1.22966E+01
  -1.15065E+01 -1.07280E+01 -1.01735E+01 -9.96857E+00 -1.01707E+01 -1.08063E+01 -1.18140E+01 -1.29897E+01 -1.40135E+01 -1.45920E+01
  -1.46078E+01 -1.40435E+01 -1.29894E+01 -1.16484E+01 -1.03486E+01 -9.45567E+00 -9.18940E+00 -9.54023E+00 -1.03859E+01 -1.15894E+01
  -1.30349E+01 -1.42501E+01 -1.48418E+01 -1.48346E+01 -1.44185E+01 -1.36909E+01 -1.26434E+01 -1.15129E+01 -1.06169E+01 -9.96054E+00
  -9.43717E+00 -9.00594E+00 -8.77141E+00 -8.77325E+00 -8.82565E+00 -8.80466E+00 -8.75935E+00 -8.75667E+00 -8.84984E+00 -9.06227E+00
  -9.37202E+00 -9.76504E+00 -1.01556E+01 -1.03801E+01 -1.03949E+01 -1.02894E+01 -1.01596E+01 -9.94073E+00 -9.61519E+00 -9.23517E+00
  -8.78276E+00 -8.14120E+00 -6.92629E+00 -4.70690E+00 -1.73623E+00  1.92500E+00  6.47233E+00  1.19949E+01  1.81412E+01  2.37926E+01
   2.74606E+01  2.83753E+01  2.68338E+01  2.35831E+01  1.93117E+01  1.46336E+01  1.00153E+01  5.65591E+00  1.32268E+00 -3.05030E+00
  -6.40532E+00 -7.73355E+00 -8.17533E+00 -8.37889E+00 -8.46716E+00 -8.50711E+00 -8.56087E+00 -8.61860E+00 -8.68259E+00 -8.75262E+00
  -8.82108E+00 -8.88622E+00 -8.95752E+00 -9.02687E+00 -9.07590E+00 -9.10113E+00 -9.10879E+00 -9.10263E+00 -9.08222E+00 -9.04666E+00
  -8.99957E+00 -8.94662E+00 -8.88470E+00 -8.81170E+00 -8.72774E+00 -8.63335E+00 -8.52904E+00 -8.41576E+00 -8.29581E+00 -8.17177E+00
  -8.04500E+00 -7.91770E+00 -7.79275E+00 -7.67258E+00 -7.55953E+00 -7.45571E+00 -7.36269E+00 -7.28145E+00 -7.21236E+00 -7.15527E+00
  -7.10940E+00 -7.07348E+00 -7.04558E+00 -7.02284E+00 -7.00199E+00 -6.97966E+00 -6.95168E+00 -6.91252E+00 -6.85278E+00 -6.75706E+00
  -6.63517E+00 -6.50990E+00 -6.38441E+00 -6.26503E+00 -6.17309E+00 -6.14696E+00 -6.22629E+00 -6.39849E+00 -6.59631E+00 -6.76780E+00
  -6.87531E+00 -6.88443E+00 -6.76348E+00 -6.49936E+00 -6.12146E+00 -5.69072E+00 -5.23989E+00 -4.75885E+00 -4.28239E+00 -3.84998E+00
  -3.43988E+00 -3.02516E+00 -2.58789E+00 -2.13333E+00 -1.67385E+00 -1.16889E+00 -5.68285E-01  1.05016E-01  8.28473E-01  1.58508E+00
   2.35799E+00  3.12928E+00  3.87979E+00  4.58959E+00  5.23858E+00  5.80741E+00  6.27839E+00  6.63637E+00  6.86952E+00  6.96990E+00
   6.93390E+00  6.76243E+00  6.46096E+00  6.03908E+00  5.50996E+00  4.88961E+00  4.19604E+00  3.44837E+00  2.66597E+00  1.86757E+00
   1.07054E+00  2.90282E-01 -4.60120E-01 -1.17008E+00 -1.83160E+00 -2.43920E+00 -2.98974E+00 -3.48212E+00 -3.91688E+00 -4.29588E+00
  -4.62189E+00 -4.89836E+00 -5.12909E+00 -5.31799E+00 -5.46886E+00 -5.58524E+00 -5.67040E+00 -5.72728E+00 -5.75851E+00 -5.76638E+00
  -5.75292E+00 -5.71993E+00 -5.66912E+00 -5.60223E+00 -5.52101E+00 -5.42733E+00 -5.32321E+00 -5.21089E+00 -5.09287E+00 -4.97187E+00
  -4.85083E+00 -4.73278E+00 -4.62078E+00 -4.51785E+00 -4.42689E+00 -4.35052E+00 -4.29095E+00 -4.24988E+00 -4.22843E+00 -4.22711E+00
  -4.24584E+00 -4.28387E+00 -4.33988E+00 -4.41201E+00 -4.49801E+00 -4.59535E+00 -4.70136E+00 -4.81330E+00 -4.92850E+00 -5.04441E+00
  -5.15878E+00 -5.26968E+00 -5.37551E+00 -5.47501E+00 -5.56725E+00 -5.65162E+00 -5.72784E+00 -5.79589E+00 -5.85593E+00 -5.90827E+00
  -5.95331E+00 -5.99155E+00 -6.02357E+00 -6.04995E+00 -6.07124E+00 -6.08796E+00 -6.10061E+00 -6.10964E+00 -6.11549E+00 -6.11857E+00
  -6.11918E+00 -6.11761E+00 -6.11410E+00 -6.10889E+00 -6.10220E+00 -6.09420E+00 -6.08503E+00 -6.07479E+00 -6.06359E+00 -6.05156E+00
  -6.03878E+00 -6.02534E+00 -6.01127E+00 -5.99662E+00 -5.98144E+00 -5.96581E+00 -5.94976E+00 -5.93333E+00 -5.91651E+00 -5.89935E+00
  -5.88188E+00 -5.86414E+00 -5.84614E+00 -5.82790E+00 -5.80940E+00 -5.79068E+00 -5.77176E+00 -5.75268E+00 -5.73343E+00 -5.71399E+00
  -5.69439E+00 -5.67463E+00 -5.65475E+00 -5.63474E+00 -5.61461E+00 -5.59434E+00 -5.57395E+00 -5.55345E+00 -5.53286E+00 -5.51218E+00
  -5.49139E+00 -5.47050E+00 -5.44952E+00 -5.42846E+00 -5.40733E+00 -5.38612E+00 -5.36482E+00 -5.34343E+00 -5.32196E+00 -5.30044E+00
  -5.27885E+00 -5.25718E+00 -5.23541E+00 -5.21357E+00 -5.19165E+00 -5.16967E+00 -5.14761E+00 -5.12545E+00
 NY background values follow
    -2.126E+01   -2.123E+01   -2.119E+01   -2.115E+01   -2.111E+01   -2.107E+01   -2.103E+01   -2.100E+01   -2.096E+01   -2.092E+01
    -2.088E+01   -2.084E+01   -2.081E+01   -2.077E+01   -2.073E+01   -2.069E+01   -2.065E+01   -2.062E+01   -2.058E+01   -2.054E+01
    -2.050E+01   -2.046E+01   -2.042E+01   -2.039E+01   -2.035E+01   -2.031E+01   -2.027E+01   -2.023E+01   -2.020E+01   -2.016E+01
    -2.012E+01   -2.008E+01   -2.004E+01   -2.001E+01   -1.997E+01   -1.993E+01   -1.989E+01   -1.985E+01   -1.982E+01   -1.978E+01
    -1.974E+01   -1.970E+01   -1.966E+01   -1.963E+01   -1.959E+01   -1.955E+01   -1.951E+01   -1.947E+01   -1.944E+01   -1.940E+01
    -1.936E+01   -1.932E+01   -1.929E+01   -1.925E+01   -1.921E+01   -1.917E+01   -1.913E+01   -1.910E+01   -1.906E+01   -1.902E+01
    -1.898E+01   -1.894E+01   -1.891E+01   -1.887E+01   -1.883E+01   -1.879E+01   -1.876E+01   -1.872E+01   -1.868E+01   -1.864E+01
    -1.861E+01   -1.857E+01   -1.853E+01   -1.849E+01   -1.845E+01   -1.842E+01   -1.838E+01   -1.834E+01   -1.830E+01   -1.827E+01
    -1.823E+01   -1.819E+01   -1.815E+01   -1.812E+01   -1.808E+01   -1.804E+01   -1.800E+01   -1.797E+01   -1.793E+01   -1.789E+01
    -1.785E+01   -1.782E+01   -1.778E+01   -1.774E+01   -1.770E+01   -1.767E+01   -1.763E+01   -1.759E+01   -1.755E+01   -1.752E+01
    -1.748E+01   -1.744E+01   -1.740E+01   -1.737E+01   -1.733E+01   -1.729E+01   -1.725E+01   -1.722E+01   -1.718E+01   -1.714E+01
    -1.710E+01   -1.707E+01   -1.703E+01   -1.699E+01   -1.696E+01   -1.692E+01   -1.688E+01   -1.684E+01   -1.681E+01   -1.677E+01
    -1.673E+01   -1.669E+01   -1.666E+01   -1.662E+01   -1.658E+01   -1.654E+01   -1.651E+01   -1.647E+01   -1.643E+01   -1.639E+01
    -1.636E+01   -1.632E+01   -1.628E+01   -1.625E+01   -1.621E+01   -1.617E+01   -1.613E+01   -1.610E+01   -1.606E+01   -1.602E+01
    -1.598E+01   -1.595E+01   -1.591E+01   -1.587E+01   -1.583E+01   -1.580E+01   -1.576E+01   -1.572E+01   -1.568E+01   -1.565E+01
    -1.561E+01   -1.557E+01   -1.553E+01   -1.550E+01   -1.546E+01   -1.542E+01   -1.538E+01   -1.535E+01   -1.531E+01   -1.527E+01
    -1.523E+01   -1.520E+01   -1.516E+01   -1.512E+01   -1.508E+01   -1.505E+01   -1.501E+01   -1.497E+01   -1.493E+01   -1.490E+01
    -1.486E+01   -1.482E+01   -1.479E+01   -1.475E+01   -1.471E+01   -1.467E+01   -1.464E+01   -1.460E+01   -1.456E+01   -1.452E+01
    -1.449E+01   -1.445E+01   -1.441E+01   -1.437E+01   -1.434E+01   -1.430E+01   -1.426E+01   -1.423E+01   -1.419E+01   -1.415E+01
    -1.411E+01   -1.408E+01   -1.404E+01   -1.400E+01   -1.397E+01   -1.393E+01   -1.389E+01   -1.385E+01   -1.382E+01   -1.378E+01
    -1.374E+01   -1.371E+01   -1.367E+01   -1.363E+01   -1.360E+01   -1.356E+01   -1.352E+01   -1.349E+01   -1.345E+01   -1.341E+01
    -1.338E+01   -1.334E+01   -1.330E+01   -1.327E+01   -1.323E+01   -1.320E+01   -1.316E+01   -1.312E+01   -1.309E+01   -1.305E+01
    -1.301E+01   -1.298E+01   -1.294E+01   -1.291E+01   -1.287E+01   -1.284E+01   -1.280E+01   -1.276E+01   -1.273E+01   -1.269E+01
    -1.266E+01   -1.262E+01   -1.259E+01   -1.255E+01   -1.252E+01   -1.248E+01   -1.245E+01   -1.241E+01   -1.238E+01   -1.234E+01
    -1.231E+01   -1.227E+01   -1.224E+01   -1.221E+01   -1.217E+01   -1.214E+01   -1.210E+01   -1.207E+01   -1.203E+01   -1.200E+01
    -1.197E+01   -1.193E+01   -1.190E+01   -1.187E+01   -1.183E+01   -1.180E+01   -1.176E+01   -1.173E+01   -1.170E+01   -1.166E+01
    -1.163E+01   -1.160E+01   -1.156E+01   -1.153E+01   -1.150E+01   -1.147E+01   -1.143E+01   -1.140E+01   -1.137E+01   -1.134E+01
    -1.130E+01   -1.127E+01   -1.124E+01   -1.121E+01   -1.117E+01   -1.114E+01   -1.111E+01   -1.108E+01   -1.105E+01   -1.101E+01
    -1.098E+01   -1.095E+01   -1.092E+01   -1.089E+01   -1.086E+01   -1.082E+01   -1.079E+01   -1.076E+01   -1.073E+01   -1.070E+01
    -1.067E+01   -1.064E+01   -1.061E+01   -1.058E+01   -1.054E+01   -1.051E+01   -1.048E+01   -1.045E+01   -1.042E+01   -1.039E+01
    -1.036E+01   -1.033E+01   -1.030E+01   -1.027E+01   -1.024E+01   -1.021E+01   -1.018E+01   -1.015E+01   -1.012E+01   -1.009E+01
    -1.006E+01   -1.003E+01   -1.000E+01   -9.975E+00   -9.945E+00   -9.916E+00   -9.887E+00   -9.858E+00   -9.829E+00   -9.800E+00
    -9.772E+00   -9.743E+00   -9.714E+00   -9.686E+00   -9.657E+00   -9.629E+00   -9.600E+00   -9.572E+00   -9.544E+00   -9.516E+00
    -9.487E+00   -9.459E+00   -9.431E+00   -9.404E+00   -9.376E+00   -9.348E+00   -9.320E+00   -9.293E+00   -9.265E+00   -9.237E+00
    -9.210E+00   -9.183E+00   -9.155E+00   -9.128E+00   -9.101E+00   -9.073E+00   -9.046E+00   -9.019E+00   -8.992E+00   -8.965E+00
    -8.938E+00   -8.911E+00   -8.885E+00   -8.858E+00   -8.831E+00   -8.805E+00   -8.778E+00   -8.751E+00   -8.725E+00   -8.698E+00
    -8.672E+00   -8.646E+00   -8.619E+00   -8.593E+00   -8.567E+00   -8.541E+00   -8.514E+00   -8.488E+00   -8.462E+00   -8.436E+00
    -8.410E+00   -8.384E+00   -8.358E+00   -8.333E+00   -8.307E+00   -8.281E+00   -8.255E+00   -8.230E+00   -8.204E+00   -8.178E+00
    -8.153E+00   -8.127E+00   -8.102E+00   -8.076E+00   -8.051E+00   -8.025E+00   -8.000E+00   -7.974E+00   -7.949E+00   -7.924E+00
    -7.898E+00   -7.873E+00   -7.848E+00   -7.823E+00   -7.798E+00   -7.773E+00   -7.747E+00   -7.722E+00   -7.697E+00   -7.672E+00
    -7.647E+00   -7.622E+00   -7.597E+00   -7.572E+00   -7.547E+00   -7.523E+00   -7.498E+00   -7.473E+00   -7.448E+00   -7.423E+00
    -7.398E+00   -7.374E+00   -7.349E+00   -7.324E+00   -7.299E+00   -7.275E+00   -7.250E+00   -7.225E+00   -7.201E+00   -7.176E+00
    -7.151E+00   -7.127E+00   -7.102E+00   -7.078E+00   -7.053E+00   -7.028E+00   -7.004E+00   -6.979E+00   -6.955E+00   -6.931E+00
    -6.906E+00   -6.882E+00   -6.857E+00   -6.833E+00   -6.808E+00   -6.784E+00   -6.760E+00   -6.735E+00   -6.711E+00   -6.687E+00
    -6.662E+00   -6.638E+00   -6.614E+00   -6.589E+00   -6.565E+00   -6.541E+00   -6.517E+00   -6.492E+00   -6.468E+00   -6.444E+00
    -6.420E+00   -6.396E+00   -6.371E+00   -6.347E+00   -6.323E+00   -6.299E+00   -6.275E+00   -6.251E+00   -6.227E+00   -6.203E+00
    -6.178E+00   -6.154E+00   -6.130E+00   -6.106E+00   -6.082E+00   -6.058E+00   -6.034E+00   -6.010E+00   -5.986E+00   -5.962E+00
    -5.938E+00   -5.914E+00   -5.890E+00   -5.866E+00   -5.842E+00   -5.818E+00   -5.794E+00   -5.770E+00   -5.746E+00   -5.722E+00
    -5.698E+00   -5.674E+00   -5.650E+00   -5.626E+00   -5.602E+00   -5.578E+00   -5.554E+00   -5.530E+00   -5.506E+00   -5.482E+00
    -5.458E+00   -5.434E+00   -5.410E+00   -5.386E+00   -5.362E+00   -5.338E+00   -5.314E+00   -5.290E+00
 Ala      Conc. = 1.03E+02
