 LCModel (Version 6.3-1L) Copyright: S.W. Provencher.          Ref.: Magn. Reson. Med. 30:672-679 (1993).                
 Slice#3 Row#5 Col#6  PD_24_press_1_raw_act
 36 lines in following concentration table = NCONC+1
    Conc.  %SD /Cr+PCr  Metabolite                                         
  113.063  84% 5.6E-02 Ala                                                 
    0.000 999%   0.000 Asp                                                 
 1.22E+03  13%   0.604 Cr                                                  
  796.074  20%   0.396 PCr                                                 
    0.000 999%   0.000 GABA                                                
    0.000 999%   0.000 Glc                                                 
  619.201  32%   0.308 Gln                                                 
 1.60E+03  14%   0.793 Glu                                                 
  725.053   3%   0.360 GPC                                                 
    0.000 999%   0.000 PCh                                                 
  465.266  14%   0.231 GSH                                                 
  652.598  36%   0.324 Ins                                                 
  302.481  34%   0.150 Lac                                                 
 2.33E+03   4%   1.158 NAA                                                 
   96.818  97% 4.8E-02 NAAG                                                
   37.361  70% 1.9E-02 Scyllo                                              
    0.000 999%   0.000 Tau                                                 
    0.000 999%   0.000 -CrCH2                                              
  725.053   3%   0.360 GPC+PCh                                             
 2.43E+03   3%   1.206 NAA+NAAG                                            
 2.01E+03   3%   1.000 Cr+PCr                                              
 2.22E+03  14%   1.101 Glu+Gln                                             
 1.48E+03  32%   0.735 Lip13a                                              
    0.000 999%   0.000 Lip13b                                              
  147.156 174% 7.3E-02 Lip09                                               
 1.51E+03  18%   0.752 MM09                                                
  237.220  77%   0.118 Lip20                                               
 3.22E+03  12%   1.602 MM20                                                
  620.851  29%   0.308 MM12                                                
    0.000 999%   0.000 MM14                                                
  669.507  35%   0.333 MM17                                                
 1.48E+03  32%   0.735 Lip13a+Lip13b                                       
 2.10E+03  21%   1.043 MM14+Lip13a+Lip13b+MM12                             
 1.66E+03  14%   0.825 MM09+Lip09                                          
 3.46E+03  12%   1.720 MM20+Lip20                                          
   6 lines in following misc. output table
  FWHM = 0.038 ppm    S/N =  14                                            
  Data shift =-0.008 ppm                                                   
  Ph:  -5 deg      -1.3 deg/ppm                                            
  alphaB,S = 5.9E-01,   5.1E+01                                            
   14 spline knots.   Ns = 6(1)                                            
  (11) 4 infls.   ( 7) 1 extrs.                                            
  498 points on ppm-axis = NY
      4.000000     3.992357     3.984714     3.977070     3.969427     3.961784     3.954141     3.946497     3.938854     3.931211
      3.923568     3.915925     3.908281     3.900638     3.892995     3.885352     3.877708     3.870065     3.862422     3.854779
      3.847136     3.839492     3.831849     3.824206     3.816563     3.808919     3.801276     3.793633     3.785990     3.778347
      3.770703     3.763060     3.755417     3.747774     3.740130     3.732487     3.724844     3.717201     3.709558     3.701914
      3.694271     3.686628     3.678985     3.671341     3.663698     3.656055     3.648412     3.640769     3.633125     3.625482
      3.617839     3.610196     3.602552     3.594909     3.587266     3.579623     3.571980     3.564336     3.556693     3.549050
      3.541407     3.533763     3.526120     3.518477     3.510834     3.503191     3.495547     3.487904     3.480261     3.472618
      3.464974     3.457331     3.449688     3.442045     3.434402     3.426758     3.419115     3.411472     3.403829     3.396185
      3.388542     3.380899     3.373256     3.365613     3.357969     3.350326     3.342683     3.335040     3.327396     3.319753
      3.312110     3.304467     3.296824     3.289180     3.281537     3.273894     3.266251     3.258607     3.250964     3.243321
      3.235678     3.228034     3.220391     3.212748     3.205105     3.197462     3.189818     3.182175     3.174532     3.166889
      3.159245     3.151602     3.143959     3.136316     3.128673     3.121029     3.113386     3.105743     3.098100     3.090456
      3.082813     3.075170     3.067527     3.059884     3.052240     3.044597     3.036954     3.029311     3.021667     3.014024
      3.006381     2.998738     2.991095     2.983451     2.975808     2.968165     2.960522     2.952878     2.945235     2.937592
      2.929949     2.922306     2.914662     2.907019     2.899376     2.891733     2.884089     2.876446     2.868803     2.861160
      2.853517     2.845873     2.838230     2.830587     2.822944     2.815300     2.807657     2.800014     2.792371     2.784728
      2.777084     2.769441     2.761798     2.754155     2.746511     2.738868     2.731225     2.723582     2.715939     2.708295
      2.700652     2.693009     2.685366     2.677722     2.670079     2.662436     2.654793     2.647150     2.639506     2.631863
      2.624220     2.616577     2.608933     2.601290     2.593647     2.586004     2.578361     2.570717     2.563074     2.555431
      2.547788     2.540144     2.532501     2.524858     2.517215     2.509572     2.501928     2.494285     2.486642     2.478999
      2.471355     2.463712     2.456069     2.448426     2.440783     2.433139     2.425496     2.417853     2.410210     2.402566
      2.394923     2.387280     2.379637     2.371994     2.364350     2.356707     2.349064     2.341421     2.333777     2.326134
      2.318491     2.310848     2.303205     2.295561     2.287918     2.280275     2.272632     2.264988     2.257345     2.249702
      2.242059     2.234416     2.226772     2.219129     2.211486     2.203843     2.196199     2.188556     2.180913     2.173270
      2.165627     2.157983     2.150340     2.142697     2.135054     2.127410     2.119767     2.112124     2.104481     2.096838
      2.089194     2.081551     2.073908     2.066265     2.058621     2.050978     2.043335     2.035692     2.028049     2.020405
      2.012762     2.005119     1.997476     1.989833     1.982190     1.974546     1.966903     1.959260     1.951617     1.943974
      1.936331     1.928688     1.921045     1.913402     1.905759     1.898115     1.890472     1.882829     1.875186     1.867543
      1.859900     1.852257     1.844614     1.836971     1.829327     1.821684     1.814041     1.806398     1.798755     1.791112
      1.783469     1.775826     1.768183     1.760540     1.752896     1.745253     1.737610     1.729967     1.722324     1.714681
      1.707038     1.699395     1.691752     1.684108     1.676465     1.668822     1.661179     1.653536     1.645893     1.638250
      1.630607     1.622964     1.615321     1.607677     1.600034     1.592391     1.584748     1.577105     1.569462     1.561819
      1.554176     1.546533     1.538890     1.531246     1.523603     1.515960     1.508317     1.500674     1.493031     1.485388
      1.477745     1.470102     1.462458     1.454815     1.447172     1.439529     1.431886     1.424243     1.416600     1.408957
      1.401314     1.393671     1.386027     1.378384     1.370741     1.363098     1.355455     1.347812     1.340169     1.332526
      1.324883     1.317240     1.309596     1.301953     1.294310     1.286667     1.279024     1.271381     1.263738     1.256095
      1.248452     1.240808     1.233165     1.225522     1.217879     1.210236     1.202593     1.194950     1.187307     1.179664
      1.172021     1.164377     1.156734     1.149091     1.141448     1.133805     1.126162     1.118519     1.110876     1.103233
      1.095590     1.087946     1.080303     1.072660     1.065017     1.057374     1.049731     1.042088     1.034445     1.026802
      1.019158     1.011515     1.003872     0.996229     0.988586     0.980943     0.973300     0.965657     0.958014     0.950371
      0.942727     0.935084     0.927441     0.919798     0.912155     0.904512     0.896869     0.889226     0.881583     0.873940
      0.866296     0.858653     0.851010     0.843367     0.835724     0.828081     0.820438     0.812795     0.805152     0.797508
      0.789865     0.782222     0.774579     0.766936     0.759293     0.751650     0.744007     0.736364     0.728721     0.721077
      0.713434     0.705791     0.698148     0.690505     0.682862     0.675219     0.667576     0.659933     0.652290     0.644646
      0.637003     0.629360     0.621717     0.614074     0.606431     0.598788     0.591145     0.583502     0.575858     0.568215
      0.560572     0.552929     0.545286     0.537643     0.530000     0.522357     0.514714     0.507071     0.499427     0.491784
      0.484141     0.476498     0.468855     0.461212     0.453569     0.445925     0.438282     0.430639     0.422996     0.415353
      0.407710     0.400067     0.392424     0.384780     0.377137     0.369494     0.361851     0.354208     0.346565     0.338922
      0.331278     0.323635     0.315992     0.308349     0.300706     0.293063     0.285420     0.277777     0.270133     0.262490
      0.254847     0.247204     0.239561     0.231918     0.224275     0.216631     0.208988     0.201345
 NY phased data points follow
   5.56436E+01  6.17609E+01  5.52585E+01  6.08117E+01  5.48593E+01  6.84625E+01  6.92473E+01  8.13081E+01  8.31418E+01  9.27412E+01
   9.49331E+01  1.04984E+02  1.02438E+02  9.90532E+01  8.93726E+01  8.24551E+01  7.01433E+01  6.81919E+01  5.88502E+01  5.83208E+01
   5.51793E+01  5.60296E+01  4.97225E+01  4.83456E+01  5.14093E+01  4.63687E+01  5.11323E+01  5.23485E+01  4.97344E+01  5.48964E+01
   5.70384E+01  5.90762E+01  5.67337E+01  5.42784E+01  5.47008E+01  5.29839E+01  4.87790E+01  4.44465E+01  4.64715E+01  4.86533E+01
   4.42223E+01  4.55444E+01  4.43092E+01  4.59907E+01  4.30252E+01  4.86268E+01  4.61025E+01  5.57920E+01  5.09147E+01  5.09004E+01
   4.35537E+01  4.32401E+01  3.72802E+01  4.24703E+01  3.62955E+01  3.97128E+01  3.61394E+01  4.07069E+01  3.72391E+01  4.28158E+01
   3.60429E+01  3.31148E+01  2.66953E+01  2.94037E+01  2.56565E+01  2.69985E+01  2.43668E+01  2.35631E+01  2.59373E+01  2.43543E+01
   2.13024E+01  2.98037E+01  2.02916E+01  2.74171E+01  2.46989E+01  2.77059E+01  2.86392E+01  2.74673E+01  2.11587E+01  2.52395E+01
   2.29936E+01  2.17182E+01  2.04051E+01  2.46978E+01  2.10659E+01  2.71569E+01  2.49648E+01  2.45092E+01  2.31872E+01  2.84368E+01
   2.28764E+01  2.64545E+01  2.43301E+01  2.43274E+01  2.28688E+01  2.26635E+01  2.15710E+01  2.68739E+01  2.51161E+01  3.29196E+01
   4.12099E+01  6.22616E+01  7.84654E+01  9.53058E+01  9.29073E+01  8.58679E+01  6.88867E+01  5.74871E+01  5.08995E+01  4.82043E+01
   3.55837E+01  3.32650E+01  2.75588E+01  3.01585E+01  2.56140E+01  1.99461E+01  1.89808E+01  2.45691E+01  2.01074E+01  2.07220E+01
   1.81956E+01  1.82426E+01  1.77293E+01  2.91757E+01  3.76207E+01  5.46613E+01  6.67482E+01  8.39279E+01  8.21331E+01  7.81196E+01
   6.95131E+01  5.86537E+01  4.40184E+01  4.43261E+01  3.26104E+01  2.81901E+01  2.71229E+01  2.04054E+01  1.43507E+01  1.39125E+01
   1.14356E+01  1.43823E+01  1.51635E+01  1.70246E+01  1.56302E+01  1.22555E+01  1.28242E+01  1.10536E+01  7.01060E+00  1.43438E+01
   9.30876E+00  9.06558E+00  9.54224E+00  1.12362E+01  1.01072E+01  8.45296E+00  8.36963E+00  1.02044E+01  1.26372E+01  1.14671E+01
   9.90160E+00  1.02129E+01  8.98155E+00  7.65319E+00  3.61973E+00  1.08160E+01  7.50211E+00  8.63728E+00  9.60749E+00  5.40879E+00
   1.22036E+00  6.38307E+00  1.73472E+00  3.53419E+00  2.79440E+00 -3.32995E+00 -2.76634E+00  1.40003E+00  1.49769E+00  1.09981E+00
   2.43278E+00  3.67206E+00  2.00079E+00 -9.80662E-01 -2.03228E+00  1.58639E-01  8.44244E-01  2.43962E+00  4.71031E+00  5.42006E+00
   7.88356E+00  1.23858E+01  1.26184E+01  2.07803E+01  1.45276E+01  1.69193E+01  1.22051E+01  1.24487E+01  9.39998E+00  8.47410E+00
   1.19198E+01  1.26629E+01  1.16242E+01  1.36034E+01  1.42336E+01  1.46264E+01  1.06776E+01  8.81494E+00  9.74465E+00  5.17444E+00
   1.46028E+00  6.52672E+00  7.94816E+00  1.57388E+01  1.60189E+01  2.19330E+01  2.25993E+01  2.72967E+01  2.33845E+01  1.75160E+01
   1.01779E+01  1.01757E+01  5.69954E+00  1.03038E+01  5.52469E+00  1.32840E+01  1.47698E+01  1.88821E+01  1.80811E+01  1.95311E+01
   1.53209E+01  1.85032E+01  1.23491E+01  1.55354E+01  1.38340E+01  1.89319E+01  2.35551E+01  2.08368E+01  1.54364E+01  1.53171E+01
   1.08633E+01  1.27620E+01  1.63507E+01  1.30383E+01  1.17876E+01  1.63519E+01  1.86725E+01  2.17100E+01  1.98077E+01  1.72143E+01
   2.23585E+01  2.08451E+01  1.69936E+01  1.93720E+01  2.30493E+01  2.72476E+01  3.36778E+01  4.72941E+01  5.72893E+01  8.12412E+01
   9.94208E+01  1.12489E+02  1.02786E+02  7.93552E+01  5.56412E+01  4.72246E+01  3.84700E+01  3.76710E+01  2.71118E+01  2.20899E+01
   2.23960E+01  1.57866E+01  1.13333E+01  1.77024E+01  1.07351E+01  1.21450E+01  1.19282E+01  1.15084E+01  9.43936E+00  1.06676E+01
   8.96421E+00  7.65098E+00  1.00114E+01  9.33951E+00  1.29944E+01  1.15153E+01  4.60814E+00  7.45463E+00  6.20874E+00  7.77221E+00
   8.31281E+00  9.67732E+00  4.01250E+00  9.72842E+00  6.91771E+00  8.89264E+00  7.89595E+00  8.12892E+00  8.53602E+00  8.11309E+00
   5.79973E+00  6.93500E+00  5.83000E+00  8.22911E+00  1.30726E+01  9.17142E+00  1.12991E+01  1.38541E+01  1.10992E+01  8.42616E+00
   1.08949E+01  1.28201E+01  8.18103E+00  8.98599E+00  1.10303E+01  1.15175E+01  9.50966E+00  1.02053E+01  1.26972E+01  1.34878E+01
   1.15443E+01  6.41816E+00  1.09604E+01  9.61735E+00  8.15576E+00  1.10503E+01  9.99428E+00  3.54950E+00  3.92371E+00  4.16788E+00
   6.71465E+00  3.72382E+00  9.16820E+00  2.69694E+00  6.97253E+00  1.14534E+01  3.64001E+00  1.15390E+01  7.08265E+00  9.33781E+00
   8.37722E+00  7.64087E+00  8.78123E+00  1.38760E+01  1.36411E+01  1.42521E+01  1.13559E+01  9.88598E+00  8.57338E+00  8.76834E+00
   4.04770E+00  7.87955E+00  9.45123E+00  1.12211E+01  1.08142E+01  1.73306E+01  1.10060E+01  1.11319E+01  1.25631E+01  1.87475E+01
   1.78407E+01  1.65402E+01  1.73297E+01  1.80229E+01  1.07429E+01  1.82334E+01  1.45310E+01  1.42585E+01  1.72053E+01  1.58692E+01
   1.72243E+01  1.58324E+01  1.42972E+01  1.08971E+01  1.25403E+01  1.35167E+01  1.07461E+01  1.47617E+01  1.34799E+01  6.01098E+00
   7.50704E+00  1.35247E+01  1.04142E+01  1.10032E+01  8.22354E+00  7.87193E+00  1.04356E+01  1.12917E+01  8.74907E+00  8.39039E+00
   1.08286E+01  1.15595E+01  9.54430E+00  1.27326E+01  1.32200E+01  1.47724E+01  1.29326E+01  1.63633E+01  1.45451E+01  1.12028E+01
   1.68194E+01  1.77140E+01  1.27757E+01  1.68084E+01  1.72167E+01  1.06204E+01  1.72910E+01  1.50433E+01  1.77022E+01  2.12692E+01
   1.36799E+01  2.03314E+01  7.32542E+00  1.52691E+01  1.15759E+01  9.90029E+00  9.85327E+00  1.09991E+01  1.08836E+01  1.03056E+01
   1.19919E+01  9.92438E+00  8.14933E+00  8.97240E+00  9.08146E+00  6.56840E+00  5.80117E+00  9.72753E+00  8.76603E+00  5.45296E+00
   3.85489E+00  4.65451E+00  4.31339E+00  4.37855E+00  7.27988E+00  5.87283E+00  5.90847E+00  4.41631E+00  6.59677E+00  5.22934E+00
   4.42143E+00  5.65509E+00  3.90335E+00  6.34020E+00  5.49019E+00  8.14900E+00  4.59387E+00  6.96552E+00  6.60907E+00  5.65527E+00
   8.38546E+00  8.97157E+00  6.69549E+00  5.00448E+00  4.88314E+00  1.70532E+00  5.89973E+00  5.36544E+00  4.20788E+00  3.07851E+00
   4.82301E+00  5.88340E+00  1.63717E+00  5.72642E+00  3.24144E+00  6.20604E+00  4.59102E+00  4.54696E+00  5.26300E+00  1.54968E+00
   1.66990E+00  3.35096E+00  6.30553E+00  2.12942E+00  3.42994E+00  1.39386E+00  6.46973E-01  6.83006E+00  6.90404E+00  7.27266E+00
   4.41092E+00  7.42047E+00  2.34275E+00  5.59095E+00  2.34485E-01  4.31261E+00  3.71977E+00  5.06612E+00  6.39939E+00  5.18922E+00
   2.10827E+00  8.13025E+00  8.31336E-01 -2.01661E-01  1.91092E+00  4.22445E+00  5.40978E+00 -5.23165E-01
 NY points of the fit to the data follow
   5.79223E+01  5.76638E+01  5.76780E+01  5.81342E+01  5.96877E+01  6.26919E+01  6.72349E+01  7.36274E+01  8.14414E+01  8.88665E+01
   9.43774E+01  9.72909E+01  9.69921E+01  9.33536E+01  8.69084E+01  7.89406E+01  7.13547E+01  6.64747E+01  6.36683E+01  5.96158E+01
   5.54214E+01  5.35575E+01  5.25150E+01  5.13972E+01  5.00793E+01  4.89771E+01  4.86551E+01  4.94036E+01  5.14934E+01  5.47225E+01
   5.78993E+01  5.96123E+01  5.90619E+01  5.67149E+01  5.36889E+01  5.10874E+01  4.87493E+01  4.60054E+01  4.39662E+01  4.35782E+01
   4.37147E+01  4.38302E+01  4.40361E+01  4.46863E+01  4.55201E+01  4.63792E+01  4.71430E+01  4.71767E+01  4.62474E+01  4.47152E+01
   4.28302E+01  4.12643E+01  4.03928E+01  3.95237E+01  3.81792E+01  3.70718E+01  3.66584E+01  3.65214E+01  3.62657E+01  3.59882E+01
   3.55823E+01  3.48994E+01  3.39053E+01  3.28018E+01  3.19133E+01  3.13286E+01  3.09209E+01  3.06400E+01  3.04595E+01  3.03128E+01
   3.02135E+01  3.00813E+01  2.98489E+01  2.94725E+01  2.89589E+01  2.84233E+01  2.79551E+01  2.75692E+01  2.71862E+01  2.67594E+01
   2.64093E+01  2.61746E+01  2.60605E+01  2.60255E+01  2.60155E+01  2.59228E+01  2.55536E+01  2.48362E+01  2.39439E+01  2.32070E+01
   2.28723E+01  2.28945E+01  2.29879E+01  2.29110E+01  2.28142E+01  2.29154E+01  2.31460E+01  2.39272E+01  2.67166E+01  3.34847E+01
   4.50419E+01  6.09110E+01  7.89829E+01  9.31674E+01  9.68114E+01  8.81431E+01  7.21406E+01  5.72358E+01  4.85132E+01  4.35186E+01
   3.63132E+01  2.64287E+01  2.14696E+01  1.99787E+01  1.93351E+01  1.89637E+01  1.87236E+01  1.85647E+01  1.84753E+01  1.84911E+01
   1.87668E+01  1.98037E+01  2.27796E+01  2.92220E+01  3.99810E+01  5.47247E+01  7.13019E+01  8.48193E+01  8.94697E+01  8.32110E+01
   6.98388E+01  5.63798E+01  4.74827E+01  4.17519E+01  3.43445E+01  2.48701E+01  1.77893E+01  1.51009E+01  1.45052E+01  1.48652E+01
   1.54394E+01  1.57714E+01  1.58966E+01  1.57924E+01  1.54189E+01  1.49929E+01  1.46119E+01  1.41801E+01  1.37466E+01  1.31915E+01
   1.26905E+01  1.22627E+01  1.18825E+01  1.15775E+01  1.13756E+01  1.12656E+01  1.11575E+01  1.09395E+01  1.05271E+01  9.87935E+00
   9.12966E+00  8.61720E+00  8.60496E+00  9.07382E+00  9.66369E+00  9.80642E+00  9.21330E+00  8.20839E+00  7.42916E+00  7.11098E+00
   6.88932E+00  6.52311E+00  5.80516E+00  4.96327E+00  4.35100E+00  3.84380E+00  3.63449E+00  3.86440E+00  4.35128E+00  4.68056E+00
   4.52793E+00  4.04494E+00  3.74092E+00  3.89139E+00  4.24584E+00  4.22813E+00  4.17274E+00  4.83831E+00  6.54921E+00  8.83852E+00
   1.06592E+01  1.15414E+01  1.14973E+01  1.09041E+01  1.01784E+01  9.53695E+00  8.85609E+00  8.46530E+00  8.53294E+00  9.20574E+00
   1.05150E+01  1.21782E+01  1.36692E+01  1.46811E+01  1.48980E+01  1.42481E+01  1.25364E+01  9.88513E+00  7.13034E+00  5.16156E+00
   4.50615E+00  5.06731E+00  6.79074E+00  9.55273E+00  1.28803E+01  1.62944E+01  1.85636E+01  1.85977E+01  1.57900E+01  1.14599E+01
   7.49484E+00  4.59484E+00  2.73058E+00  2.40259E+00  4.02922E+00  7.61405E+00  1.11219E+01  1.33136E+01  1.43061E+01  1.49259E+01
   1.54376E+01  1.53106E+01  1.47582E+01  1.47347E+01  1.54382E+01  1.65120E+01  1.77011E+01  1.86453E+01  1.90168E+01  1.85309E+01
   1.70619E+01  1.53170E+01  1.42700E+01  1.42410E+01  1.49583E+01  1.62133E+01  1.76408E+01  1.86706E+01  1.91126E+01  1.92903E+01
   1.95595E+01  2.00087E+01  2.06931E+01  2.17334E+01  2.34710E+01  2.68021E+01  3.36192E+01  4.52006E+01  6.18610E+01  8.26658E+01
   1.01026E+02  1.07887E+02  9.93101E+01  8.01763E+01  6.13747E+01  5.05063E+01  4.52187E+01  3.73926E+01  2.44620E+01  1.75528E+01
   1.54184E+01  1.42146E+01  1.34284E+01  1.30796E+01  1.28575E+01  1.25981E+01  1.22585E+01  1.18273E+01  1.13774E+01  1.09851E+01
   1.06234E+01  1.02382E+01  9.87624E+00  9.59904E+00  9.38502E+00  9.18461E+00  8.98396E+00  8.80427E+00  8.66974E+00  8.56156E+00
   8.47317E+00  8.41871E+00  8.39987E+00  8.40640E+00  8.43462E+00  8.48672E+00  8.56662E+00  8.67013E+00  8.79459E+00  8.93895E+00
   9.10551E+00  9.29089E+00  9.48740E+00  9.68530E+00  9.87580E+00  1.00530E+01  1.02121E+01  1.03452E+01  1.04474E+01  1.05152E+01
   1.05443E+01  1.05331E+01  1.04834E+01  1.03967E+01  1.02756E+01  1.01243E+01  9.94926E+00  9.75900E+00  9.56303E+00  9.37265E+00
   9.20485E+00  9.08839E+00  9.04834E+00  9.06360E+00  9.07391E+00  9.00000E+00  8.70666E+00  8.10547E+00  7.28070E+00  6.46795E+00
   5.92793E+00  5.76980E+00  5.89530E+00  6.21261E+00  6.74970E+00  7.57262E+00  8.36247E+00  8.84427E+00  9.08715E+00  9.32869E+00
   9.76268E+00  1.04044E+01  1.11062E+01  1.18759E+01  1.26958E+01  1.32941E+01  1.32478E+01  1.22904E+01  1.06533E+01  9.02074E+00
   8.14198E+00  8.28367E+00  9.14776E+00  1.04315E+01  1.20375E+01  1.40303E+01  1.55606E+01  1.61192E+01  1.60817E+01  1.60400E+01
   1.61970E+01  1.62000E+01  1.56723E+01  1.51617E+01  1.47956E+01  1.44679E+01  1.41416E+01  1.38053E+01  1.34568E+01  1.30974E+01
   1.27307E+01  1.23615E+01  1.19957E+01  1.16397E+01  1.12993E+01  1.09799E+01  1.06864E+01  1.04236E+01  1.01962E+01  1.00083E+01
   9.86331E+00  9.76382E+00  9.71216E+00  9.71062E+00  9.76116E+00  9.86501E+00  1.00224E+01  1.02329E+01  1.04953E+01  1.08080E+01
   1.11681E+01  1.15710E+01  1.20106E+01  1.24796E+01  1.29693E+01  1.34701E+01  1.39710E+01  1.44598E+01  1.49236E+01  1.53500E+01
   1.57268E+01  1.60431E+01  1.62889E+01  1.64560E+01  1.65385E+01  1.65332E+01  1.64397E+01  1.62601E+01  1.59989E+01  1.56626E+01
   1.52598E+01  1.48008E+01  1.42968E+01  1.37594E+01  1.31997E+01  1.26284E+01  1.20557E+01  1.14909E+01  1.09416E+01  1.04140E+01
   9.91256E+00  9.44056E+00  9.00029E+00  8.59298E+00  8.21868E+00  7.87645E+00  7.56475E+00  7.28188E+00  7.02604E+00  6.79522E+00
   6.58711E+00  6.39930E+00  6.22959E+00  6.07616E+00  5.93741E+00  5.81176E+00  5.69752E+00  5.59317E+00  5.49755E+00  5.40986E+00
   5.32933E+00  5.25512E+00  5.18630E+00  5.12217E+00  5.06230E+00  5.00645E+00  4.95426E+00  4.90523E+00  4.85884E+00  4.81481E+00
   4.77305E+00  4.73354E+00  4.69602E+00  4.66014E+00  4.62560E+00  4.59238E+00  4.56056E+00  4.53011E+00  4.50080E+00  4.47236E+00
   4.44466E+00  4.41779E+00  4.39187E+00  4.36684E+00  4.34245E+00  4.31850E+00  4.29501E+00  4.27214E+00  4.24996E+00  4.22831E+00
   4.20698E+00  4.18589E+00  4.16515E+00  4.14491E+00  4.12517E+00  4.10573E+00  4.08643E+00  4.06728E+00  4.04844E+00  4.03001E+00
   4.01192E+00  3.99395E+00  3.97601E+00  3.95821E+00  3.94071E+00  3.92355E+00  3.90657E+00  3.88960E+00  3.87263E+00  3.85583E+00
   3.83932E+00  3.82304E+00  3.80681E+00  3.79053E+00  3.77427E+00  3.75821E+00  3.74241E+00  3.72673E+00
 NY background values follow
     5.488E+01    5.447E+01    5.406E+01    5.365E+01    5.324E+01    5.283E+01    5.242E+01    5.201E+01    5.160E+01    5.119E+01
     5.078E+01    5.037E+01    4.996E+01    4.955E+01    4.914E+01    4.873E+01    4.832E+01    4.791E+01    4.750E+01    4.710E+01
     4.669E+01    4.628E+01    4.587E+01    4.547E+01    4.506E+01    4.466E+01    4.425E+01    4.385E+01    4.345E+01    4.305E+01
     4.264E+01    4.225E+01    4.185E+01    4.145E+01    4.105E+01    4.066E+01    4.026E+01    3.987E+01    3.948E+01    3.909E+01
     3.870E+01    3.831E+01    3.792E+01    3.754E+01    3.716E+01    3.678E+01    3.640E+01    3.602E+01    3.564E+01    3.527E+01
     3.489E+01    3.452E+01    3.415E+01    3.378E+01    3.342E+01    3.305E+01    3.269E+01    3.233E+01    3.197E+01    3.162E+01
     3.126E+01    3.091E+01    3.056E+01    3.021E+01    2.987E+01    2.953E+01    2.918E+01    2.885E+01    2.851E+01    2.817E+01
     2.784E+01    2.751E+01    2.719E+01    2.686E+01    2.654E+01    2.622E+01    2.590E+01    2.559E+01    2.527E+01    2.496E+01
     2.466E+01    2.435E+01    2.405E+01    2.375E+01    2.346E+01    2.316E+01    2.287E+01    2.258E+01    2.230E+01    2.202E+01
     2.174E+01    2.146E+01    2.119E+01    2.092E+01    2.065E+01    2.039E+01    2.012E+01    1.987E+01    1.961E+01    1.936E+01
     1.911E+01    1.886E+01    1.862E+01    1.838E+01    1.814E+01    1.790E+01    1.767E+01    1.744E+01    1.721E+01    1.699E+01
     1.677E+01    1.655E+01    1.633E+01    1.612E+01    1.591E+01    1.570E+01    1.550E+01    1.530E+01    1.510E+01    1.491E+01
     1.471E+01    1.452E+01    1.434E+01    1.415E+01    1.397E+01    1.379E+01    1.362E+01    1.344E+01    1.327E+01    1.310E+01
     1.294E+01    1.278E+01    1.262E+01    1.246E+01    1.231E+01    1.216E+01    1.201E+01    1.186E+01    1.172E+01    1.158E+01
     1.144E+01    1.131E+01    1.117E+01    1.104E+01    1.092E+01    1.079E+01    1.067E+01    1.055E+01    1.043E+01    1.032E+01
     1.021E+01    1.010E+01    9.990E+00    9.886E+00    9.784E+00    9.684E+00    9.587E+00    9.492E+00    9.400E+00    9.309E+00
     9.222E+00    9.136E+00    9.053E+00    8.972E+00    8.894E+00    8.818E+00    8.744E+00    8.672E+00    8.602E+00    8.535E+00
     8.470E+00    8.406E+00    8.346E+00    8.287E+00    8.230E+00    8.176E+00    8.123E+00    8.073E+00    8.024E+00    7.978E+00
     7.934E+00    7.891E+00    7.851E+00    7.812E+00    7.776E+00    7.741E+00    7.708E+00    7.676E+00    7.646E+00    7.618E+00
     7.591E+00    7.565E+00    7.541E+00    7.518E+00    7.496E+00    7.475E+00    7.455E+00    7.437E+00    7.419E+00    7.402E+00
     7.386E+00    7.370E+00    7.355E+00    7.341E+00    7.327E+00    7.314E+00    7.301E+00    7.289E+00    7.276E+00    7.264E+00
     7.252E+00    7.240E+00    7.228E+00    7.216E+00    7.204E+00    7.192E+00    7.179E+00    7.166E+00    7.153E+00    7.139E+00
     7.124E+00    7.109E+00    7.094E+00    7.077E+00    7.060E+00    7.042E+00    7.023E+00    7.003E+00    6.982E+00    6.960E+00
     6.937E+00    6.914E+00    6.889E+00    6.864E+00    6.838E+00    6.811E+00    6.783E+00    6.755E+00    6.726E+00    6.696E+00
     6.666E+00    6.635E+00    6.603E+00    6.571E+00    6.539E+00    6.506E+00    6.472E+00    6.438E+00    6.404E+00    6.369E+00
     6.334E+00    6.298E+00    6.262E+00    6.226E+00    6.190E+00    6.154E+00    6.117E+00    6.080E+00    6.043E+00    6.006E+00
     5.969E+00    5.931E+00    5.894E+00    5.857E+00    5.820E+00    5.783E+00    5.745E+00    5.708E+00    5.672E+00    5.635E+00
     5.598E+00    5.562E+00    5.526E+00    5.490E+00    5.455E+00    5.420E+00    5.385E+00    5.350E+00    5.316E+00    5.281E+00
     5.248E+00    5.214E+00    5.181E+00    5.148E+00    5.115E+00    5.083E+00    5.051E+00    5.019E+00    4.988E+00    4.957E+00
     4.926E+00    4.895E+00    4.865E+00    4.836E+00    4.806E+00    4.777E+00    4.749E+00    4.720E+00    4.693E+00    4.665E+00
     4.638E+00    4.611E+00    4.585E+00    4.559E+00    4.533E+00    4.508E+00    4.483E+00    4.459E+00    4.435E+00    4.411E+00
     4.388E+00    4.366E+00    4.343E+00    4.322E+00    4.300E+00    4.279E+00    4.259E+00    4.239E+00    4.219E+00    4.200E+00
     4.181E+00    4.163E+00    4.145E+00    4.128E+00    4.111E+00    4.094E+00    4.078E+00    4.062E+00    4.047E+00    4.032E+00
     4.017E+00    4.002E+00    3.988E+00    3.975E+00    3.961E+00    3.948E+00    3.935E+00    3.923E+00    3.911E+00    3.899E+00
     3.887E+00    3.876E+00    3.865E+00    3.854E+00    3.844E+00    3.833E+00    3.823E+00    3.813E+00    3.804E+00    3.794E+00
     3.785E+00    3.776E+00    3.767E+00    3.759E+00    3.750E+00    3.742E+00    3.734E+00    3.726E+00    3.718E+00    3.710E+00
     3.702E+00    3.695E+00    3.687E+00    3.680E+00    3.673E+00    3.666E+00    3.659E+00    3.652E+00    3.645E+00    3.639E+00
     3.632E+00    3.626E+00    3.619E+00    3.613E+00    3.607E+00    3.601E+00    3.595E+00    3.589E+00    3.584E+00    3.578E+00
     3.573E+00    3.567E+00    3.562E+00    3.557E+00    3.552E+00    3.547E+00    3.542E+00    3.537E+00    3.532E+00    3.528E+00
     3.523E+00    3.519E+00    3.515E+00    3.511E+00    3.507E+00    3.503E+00    3.499E+00    3.495E+00    3.491E+00    3.488E+00
     3.484E+00    3.481E+00    3.478E+00    3.475E+00    3.472E+00    3.469E+00    3.466E+00    3.463E+00    3.460E+00    3.458E+00
     3.455E+00    3.453E+00    3.451E+00    3.449E+00    3.446E+00    3.444E+00    3.442E+00    3.440E+00    3.438E+00    3.436E+00
     3.434E+00    3.432E+00    3.431E+00    3.429E+00    3.427E+00    3.425E+00    3.423E+00    3.421E+00    3.419E+00    3.417E+00
     3.416E+00    3.414E+00    3.411E+00    3.409E+00    3.407E+00    3.405E+00    3.403E+00    3.401E+00    3.398E+00    3.396E+00
     3.393E+00    3.390E+00    3.388E+00    3.385E+00    3.382E+00    3.379E+00    3.375E+00    3.372E+00    3.369E+00    3.365E+00
     3.361E+00    3.357E+00    3.353E+00    3.349E+00    3.345E+00    3.340E+00    3.335E+00    3.330E+00    3.325E+00    3.320E+00
     3.315E+00    3.310E+00    3.304E+00    3.298E+00    3.292E+00    3.286E+00    3.280E+00    3.274E+00    3.268E+00    3.262E+00
     3.255E+00    3.248E+00    3.242E+00    3.235E+00    3.228E+00    3.221E+00    3.214E+00    3.207E+00    3.199E+00    3.192E+00
     3.185E+00    3.177E+00    3.170E+00    3.162E+00    3.154E+00    3.147E+00    3.139E+00    3.131E+00    3.123E+00    3.115E+00
     3.107E+00    3.099E+00    3.091E+00    3.083E+00    3.075E+00    3.066E+00    3.058E+00    3.050E+00
 Ala      Conc. = 1.13E+02
