 LCModel (Version 6.3-1L) Copyright: S.W. Provencher.          Ref.: Magn. Reson. Med. 30:672-679 (1993).                
 Slice#2 Row#11 Col#12  PD_24_press_1_raw_act
 36 lines in following concentration table = NCONC+1
    Conc.  %SD /Cr+PCr  Metabolite                                         
   56.092  86%   0.424 Ala                                                 
   22.988 161%   0.174 Asp                                                 
  132.347  17%   1.000 Cr                                                  
    0.000 999%   0.000 PCr                                                 
   18.673 120%   0.141 GABA                                                
   26.728  84%   0.202 Glc                                                 
  125.384  82%   0.947 Gln                                                 
  365.803  33%   2.764 Glu                                                 
   42.343  20%   0.320 GPC                                                 
    0.000 999%   0.000 PCh                                                 
   32.187  93%   0.243 GSH                                                 
  181.987  54%   1.375 Ins                                                 
    6.902 757% 5.2E-02 Lac                                                 
  235.325  19%   1.778 NAA                                                 
   80.655  56%   0.609 NAAG                                                
   16.754  39%   0.127 Scyllo                                              
   30.938 116%   0.234 Tau                                                 
   22.837 138%   0.173 -CrCH2                                              
   42.343  20%   0.320 GPC+PCh                                             
  315.980  10%   2.388 NAA+NAAG                                            
  132.347  17%   1.000 Cr+PCr                                              
  491.187  36%   3.711 Glu+Gln                                             
 5.56E+03   6%  41.976 Lip13a                                              
    0.000 999%   0.000 Lip13b                                              
    0.000 999%   0.000 Lip09                                               
  430.128  21%   3.250 MM09                                                
   68.369 315%   0.517 Lip20                                               
  503.097  38%   3.801 MM20                                                
  152.240  54%   1.150 MM12                                                
  909.814  24%   6.874 MM14                                                
  836.031  18%   6.317 MM17                                                
 5.56E+03   6%  41.976 Lip13a+Lip13b                                       
 6.62E+03   4%  50.001 MM14+Lip13a+Lip13b+MM12                             
  430.128  21%   3.250 MM09+Lip09                                          
  571.466  31%   4.318 MM20+Lip20                                          
   6 lines in following misc. output table
  FWHM = 0.046 ppm    S/N =   8                                            
  Data shift =-0.008 ppm                                                   
  Ph: -23 deg      -3.1 deg/ppm                                            
  alphaB,S = 2.7E+00,   7.2E+00                                            
   14 spline knots.   Ns = 6(1)                                            
  ( 8) 7 infls.   ( 3) 1 extrs.                                            
  498 points on ppm-axis = NY
      4.000000     3.992357     3.984714     3.977070     3.969427     3.961784     3.954141     3.946497     3.938854     3.931211
      3.923568     3.915925     3.908281     3.900638     3.892995     3.885352     3.877708     3.870065     3.862422     3.854779
      3.847136     3.839492     3.831849     3.824206     3.816563     3.808919     3.801276     3.793633     3.785990     3.778347
      3.770703     3.763060     3.755417     3.747774     3.740130     3.732487     3.724844     3.717201     3.709558     3.701914
      3.694271     3.686628     3.678985     3.671341     3.663698     3.656055     3.648412     3.640769     3.633125     3.625482
      3.617839     3.610196     3.602552     3.594909     3.587266     3.579623     3.571980     3.564336     3.556693     3.549050
      3.541407     3.533763     3.526120     3.518477     3.510834     3.503191     3.495547     3.487904     3.480261     3.472618
      3.464974     3.457331     3.449688     3.442045     3.434402     3.426758     3.419115     3.411472     3.403829     3.396185
      3.388542     3.380899     3.373256     3.365613     3.357969     3.350326     3.342683     3.335040     3.327396     3.319753
      3.312110     3.304467     3.296824     3.289180     3.281537     3.273894     3.266251     3.258607     3.250964     3.243321
      3.235678     3.228034     3.220391     3.212748     3.205105     3.197462     3.189818     3.182175     3.174532     3.166889
      3.159245     3.151602     3.143959     3.136316     3.128673     3.121029     3.113386     3.105743     3.098100     3.090456
      3.082813     3.075170     3.067527     3.059884     3.052240     3.044597     3.036954     3.029311     3.021667     3.014024
      3.006381     2.998738     2.991095     2.983451     2.975808     2.968165     2.960522     2.952878     2.945235     2.937592
      2.929949     2.922306     2.914662     2.907019     2.899376     2.891733     2.884089     2.876446     2.868803     2.861160
      2.853517     2.845873     2.838230     2.830587     2.822944     2.815300     2.807657     2.800014     2.792371     2.784728
      2.777084     2.769441     2.761798     2.754155     2.746511     2.738868     2.731225     2.723582     2.715939     2.708295
      2.700652     2.693009     2.685366     2.677722     2.670079     2.662436     2.654793     2.647150     2.639506     2.631863
      2.624220     2.616577     2.608933     2.601290     2.593647     2.586004     2.578361     2.570717     2.563074     2.555431
      2.547788     2.540144     2.532501     2.524858     2.517215     2.509572     2.501928     2.494285     2.486642     2.478999
      2.471355     2.463712     2.456069     2.448426     2.440783     2.433139     2.425496     2.417853     2.410210     2.402566
      2.394923     2.387280     2.379637     2.371994     2.364350     2.356707     2.349064     2.341421     2.333777     2.326134
      2.318491     2.310848     2.303205     2.295561     2.287918     2.280275     2.272632     2.264988     2.257345     2.249702
      2.242059     2.234416     2.226772     2.219129     2.211486     2.203843     2.196199     2.188556     2.180913     2.173270
      2.165627     2.157983     2.150340     2.142697     2.135054     2.127410     2.119767     2.112124     2.104481     2.096838
      2.089194     2.081551     2.073908     2.066265     2.058621     2.050978     2.043335     2.035692     2.028049     2.020405
      2.012762     2.005119     1.997476     1.989833     1.982190     1.974546     1.966903     1.959260     1.951617     1.943974
      1.936331     1.928688     1.921045     1.913402     1.905759     1.898115     1.890472     1.882829     1.875186     1.867543
      1.859900     1.852257     1.844614     1.836971     1.829327     1.821684     1.814041     1.806398     1.798755     1.791112
      1.783469     1.775826     1.768183     1.760540     1.752896     1.745253     1.737610     1.729967     1.722324     1.714681
      1.707038     1.699395     1.691752     1.684108     1.676465     1.668822     1.661179     1.653536     1.645893     1.638250
      1.630607     1.622964     1.615321     1.607677     1.600034     1.592391     1.584748     1.577105     1.569462     1.561819
      1.554176     1.546533     1.538890     1.531246     1.523603     1.515960     1.508317     1.500674     1.493031     1.485388
      1.477745     1.470102     1.462458     1.454815     1.447172     1.439529     1.431886     1.424243     1.416600     1.408957
      1.401314     1.393671     1.386027     1.378384     1.370741     1.363098     1.355455     1.347812     1.340169     1.332526
      1.324883     1.317240     1.309596     1.301953     1.294310     1.286667     1.279024     1.271381     1.263738     1.256095
      1.248452     1.240808     1.233165     1.225522     1.217879     1.210236     1.202593     1.194950     1.187307     1.179664
      1.172021     1.164377     1.156734     1.149091     1.141448     1.133805     1.126162     1.118519     1.110876     1.103233
      1.095590     1.087946     1.080303     1.072660     1.065017     1.057374     1.049731     1.042088     1.034445     1.026802
      1.019158     1.011515     1.003872     0.996229     0.988586     0.980943     0.973300     0.965657     0.958014     0.950371
      0.942727     0.935084     0.927441     0.919798     0.912155     0.904512     0.896869     0.889226     0.881583     0.873940
      0.866296     0.858653     0.851010     0.843367     0.835724     0.828081     0.820438     0.812795     0.805152     0.797508
      0.789865     0.782222     0.774579     0.766936     0.759293     0.751650     0.744007     0.736364     0.728721     0.721077
      0.713434     0.705791     0.698148     0.690505     0.682862     0.675219     0.667576     0.659933     0.652290     0.644646
      0.637003     0.629360     0.621717     0.614074     0.606431     0.598788     0.591145     0.583502     0.575858     0.568215
      0.560572     0.552929     0.545286     0.537643     0.530000     0.522357     0.514714     0.507071     0.499427     0.491784
      0.484141     0.476498     0.468855     0.461212     0.453569     0.445925     0.438282     0.430639     0.422996     0.415353
      0.407710     0.400067     0.392424     0.384780     0.377137     0.369494     0.361851     0.354208     0.346565     0.338922
      0.331278     0.323635     0.315992     0.308349     0.300706     0.293063     0.285420     0.277777     0.270133     0.262490
      0.254847     0.247204     0.239561     0.231918     0.224275     0.216631     0.208988     0.201345
 NY phased data points follow
   6.43859E+00  4.30498E+00  2.94966E+00  6.25014E+00  6.89141E+00  2.71115E+00  4.20379E+00  1.96664E+00  3.65291E+00  3.34041E+00
   5.08867E+00  5.77953E+00  6.45165E+00  5.25327E+00  4.79036E+00  6.36086E+00  6.29751E+00  4.53464E+00  3.02827E+00  2.93167E+00
   3.16388E+00  1.63004E+00  2.54818E+00  5.26479E+00  3.66069E+00  1.79505E+00  4.95316E+00  5.72729E+00  3.50459E+00  3.99858E+00
   4.24168E+00  3.41790E+00  5.07874E+00  3.51768E+00  4.54957E+00  2.01755E+00  4.56501E+00  2.98258E+00  1.23268E+00  3.79905E+00
   5.21060E+00  4.27267E+00  2.77654E+00  3.78427E+00  7.32568E+00  1.93967E+00  3.41414E+00  4.91970E+00  1.87512E+00  6.41150E+00
   3.71000E+00  4.99148E+00  4.21350E+00  2.09994E+00  4.73875E+00  5.17695E+00  4.47255E+00  4.27528E+00  3.08984E+00  5.27303E+00
   2.15436E+00  1.08446E+00  2.26602E+00  2.11469E+00  4.70237E+00  2.42450E+00  1.89309E+00  1.81406E+00  2.00970E+00  3.62692E+00
   2.01358E+00  9.66926E-01  3.08932E+00  4.46744E+00  1.71940E+00  3.43228E+00  4.38072E+00  4.87400E+00  3.84857E+00  3.58390E+00
   1.71412E+00  4.36031E+00  4.31861E+00  3.64978E+00  3.94257E+00  4.06388E+00  3.46378E+00  2.83006E+00  7.08069E+00  2.68311E+00
   4.16098E+00  3.72930E+00  2.98491E+00  8.42340E+00  3.92340E+00  2.44295E+00  1.80803E+00  3.98038E+00  2.16608E-01  3.62225E+00
   4.00939E+00  5.32220E+00  3.74587E+00  6.24404E+00  6.81954E+00  5.30347E+00  6.56406E+00  4.38859E+00  4.55113E+00  3.85833E+00
   5.32477E+00  2.22784E+00  1.51933E+00  1.81280E+00 -8.09947E-02  1.77566E+00  6.06276E-01  1.79998E+00  3.83616E+00  3.20561E+00
   2.68063E-01  9.15184E-01  1.12307E+00  2.24113E+00  3.50026E+00  3.98829E+00  7.25582E+00  6.53433E+00  6.52251E+00  8.56022E+00
   6.82182E+00  5.38210E+00  4.51787E+00  3.63935E+00  3.01095E+00  2.64697E+00 -1.71639E-01 -3.46082E-02  3.01980E+00  1.68818E+00
   2.70514E+00  1.80745E+00  2.37739E+00  1.15317E+00  3.70786E+00  1.31493E+00  1.42427E+00  1.75467E+00  6.90944E-01  1.75019E+00
   2.50780E+00  3.68317E-01  1.39230E+00  3.05532E+00  1.89284E+00  2.66677E+00  3.29924E+00  1.05401E+00  2.24201E+00  2.68133E+00
   3.43638E+00  3.30237E+00  1.58679E+00  1.10307E+00  2.34061E+00  2.32330E+00  8.42651E-01  3.55683E+00  2.57038E+00  2.38125E+00
   1.79495E+00  1.18759E+00 -1.81858E+00 -3.42992E-01 -2.90617E-01 -2.90364E-01 -9.19299E-01  1.49514E+00  6.58089E-01  7.85583E-01
   2.86620E-01  1.82119E+00  1.79393E+00  1.16018E+00  5.55893E-01 -1.61955E-01  4.35400E-01 -9.91527E-02  1.53079E+00  1.11893E+00
   3.38049E+00  1.07335E+00  4.83120E+00  4.80004E-02 -1.32986E-01  8.69588E-01  1.75198E+00  3.62163E+00  9.62045E-01  5.45204E+00
   1.76564E+00  3.09816E+00  2.81257E+00  2.53274E+00  1.45134E+00  2.70296E+00  6.61518E-01  3.18956E+00  1.35332E+00  2.55600E+00
   3.03045E+00  1.53374E+00  3.45163E+00  4.09360E+00  3.50323E+00  5.71504E+00  4.41836E+00  2.94381E+00  3.82834E+00  4.46262E+00
   4.85709E+00  3.41034E+00  8.65528E-01  2.02605E+00 -1.20417E+00  5.83152E+00  9.08698E-01  3.95155E+00  4.38429E+00  2.95902E+00
   4.68965E+00  4.42391E+00  3.85445E+00  4.14820E+00  4.95926E+00  4.85683E+00  1.70361E+00  3.85541E+00  3.36586E+00  3.61465E+00
   3.44099E+00  5.90596E+00  5.21676E+00  3.63242E+00  2.33738E+00  3.11017E+00  4.07745E+00  5.37002E+00  1.60432E+00  5.08909E+00
   4.62198E+00  4.06219E+00  5.78259E+00  4.67447E+00  6.06326E+00  7.48851E+00  9.32376E+00  8.72433E+00  1.11393E+01  1.08171E+01
   1.38287E+01  1.54549E+01  1.21761E+01  1.13706E+01  8.72207E+00  9.26450E+00  6.68402E+00  7.84544E+00  6.18564E+00  5.92309E+00
   6.45805E+00  1.22916E+00  2.88005E+00  6.02726E+00  4.68753E+00  5.91322E+00  4.93299E+00  5.85189E+00  3.99208E+00  8.25334E+00
   6.67939E+00  5.33016E+00  5.64739E+00  3.83428E+00  6.66486E+00  3.16377E+00  6.57629E+00  6.59613E+00  4.88783E+00  4.23431E+00
   6.51701E+00  5.91885E+00  5.16459E+00  4.54644E+00  6.24472E+00  5.40167E+00  7.81520E+00  7.48739E+00  8.77934E+00  7.08145E+00
   1.01733E+01  7.26726E+00  7.21537E+00  6.29358E+00  4.93195E+00  8.02541E+00  8.52949E+00  7.88495E+00  9.25871E+00  9.80128E+00
   7.71472E+00  9.30933E+00  9.80396E+00  5.22240E+00  8.22809E+00  8.29997E+00  6.66793E+00  7.47777E+00  1.04536E+01  7.80081E+00
   1.13678E+01  1.00209E+01  1.05916E+01  1.15113E+01  8.87410E+00  1.06919E+01  8.84535E+00  9.62924E+00  9.67263E+00  1.12776E+01
   9.62395E+00  1.00002E+01  9.91945E+00  7.90904E+00  1.13947E+01  1.11254E+01  1.06405E+01  9.31803E+00  1.24567E+01  1.33384E+01
   1.18757E+01  1.37172E+01  1.40028E+01  1.36620E+01  1.61917E+01  1.50781E+01  1.54736E+01  1.75947E+01  1.89059E+01  2.10597E+01
   2.12425E+01  1.86644E+01  2.15922E+01  2.31050E+01  2.12405E+01  2.15628E+01  2.40962E+01  2.68305E+01  2.29522E+01  2.38220E+01
   2.58809E+01  2.67351E+01  2.65949E+01  2.50273E+01  2.53266E+01  2.42634E+01  2.57067E+01  2.39877E+01  2.19502E+01  2.22190E+01
   2.24767E+01  2.14582E+01  2.07817E+01  1.87467E+01  1.93366E+01  1.70198E+01  1.41277E+01  1.56525E+01  1.30223E+01  1.48465E+01
   1.01696E+01  1.31162E+01  1.12321E+01  1.21550E+01  8.61704E+00  1.09796E+01  1.02927E+01  9.76132E+00  7.00325E+00  9.24786E+00
   7.54303E+00  9.89989E+00  8.92477E+00  6.98670E+00  7.67273E+00  9.77985E+00  9.52746E+00  9.36715E+00  6.21412E+00  9.22230E+00
   8.45698E+00  5.76771E+00  8.29808E+00  8.01725E+00  4.98359E+00  5.94933E+00  7.68887E+00  5.91029E+00  5.35065E+00  6.64132E+00
   5.60136E+00  5.40623E+00  5.79439E+00  7.52749E+00  6.78037E+00  5.70897E+00  4.85688E+00  5.63920E+00  5.10611E+00  4.23444E+00
   6.64468E+00  5.44774E+00  2.77704E+00  5.60031E+00  4.40911E+00  3.02842E+00  3.65369E+00  5.24486E+00  1.82319E+00  3.41951E+00
   2.44256E+00  4.25853E+00  3.95381E+00  2.35195E+00  3.00200E+00  3.54074E+00  4.72461E+00  4.72619E+00  4.80773E+00  4.70360E+00
   4.23958E+00  3.56509E+00  3.35231E+00  2.55408E+00  4.03681E+00  1.90044E+00  2.66251E+00  4.43000E+00  5.31636E+00  4.12318E+00
   1.48480E+00  3.42563E+00  1.35981E-01  2.44668E+00  7.09671E-01  3.05366E+00  3.59118E-01  3.77998E+00  4.46334E+00  1.95796E+00
   3.33174E+00  4.94389E+00  1.56439E+00  1.92823E+00  5.35957E+00  3.76914E+00  1.13954E+00  1.45661E+00  8.23902E-01  2.12600E+00
   4.16588E+00  2.60314E+00 -4.94154E-01  1.23033E+00  1.01425E+00  2.41800E+00  2.08918E+00  1.67922E+00  1.11232E+00  2.38777E+00
   8.78058E-01  2.18648E+00  3.19779E+00  3.45352E+00  2.95140E+00  2.75591E+00  1.09024E+00  1.02158E-01  3.03506E+00  2.31477E+00
   3.36894E+00  3.82281E+00  5.27802E+00  1.29726E+00  1.68806E+00  1.58222E+00  2.75811E+00  1.96487E+00
 NY points of the fit to the data follow
   3.56366E+00  3.44993E+00  3.42498E+00  3.37238E+00  3.32062E+00  3.30437E+00  3.43492E+00  3.78637E+00  4.11139E+00  4.36084E+00
   4.90525E+00  5.67915E+00  6.04976E+00  5.75424E+00  5.27558E+00  4.94610E+00  4.76003E+00  4.52592E+00  4.05452E+00  3.43372E+00
   3.34771E+00  3.44925E+00  3.53587E+00  3.53827E+00  3.48199E+00  3.47554E+00  3.42028E+00  3.27046E+00  3.21704E+00  3.44857E+00
   3.82857E+00  4.14353E+00  4.33278E+00  4.45661E+00  4.40722E+00  4.25022E+00  3.97625E+00  3.55642E+00  3.31075E+00  3.15389E+00
   3.06374E+00  2.97032E+00  3.01434E+00  3.27744E+00  3.58098E+00  3.81840E+00  4.08471E+00  4.31162E+00  4.43731E+00  4.31760E+00
   4.01522E+00  3.71623E+00  3.51841E+00  3.34427E+00  3.12140E+00  2.90789E+00  2.83815E+00  2.89443E+00  2.99999E+00  3.13447E+00
   3.25743E+00  3.30897E+00  3.27625E+00  3.18204E+00  3.08011E+00  3.02456E+00  2.98255E+00  2.93116E+00  2.93600E+00  2.94941E+00
   2.99053E+00  3.08102E+00  3.19203E+00  3.25781E+00  3.26863E+00  3.27992E+00  3.26046E+00  3.19542E+00  3.13713E+00  3.05150E+00
   2.98461E+00  3.00750E+00  3.11389E+00  3.18902E+00  3.23347E+00  3.35129E+00  3.51415E+00  3.51722E+00  3.31071E+00  3.07935E+00
   2.95480E+00  2.89745E+00  2.86181E+00  2.74299E+00  2.59272E+00  2.63410E+00  2.73045E+00  2.81233E+00  3.04653E+00  3.57838E+00
   4.11696E+00  4.58296E+00  5.36364E+00  6.34018E+00  6.70502E+00  6.25352E+00  5.58459E+00  5.11123E+00  4.70843E+00  4.30453E+00
   3.59532E+00  2.75061E+00  2.56196E+00  2.54082E+00  2.55649E+00  2.56427E+00  2.57855E+00  2.60074E+00  2.62278E+00  2.64139E+00
   2.67119E+00  2.73427E+00  3.00905E+00  3.64291E+00  4.29452E+00  4.86233E+00  5.76233E+00  6.87175E+00  7.30964E+00  6.84280E+00
   6.15434E+00  5.63172E+00  5.15501E+00  4.68236E+00  3.82186E+00  2.80568E+00  2.50528E+00  2.41882E+00  2.39147E+00  2.40739E+00
   2.43783E+00  2.45984E+00  2.49866E+00  2.52031E+00  2.53095E+00  2.54706E+00  2.53421E+00  2.49372E+00  2.44690E+00  2.39623E+00
   2.35655E+00  2.31823E+00  2.28710E+00  2.25152E+00  2.22115E+00  2.21052E+00  2.19814E+00  2.17725E+00  2.15742E+00  2.12242E+00
   2.05674E+00  1.99716E+00  1.98113E+00  1.99812E+00  2.02878E+00  2.02967E+00  1.97138E+00  1.91563E+00  1.90980E+00  1.90283E+00
   1.86604E+00  1.83098E+00  1.76186E+00  1.72116E+00  1.70131E+00  1.65365E+00  1.60249E+00  1.61258E+00  1.66670E+00  1.69253E+00
   1.67724E+00  1.64091E+00  1.64306E+00  1.72026E+00  1.83785E+00  1.88462E+00  1.90832E+00  1.96865E+00  2.13563E+00  2.32296E+00
   2.45527E+00  2.51055E+00  2.51393E+00  2.46411E+00  2.40726E+00  2.35829E+00  2.30003E+00  2.27574E+00  2.29383E+00  2.39190E+00
   2.58827E+00  2.85633E+00  3.05870E+00  3.20739E+00  3.26866E+00  3.19340E+00  2.91296E+00  2.55237E+00  2.14192E+00  1.69484E+00
   1.43126E+00  1.59528E+00  2.03674E+00  2.46077E+00  2.98506E+00  3.66317E+00  4.14812E+00  4.19353E+00  3.66085E+00  2.97060E+00
   2.46952E+00  1.86162E+00  1.29237E+00  9.20977E-01  1.21830E+00  1.88411E+00  2.42596E+00  2.84843E+00  3.22965E+00  3.66858E+00
   3.99245E+00  3.98377E+00  3.80427E+00  3.79684E+00  3.81706E+00  3.81302E+00  3.85073E+00  3.96924E+00  4.09103E+00  4.13741E+00
   4.11708E+00  4.06530E+00  3.93161E+00  3.88626E+00  3.96585E+00  4.09469E+00  4.17200E+00  4.23130E+00  4.32743E+00  4.40822E+00
   4.59706E+00  4.88841E+00  5.36887E+00  5.81740E+00  6.29825E+00  7.23665E+00  8.78568E+00  9.94045E+00  1.04724E+01  1.15561E+01
   1.33025E+01  1.40951E+01  1.32090E+01  1.14420E+01  1.00832E+01  9.17532E+00  8.31261E+00  6.95546E+00  5.06997E+00  4.38070E+00
   4.15033E+00  4.01126E+00  3.95003E+00  3.99045E+00  4.03203E+00  4.07577E+00  4.10371E+00  4.12733E+00  4.15439E+00  4.19522E+00
   4.23052E+00  4.25617E+00  4.30892E+00  4.39545E+00  4.50929E+00  4.64201E+00  4.79090E+00  4.95402E+00  5.13853E+00  5.33117E+00
   5.52940E+00  5.73662E+00  5.95934E+00  6.18238E+00  6.39991E+00  6.61227E+00  6.81819E+00  7.01154E+00  7.19055E+00  7.34723E+00
   7.48549E+00  7.60814E+00  7.71139E+00  7.79386E+00  7.85644E+00  7.90002E+00  7.93034E+00  7.94697E+00  7.95250E+00  7.95293E+00
   7.95178E+00  7.95368E+00  7.96307E+00  7.98337E+00  8.01753E+00  8.06813E+00  8.13687E+00  8.22505E+00  8.33342E+00  8.46279E+00
   8.61419E+00  8.79287E+00  9.02386E+00  9.29312E+00  9.51782E+00  9.71038E+00  9.93019E+00  1.00896E+01  1.00522E+01  9.88514E+00
   9.78008E+00  9.83581E+00  9.97247E+00  1.01150E+01  1.02968E+01  1.07186E+01  1.13667E+01  1.19026E+01  1.23362E+01  1.27694E+01
   1.32393E+01  1.37609E+01  1.42880E+01  1.47200E+01  1.52494E+01  1.58716E+01  1.65658E+01  1.73075E+01  1.80666E+01  1.88386E+01
   1.96384E+01  2.04639E+01  2.12851E+01  2.20810E+01  2.28418E+01  2.35680E+01  2.42367E+01  2.47978E+01  2.52426E+01  2.55715E+01
   2.57758E+01  2.58544E+01  2.57877E+01  2.55813E+01  2.52570E+01  2.48179E+01  2.42710E+01  2.36271E+01  2.28991E+01  2.21015E+01
   2.12494E+01  2.03583E+01  1.94431E+01  1.85183E+01  1.75970E+01  1.66914E+01  1.58117E+01  1.49667E+01  1.41636E+01  1.34079E+01
   1.27037E+01  1.20537E+01  1.14592E+01  1.09208E+01  1.04378E+01  1.00091E+01  9.63254E+00  9.30590E+00  9.02609E+00  8.78981E+00
   8.59326E+00  8.43248E+00  8.30308E+00  8.20054E+00  8.11994E+00  8.05640E+00  8.00485E+00  7.96044E+00  7.91831E+00  7.87404E+00
   7.82344E+00  7.76303E+00  7.68985E+00  7.60185E+00  7.49753E+00  7.37639E+00  7.23847E+00  7.08479E+00  6.91680E+00  6.73666E+00
   6.54671E+00  6.34969E+00  6.14828E+00  5.94532E+00  5.74336E+00  5.54486E+00  5.35177E+00  5.16585E+00  4.98836E+00  4.82036E+00
   4.66240E+00  4.51485E+00  4.37765E+00  4.25065E+00  4.13340E+00  4.02552E+00  3.92633E+00  3.83527E+00  3.75156E+00  3.67463E+00
   3.60378E+00  3.53852E+00  3.47820E+00  3.42238E+00  3.37050E+00  3.32224E+00  3.27717E+00  3.23505E+00  3.19551E+00  3.15835E+00
   3.12326E+00  3.09014E+00  3.05875E+00  3.02903E+00  3.00074E+00  2.97382E+00  2.94809E+00  2.92355E+00  2.90005E+00  2.87760E+00
   2.85600E+00  2.83528E+00  2.81530E+00  2.79613E+00  2.77763E+00  2.75984E+00  2.74260E+00  2.72597E+00  2.70985E+00  2.69430E+00
   2.67921E+00  2.66463E+00  2.65042E+00  2.63666E+00  2.62326E+00  2.61030E+00  2.59765E+00  2.58538E+00  2.57337E+00  2.56171E+00
   2.55032E+00  2.53927E+00  2.52845E+00  2.51790E+00  2.50755E+00  2.49748E+00  2.48762E+00  2.47803E+00  2.46859E+00  2.45937E+00
   2.45029E+00  2.44146E+00  2.43278E+00  2.42431E+00  2.41594E+00  2.40776E+00  2.39968E+00  2.39182E+00  2.38405E+00  2.37646E+00
   2.36892E+00  2.36155E+00  2.35425E+00  2.34714E+00  2.34008E+00  2.33316E+00  2.32627E+00  2.31951E+00
 NY background values follow
     2.368E+00    2.364E+00    2.359E+00    2.355E+00    2.350E+00    2.346E+00    2.342E+00    2.337E+00    2.333E+00    2.328E+00
     2.324E+00    2.320E+00    2.315E+00    2.311E+00    2.306E+00    2.302E+00    2.298E+00    2.293E+00    2.289E+00    2.284E+00
     2.280E+00    2.276E+00    2.271E+00    2.267E+00    2.262E+00    2.258E+00    2.254E+00    2.249E+00    2.245E+00    2.240E+00
     2.236E+00    2.232E+00    2.227E+00    2.223E+00    2.219E+00    2.214E+00    2.210E+00    2.205E+00    2.201E+00    2.197E+00
     2.192E+00    2.188E+00    2.184E+00    2.179E+00    2.175E+00    2.171E+00    2.166E+00    2.162E+00    2.158E+00    2.153E+00
     2.149E+00    2.145E+00    2.141E+00    2.136E+00    2.132E+00    2.128E+00    2.123E+00    2.119E+00    2.115E+00    2.111E+00
     2.106E+00    2.102E+00    2.098E+00    2.094E+00    2.090E+00    2.085E+00    2.081E+00    2.077E+00    2.073E+00    2.069E+00
     2.065E+00    2.060E+00    2.056E+00    2.052E+00    2.048E+00    2.044E+00    2.040E+00    2.036E+00    2.032E+00    2.028E+00
     2.024E+00    2.020E+00    2.016E+00    2.012E+00    2.008E+00    2.004E+00    2.000E+00    1.996E+00    1.993E+00    1.989E+00
     1.985E+00    1.981E+00    1.977E+00    1.974E+00    1.970E+00    1.966E+00    1.962E+00    1.959E+00    1.955E+00    1.951E+00
     1.948E+00    1.944E+00    1.941E+00    1.937E+00    1.933E+00    1.930E+00    1.926E+00    1.923E+00    1.920E+00    1.916E+00
     1.913E+00    1.909E+00    1.906E+00    1.903E+00    1.899E+00    1.896E+00    1.893E+00    1.890E+00    1.887E+00    1.884E+00
     1.880E+00    1.877E+00    1.874E+00    1.871E+00    1.868E+00    1.865E+00    1.863E+00    1.860E+00    1.857E+00    1.854E+00
     1.851E+00    1.848E+00    1.846E+00    1.843E+00    1.841E+00    1.838E+00    1.835E+00    1.833E+00    1.830E+00    1.828E+00
     1.826E+00    1.823E+00    1.821E+00    1.819E+00    1.816E+00    1.814E+00    1.812E+00    1.810E+00    1.808E+00    1.806E+00
     1.804E+00    1.802E+00    1.800E+00    1.798E+00    1.796E+00    1.794E+00    1.792E+00    1.790E+00    1.789E+00    1.787E+00
     1.785E+00    1.784E+00    1.782E+00    1.781E+00    1.779E+00    1.778E+00    1.776E+00    1.775E+00    1.773E+00    1.772E+00
     1.771E+00    1.769E+00    1.768E+00    1.767E+00    1.766E+00    1.765E+00    1.764E+00    1.763E+00    1.762E+00    1.761E+00
     1.760E+00    1.759E+00    1.758E+00    1.757E+00    1.756E+00    1.755E+00    1.755E+00    1.754E+00    1.753E+00    1.753E+00
     1.752E+00    1.752E+00    1.751E+00    1.751E+00    1.750E+00    1.750E+00    1.749E+00    1.749E+00    1.748E+00    1.748E+00
     1.748E+00    1.747E+00    1.747E+00    1.747E+00    1.747E+00    1.746E+00    1.746E+00    1.746E+00    1.746E+00    1.746E+00
     1.746E+00    1.746E+00    1.746E+00    1.746E+00    1.746E+00    1.746E+00    1.746E+00    1.746E+00    1.746E+00    1.746E+00
     1.746E+00    1.746E+00    1.746E+00    1.746E+00    1.747E+00    1.747E+00    1.747E+00    1.747E+00    1.747E+00    1.748E+00
     1.748E+00    1.748E+00    1.748E+00    1.749E+00    1.749E+00    1.749E+00    1.750E+00    1.750E+00    1.750E+00    1.751E+00
     1.751E+00    1.751E+00    1.752E+00    1.752E+00    1.752E+00    1.753E+00    1.753E+00    1.753E+00    1.754E+00    1.754E+00
     1.755E+00    1.755E+00    1.755E+00    1.756E+00    1.756E+00    1.757E+00    1.757E+00    1.757E+00    1.758E+00    1.758E+00
     1.759E+00    1.759E+00    1.759E+00    1.760E+00    1.760E+00    1.761E+00    1.761E+00    1.761E+00    1.762E+00    1.762E+00
     1.763E+00    1.763E+00    1.763E+00    1.764E+00    1.764E+00    1.764E+00    1.765E+00    1.765E+00    1.765E+00    1.766E+00
     1.766E+00    1.766E+00    1.767E+00    1.767E+00    1.767E+00    1.768E+00    1.768E+00    1.768E+00    1.769E+00    1.769E+00
     1.769E+00    1.769E+00    1.770E+00    1.770E+00    1.770E+00    1.770E+00    1.771E+00    1.771E+00    1.771E+00    1.771E+00
     1.771E+00    1.772E+00    1.772E+00    1.772E+00    1.772E+00    1.772E+00    1.772E+00    1.773E+00    1.773E+00    1.773E+00
     1.773E+00    1.773E+00    1.773E+00    1.773E+00    1.773E+00    1.773E+00    1.773E+00    1.773E+00    1.773E+00    1.773E+00
     1.773E+00    1.773E+00    1.773E+00    1.773E+00    1.773E+00    1.773E+00    1.773E+00    1.773E+00    1.773E+00    1.773E+00
     1.773E+00    1.773E+00    1.773E+00    1.773E+00    1.773E+00    1.772E+00    1.772E+00    1.772E+00    1.772E+00    1.772E+00
     1.772E+00    1.771E+00    1.771E+00    1.771E+00    1.771E+00    1.771E+00    1.770E+00    1.770E+00    1.770E+00    1.770E+00
     1.769E+00    1.769E+00    1.769E+00    1.769E+00    1.768E+00    1.768E+00    1.768E+00    1.767E+00    1.767E+00    1.767E+00
     1.766E+00    1.766E+00    1.766E+00    1.765E+00    1.765E+00    1.764E+00    1.764E+00    1.764E+00    1.763E+00    1.763E+00
     1.762E+00    1.762E+00    1.762E+00    1.761E+00    1.761E+00    1.760E+00    1.760E+00    1.759E+00    1.759E+00    1.758E+00
     1.758E+00    1.757E+00    1.757E+00    1.756E+00    1.756E+00    1.755E+00    1.755E+00    1.754E+00    1.754E+00    1.753E+00
     1.752E+00    1.752E+00    1.751E+00    1.751E+00    1.750E+00    1.750E+00    1.749E+00    1.748E+00    1.748E+00    1.747E+00
     1.746E+00    1.746E+00    1.745E+00    1.744E+00    1.744E+00    1.743E+00    1.742E+00    1.742E+00    1.741E+00    1.740E+00
     1.740E+00    1.739E+00    1.738E+00    1.738E+00    1.737E+00    1.736E+00    1.735E+00    1.735E+00    1.734E+00    1.733E+00
     1.732E+00    1.732E+00    1.731E+00    1.730E+00    1.729E+00    1.729E+00    1.728E+00    1.727E+00    1.726E+00    1.725E+00
     1.725E+00    1.724E+00    1.723E+00    1.722E+00    1.721E+00    1.720E+00    1.720E+00    1.719E+00    1.718E+00    1.717E+00
     1.716E+00    1.715E+00    1.714E+00    1.714E+00    1.713E+00    1.712E+00    1.711E+00    1.710E+00    1.709E+00    1.708E+00
     1.707E+00    1.706E+00    1.706E+00    1.705E+00    1.704E+00    1.703E+00    1.702E+00    1.701E+00    1.700E+00    1.699E+00
     1.698E+00    1.697E+00    1.696E+00    1.695E+00    1.694E+00    1.694E+00    1.693E+00    1.692E+00    1.691E+00    1.690E+00
     1.689E+00    1.688E+00    1.687E+00    1.686E+00    1.685E+00    1.684E+00    1.683E+00    1.682E+00    1.681E+00    1.680E+00
     1.679E+00    1.678E+00    1.677E+00    1.676E+00    1.675E+00    1.674E+00    1.673E+00    1.672E+00    1.671E+00    1.671E+00
     1.670E+00    1.669E+00    1.668E+00    1.667E+00    1.666E+00    1.665E+00    1.664E+00    1.663E+00
 Ala      Conc. = 5.61E+01
