 LCModel (Version 6.3-1L) Copyright: S.W. Provencher.          Ref.: Magn. Reson. Med. 30:672-679 (1993).                
 Slice#1 Row#1 Col#7  PD_24_press_1_raw_act
 36 lines in following concentration table = NCONC+1
    Conc.  %SD /Cr+PCr  Metabolite                                         
   21.991  77%   0.287 Ala                                                 
   14.026  80%   0.183 Asp                                                 
   17.619 135%   0.230 Cr                                                  
   58.997  54%   0.770 PCr                                                 
    7.689  87%   0.100 GABA                                                
    7.696  89%   0.100 Glc                                                 
   15.427 198%   0.201 Gln                                                 
   12.387 266%   0.162 Glu                                                 
   26.215  32%   0.342 GPC                                                 
    0.000 999%   0.000 PCh                                                 
   27.336  56%   0.357 GSH                                                 
   48.672  88%   0.635 Ins                                                 
   34.798  59%   0.454 Lac                                                 
   94.765  30%   1.237 NAA                                                 
    0.000 999%   0.000 NAAG                                                
    2.776  79% 3.6E-02 Scyllo                                              
   12.068  92%   0.158 Tau                                                 
    7.851 168%   0.102 -CrCH2                                              
   26.215  32%   0.342 GPC+PCh                                             
   94.765  30%   1.237 NAA+NAAG                                            
   76.616  31%   1.000 Cr+PCr                                              
   27.814 143%   0.363 Glu+Gln                                             
    0.000 999%   0.000 Lip13a                                              
  982.244  14%  12.820 Lip13b                                              
  192.934  35%   2.518 Lip09                                               
    0.000 999%   0.000 MM09                                                
  129.908  45%   1.696 Lip20                                               
    0.000 999%   0.000 MM20                                                
    0.000 999%   0.000 MM12                                                
   96.689  91%   1.262 MM14                                                
   27.267 207%   0.356 MM17                                                
  982.244  14%  12.820 Lip13a+Lip13b                                       
 1.08E+03  13%  14.082 MM14+Lip13a+Lip13b+MM12                             
  192.934  35%   2.518 MM09+Lip09                                          
  129.908  45%   1.696 MM20+Lip20                                          
   6 lines in following misc. output table
  FWHM = 0.038 ppm    S/N =   2                                            
  Data shift =-0.008 ppm                                                   
  Ph:-144 deg     -33.0 deg/ppm                                            
  alphaB,S = 8.5E+01,   3.2E+00                                            
   14 spline knots.   Ns = 5(1)                                            
   2 inflections.     2 extrema                                            
  498 points on ppm-axis = NY
      4.000000     3.992357     3.984714     3.977070     3.969427     3.961784     3.954141     3.946497     3.938854     3.931211
      3.923568     3.915925     3.908281     3.900638     3.892995     3.885352     3.877708     3.870065     3.862422     3.854779
      3.847136     3.839492     3.831849     3.824206     3.816563     3.808919     3.801276     3.793633     3.785990     3.778347
      3.770703     3.763060     3.755417     3.747774     3.740130     3.732487     3.724844     3.717201     3.709558     3.701914
      3.694271     3.686628     3.678985     3.671341     3.663698     3.656055     3.648412     3.640769     3.633125     3.625482
      3.617839     3.610196     3.602552     3.594909     3.587266     3.579623     3.571980     3.564336     3.556693     3.549050
      3.541407     3.533763     3.526120     3.518477     3.510834     3.503191     3.495547     3.487904     3.480261     3.472618
      3.464974     3.457331     3.449688     3.442045     3.434402     3.426758     3.419115     3.411472     3.403829     3.396185
      3.388542     3.380899     3.373256     3.365613     3.357969     3.350326     3.342683     3.335040     3.327396     3.319753
      3.312110     3.304467     3.296824     3.289180     3.281537     3.273894     3.266251     3.258607     3.250964     3.243321
      3.235678     3.228034     3.220391     3.212748     3.205105     3.197462     3.189818     3.182175     3.174532     3.166889
      3.159245     3.151602     3.143959     3.136316     3.128673     3.121029     3.113386     3.105743     3.098100     3.090456
      3.082813     3.075170     3.067527     3.059884     3.052240     3.044597     3.036954     3.029311     3.021667     3.014024
      3.006381     2.998738     2.991095     2.983451     2.975808     2.968165     2.960522     2.952878     2.945235     2.937592
      2.929949     2.922306     2.914662     2.907019     2.899376     2.891733     2.884089     2.876446     2.868803     2.861160
      2.853517     2.845873     2.838230     2.830587     2.822944     2.815300     2.807657     2.800014     2.792371     2.784728
      2.777084     2.769441     2.761798     2.754155     2.746511     2.738868     2.731225     2.723582     2.715939     2.708295
      2.700652     2.693009     2.685366     2.677722     2.670079     2.662436     2.654793     2.647150     2.639506     2.631863
      2.624220     2.616577     2.608933     2.601290     2.593647     2.586004     2.578361     2.570717     2.563074     2.555431
      2.547788     2.540144     2.532501     2.524858     2.517215     2.509572     2.501928     2.494285     2.486642     2.478999
      2.471355     2.463712     2.456069     2.448426     2.440783     2.433139     2.425496     2.417853     2.410210     2.402566
      2.394923     2.387280     2.379637     2.371994     2.364350     2.356707     2.349064     2.341421     2.333777     2.326134
      2.318491     2.310848     2.303205     2.295561     2.287918     2.280275     2.272632     2.264988     2.257345     2.249702
      2.242059     2.234416     2.226772     2.219129     2.211486     2.203843     2.196199     2.188556     2.180913     2.173270
      2.165627     2.157983     2.150340     2.142697     2.135054     2.127410     2.119767     2.112124     2.104481     2.096838
      2.089194     2.081551     2.073908     2.066265     2.058621     2.050978     2.043335     2.035692     2.028049     2.020405
      2.012762     2.005119     1.997476     1.989833     1.982190     1.974546     1.966903     1.959260     1.951617     1.943974
      1.936331     1.928688     1.921045     1.913402     1.905759     1.898115     1.890472     1.882829     1.875186     1.867543
      1.859900     1.852257     1.844614     1.836971     1.829327     1.821684     1.814041     1.806398     1.798755     1.791112
      1.783469     1.775826     1.768183     1.760540     1.752896     1.745253     1.737610     1.729967     1.722324     1.714681
      1.707038     1.699395     1.691752     1.684108     1.676465     1.668822     1.661179     1.653536     1.645893     1.638250
      1.630607     1.622964     1.615321     1.607677     1.600034     1.592391     1.584748     1.577105     1.569462     1.561819
      1.554176     1.546533     1.538890     1.531246     1.523603     1.515960     1.508317     1.500674     1.493031     1.485388
      1.477745     1.470102     1.462458     1.454815     1.447172     1.439529     1.431886     1.424243     1.416600     1.408957
      1.401314     1.393671     1.386027     1.378384     1.370741     1.363098     1.355455     1.347812     1.340169     1.332526
      1.324883     1.317240     1.309596     1.301953     1.294310     1.286667     1.279024     1.271381     1.263738     1.256095
      1.248452     1.240808     1.233165     1.225522     1.217879     1.210236     1.202593     1.194950     1.187307     1.179664
      1.172021     1.164377     1.156734     1.149091     1.141448     1.133805     1.126162     1.118519     1.110876     1.103233
      1.095590     1.087946     1.080303     1.072660     1.065017     1.057374     1.049731     1.042088     1.034445     1.026802
      1.019158     1.011515     1.003872     0.996229     0.988586     0.980943     0.973300     0.965657     0.958014     0.950371
      0.942727     0.935084     0.927441     0.919798     0.912155     0.904512     0.896869     0.889226     0.881583     0.873940
      0.866296     0.858653     0.851010     0.843367     0.835724     0.828081     0.820438     0.812795     0.805152     0.797508
      0.789865     0.782222     0.774579     0.766936     0.759293     0.751650     0.744007     0.736364     0.728721     0.721077
      0.713434     0.705791     0.698148     0.690505     0.682862     0.675219     0.667576     0.659933     0.652290     0.644646
      0.637003     0.629360     0.621717     0.614074     0.606431     0.598788     0.591145     0.583502     0.575858     0.568215
      0.560572     0.552929     0.545286     0.537643     0.530000     0.522357     0.514714     0.507071     0.499427     0.491784
      0.484141     0.476498     0.468855     0.461212     0.453569     0.445925     0.438282     0.430639     0.422996     0.415353
      0.407710     0.400067     0.392424     0.384780     0.377137     0.369494     0.361851     0.354208     0.346565     0.338922
      0.331278     0.323635     0.315992     0.308349     0.300706     0.293063     0.285420     0.277777     0.270133     0.262490
      0.254847     0.247204     0.239561     0.231918     0.224275     0.216631     0.208988     0.201345
 NY phased data points follow
   4.40251E+00  1.15785E+00  4.50874E+00  1.18361E+00  2.91873E+00  2.53428E+00  1.00181E+00  2.71722E+00  3.87830E+00  2.97485E+00
   8.06228E+00  5.42617E+00  7.58613E+00  2.85198E+00  5.12752E+00  4.74618E+00  2.95938E+00  2.62568E+00  3.06248E+00  1.26606E+00
   2.00105E+00  2.50886E+00  1.20331E+00  5.20248E+00  5.52468E+00  2.32840E+00  2.27550E+00  6.40262E-01  2.80164E+00 -9.44091E-01
   1.31112E+00  2.80349E+00  8.24436E+00  2.33800E+00  4.93098E+00  4.25735E-01  2.92177E+00  1.43115E+00  4.31977E+00  4.31891E+00
   5.03115E+00 -3.21357E-01  2.09659E+00 -2.38159E+00  8.02162E-01  4.49158E+00  1.80395E+00  4.04461E+00  2.61362E+00  4.34984E+00
  -4.27271E-01  2.90238E+00  2.20773E+00 -1.78485E+00  2.47474E+00  3.52948E+00  3.69504E-01  3.90599E+00  4.61124E+00  6.40925E+00
   1.53271E+00  2.98930E+00  6.15045E-01 -2.82269E+00  3.10854E+00  2.78067E+00 -8.47366E-01 -2.30370E+00  1.14961E+00 -2.66469E+00
   1.23440E-01 -1.01972E-01  1.32153E+00  3.22865E+00  3.87865E+00  1.34070E+00  1.45419E+00 -6.53479E-01 -1.76448E-01  3.81123E+00
   1.47300E+00 -1.54261E+00  2.81395E+00 -1.08907E+00  9.90068E-01  1.76885E+00  1.95346E+00  2.44786E-01  2.17104E+00 -7.94447E-01
   4.68148E+00  1.37444E+00  4.04603E+00  6.99382E-01  3.81834E+00 -1.42394E+00 -1.33288E+00 -4.86820E+00 -5.37741E+00 -6.20457E+00
  -4.58635E+00  4.74500E-01  7.69807E-01  6.59641E+00  7.27531E+00  5.92745E+00  3.27901E+00  7.39196E+00  1.87652E+00  3.36110E+00
   2.97601E+00 -3.00935E+00  5.80286E+00 -1.36938E+00  2.52746E+00  4.34272E+00  2.40429E+00  1.31083E+00  1.97586E+00 -1.72492E+00
   2.52915E-01  2.45512E-01 -3.34533E+00 -2.79534E+00 -1.76623E+00 -1.63697E-01  2.48221E+00  6.03969E+00  8.54141E+00  8.69033E+00
   6.69231E+00  4.22872E+00  2.82085E+00 -1.70108E+00  1.66443E+00  4.99876E+00 -6.72155E-01 -2.41077E+00 -2.58947E+00  2.10785E-01
   3.49280E+00  2.13928E+00  1.97864E+00  8.72401E-01 -4.96248E-01 -5.53468E-01 -8.03421E-01  1.55909E+00  2.09603E+00  3.41727E-02
   1.67840E+00  3.30780E+00  9.33107E-01 -3.51539E+00  9.14054E-01  5.82150E-01  8.54034E-01 -1.10152E-01  1.31893E+00 -5.89322E-01
   1.65826E+00 -1.20497E+00  1.09768E+00  1.79913E+00  8.43354E-01  6.03891E-01 -2.05457E+00  2.61103E-02  1.91138E+00  2.84277E+00
  -4.15045E-02  2.36228E+00 -2.23336E-03  2.20436E+00  1.17942E+00 -1.22579E+00  1.08883E+00  1.54752E+00  1.30607E+00  8.91329E-01
   2.61572E+00 -3.03702E+00 -1.88678E+00 -6.63767E-01  2.27735E+00  5.90945E-01 -1.23038E+00 -1.02941E-01 -1.06683E+00  9.83359E-02
   7.57585E-01  5.82881E-01  2.54007E+00 -1.12132E+00  4.35098E+00  2.43441E-01 -1.42694E+00 -8.26244E-01  1.83392E+00  3.81847E-01
  -1.17470E+00 -2.57396E-01  4.05103E+00  1.22306E-01 -8.10184E-01 -1.82569E+00 -5.66673E-01  2.33499E+00  6.13689E-01 -4.05982E+00
   1.07231E+00 -6.90185E-01  4.03897E-01 -1.88443E+00  1.92369E+00 -5.63122E+00  4.31638E-01  2.02345E+00 -1.13612E+00  7.50009E-01
   2.52496E+00  3.81889E-01  2.27432E+00  7.54134E-02  4.61366E-01  1.58533E+00  5.31957E-01  4.79620E-01 -1.92213E-01  4.32005E+00
   1.01003E+00  1.75718E+00 -8.51099E-01  1.51331E+00 -4.45037E+00  2.11549E+00  2.06086E+00 -3.66236E-01  4.48906E-01 -8.96360E-01
   5.09512E-01 -1.42466E+00 -6.42581E-01 -8.27903E-01 -1.06476E-01  7.11898E-01  4.23113E-01 -6.34817E-01  7.86736E-01 -6.97048E-01
   2.01818E+00 -1.76580E+00  1.95083E+00 -7.75965E-01 -6.15273E-01 -6.86709E-01 -4.54770E+00 -4.15876E+00 -4.55883E+00 -1.10294E+00
   2.25959E+00  5.52067E+00  8.46626E+00  1.01066E+01  9.35757E+00  3.11494E+00  2.64119E+00  4.68022E+00  3.04114E+00  6.15880E+00
   1.92436E+00  1.36576E+00  1.07624E-01 -3.71776E+00  1.07780E+00 -2.64867E+00 -3.35667E+00  2.86071E+00  4.10697E+00 -3.55903E-01
   5.19778E-01 -2.41354E-01 -6.99427E-01 -3.02149E+00 -1.07061E+00  4.22306E+00 -4.58572E-02 -2.48505E+00  3.69146E+00  3.55956E+00
   5.04621E-01  3.77287E+00  4.62468E+00  2.27974E+00 -6.05901E-01 -1.08211E+00  2.60681E+00  8.31660E-02  3.55150E+00 -5.95694E-01
  -2.50546E+00  1.76283E-01  1.51002E+00 -2.78406E+00 -3.90267E-01 -2.44412E+00  1.37585E+00  8.24664E-01 -5.25784E+00  1.17771E+00
  -1.19341E+00 -7.39294E-01  2.57071E+00  1.64744E-01  3.38060E+00 -5.37470E-01  7.00818E-01  2.10140E+00 -3.16655E+00 -1.11025E-01
   1.25929E+00  7.78966E-01  1.26238E+00  9.96889E-01 -2.33925E+00  4.31630E+00  3.42380E-01  2.70610E+00 -2.02987E-01 -4.21511E+00
  -1.67216E+00  2.17710E+00  1.34009E+00 -2.90096E+00 -1.80232E+00  9.00334E-01  4.89100E+00  4.92428E-01  3.51164E+00  3.44643E+00
   3.68792E+00  1.31552E+00 -1.23438E-02  3.34379E+00  4.49950E+00  1.63732E+00  5.45323E+00  5.28104E+00  4.25261E+00  4.65910E+00
   4.18231E+00  6.51429E+00  5.57505E+00  6.02129E+00  6.68653E+00  1.96316E+00  7.66349E+00  9.19234E+00  1.11501E+01  8.03411E+00
   8.41557E+00  8.75607E+00  7.06820E+00  8.30614E+00  4.53685E+00  1.43650E+00 -7.32594E-01  6.69874E+00  6.86858E+00  7.07678E+00
   1.55801E+00 -2.00381E+00  1.48876E+00 -2.83135E+00 -1.79301E+00 -2.19642E+00 -5.42688E+00 -2.40879E+00 -1.38750E+00 -7.86667E-01
   6.52260E-01 -3.30383E+00 -1.12655E+00 -4.82576E+00 -3.37016E+00 -4.63396E+00 -5.05776E+00 -5.90546E+00 -5.90698E+00 -6.74517E+00
  -1.90717E+00 -5.05974E+00 -7.60145E-01 -4.27175E-01  4.30879E+00 -2.82049E+00  1.87098E+00  1.07347E+00 -2.92323E+00  5.82542E-01
   1.14889E+00 -4.45640E-01 -1.71493E+00 -1.72525E+00 -1.85553E+00  3.18107E+00 -1.41133E-01 -4.71172E+00  7.68404E-01  6.00889E-01
   3.03847E-01 -5.23596E-01  4.15002E-01 -1.57242E+00  8.28829E-01  1.51782E+00  6.85550E-01  2.14007E+00  1.31509E+00 -6.13116E-03
   3.83368E-01  1.95142E+00 -6.50676E-02 -1.88022E-02 -2.74676E-01  3.11336E-01  4.13026E-01 -5.77366E-01 -1.04383E+00  1.02463E+00
   2.47731E+00 -1.35579E-01 -1.50589E+00 -8.40761E-01 -2.55004E+00  1.52977E+00 -3.86158E+00 -2.34867E+00 -2.44980E+00  4.07620E-01
  -2.67708E-01  1.21503E+00  3.29688E+00  1.25100E-01  1.64103E+00 -8.37479E-01  3.76018E+00  2.30880E+00  3.47274E+00  2.57465E-01
   2.05079E+00  5.55667E-01 -4.14898E+00 -1.42264E-01 -3.62549E+00 -8.41226E-03  1.27926E+00 -9.63164E-01 -3.87590E+00 -5.45663E+00
   1.15690E+00 -3.57961E+00  5.67283E-01 -9.95894E-02 -1.02027E+00 -2.67226E+00 -2.11824E+00 -2.80472E+00 -3.00380E+00 -3.92052E-01
  -2.53569E+00  1.02469E+00 -3.65548E-01  4.31337E-01 -1.61330E+00 -2.69464E+00  3.19395E-01  2.78833E+00  3.11497E+00  3.76358E-01
  -1.76689E+00 -1.25013E+00 -2.28970E+00  1.89594E+00 -1.41488E+00 -2.59177E+00 -3.50272E+00 -1.94654E+00  1.83544E+00 -1.85804E+00
  -2.33257E+00 -7.54442E-01 -4.18711E+00 -1.07004E+00 -2.69120E+00 -2.88773E+00 -4.44648E+00  1.63031E-01
 NY points of the fit to the data follow
   1.79928E+00  1.64561E+00  1.48311E+00  1.09454E+00  2.91194E-01 -1.11772E-01  1.23625E-01  9.78863E-01  2.32777E+00  3.96052E+00
   5.28460E+00  5.73272E+00  5.43043E+00  4.72640E+00  3.82024E+00  2.98034E+00  2.49119E+00  2.14841E+00  1.90302E+00  1.77808E+00
   1.71615E+00  1.75352E+00  1.86851E+00  1.98300E+00  1.89911E+00  1.33861E+00  7.37729E-01  5.52346E-01  8.22074E-01  1.42766E+00
   2.28393E+00  3.14575E+00  3.55076E+00  3.38985E+00  2.95161E+00  2.49970E+00  2.13593E+00  1.94991E+00  1.85243E+00  1.79077E+00
   1.72573E+00  1.53183E+00  1.22629E+00  1.01485E+00  1.05458E+00  1.31295E+00  1.73598E+00  2.22231E+00  2.59965E+00  2.72251E+00
   2.58735E+00  2.27744E+00  1.92875E+00  1.65026E+00  1.44769E+00  1.31994E+00  1.26356E+00  1.29520E+00  1.40802E+00  1.58116E+00
   1.76705E+00  1.88215E+00  1.86899E+00  1.75745E+00  1.57819E+00  1.41766E+00  1.31747E+00  1.27172E+00  1.28400E+00  1.34159E+00
   1.38406E+00  1.38250E+00  1.40381E+00  1.47484E+00  1.56587E+00  1.64519E+00  1.71182E+00  1.70826E+00  1.61541E+00  1.48641E+00
   1.35294E+00  1.19295E+00  1.10835E+00  1.20378E+00  1.39894E+00  1.57371E+00  1.67334E+00  1.67344E+00  1.55447E+00  1.37285E+00
   1.22716E+00  1.14181E+00  1.12095E+00  1.14130E+00  1.13268E+00  1.06164E+00  8.39394E-01 -1.75336E-01 -2.19755E+00 -3.09585E+00
  -2.08131E+00  3.78722E-01  3.40688E+00  6.48194E+00  8.48151E+00  8.41375E+00  6.82446E+00  4.80820E+00  2.95102E+00  1.64028E+00
   1.22514E+00  1.12610E+00  1.08397E+00  1.05969E+00  1.04334E+00  1.04920E+00  1.05448E+00  1.03793E+00  9.96643E-01  9.04812E-01
   6.42359E-01 -3.61334E-01 -2.35780E+00 -3.38111E+00 -2.50970E+00 -1.18386E-01  2.91109E+00  6.00277E+00  8.06857E+00  8.11553E+00
   6.69261E+00  4.90984E+00  3.31461E+00  2.18500E+00  1.78438E+00  1.51652E+00  1.11277E+00  6.68078E-01  3.76445E-01  3.01115E-01
   4.39617E-01  7.06588E-01  9.77788E-01  1.17459E+00  1.25757E+00  1.24675E+00  1.19903E+00  1.15206E+00  1.10207E+00  1.06544E+00
   1.03606E+00  9.99513E-01  9.50806E-01  9.07227E-01  8.81513E-01  8.84832E-01  9.45839E-01  1.03251E+00  1.06169E+00  1.00004E+00
   8.43808E-01  6.70080E-01  5.58073E-01  5.46986E-01  6.30333E-01  7.58171E-01  8.73113E-01  9.20424E-01  8.86802E-01  8.14502E-01
   7.57754E-01  7.50193E-01  7.87575E-01  7.54398E-01  6.37154E-01  5.01916E-01  4.28517E-01  4.15259E-01  4.24716E-01  4.45331E-01
   4.63783E-01  4.72476E-01  4.84512E-01  4.80773E-01  3.90349E-01  2.33898E-01  4.53625E-02 -9.47498E-02 -9.75841E-02  8.61570E-02
   4.11373E-01  7.60258E-01  1.02498E+00  1.18182E+00  1.14373E+00  9.20464E-01  6.27593E-01  3.59114E-01  1.50363E-01  2.17082E-03
  -1.72765E-02  1.15511E-01  3.57598E-01  6.31452E-01  8.96942E-01  1.12076E+00  1.20770E+00  1.11079E+00  9.24749E-01  7.15520E-01
   4.64915E-01  2.08396E-01  6.44862E-02  6.47735E-02  1.47413E-01  2.89954E-01  4.85431E-01  6.62795E-01  7.44224E-01  7.04817E-01
   5.70441E-01  4.25021E-01  3.30365E-01  3.18544E-01  3.92364E-01  5.40129E-01  7.35602E-01  9.03432E-01  9.33944E-01  8.06005E-01
   5.87493E-01  3.68870E-01  1.55839E-01 -2.43709E-03  4.69321E-02  2.97637E-01  6.05574E-01  8.73263E-01  1.09169E+00  1.17320E+00
   1.04227E+00  7.42275E-01  4.26794E-01  1.74608E-01  4.09864E-02  6.67729E-02  2.05834E-01  3.83221E-01  5.28946E-01  6.13395E-01
   6.18814E-01  5.69045E-01  4.90435E-01  3.81772E-01  9.30411E-02 -1.18358E+00 -3.64857E+00 -4.77644E+00 -3.59367E+00 -6.31202E-01
   3.06852E+00  6.85233E+00  9.33411E+00  9.31035E+00  7.42110E+00  4.99831E+00  2.73800E+00  1.11783E+00  5.55161E-01  3.70162E-01
   2.52270E-01  1.62884E-01  1.01448E-01  7.23195E-02  7.49563E-02  9.73161E-02  1.25623E-01  1.47046E-01  1.54460E-01  1.43468E-01
   1.15690E-01  7.75556E-02  3.68260E-02  3.62338E-03 -1.72786E-02 -2.75612E-02 -2.70297E-02 -1.74175E-02 -6.44852E-03  3.24767E-03
   1.15227E-02  1.70046E-02  1.90807E-02  1.98989E-02  2.02937E-02  1.99988E-02  2.01534E-02  2.18962E-02  2.46688E-02  2.77864E-02
   3.12508E-02  3.43006E-02  3.67324E-02  3.85030E-02  3.95176E-02  3.97538E-02  3.92681E-02  3.82507E-02  3.68895E-02  3.54143E-02
   3.40089E-02  3.28513E-02  3.20867E-02  3.19203E-02  3.24226E-02  3.35489E-02  3.49931E-02  3.60448E-02  3.50640E-02  2.82561E-02
   5.11663E-03 -6.66204E-02 -1.74113E-01 -4.93031E-02  3.27877E-01  7.77703E-01  1.13118E+00  1.33138E+00  1.31346E+00  1.02425E+00
   4.21464E-01 -2.70448E-01 -7.61153E-01 -9.14102E-01 -7.23024E-01 -2.97972E-01  2.76754E-01  8.11182E-01  1.13958E+00  1.26786E+00
   1.26323E+00  1.14305E+00  9.62534E-01  1.05167E+00  1.70235E+00  2.70038E+00  3.74587E+00  4.66739E+00  5.38391E+00  5.73081E+00
   5.51244E+00  5.05357E+00  4.88172E+00  5.19392E+00  5.96656E+00  7.03505E+00  8.14765E+00  8.98196E+00  9.26259E+00  8.99959E+00
   8.34049E+00  7.40114E+00  6.39201E+00  5.44404E+00  4.54942E+00  3.72123E+00  2.97732E+00  2.32906E+00  1.77954E+00  1.32474E+00
   9.55682E-01  6.60765E-01  4.27588E-01  2.44387E-01  1.00734E-01 -1.20497E-02 -1.00934E-01 -1.71268E-01 -2.27100E-01 -2.71396E-01
  -3.06357E-01 -3.33549E-01 -3.54120E-01 -3.68835E-01 -3.78241E-01 -3.82678E-01 -3.82394E-01 -3.77510E-01 -3.68103E-01 -3.54165E-01
  -3.35712E-01 -3.12737E-01 -2.85312E-01 -2.53528E-01 -2.17577E-01 -1.77714E-01 -1.34354E-01 -8.80226E-02 -3.94292E-02  1.06136E-02
   6.11263E-02  1.11043E-01  1.59155E-01  2.04218E-01  2.44937E-01  2.80087E-01  3.08495E-01  3.29157E-01  3.41202E-01  3.44015E-01
   3.37205E-01  3.20698E-01  2.94665E-01  2.59573E-01  2.16093E-01  1.65144E-01  1.07780E-01  4.52165E-02 -2.13120E-02 -9.05311E-02
  -1.61248E-01 -2.32311E-01 -3.02711E-01 -3.71535E-01 -4.38065E-01 -5.01712E-01 -5.62077E-01 -6.18867E-01 -6.71947E-01 -7.21259E-01
  -7.66883E-01 -8.08936E-01 -8.47627E-01 -8.83152E-01 -9.15768E-01 -9.45704E-01 -9.73234E-01 -9.98588E-01 -1.02202E+00 -1.04371E+00
  -1.06387E+00 -1.08267E+00 -1.10028E+00 -1.11683E+00 -1.13246E+00 -1.14726E+00 -1.16133E+00 -1.17474E+00 -1.18760E+00 -1.19993E+00
  -1.21182E+00 -1.22329E+00 -1.23440E+00 -1.24518E+00 -1.25567E+00 -1.26588E+00 -1.27586E+00 -1.28561E+00 -1.29515E+00 -1.30451E+00
  -1.31372E+00 -1.32276E+00 -1.33167E+00 -1.34043E+00 -1.34908E+00 -1.35762E+00 -1.36606E+00 -1.37440E+00 -1.38266E+00 -1.39082E+00
  -1.39892E+00 -1.40694E+00 -1.41491E+00 -1.42280E+00 -1.43064E+00 -1.43842E+00 -1.44616E+00 -1.45384E+00 -1.46149E+00 -1.46908E+00
  -1.47664E+00 -1.48415E+00 -1.49164E+00 -1.49910E+00 -1.50652E+00 -1.51391E+00 -1.52127E+00 -1.52860E+00 -1.53592E+00 -1.54320E+00
  -1.55047E+00 -1.55770E+00 -1.56492E+00 -1.57212E+00 -1.57931E+00 -1.58647E+00 -1.59362E+00 -1.60075E+00
 NY background values follow
     1.707E+00    1.700E+00    1.694E+00    1.687E+00    1.680E+00    1.674E+00    1.667E+00    1.660E+00    1.654E+00    1.647E+00
     1.640E+00    1.634E+00    1.627E+00    1.620E+00    1.614E+00    1.607E+00    1.600E+00    1.594E+00    1.587E+00    1.580E+00
     1.574E+00    1.567E+00    1.560E+00    1.553E+00    1.547E+00    1.540E+00    1.533E+00    1.527E+00    1.520E+00    1.513E+00
     1.507E+00    1.500E+00    1.493E+00    1.487E+00    1.480E+00    1.473E+00    1.467E+00    1.460E+00    1.453E+00    1.447E+00
     1.440E+00    1.433E+00    1.427E+00    1.420E+00    1.413E+00    1.407E+00    1.400E+00    1.393E+00    1.387E+00    1.380E+00
     1.373E+00    1.367E+00    1.360E+00    1.353E+00    1.347E+00    1.340E+00    1.333E+00    1.326E+00    1.320E+00    1.313E+00
     1.306E+00    1.300E+00    1.293E+00    1.286E+00    1.280E+00    1.273E+00    1.266E+00    1.260E+00    1.253E+00    1.246E+00
     1.240E+00    1.233E+00    1.226E+00    1.220E+00    1.213E+00    1.206E+00    1.200E+00    1.193E+00    1.186E+00    1.180E+00
     1.173E+00    1.166E+00    1.159E+00    1.153E+00    1.146E+00    1.139E+00    1.133E+00    1.126E+00    1.119E+00    1.113E+00
     1.106E+00    1.099E+00    1.093E+00    1.086E+00    1.079E+00    1.073E+00    1.066E+00    1.059E+00    1.053E+00    1.046E+00
     1.039E+00    1.032E+00    1.026E+00    1.019E+00    1.012E+00    1.006E+00    9.991E-01    9.924E-01    9.857E-01    9.790E-01
     9.723E-01    9.656E-01    9.589E-01    9.523E-01    9.456E-01    9.389E-01    9.322E-01    9.255E-01    9.188E-01    9.121E-01
     9.054E-01    8.988E-01    8.921E-01    8.854E-01    8.787E-01    8.720E-01    8.653E-01    8.586E-01    8.519E-01    8.453E-01
     8.386E-01    8.319E-01    8.252E-01    8.185E-01    8.118E-01    8.051E-01    7.984E-01    7.917E-01    7.851E-01    7.784E-01
     7.717E-01    7.650E-01    7.583E-01    7.516E-01    7.449E-01    7.382E-01    7.315E-01    7.248E-01    7.181E-01    7.115E-01
     7.048E-01    6.981E-01    6.914E-01    6.847E-01    6.780E-01    6.713E-01    6.646E-01    6.579E-01    6.512E-01    6.445E-01
     6.378E-01    6.312E-01    6.245E-01    6.178E-01    6.111E-01    6.044E-01    5.977E-01    5.910E-01    5.843E-01    5.776E-01
     5.709E-01    5.642E-01    5.575E-01    5.508E-01    5.441E-01    5.375E-01    5.308E-01    5.241E-01    5.174E-01    5.107E-01
     5.040E-01    4.973E-01    4.906E-01    4.839E-01    4.772E-01    4.705E-01    4.638E-01    4.571E-01    4.504E-01    4.437E-01
     4.370E-01    4.303E-01    4.236E-01    4.169E-01    4.102E-01    4.035E-01    3.969E-01    3.902E-01    3.835E-01    3.768E-01
     3.701E-01    3.634E-01    3.567E-01    3.500E-01    3.433E-01    3.366E-01    3.299E-01    3.232E-01    3.165E-01    3.098E-01
     3.031E-01    2.964E-01    2.897E-01    2.830E-01    2.763E-01    2.696E-01    2.629E-01    2.562E-01    2.495E-01    2.428E-01
     2.361E-01    2.294E-01    2.227E-01    2.160E-01    2.093E-01    2.026E-01    1.959E-01    1.892E-01    1.825E-01    1.758E-01
     1.691E-01    1.624E-01    1.557E-01    1.490E-01    1.423E-01    1.356E-01    1.289E-01    1.222E-01    1.155E-01    1.088E-01
     1.021E-01    9.542E-02    8.872E-02    8.202E-02    7.532E-02    6.862E-02    6.192E-02    5.522E-02    4.852E-02    4.182E-02
     3.512E-02    2.841E-02    2.171E-02    1.501E-02    8.310E-03    1.609E-03   -5.093E-03   -1.180E-02   -1.850E-02   -2.520E-02
    -3.190E-02   -3.860E-02   -4.531E-02   -5.201E-02   -5.871E-02   -6.541E-02   -7.212E-02   -7.882E-02   -8.552E-02   -9.222E-02
    -9.893E-02   -1.056E-01   -1.123E-01   -1.190E-01   -1.257E-01   -1.324E-01   -1.391E-01   -1.458E-01   -1.526E-01   -1.593E-01
    -1.660E-01   -1.727E-01   -1.794E-01   -1.861E-01   -1.928E-01   -1.995E-01   -2.062E-01   -2.129E-01   -2.196E-01   -2.263E-01
    -2.330E-01   -2.397E-01   -2.464E-01   -2.531E-01   -2.598E-01   -2.665E-01   -2.732E-01   -2.799E-01   -2.866E-01   -2.933E-01
    -3.000E-01   -3.068E-01   -3.135E-01   -3.202E-01   -3.269E-01   -3.336E-01   -3.403E-01   -3.470E-01   -3.537E-01   -3.604E-01
    -3.671E-01   -3.738E-01   -3.805E-01   -3.872E-01   -3.939E-01   -4.006E-01   -4.073E-01   -4.140E-01   -4.208E-01   -4.275E-01
    -4.342E-01   -4.409E-01   -4.476E-01   -4.543E-01   -4.610E-01   -4.677E-01   -4.744E-01   -4.811E-01   -4.878E-01   -4.945E-01
    -5.012E-01   -5.079E-01   -5.146E-01   -5.214E-01   -5.281E-01   -5.348E-01   -5.415E-01   -5.482E-01   -5.549E-01   -5.616E-01
    -5.683E-01   -5.750E-01   -5.817E-01   -5.884E-01   -5.951E-01   -6.018E-01   -6.086E-01   -6.153E-01   -6.220E-01   -6.287E-01
    -6.354E-01   -6.421E-01   -6.488E-01   -6.555E-01   -6.622E-01   -6.689E-01   -6.756E-01   -6.823E-01   -6.891E-01   -6.958E-01
    -7.025E-01   -7.092E-01   -7.159E-01   -7.226E-01   -7.293E-01   -7.360E-01   -7.427E-01   -7.494E-01   -7.561E-01   -7.629E-01
    -7.696E-01   -7.763E-01   -7.830E-01   -7.897E-01   -7.964E-01   -8.031E-01   -8.098E-01   -8.165E-01   -8.232E-01   -8.299E-01
    -8.367E-01   -8.434E-01   -8.501E-01   -8.568E-01   -8.635E-01   -8.702E-01   -8.769E-01   -8.836E-01   -8.903E-01   -8.970E-01
    -9.038E-01   -9.105E-01   -9.172E-01   -9.239E-01   -9.306E-01   -9.373E-01   -9.440E-01   -9.507E-01   -9.574E-01   -9.641E-01
    -9.709E-01   -9.776E-01   -9.843E-01   -9.910E-01   -9.977E-01   -1.004E+00   -1.011E+00   -1.018E+00   -1.025E+00   -1.031E+00
    -1.038E+00   -1.045E+00   -1.051E+00   -1.058E+00   -1.065E+00   -1.072E+00   -1.078E+00   -1.085E+00   -1.092E+00   -1.098E+00
    -1.105E+00   -1.112E+00   -1.118E+00   -1.125E+00   -1.132E+00   -1.139E+00   -1.145E+00   -1.152E+00   -1.159E+00   -1.165E+00
    -1.172E+00   -1.179E+00   -1.186E+00   -1.192E+00   -1.199E+00   -1.206E+00   -1.212E+00   -1.219E+00   -1.226E+00   -1.233E+00
    -1.239E+00   -1.246E+00   -1.253E+00   -1.259E+00   -1.266E+00   -1.273E+00   -1.280E+00   -1.286E+00   -1.293E+00   -1.300E+00
    -1.306E+00   -1.313E+00   -1.320E+00   -1.327E+00   -1.333E+00   -1.340E+00   -1.347E+00   -1.353E+00   -1.360E+00   -1.367E+00
    -1.374E+00   -1.380E+00   -1.387E+00   -1.394E+00   -1.400E+00   -1.407E+00   -1.414E+00   -1.421E+00   -1.427E+00   -1.434E+00
    -1.441E+00   -1.447E+00   -1.454E+00   -1.461E+00   -1.468E+00   -1.474E+00   -1.481E+00   -1.488E+00   -1.494E+00   -1.501E+00
    -1.508E+00   -1.515E+00   -1.521E+00   -1.528E+00   -1.535E+00   -1.541E+00   -1.548E+00   -1.555E+00   -1.561E+00   -1.568E+00
    -1.575E+00   -1.582E+00   -1.588E+00   -1.595E+00   -1.602E+00   -1.608E+00   -1.615E+00   -1.622E+00
 Ala      Conc. = 2.20E+01
