 LCModel (Version 6.3-1L) Copyright: S.W. Provencher.          Ref.: Magn. Reson. Med. 30:672-679 (1993).                
 Slice#1 Row#9 Col#9  PD_24_press_1_raw_act
 36 lines in following concentration table = NCONC+1
    Conc.  %SD /Cr+PCr  Metabolite                                         
    0.000 999%   0.000 Ala                                                 
   50.193 111%   0.482 Asp                                                 
    0.000 999%   0.000 Cr                                                  
  104.084  99%   1.000 PCr                                                 
   23.180 144%   0.223 GABA                                                
   25.549 132%   0.245 Glc                                                 
    0.000 999%   0.000 Gln                                                 
  169.806  88%   1.631 Glu                                                 
  155.753   9%   1.496 GPC                                                 
    0.000 999%   0.000 PCh                                                 
   28.776 165%   0.276 GSH                                                 
  293.108  52%   2.816 Ins                                                 
    0.000 999%   0.000 Lac                                                 
  474.100  11%   4.555 NAA                                                 
  107.697  55%   1.035 NAAG                                                
   13.965  72%   0.134 Scyllo                                              
   59.808  90%   0.575 Tau                                                 
   16.550 162%   0.159 -CrCH2                                              
  155.753   9%   1.496 GPC+PCh                                             
  581.798  10%   5.590 NAA+NAAG                                            
  104.084  33%   1.000 Cr+PCr                                              
  169.806  88%   1.631 Glu+Gln                                             
 1.31E+03  25%  12.615 Lip13a                                              
  506.611  40%   4.867 Lip13b                                              
  200.082  93%   1.922 Lip09                                               
  485.864  35%   4.668 MM09                                                
  253.027  60%   2.431 Lip20                                               
 1.09E+03  22%  10.470 MM20                                                
  159.210  52%   1.530 MM12                                                
    4.555 999% 4.4E-02 MM14                                                
   73.653 161%   0.708 MM17                                                
 1.82E+03  15%  17.483 Lip13a+Lip13b                                       
 1.98E+03  12%  19.056 MM14+Lip13a+Lip13b+MM12                             
  685.946  18%   6.590 MM09+Lip09                                          
 1.34E+03  17%  12.901 MM20+Lip20                                          
   6 lines in following misc. output table
  FWHM = 0.046 ppm    S/N =   4                                            
  Data shift =-0.031 ppm                                                   
  Ph: -66 deg      -8.2 deg/ppm                                            
  alphaB,S = 8.5E+01,   5.1E+01                                            
   14 spline knots.   Ns = 5(1)                                            
   2 inflections.     1 extrema                                            
  498 points on ppm-axis = NY
      4.000000     3.992357     3.984714     3.977070     3.969427     3.961784     3.954141     3.946497     3.938854     3.931211
      3.923568     3.915925     3.908281     3.900638     3.892995     3.885352     3.877708     3.870065     3.862422     3.854779
      3.847136     3.839492     3.831849     3.824206     3.816563     3.808919     3.801276     3.793633     3.785990     3.778347
      3.770703     3.763060     3.755417     3.747774     3.740130     3.732487     3.724844     3.717201     3.709558     3.701914
      3.694271     3.686628     3.678985     3.671341     3.663698     3.656055     3.648412     3.640769     3.633125     3.625482
      3.617839     3.610196     3.602552     3.594909     3.587266     3.579623     3.571980     3.564336     3.556693     3.549050
      3.541407     3.533763     3.526120     3.518477     3.510834     3.503191     3.495547     3.487904     3.480261     3.472618
      3.464974     3.457331     3.449688     3.442045     3.434402     3.426758     3.419115     3.411472     3.403829     3.396185
      3.388542     3.380899     3.373256     3.365613     3.357969     3.350326     3.342683     3.335040     3.327396     3.319753
      3.312110     3.304467     3.296824     3.289180     3.281537     3.273894     3.266251     3.258607     3.250964     3.243321
      3.235678     3.228034     3.220391     3.212748     3.205105     3.197462     3.189818     3.182175     3.174532     3.166889
      3.159245     3.151602     3.143959     3.136316     3.128673     3.121029     3.113386     3.105743     3.098100     3.090456
      3.082813     3.075170     3.067527     3.059884     3.052240     3.044597     3.036954     3.029311     3.021667     3.014024
      3.006381     2.998738     2.991095     2.983451     2.975808     2.968165     2.960522     2.952878     2.945235     2.937592
      2.929949     2.922306     2.914662     2.907019     2.899376     2.891733     2.884089     2.876446     2.868803     2.861160
      2.853517     2.845873     2.838230     2.830587     2.822944     2.815300     2.807657     2.800014     2.792371     2.784728
      2.777084     2.769441     2.761798     2.754155     2.746511     2.738868     2.731225     2.723582     2.715939     2.708295
      2.700652     2.693009     2.685366     2.677722     2.670079     2.662436     2.654793     2.647150     2.639506     2.631863
      2.624220     2.616577     2.608933     2.601290     2.593647     2.586004     2.578361     2.570717     2.563074     2.555431
      2.547788     2.540144     2.532501     2.524858     2.517215     2.509572     2.501928     2.494285     2.486642     2.478999
      2.471355     2.463712     2.456069     2.448426     2.440783     2.433139     2.425496     2.417853     2.410210     2.402566
      2.394923     2.387280     2.379637     2.371994     2.364350     2.356707     2.349064     2.341421     2.333777     2.326134
      2.318491     2.310848     2.303205     2.295561     2.287918     2.280275     2.272632     2.264988     2.257345     2.249702
      2.242059     2.234416     2.226772     2.219129     2.211486     2.203843     2.196199     2.188556     2.180913     2.173270
      2.165627     2.157983     2.150340     2.142697     2.135054     2.127410     2.119767     2.112124     2.104481     2.096838
      2.089194     2.081551     2.073908     2.066265     2.058621     2.050978     2.043335     2.035692     2.028049     2.020405
      2.012762     2.005119     1.997476     1.989833     1.982190     1.974546     1.966903     1.959260     1.951617     1.943974
      1.936331     1.928688     1.921045     1.913402     1.905759     1.898115     1.890472     1.882829     1.875186     1.867543
      1.859900     1.852257     1.844614     1.836971     1.829327     1.821684     1.814041     1.806398     1.798755     1.791112
      1.783469     1.775826     1.768183     1.760540     1.752896     1.745253     1.737610     1.729967     1.722324     1.714681
      1.707038     1.699395     1.691752     1.684108     1.676465     1.668822     1.661179     1.653536     1.645893     1.638250
      1.630607     1.622964     1.615321     1.607677     1.600034     1.592391     1.584748     1.577105     1.569462     1.561819
      1.554176     1.546533     1.538890     1.531246     1.523603     1.515960     1.508317     1.500674     1.493031     1.485388
      1.477745     1.470102     1.462458     1.454815     1.447172     1.439529     1.431886     1.424243     1.416600     1.408957
      1.401314     1.393671     1.386027     1.378384     1.370741     1.363098     1.355455     1.347812     1.340169     1.332526
      1.324883     1.317240     1.309596     1.301953     1.294310     1.286667     1.279024     1.271381     1.263738     1.256095
      1.248452     1.240808     1.233165     1.225522     1.217879     1.210236     1.202593     1.194950     1.187307     1.179664
      1.172021     1.164377     1.156734     1.149091     1.141448     1.133805     1.126162     1.118519     1.110876     1.103233
      1.095590     1.087946     1.080303     1.072660     1.065017     1.057374     1.049731     1.042088     1.034445     1.026802
      1.019158     1.011515     1.003872     0.996229     0.988586     0.980943     0.973300     0.965657     0.958014     0.950371
      0.942727     0.935084     0.927441     0.919798     0.912155     0.904512     0.896869     0.889226     0.881583     0.873940
      0.866296     0.858653     0.851010     0.843367     0.835724     0.828081     0.820438     0.812795     0.805152     0.797508
      0.789865     0.782222     0.774579     0.766936     0.759293     0.751650     0.744007     0.736364     0.728721     0.721077
      0.713434     0.705791     0.698148     0.690505     0.682862     0.675219     0.667576     0.659933     0.652290     0.644646
      0.637003     0.629360     0.621717     0.614074     0.606431     0.598788     0.591145     0.583502     0.575858     0.568215
      0.560572     0.552929     0.545286     0.537643     0.530000     0.522357     0.514714     0.507071     0.499427     0.491784
      0.484141     0.476498     0.468855     0.461212     0.453569     0.445925     0.438282     0.430639     0.422996     0.415353
      0.407710     0.400067     0.392424     0.384780     0.377137     0.369494     0.361851     0.354208     0.346565     0.338922
      0.331278     0.323635     0.315992     0.308349     0.300706     0.293063     0.285420     0.277777     0.270133     0.262490
      0.254847     0.247204     0.239561     0.231918     0.224275     0.216631     0.208988     0.201345
 NY phased data points follow
  -1.37227E+01 -2.03293E+01 -1.16468E+01 -1.44150E+01 -1.17392E+01 -1.24801E+01 -9.16259E+00 -1.10556E+01 -5.89045E+00 -8.21460E+00
  -2.05798E+00 -1.24379E+01 -5.51851E+00 -1.28988E+01 -6.40381E+00 -1.15181E+01 -1.19015E+01 -1.00832E+01 -5.00269E+00 -7.13918E+00
  -6.10910E+00 -1.14286E+01 -1.01947E+01 -1.54391E+01 -9.41707E+00 -8.39432E+00 -1.00828E+01 -1.13837E+01 -7.40060E+00 -9.55624E+00
  -1.05175E+01 -8.89238E+00 -5.95567E+00 -1.35324E+01 -6.61866E+00 -1.10112E+01 -6.45467E+00 -7.01086E+00 -8.31948E+00 -5.60171E+00
  -3.61690E+00 -8.63916E+00 -4.10113E+00 -1.17227E+01 -7.74158E+00 -4.57538E+00 -2.38433E+00 -5.47989E+00 -4.17477E+00 -9.27878E+00
  -4.71239E+00 -7.87471E+00 -8.11883E+00 -9.94347E+00 -7.99464E+00 -1.23380E+01 -2.11663E+00 -1.09899E+01 -6.33104E+00 -8.32011E+00
  -9.89408E+00 -7.19828E+00 -1.60938E+01 -9.31424E+00 -1.02578E+01 -1.31503E+01 -9.14249E+00 -1.10996E+01 -8.68325E+00 -1.23296E+01
  -6.24686E+00 -1.32352E+01 -1.07744E+01 -1.00253E+01 -4.21824E+00 -1.06859E+01 -4.07779E+00 -1.02463E+01 -8.07135E+00 -6.96779E+00
  -9.61941E+00 -9.97335E+00 -1.01941E+01 -8.26257E+00 -5.84875E+00 -1.10392E+01 -6.79678E+00 -6.89667E+00 -6.50042E+00 -8.75305E+00
  -1.38493E+01 -1.04411E+01 -7.67387E+00 -7.81789E+00 -6.43118E+00 -8.26290E+00 -3.74643E+00 -1.02823E+01 -5.80280E+00 -3.61788E-02
   2.94238E+00  1.30846E+00  6.22932E+00  6.42933E+00  1.13311E+01  8.44534E+00 -3.88820E-01 -6.23495E+00 -3.69556E+00 -5.94665E+00
  -4.14320E+00 -5.26713E+00 -4.52859E+00 -6.44495E+00 -1.71852E+00 -6.77311E+00 -8.13709E+00 -9.06854E+00 -9.50361E+00 -1.13793E+01
  -5.09176E+00 -6.82601E+00 -7.86595E+00 -9.27648E+00 -2.25538E+00 -6.24075E+00 -3.10570E+00 -3.55463E+00 -1.36395E+00 -2.64597E+00
  -5.04068E+00 -7.62424E+00 -8.90919E+00 -1.00711E+01 -1.01060E+01 -3.65791E+00 -2.63496E+00 -1.84190E+00 -8.16120E-01 -5.86587E+00
  -9.82952E+00 -2.34920E+00 -1.22365E+01 -6.09394E+00 -5.44790E+00 -6.21284E+00 -1.07645E+01 -1.57521E+01 -9.50003E+00 -1.12111E+01
  -6.40234E+00 -8.90226E+00 -9.91167E+00 -9.11355E+00 -4.81542E+00 -1.01553E+01 -7.87754E+00 -9.50187E+00 -7.67660E+00 -5.94278E+00
  -7.72861E+00 -9.86414E+00 -9.49313E+00 -1.01379E+01 -1.46886E+01 -3.59213E+00 -1.01822E+01 -1.07727E+01 -7.92350E+00 -1.01294E+01
  -8.60447E+00 -9.31411E+00 -1.22408E+01 -1.14410E+01 -9.64852E+00 -5.78805E+00 -9.45353E+00 -8.17502E+00 -6.95057E+00 -8.61328E+00
  -1.16202E+01 -1.08052E+01 -1.15360E+01 -1.12147E+01 -8.02211E+00 -1.26227E+01 -1.02748E+01 -7.48362E+00 -8.88386E+00 -5.82759E+00
  -6.76520E+00 -4.01784E+00 -3.38753E+00 -4.34999E+00 -7.58305E+00 -9.27703E+00 -7.29508E+00 -7.14353E+00 -7.31439E+00 -9.20298E+00
  -3.40156E+00 -6.32171E+00 -3.14354E+00 -9.14692E+00 -3.39292E+00 -8.37743E+00  6.27367E-01 -3.11526E+00 -1.06357E+01 -4.75211E+00
  -1.96970E+00 -1.34254E+01 -2.52036E+00 -6.36636E+00 -6.10577E+00 -5.93290E+00 -4.70141E+00 -2.09756E+00 -2.71672E+00 -5.60196E+00
  -6.46102E+00 -8.61749E+00 -4.44746E+00 -4.34734E+00 -7.02985E+00 -6.73683E+00 -2.64615E+00 -2.19861E+00 -5.03280E+00 -3.66618E+00
  -3.36966E+00 -1.62260E+00 -4.29900E+00 -1.04926E+00  8.86544E-01 -3.44239E+00 -1.36130E+00 -3.40122E+00 -4.81099E+00 -6.52359E+00
   4.18136E-01 -1.95115E+00 -4.44881E+00 -4.92634E+00 -5.97248E+00 -1.38917E+00  1.18502E+00 -3.91072E-01  1.70064E+00 -4.10350E-01
   5.12758E+00  3.78086E+00  3.54360E+00  4.73443E+00  4.27757E+00  2.35870E+00  7.61769E+00  9.89359E+00  1.14570E+01  1.01836E+01
   1.86930E+01  2.38270E+01  1.75069E+01  1.09001E+01 -8.55097E-01  2.88671E-01 -1.02007E-03 -2.95545E+00  1.73915E+00 -5.52752E-01
  -9.80766E-02 -2.23710E+00 -4.33627E+00  9.13721E-02 -7.41721E+00 -5.41219E+00 -1.84834E+00 -6.06057E+00 -6.67034E+00 -5.71895E+00
  -7.38897E+00 -7.61818E+00 -3.68542E+00 -1.00594E+01 -1.15277E+01 -8.69956E+00 -1.07514E+00 -6.81748E+00 -2.79195E+00 -2.28398E+00
  -7.59527E+00 -8.08781E+00 -1.76929E+00 -7.20836E+00 -5.86221E+00 -5.68698E+00 -6.71813E+00 -7.90692E+00 -4.12540E+00 -6.94269E+00
  -5.87524E+00 -6.53982E+00 -8.85774E+00 -1.30493E+00 -2.83288E+00 -4.17025E+00  2.34523E-01 -2.29847E+00 -2.11086E-01 -5.06003E+00
  -4.82885E+00  8.70442E-01 -3.16521E+00 -7.87527E+00 -2.94352E+00 -7.05551E+00 -7.21144E+00 -9.65880E+00 -9.65773E-01 -5.71224E+00
  -7.12665E+00 -6.60812E+00 -3.18149E+00 -2.23066E+00 -1.86540E+00 -5.16790E+00 -3.76432E+00 -4.83948E+00  2.08143E-01 -2.84992E+00
  -3.36578E+00 -6.86108E+00 -1.93900E-01 -1.58343E+00 -2.98009E+00 -2.90588E+00 -7.59149E+00 -3.05667E+00 -1.00456E+00 -5.87696E+00
  -1.49251E+00 -7.60449E+00 -5.43354E+00 -4.24805E+00 -3.78036E+00  2.60772E+00 -4.13837E+00 -1.06826E+00  1.30771E+00  4.03999E+00
   4.08575E+00  3.53012E+00  1.07450E+01  4.05085E+00  6.73396E+00  1.05703E+01  1.33757E+01  1.11927E+01  1.31875E+01  1.41083E+01
   1.28892E+01  7.62618E+00  8.47376E+00  7.39755E+00  8.95879E+00  3.20776E+00  8.03984E+00  3.27158E+00  1.68969E+00  1.89137E+00
   3.64462E+00  7.77750E+00  3.44515E+00  5.82737E+00  2.25796E+00  2.74026E+00  2.73564E+00  3.27677E-02 -4.30818E+00 -4.70423E+00
  -4.00110E-01 -2.42925E+00 -3.88216E+00 -6.42225E+00 -3.35497E+00  2.17485E+00 -3.24157E+00 -7.22222E+00 -3.75355E+00  2.71666E-01
  -1.41342E+00 -5.95822E+00 -4.57050E-01 -5.48864E+00 -8.89623E-01 -2.48844E+00  4.57335E+00 -1.02782E+00 -3.67623E+00  2.09160E+00
   3.10425E+00  3.38612E+00 -4.15754E-01  3.37182E+00  3.64995E+00  1.52904E+00  1.26591E+00 -1.31107E+00  4.12969E+00  3.74649E+00
  -5.70396E-02  2.80562E+00  1.66923E+00  3.90521E+00 -2.71465E+00 -1.13265E+00  1.67596E+00  1.52228E-01  2.06573E+00 -1.23178E+00
   4.75162E+00 -2.74117E+00 -1.95363E-01  1.44153E+00 -8.99310E-01 -6.76280E+00 -5.47219E-01 -3.44016E+00 -7.95390E+00  8.30810E-01
  -1.83317E+00  8.56665E-01 -8.72917E-01 -3.64539E+00 -1.59436E+00 -5.34448E-01 -3.07785E+00  5.57099E-01  1.53359E+00 -2.59741E+00
  -1.03156E+00 -3.77830E+00 -3.19765E+00 -3.31928E+00 -3.50958E+00 -1.34160E+00 -9.34302E-01 -2.73413E+00 -4.18010E+00 -1.35631E+00
  -1.75329E+00  2.55795E+00 -4.07677E+00  3.05877E+00 -4.64692E+00 -6.90148E+00  4.74297E-01 -3.45171E+00 -1.22294E+00 -3.35991E-01
  -4.26474E+00 -7.27490E-01 -3.06095E+00 -1.79243E+00 -1.79970E+00 -2.30489E+00  3.38092E+00 -4.25956E-02 -4.25831E+00 -1.39563E+00
  -4.95770E+00 -3.79713E+00 -4.84133E+00 -3.91815E+00  9.09516E-01 -4.63733E+00 -2.08198E+00 -3.23332E+00  3.00780E+00 -1.88382E+00
  -1.75079E+00 -1.26959E+00 -3.74154E+00 -2.19375E+00 -2.34968E+00 -1.55445E+00 -3.55258E+00 -4.01398E+00 -1.44830E+00 -3.08472E+00
  -1.71663E+00 -2.57538E+00 -1.50076E-01 -4.15860E+00  1.14505E+00 -8.25560E-02 -3.79900E-01 -9.94717E-01
 NY points of the fit to the data follow
  -1.01251E+01 -1.01672E+01 -1.00978E+01 -9.90982E+00 -9.53474E+00 -9.00530E+00 -8.44269E+00 -7.90743E+00 -7.44153E+00 -7.15511E+00
  -7.18037E+00 -7.53848E+00 -8.07402E+00 -8.57007E+00 -8.90527E+00 -9.09114E+00 -9.17994E+00 -9.24498E+00 -9.34836E+00 -9.49347E+00
  -9.63124E+00 -9.70426E+00 -9.70499E+00 -9.69283E+00 -9.69548E+00 -9.66681E+00 -9.58956E+00 -9.48682E+00 -9.35159E+00 -9.15201E+00
  -8.89716E+00 -8.66669E+00 -8.53063E+00 -8.49089E+00 -8.52053E+00 -8.60118E+00 -8.73822E+00 -8.89059E+00 -8.99678E+00 -9.06930E+00
  -9.14558E+00 -9.15498E+00 -8.95770E+00 -8.52465E+00 -7.97960E+00 -7.43664E+00 -6.94388E+00 -6.56799E+00 -6.47571E+00 -6.79729E+00
  -7.45053E+00 -8.18274E+00 -8.76520E+00 -9.11122E+00 -9.22222E+00 -9.14486E+00 -8.95985E+00 -8.73579E+00 -8.52278E+00 -8.34531E+00
  -8.23892E+00 -8.25573E+00 -8.41420E+00 -8.67099E+00 -8.92049E+00 -9.07607E+00 -9.09966E+00 -8.99318E+00 -8.81632E+00 -8.64229E+00
  -8.49644E+00 -8.36025E+00 -8.24032E+00 -8.16407E+00 -8.14772E+00 -8.19021E+00 -8.27820E+00 -8.40281E+00 -8.55148E+00 -8.68478E+00
  -8.74738E+00 -8.68197E+00 -8.51975E+00 -8.36043E+00 -8.27025E+00 -8.25718E+00 -8.32735E+00 -8.50145E+00 -8.76301E+00 -9.01383E+00
  -9.13272E+00 -9.07579E+00 -8.91577E+00 -8.74970E+00 -8.61549E+00 -8.50202E+00 -8.33203E+00 -7.75668E+00 -5.91693E+00 -2.95196E+00
   4.08910E-01  3.83346E+00  7.08788E+00  9.29094E+00  9.11282E+00  6.08347E+00  1.40119E+00 -2.92628E+00 -5.73645E+00 -7.13997E+00
  -7.66606E+00 -7.83924E+00 -7.91112E+00 -7.93812E+00 -7.94311E+00 -7.93914E+00 -7.93031E+00 -7.91472E+00 -7.89319E+00 -7.86247E+00
  -7.80364E+00 -7.63265E+00 -7.14886E+00 -6.39212E+00 -5.53683E+00 -4.66259E+00 -3.82803E+00 -3.24933E+00 -3.23399E+00 -3.88120E+00
  -4.91851E+00 -5.89124E+00 -6.54216E+00 -6.90572E+00 -7.09922E+00 -7.22775E+00 -7.32545E+00 -7.37815E+00 -7.37607E+00 -7.32452E+00
  -7.24637E+00 -7.17121E+00 -7.12659E+00 -7.11996E+00 -7.13505E+00 -7.15444E+00 -7.17502E+00 -7.20522E+00 -7.24927E+00 -7.30342E+00
  -7.35809E+00 -7.40146E+00 -7.43110E+00 -7.44742E+00 -7.44827E+00 -7.44274E+00 -7.45882E+00 -7.50755E+00 -7.58431E+00 -7.68879E+00
  -7.79865E+00 -7.88723E+00 -7.91097E+00 -7.83391E+00 -7.69157E+00 -7.58606E+00 -7.59428E+00 -7.71057E+00 -7.86970E+00 -7.99914E+00
  -8.07602E+00 -8.13459E+00 -8.20234E+00 -8.26687E+00 -8.32871E+00 -8.38976E+00 -8.43904E+00 -8.43348E+00 -8.34357E+00 -8.21316E+00
  -8.13087E+00 -8.13282E+00 -8.16811E+00 -8.13927E+00 -7.99962E+00 -7.80406E+00 -7.62078E+00 -7.43893E+00 -7.21039E+00 -6.92631E+00
  -6.64819E+00 -6.45789E+00 -6.38040E+00 -6.40274E+00 -6.47489E+00 -6.53225E+00 -6.55348E+00 -6.56914E+00 -6.59715E+00 -6.59634E+00
  -6.53641E+00 -6.41317E+00 -6.25039E+00 -6.08207E+00 -5.95024E+00 -5.92291E+00 -6.03259E+00 -6.25009E+00 -6.51978E+00 -6.75764E+00
  -6.88212E+00 -6.83023E+00 -6.62485E+00 -6.32067E+00 -5.94453E+00 -5.54351E+00 -5.24482E+00 -5.21848E+00 -5.50750E+00 -5.95174E+00
  -6.33147E+00 -6.52931E+00 -6.51074E+00 -6.25758E+00 -5.79057E+00 -5.22012E+00 -4.72383E+00 -4.42198E+00 -4.30379E+00 -4.28960E+00
  -4.29842E+00 -4.26693E+00 -4.14990E+00 -3.93453E+00 -3.65053E+00 -3.36729E+00 -3.15231E+00 -3.03585E+00 -3.01531E+00 -3.04027E+00
  -3.04195E+00 -2.96448E+00 -2.77947E+00 -2.47728E+00 -2.08199E+00 -1.66326E+00 -1.30993E+00 -1.07677E+00 -9.53593E-01 -8.84777E-01
  -7.39050E-01 -2.73573E-01  5.01525E-01  1.44154E+00  2.57380E+00  4.50081E+00  7.55535E+00  1.07643E+01  1.34675E+01  1.57942E+01
   1.76943E+01  1.81114E+01  1.58730E+01  1.12395E+01  5.99341E+00  1.92340E+00 -4.94983E-01 -1.70772E+00 -2.27464E+00 -2.62471E+00
  -2.87968E+00 -3.06805E+00 -3.20792E+00 -3.31867E+00 -3.41969E+00 -3.53077E+00 -3.66594E+00 -3.82303E+00 -3.98294E+00 -4.12622E+00
  -4.24457E+00 -4.33691E+00 -4.40602E+00 -4.45690E+00 -4.49662E+00 -4.53286E+00 -4.56972E+00 -4.60422E+00 -4.63263E+00 -4.65309E+00
  -4.66332E+00 -4.66122E+00 -4.64774E+00 -4.62825E+00 -4.61111E+00 -4.59996E+00 -4.59246E+00 -4.58509E+00 -4.57575E+00 -4.56259E+00
  -4.54396E+00 -4.51968E+00 -4.49214E+00 -4.46530E+00 -4.44208E+00 -4.42344E+00 -4.40934E+00 -4.39906E+00 -4.39187E+00 -4.38724E+00
  -4.38474E+00 -4.38400E+00 -4.38470E+00 -4.38646E+00 -4.38875E+00 -4.39093E+00 -4.39230E+00 -4.39232E+00 -4.39055E+00 -4.38659E+00
  -4.38002E+00 -4.37044E+00 -4.35750E+00 -4.34090E+00 -4.32033E+00 -4.29539E+00 -4.26558E+00 -4.23030E+00 -4.18892E+00 -4.14067E+00
  -4.08453E+00 -4.01923E+00 -3.94320E+00 -3.85465E+00 -3.75155E+00 -3.63156E+00 -3.49199E+00 -3.32973E+00 -3.14127E+00 -2.92261E+00
  -2.66901E+00 -2.37451E+00 -2.03145E+00 -1.62977E+00 -1.15663E+00 -5.96258E-01  6.93395E-02  8.58486E-01  1.78631E+00  2.85971E+00
   4.07147E+00  5.39486E+00  6.78054E+00  8.15712E+00  9.43685E+00  1.05258E+01  1.13377E+01  1.18076E+01  1.19031E+01  1.16298E+01
   1.10292E+01  1.01708E+01  9.13899E+00  8.01949E+00  6.88789E+00  5.80186E+00  4.79839E+00  3.89527E+00  3.09542E+00  2.39217E+00
   1.77438E+00  1.23010E+00  7.48784E-01  3.22232E-01 -5.54015E-02 -3.88049E-01 -6.78342E-01 -9.28229E-01 -1.13938E+00 -1.31342E+00
  -1.45197E+00 -1.55658E+00 -1.62874E+00 -1.66983E+00 -1.68108E+00 -1.66355E+00 -1.61807E+00 -1.54530E+00 -1.44582E+00 -1.32027E+00
  -1.16943E+00 -9.94367E-01 -7.96511E-01 -5.77786E-01 -3.40748E-01 -8.87054E-02  1.74288E-01  4.43459E-01  7.13417E-01  9.78241E-01
   1.23164E+00  1.46715E+00  1.67847E+00  1.85972E+00  2.00577E+00  2.11243E+00  2.17667E+00  2.19675E+00  2.17239E+00  2.10473E+00
   1.99630E+00  1.85080E+00  1.67289E+00  1.46795E+00  1.24185E+00  1.00064E+00  7.50315E-01  4.96472E-01  2.44180E-01 -2.16048E-03
  -2.38867E-01 -4.63034E-01 -6.72550E-01 -8.66069E-01 -1.04291E+00 -1.20293E+00 -1.34643E+00 -1.47406E+00 -1.58674E+00 -1.68560E+00
  -1.77183E+00 -1.84664E+00 -1.91120E+00 -1.96663E+00 -2.01400E+00 -2.05432E+00 -2.08845E+00 -2.11718E+00 -2.14115E+00 -2.16097E+00
  -2.17716E+00 -2.19021E+00 -2.20049E+00 -2.20833E+00 -2.21397E+00 -2.21770E+00 -2.21972E+00 -2.22026E+00 -2.21946E+00 -2.21742E+00
  -2.21426E+00 -2.21012E+00 -2.20509E+00 -2.19926E+00 -2.19270E+00 -2.18543E+00 -2.17753E+00 -2.16906E+00 -2.16008E+00 -2.15064E+00
  -2.14074E+00 -2.13040E+00 -2.11968E+00 -2.10861E+00 -2.09723E+00 -2.08555E+00 -2.07355E+00 -2.06128E+00 -2.04875E+00 -2.03600E+00
  -2.02305E+00 -2.00989E+00 -1.99650E+00 -1.98292E+00 -1.96917E+00 -1.95529E+00 -1.94125E+00 -1.92705E+00 -1.91269E+00 -1.89820E+00
  -1.88361E+00 -1.86891E+00 -1.85410E+00 -1.83915E+00 -1.82410E+00 -1.80895E+00 -1.79373E+00 -1.77844E+00 -1.76304E+00 -1.74755E+00
  -1.73197E+00 -1.71634E+00 -1.70066E+00 -1.68490E+00 -1.66907E+00 -1.65315E+00 -1.63718E+00 -1.62117E+00
 NY background values follow
    -1.088E+01   -1.086E+01   -1.084E+01   -1.083E+01   -1.081E+01   -1.079E+01   -1.077E+01   -1.075E+01   -1.073E+01   -1.072E+01
    -1.070E+01   -1.068E+01   -1.066E+01   -1.064E+01   -1.062E+01   -1.061E+01   -1.059E+01   -1.057E+01   -1.055E+01   -1.053E+01
    -1.051E+01   -1.050E+01   -1.048E+01   -1.046E+01   -1.044E+01   -1.042E+01   -1.040E+01   -1.039E+01   -1.037E+01   -1.035E+01
    -1.033E+01   -1.031E+01   -1.029E+01   -1.028E+01   -1.026E+01   -1.024E+01   -1.022E+01   -1.020E+01   -1.018E+01   -1.017E+01
    -1.015E+01   -1.013E+01   -1.011E+01   -1.009E+01   -1.008E+01   -1.006E+01   -1.004E+01   -1.002E+01   -1.000E+01   -9.984E+00
    -9.965E+00   -9.947E+00   -9.929E+00   -9.910E+00   -9.892E+00   -9.874E+00   -9.855E+00   -9.837E+00   -9.819E+00   -9.801E+00
    -9.782E+00   -9.764E+00   -9.746E+00   -9.727E+00   -9.709E+00   -9.691E+00   -9.672E+00   -9.654E+00   -9.636E+00   -9.618E+00
    -9.599E+00   -9.581E+00   -9.563E+00   -9.544E+00   -9.526E+00   -9.508E+00   -9.489E+00   -9.471E+00   -9.453E+00   -9.435E+00
    -9.416E+00   -9.398E+00   -9.380E+00   -9.361E+00   -9.343E+00   -9.325E+00   -9.307E+00   -9.288E+00   -9.270E+00   -9.252E+00
    -9.233E+00   -9.215E+00   -9.197E+00   -9.178E+00   -9.160E+00   -9.142E+00   -9.124E+00   -9.105E+00   -9.087E+00   -9.069E+00
    -9.050E+00   -9.032E+00   -9.014E+00   -8.995E+00   -8.977E+00   -8.959E+00   -8.941E+00   -8.922E+00   -8.904E+00   -8.886E+00
    -8.867E+00   -8.849E+00   -8.831E+00   -8.812E+00   -8.794E+00   -8.776E+00   -8.758E+00   -8.739E+00   -8.721E+00   -8.703E+00
    -8.684E+00   -8.666E+00   -8.648E+00   -8.629E+00   -8.611E+00   -8.593E+00   -8.575E+00   -8.556E+00   -8.538E+00   -8.520E+00
    -8.501E+00   -8.483E+00   -8.465E+00   -8.446E+00   -8.428E+00   -8.410E+00   -8.392E+00   -8.373E+00   -8.355E+00   -8.337E+00
    -8.318E+00   -8.300E+00   -8.282E+00   -8.264E+00   -8.245E+00   -8.227E+00   -8.209E+00   -8.190E+00   -8.172E+00   -8.154E+00
    -8.135E+00   -8.117E+00   -8.099E+00   -8.081E+00   -8.062E+00   -8.044E+00   -8.026E+00   -8.007E+00   -7.989E+00   -7.971E+00
    -7.952E+00   -7.934E+00   -7.916E+00   -7.898E+00   -7.879E+00   -7.861E+00   -7.843E+00   -7.824E+00   -7.806E+00   -7.788E+00
    -7.770E+00   -7.751E+00   -7.733E+00   -7.715E+00   -7.696E+00   -7.678E+00   -7.660E+00   -7.641E+00   -7.623E+00   -7.605E+00
    -7.587E+00   -7.568E+00   -7.550E+00   -7.532E+00   -7.513E+00   -7.495E+00   -7.477E+00   -7.458E+00   -7.440E+00   -7.422E+00
    -7.404E+00   -7.385E+00   -7.367E+00   -7.349E+00   -7.330E+00   -7.312E+00   -7.294E+00   -7.276E+00   -7.257E+00   -7.239E+00
    -7.221E+00   -7.202E+00   -7.184E+00   -7.166E+00   -7.147E+00   -7.129E+00   -7.111E+00   -7.093E+00   -7.074E+00   -7.056E+00
    -7.038E+00   -7.019E+00   -7.001E+00   -6.983E+00   -6.964E+00   -6.946E+00   -6.928E+00   -6.910E+00   -6.891E+00   -6.873E+00
    -6.855E+00   -6.836E+00   -6.818E+00   -6.800E+00   -6.782E+00   -6.763E+00   -6.745E+00   -6.727E+00   -6.708E+00   -6.690E+00
    -6.672E+00   -6.653E+00   -6.635E+00   -6.617E+00   -6.599E+00   -6.580E+00   -6.562E+00   -6.544E+00   -6.525E+00   -6.507E+00
    -6.489E+00   -6.471E+00   -6.452E+00   -6.434E+00   -6.416E+00   -6.397E+00   -6.379E+00   -6.361E+00   -6.342E+00   -6.324E+00
    -6.306E+00   -6.288E+00   -6.269E+00   -6.251E+00   -6.233E+00   -6.214E+00   -6.196E+00   -6.178E+00   -6.160E+00   -6.141E+00
    -6.123E+00   -6.105E+00   -6.086E+00   -6.068E+00   -6.050E+00   -6.031E+00   -6.013E+00   -5.995E+00   -5.977E+00   -5.958E+00
    -5.940E+00   -5.922E+00   -5.903E+00   -5.885E+00   -5.867E+00   -5.849E+00   -5.830E+00   -5.812E+00   -5.794E+00   -5.775E+00
    -5.757E+00   -5.739E+00   -5.720E+00   -5.702E+00   -5.684E+00   -5.666E+00   -5.647E+00   -5.629E+00   -5.611E+00   -5.592E+00
    -5.574E+00   -5.556E+00   -5.538E+00   -5.519E+00   -5.501E+00   -5.483E+00   -5.464E+00   -5.446E+00   -5.428E+00   -5.409E+00
    -5.391E+00   -5.373E+00   -5.355E+00   -5.336E+00   -5.318E+00   -5.300E+00   -5.281E+00   -5.263E+00   -5.245E+00   -5.227E+00
    -5.208E+00   -5.190E+00   -5.172E+00   -5.153E+00   -5.135E+00   -5.117E+00   -5.099E+00   -5.080E+00   -5.062E+00   -5.044E+00
    -5.025E+00   -5.007E+00   -4.989E+00   -4.970E+00   -4.952E+00   -4.934E+00   -4.916E+00   -4.897E+00   -4.879E+00   -4.861E+00
    -4.842E+00   -4.824E+00   -4.806E+00   -4.788E+00   -4.769E+00   -4.751E+00   -4.733E+00   -4.714E+00   -4.696E+00   -4.678E+00
    -4.660E+00   -4.641E+00   -4.623E+00   -4.605E+00   -4.586E+00   -4.568E+00   -4.550E+00   -4.531E+00   -4.513E+00   -4.495E+00
    -4.477E+00   -4.458E+00   -4.440E+00   -4.422E+00   -4.403E+00   -4.385E+00   -4.367E+00   -4.349E+00   -4.330E+00   -4.312E+00
    -4.294E+00   -4.275E+00   -4.257E+00   -4.239E+00   -4.221E+00   -4.202E+00   -4.184E+00   -4.166E+00   -4.147E+00   -4.129E+00
    -4.111E+00   -4.092E+00   -4.074E+00   -4.056E+00   -4.038E+00   -4.019E+00   -4.001E+00   -3.983E+00   -3.964E+00   -3.946E+00
    -3.928E+00   -3.910E+00   -3.891E+00   -3.873E+00   -3.855E+00   -3.836E+00   -3.818E+00   -3.800E+00   -3.782E+00   -3.763E+00
    -3.745E+00   -3.727E+00   -3.708E+00   -3.690E+00   -3.672E+00   -3.654E+00   -3.635E+00   -3.617E+00   -3.599E+00   -3.580E+00
    -3.562E+00   -3.544E+00   -3.526E+00   -3.507E+00   -3.489E+00   -3.471E+00   -3.452E+00   -3.434E+00   -3.416E+00   -3.397E+00
    -3.379E+00   -3.361E+00   -3.343E+00   -3.324E+00   -3.306E+00   -3.288E+00   -3.269E+00   -3.251E+00   -3.233E+00   -3.215E+00
    -3.196E+00   -3.178E+00   -3.160E+00   -3.141E+00   -3.123E+00   -3.105E+00   -3.087E+00   -3.068E+00   -3.050E+00   -3.032E+00
    -3.013E+00   -2.995E+00   -2.977E+00   -2.959E+00   -2.940E+00   -2.922E+00   -2.904E+00   -2.885E+00   -2.867E+00   -2.849E+00
    -2.831E+00   -2.812E+00   -2.794E+00   -2.776E+00   -2.757E+00   -2.739E+00   -2.721E+00   -2.703E+00   -2.684E+00   -2.666E+00
    -2.648E+00   -2.629E+00   -2.611E+00   -2.593E+00   -2.575E+00   -2.556E+00   -2.538E+00   -2.520E+00   -2.501E+00   -2.483E+00
    -2.465E+00   -2.447E+00   -2.428E+00   -2.410E+00   -2.392E+00   -2.373E+00   -2.355E+00   -2.337E+00   -2.318E+00   -2.300E+00
    -2.282E+00   -2.264E+00   -2.245E+00   -2.227E+00   -2.209E+00   -2.190E+00   -2.172E+00   -2.154E+00   -2.136E+00   -2.117E+00
    -2.099E+00   -2.081E+00   -2.062E+00   -2.044E+00   -2.026E+00   -2.008E+00   -1.989E+00   -1.971E+00   -1.953E+00   -1.934E+00
    -1.916E+00   -1.898E+00   -1.880E+00   -1.861E+00   -1.843E+00   -1.825E+00   -1.806E+00   -1.788E+00
 Asp      Conc. = 5.02E+01
