 LCModel (Version 6.3-1L) Copyright: S.W. Provencher.          Ref.: Magn. Reson. Med. 30:672-679 (1993).                
 Slice#1 Row#6 Col#1  PD_24_press_1_raw_act
 36 lines in following concentration table = NCONC+1
    Conc.  %SD /Cr+PCr  Metabolite                                         
    0.000 999%   0.000 Ala                                                 
    3.873 154%   0.166 Asp                                                 
    9.643  55%   0.412 Cr                                                  
   13.739  39%   0.588 PCr                                                 
    1.095 314% 4.7E-02 GABA                                                
    3.151 115%   0.135 Glc                                                 
   15.417  67%   0.659 Gln                                                 
    6.040 186%   0.258 Glu                                                 
    6.311  26%   0.270 GPC                                                 
    0.000 999%   0.000 PCh                                                 
    0.000 999%   0.000 GSH                                                 
    0.000 999%   0.000 Ins                                                 
    0.000 999%   0.000 Lac                                                 
   20.977  25%   0.897 NAA                                                 
   16.159  31%   0.691 NAAG                                                
    0.883 122% 3.8E-02 Scyllo                                              
    4.025 142%   0.172 Tau                                                 
    0.000 999%   0.000 -CrCH2                                              
    6.311  26%   0.270 GPC+PCh                                             
   37.136  22%   1.588 NAA+NAAG                                            
   23.382  20%   1.000 Cr+PCr                                              
   21.457  63%   0.918 Glu+Gln                                             
  685.527  24%  29.318 Lip13a                                              
    0.000 999%   0.000 Lip13b                                              
  129.940  64%   5.557 Lip09                                               
   60.412 139%   2.584 MM09                                                
  113.001  58%   4.833 Lip20                                               
   79.015 156%   3.379 MM20                                                
   15.997 222%   0.684 MM12                                                
  141.180  69%   6.038 MM14                                                
  146.711  43%   6.274 MM17                                                
  685.527  24%  29.318 Lip13a+Lip13b                                       
  842.704  18%  36.040 MM14+Lip13a+Lip13b+MM12                             
  190.353  41%   8.141 MM09+Lip09                                          
  192.016  64%   8.212 MM20+Lip20                                          
   6 lines in following misc. output table
  FWHM = 0.023 ppm    S/N =   1                                            
  Data shift =-0.023 ppm                                                   
  Ph:  67 deg      36.2 deg/ppm                                            
  alphaB,S = 1.1E+00,   1.7E+00                                            
   14 spline knots.   Ns = 5(1)                                            
   2 inflections.     1 extrema                                            
  498 points on ppm-axis = NY
      4.000000     3.992357     3.984714     3.977070     3.969427     3.961784     3.954141     3.946497     3.938854     3.931211
      3.923568     3.915925     3.908281     3.900638     3.892995     3.885352     3.877708     3.870065     3.862422     3.854779
      3.847136     3.839492     3.831849     3.824206     3.816563     3.808919     3.801276     3.793633     3.785990     3.778347
      3.770703     3.763060     3.755417     3.747774     3.740130     3.732487     3.724844     3.717201     3.709558     3.701914
      3.694271     3.686628     3.678985     3.671341     3.663698     3.656055     3.648412     3.640769     3.633125     3.625482
      3.617839     3.610196     3.602552     3.594909     3.587266     3.579623     3.571980     3.564336     3.556693     3.549050
      3.541407     3.533763     3.526120     3.518477     3.510834     3.503191     3.495547     3.487904     3.480261     3.472618
      3.464974     3.457331     3.449688     3.442045     3.434402     3.426758     3.419115     3.411472     3.403829     3.396185
      3.388542     3.380899     3.373256     3.365613     3.357969     3.350326     3.342683     3.335040     3.327396     3.319753
      3.312110     3.304467     3.296824     3.289180     3.281537     3.273894     3.266251     3.258607     3.250964     3.243321
      3.235678     3.228034     3.220391     3.212748     3.205105     3.197462     3.189818     3.182175     3.174532     3.166889
      3.159245     3.151602     3.143959     3.136316     3.128673     3.121029     3.113386     3.105743     3.098100     3.090456
      3.082813     3.075170     3.067527     3.059884     3.052240     3.044597     3.036954     3.029311     3.021667     3.014024
      3.006381     2.998738     2.991095     2.983451     2.975808     2.968165     2.960522     2.952878     2.945235     2.937592
      2.929949     2.922306     2.914662     2.907019     2.899376     2.891733     2.884089     2.876446     2.868803     2.861160
      2.853517     2.845873     2.838230     2.830587     2.822944     2.815300     2.807657     2.800014     2.792371     2.784728
      2.777084     2.769441     2.761798     2.754155     2.746511     2.738868     2.731225     2.723582     2.715939     2.708295
      2.700652     2.693009     2.685366     2.677722     2.670079     2.662436     2.654793     2.647150     2.639506     2.631863
      2.624220     2.616577     2.608933     2.601290     2.593647     2.586004     2.578361     2.570717     2.563074     2.555431
      2.547788     2.540144     2.532501     2.524858     2.517215     2.509572     2.501928     2.494285     2.486642     2.478999
      2.471355     2.463712     2.456069     2.448426     2.440783     2.433139     2.425496     2.417853     2.410210     2.402566
      2.394923     2.387280     2.379637     2.371994     2.364350     2.356707     2.349064     2.341421     2.333777     2.326134
      2.318491     2.310848     2.303205     2.295561     2.287918     2.280275     2.272632     2.264988     2.257345     2.249702
      2.242059     2.234416     2.226772     2.219129     2.211486     2.203843     2.196199     2.188556     2.180913     2.173270
      2.165627     2.157983     2.150340     2.142697     2.135054     2.127410     2.119767     2.112124     2.104481     2.096838
      2.089194     2.081551     2.073908     2.066265     2.058621     2.050978     2.043335     2.035692     2.028049     2.020405
      2.012762     2.005119     1.997476     1.989833     1.982190     1.974546     1.966903     1.959260     1.951617     1.943974
      1.936331     1.928688     1.921045     1.913402     1.905759     1.898115     1.890472     1.882829     1.875186     1.867543
      1.859900     1.852257     1.844614     1.836971     1.829327     1.821684     1.814041     1.806398     1.798755     1.791112
      1.783469     1.775826     1.768183     1.760540     1.752896     1.745253     1.737610     1.729967     1.722324     1.714681
      1.707038     1.699395     1.691752     1.684108     1.676465     1.668822     1.661179     1.653536     1.645893     1.638250
      1.630607     1.622964     1.615321     1.607677     1.600034     1.592391     1.584748     1.577105     1.569462     1.561819
      1.554176     1.546533     1.538890     1.531246     1.523603     1.515960     1.508317     1.500674     1.493031     1.485388
      1.477745     1.470102     1.462458     1.454815     1.447172     1.439529     1.431886     1.424243     1.416600     1.408957
      1.401314     1.393671     1.386027     1.378384     1.370741     1.363098     1.355455     1.347812     1.340169     1.332526
      1.324883     1.317240     1.309596     1.301953     1.294310     1.286667     1.279024     1.271381     1.263738     1.256095
      1.248452     1.240808     1.233165     1.225522     1.217879     1.210236     1.202593     1.194950     1.187307     1.179664
      1.172021     1.164377     1.156734     1.149091     1.141448     1.133805     1.126162     1.118519     1.110876     1.103233
      1.095590     1.087946     1.080303     1.072660     1.065017     1.057374     1.049731     1.042088     1.034445     1.026802
      1.019158     1.011515     1.003872     0.996229     0.988586     0.980943     0.973300     0.965657     0.958014     0.950371
      0.942727     0.935084     0.927441     0.919798     0.912155     0.904512     0.896869     0.889226     0.881583     0.873940
      0.866296     0.858653     0.851010     0.843367     0.835724     0.828081     0.820438     0.812795     0.805152     0.797508
      0.789865     0.782222     0.774579     0.766936     0.759293     0.751650     0.744007     0.736364     0.728721     0.721077
      0.713434     0.705791     0.698148     0.690505     0.682862     0.675219     0.667576     0.659933     0.652290     0.644646
      0.637003     0.629360     0.621717     0.614074     0.606431     0.598788     0.591145     0.583502     0.575858     0.568215
      0.560572     0.552929     0.545286     0.537643     0.530000     0.522357     0.514714     0.507071     0.499427     0.491784
      0.484141     0.476498     0.468855     0.461212     0.453569     0.445925     0.438282     0.430639     0.422996     0.415353
      0.407710     0.400067     0.392424     0.384780     0.377137     0.369494     0.361851     0.354208     0.346565     0.338922
      0.331278     0.323635     0.315992     0.308349     0.300706     0.293063     0.285420     0.277777     0.270133     0.262490
      0.254847     0.247204     0.239561     0.231918     0.224275     0.216631     0.208988     0.201345
 NY phased data points follow
   1.56026E+01  1.39841E+01  1.52911E+01  1.54727E+01  2.00701E+01  1.59495E+01  1.45891E+01  1.89057E+01  1.33133E+01  1.40398E+01
   1.71751E+01  1.37364E+01  1.32944E+01  1.36280E+01  1.13050E+01  1.20228E+01  1.05105E+01  1.16221E+01  1.47714E+01  1.58966E+01
   1.31985E+01  1.08901E+01  1.26598E+01  1.33567E+01  1.07296E+01  1.20035E+01  1.04081E+01  1.37243E+01  1.05178E+01  8.49065E+00
   1.13318E+01  1.00133E+01  1.07709E+01  7.40334E+00  8.55873E+00  1.39324E+01  1.42268E+01  1.19360E+01  1.08406E+01  1.47309E+01
   1.30704E+01  1.08005E+01  1.12976E+01  1.13348E+01  1.09797E+01  7.25664E+00  1.25466E+01  1.07350E+01  9.68412E+00  8.66876E+00
   8.41721E+00  1.34402E+01  9.72906E+00  1.03410E+01  1.24547E+01  7.09740E+00  1.21522E+01  7.41174E+00  1.05109E+01  1.23102E+01
   4.98281E+00  8.48059E+00  5.64287E+00  6.33088E+00  7.69268E+00  7.86984E+00  5.01308E+00  5.74577E+00  7.07659E+00  6.34195E+00
   9.61630E+00  7.13049E+00  8.01024E+00  8.64529E+00  6.95890E+00  8.94527E+00  7.02824E+00  6.89878E+00  5.08203E+00  4.91721E+00
   7.49613E+00  7.23648E+00  7.94171E+00  5.60800E+00  5.48477E+00  7.56926E+00  7.69347E+00  7.65238E+00  5.02469E+00  6.14055E+00
   1.98921E+00  4.13954E+00  6.19682E+00  6.66877E+00  6.14317E+00  6.53092E+00  4.67232E+00  6.58096E+00  1.08659E+01  9.27088E+00
   8.59029E+00  9.45794E+00  7.84197E+00  6.79043E+00  7.57178E+00  1.50785E+00  4.28930E+00  3.58006E+00  6.84465E-01  6.46839E+00
   2.44862E+00  4.23631E+00  4.14432E+00  5.14797E+00  5.54497E+00  3.32335E+00  3.57853E+00  4.06520E+00  8.09940E+00  3.07735E+00
   4.25831E+00  4.41018E+00  7.14656E+00  8.34666E+00  8.98462E+00  8.91022E+00  8.37194E+00  4.61130E+00  7.28076E+00  3.51083E+00
   7.47288E-01  1.17445E+00  2.55146E+00  3.39712E+00  5.45387E+00  4.85259E+00  3.34381E+00  5.01269E+00  3.59003E+00  3.02883E+00
   5.08775E+00  6.45996E+00  4.13246E+00  4.96449E+00  3.27280E+00  1.67634E+00  3.89814E+00  2.20780E+00  3.47557E+00  4.32794E+00
   2.11844E+00  5.31483E-02  3.07736E+00  2.92992E+00  2.47538E+00  4.41910E+00 -1.36658E+00  7.21869E-01  6.27825E+00  2.90527E+00
   4.55985E+00  3.55680E+00  4.47674E+00  2.12110E+00  1.60569E+00  2.45310E+00  5.48477E-01  1.20629E+00  1.59593E+00  1.95521E+00
   2.00789E+00  3.17872E+00  6.09580E+00  3.05258E+00  3.30504E+00  2.68987E+00  4.79415E+00  6.91284E+00  1.54998E+00  5.14472E-01
   1.55088E+00  2.02658E+00  2.33139E+00  5.89690E-01  3.27561E+00  3.74777E-01  5.99900E+00  3.72554E-01  1.15948E+00  3.79679E-01
   6.74442E-01  8.11492E-01  6.27637E+00  1.56962E+00  1.34100E+00  2.33209E+00  1.28931E+00  1.91187E+00  2.42117E+00  2.62610E+00
   3.66073E+00  5.45272E+00  4.04730E+00  2.11436E+00  5.12824E+00 -1.95874E+00 -1.45908E-02  7.98296E-01  8.96182E-01  8.05945E-01
   3.73131E+00  2.55994E+00  1.48106E+00  1.29564E+00  2.71792E-01  2.44229E+00  9.30206E-01  2.38490E+00  1.51845E-01 -4.61691E+00
   2.25903E+00  1.60861E+00 -1.39208E+00  3.22083E+00  2.27032E+00 -3.16382E-01 -2.55421E-02  3.63575E+00  9.96872E-01  2.74422E+00
   1.50321E+00  1.64221E+00  1.13898E+00 -2.26236E+00  8.46722E-01 -3.01713E-01  1.73509E+00  5.90156E-01  9.98851E-02  3.46643E+00
   4.18695E-01 -1.66928E-01 -1.19051E+00  1.59642E+00  2.17447E+00  2.22749E+00 -3.60401E-01  2.26027E+00 -2.90631E+00  8.30371E-01
  -1.35807E-01  1.10529E+00  7.90836E-02  2.24121E+00  4.02697E+00  1.21930E+00  4.00363E+00  4.01729E+00  5.21461E+00  2.61799E+00
   1.50965E+00 -8.62850E-01 -1.72139E+00 -5.57190E+00 -4.61862E+00 -6.56866E+00 -1.96866E-01  3.30813E-01  1.07201E+00 -1.25700E+00
  -3.57295E+00 -1.26092E+00  6.60352E-02  8.49292E-01  5.70252E-02  1.35436E+00 -7.27105E-01 -6.06211E-01 -2.72753E-01  1.87300E+00
  -1.03551E+00 -1.41994E+00  5.10159E-01 -7.87183E-01 -6.79855E-01 -2.68866E-01  3.91839E+00  7.31881E-01  8.93541E-02 -2.15495E+00
  -5.49207E-01 -6.04509E-01 -2.86404E-01  9.35677E-01 -1.18572E+00 -4.61594E-01  1.84391E+00  6.23033E-01  2.85482E+00 -1.76309E+00
  -6.78253E-01 -1.11639E+00  2.70456E+00 -1.17964E-01  1.24436E-01 -3.61572E-01  1.45270E+00 -1.34055E+00 -4.09725E+00  3.70627E+00
   9.55588E-01  1.08861E-01  2.49349E+00 -5.38174E-01 -1.56591E-01 -1.89846E+00 -1.49949E+00 -1.51921E+00  1.50960E+00  1.54408E-01
   2.50372E+00 -2.98601E-01 -1.96554E-01  4.57207E-01 -3.38327E+00 -4.07116E+00 -8.20513E-01 -4.00774E+00  1.27275E+00 -1.39956E+00
  -2.26009E+00 -1.55981E+00 -1.15089E+00 -6.23219E-02 -1.98201E+00 -2.01087E+00 -1.06791E+00 -6.89482E-01 -1.54780E+00 -3.86633E+00
  -2.08179E+00 -6.25881E-01  8.15011E-01  9.14569E-02 -1.62901E+00  9.29651E-01  1.92000E-01  3.80722E+00 -2.09463E+00  8.18901E-01
   5.64794E-01  2.17636E+00  1.52163E+00 -6.85636E-01  2.97307E+00  1.37372E+00 -1.98654E+00  2.00875E+00  7.42482E-01  3.07629E+00
  -1.89798E-01  4.22278E+00  2.77129E+00  1.39816E+00 -2.01145E+00  2.24170E+00  2.43056E+00  1.51310E-01 -1.55552E-01  3.43983E+00
   2.76000E+00  1.62806E+00 -4.32291E-02 -1.62052E+00 -3.92864E-01  5.48270E-01 -6.23333E-01  9.32605E-01  1.78055E+00  3.48891E+00
   1.95777E+00  2.08416E+00  2.82604E+00  1.89574E+00  1.34189E+00 -2.10106E-01  3.07851E+00  9.43111E-01  4.75236E-01 -1.33593E+00
   1.87358E+00 -4.46281E-01  1.79182E+00 -2.72596E+00 -8.71859E-01 -1.72704E+00  8.85499E-02 -1.59501E+00  7.79605E-01 -7.16938E-01
  -1.64925E+00 -1.29292E+00  7.14951E-01  5.50254E-01 -7.21296E-01 -2.23687E+00  7.30640E-01  1.10999E+00 -2.04063E-01 -7.38422E-01
   9.21166E-01  3.90792E+00 -1.28894E+00 -5.75732E-01  3.38036E+00  6.84691E-01 -2.29469E-01  7.69002E-01  1.47036E+00  2.30849E+00
  -6.97686E-01 -4.86692E-01  6.97852E-01  7.51766E-01  2.32413E+00 -5.94361E-01  3.45852E+00 -6.60824E-01  7.00356E-01  5.84900E-01
   1.26576E+00  2.73003E+00  2.81818E+00  5.26480E-01  6.45238E-02  1.93645E+00 -7.26004E-01 -3.73294E-01  1.41658E+00 -3.21995E-01
  -1.38951E+00  1.96170E+00  2.37404E+00  6.73156E-01  9.18709E-01  1.74582E+00  1.84676E+00  1.44512E+00  4.96853E-01  4.93410E-01
   5.19347E+00  8.84552E-01  2.02643E+00  1.49011E+00  2.75460E+00 -2.76906E-01  7.15586E-01  1.07326E+00  1.62007E+00 -1.42566E+00
   2.22221E+00  2.66018E+00  8.23776E-01 -1.43784E+00  2.27698E-01 -1.47993E+00 -1.95758E+00  1.51287E+00 -1.23316E-01 -1.85310E+00
   5.31955E-01 -1.87087E+00 -6.43221E-01 -1.09611E+00  5.46293E-01  8.50427E-01  7.83962E-01  3.15597E-01 -7.80080E-01 -8.79569E-01
   1.84605E+00  3.31037E-01 -1.17515E+00 -1.78231E+00 -4.39655E-01 -1.09894E+00  5.04196E-01  5.70504E-01 -1.95668E-01 -3.39068E+00
   7.98565E-01 -3.44256E-01 -4.29400E-01  1.09176E+00  1.51459E+00  3.29595E-01  3.31319E+00 -2.02690E+00
 NY points of the fit to the data follow
   1.30031E+01  1.29357E+01  1.28958E+01  1.31807E+01  1.41318E+01  1.47528E+01  1.49071E+01  1.51194E+01  1.49075E+01  1.41690E+01
   1.31134E+01  1.20409E+01  1.14491E+01  1.13167E+01  1.12564E+01  1.11589E+01  1.13517E+01  1.16529E+01  1.17248E+01  1.17414E+01
   1.17984E+01  1.17683E+01  1.16272E+01  1.14038E+01  1.11748E+01  1.10063E+01  1.09743E+01  1.12091E+01  1.15119E+01  1.16715E+01
   1.16233E+01  1.13635E+01  1.09797E+01  1.05771E+01  1.03335E+01  1.03060E+01  1.04028E+01  1.05491E+01  1.06639E+01  1.06772E+01
   1.05750E+01  1.04314E+01  1.02707E+01  1.01109E+01  9.99090E+00  9.92653E+00  9.90574E+00  9.91806E+00  9.89026E+00  9.81024E+00
   9.74530E+00  9.67698E+00  9.55090E+00  9.40504E+00  9.30165E+00  9.23692E+00  9.17542E+00  9.11112E+00  9.04660E+00  8.99092E+00
   8.94209E+00  8.89675E+00  8.85740E+00  8.79139E+00  8.72411E+00  8.64681E+00  8.54268E+00  8.43934E+00  8.35211E+00  8.26967E+00
   8.24231E+00  8.29790E+00  8.33690E+00  8.29896E+00  8.18935E+00  8.01751E+00  7.82965E+00  7.67745E+00  7.57020E+00  7.51273E+00
   7.50517E+00  7.59538E+00  7.76279E+00  7.82325E+00  7.73733E+00  7.55095E+00  7.33710E+00  7.15594E+00  6.97170E+00  6.76553E+00
   6.61263E+00  6.53602E+00  6.45818E+00  6.35561E+00  6.30532E+00  6.22357E+00  6.05978E+00  6.38014E+00  8.34762E+00  1.02209E+01
   1.07778E+01  1.01780E+01  8.87072E+00  7.40846E+00  5.91586E+00  4.46985E+00  3.83647E+00  4.33011E+00  5.23401E+00  5.54649E+00
   5.56052E+00  5.54355E+00  5.50836E+00  5.46371E+00  5.39830E+00  5.31111E+00  5.20537E+00  5.08174E+00  4.92284E+00  4.70361E+00
   4.43223E+00  4.71429E+00  6.55098E+00  8.97055E+00  1.02830E+01  1.01201E+01  8.90553E+00  7.20504E+00  5.33861E+00  3.53652E+00
   2.47186E+00  2.66670E+00  3.60156E+00  4.23543E+00  4.41608E+00  4.47348E+00  4.50916E+00  4.51095E+00  4.47279E+00  4.42527E+00
   4.38831E+00  4.37489E+00  4.37402E+00  4.35458E+00  4.32212E+00  4.28144E+00  4.23019E+00  4.17251E+00  4.12087E+00  4.06807E+00
   3.98442E+00  3.90984E+00  3.86169E+00  3.84659E+00  3.89185E+00  3.93116E+00  3.86648E+00  3.73192E+00  3.59573E+00  3.48727E+00
   3.46010E+00  3.47982E+00  3.49378E+00  3.51723E+00  3.50610E+00  3.38937E+00  3.20710E+00  3.10363E+00  3.09653E+00  3.14462E+00
   3.17962E+00  3.08603E+00  2.91569E+00  2.81935E+00  2.78460E+00  2.78214E+00  2.76503E+00  2.70728E+00  2.61685E+00  2.55006E+00
   2.53381E+00  2.52699E+00  2.50773E+00  2.50238E+00  2.53943E+00  2.57304E+00  2.56052E+00  2.53381E+00  2.52126E+00  2.46103E+00
   2.35332E+00  2.15812E+00  1.96573E+00  1.83198E+00  1.71716E+00  1.66094E+00  1.73659E+00  1.91482E+00  2.09671E+00  2.23428E+00
   2.37127E+00  2.44414E+00  2.38165E+00  2.15978E+00  1.74907E+00  1.06664E+00  4.76295E-01  2.74861E-01  3.47305E-01  5.93681E-01
   9.61245E-01  1.41244E+00  1.84138E+00  2.00795E+00  1.85100E+00  1.56362E+00  1.35620E+00  1.13263E+00  8.31937E-01  6.31087E-01
   6.35761E-01  7.56481E-01  8.98871E-01  1.01248E+00  1.08829E+00  1.13097E+00  1.07016E+00  8.99165E-01  7.36609E-01  6.49957E-01
   6.14796E-01  4.90125E-01  3.67337E-01  3.17753E-01  3.60677E-01  4.93301E-01  7.13538E-01  9.00347E-01  8.39422E-01  6.23907E-01
   3.46726E-01  4.05105E-02 -1.96039E-01 -3.41063E-01 -3.91043E-01 -3.43567E-01 -2.82436E-01 -3.21012E-01 -4.35905E-01 -6.18938E-01
  -9.22109E-01 -3.02296E-01  1.45683E+00  2.64224E+00  2.60912E+00  2.51328E+00  3.99486E+00  5.21813E+00  5.00200E+00  3.70207E+00
   2.35880E+00  1.50847E+00  4.20874E-01 -1.16201E+00 -1.94465E+00 -1.46813E+00 -5.80418E-01 -2.84530E-01 -1.83120E-01 -1.06300E-01
  -4.44631E-02  1.23208E-02  3.24676E-02 -6.44608E-03 -8.58510E-02 -1.76122E-01 -2.60834E-01 -3.33619E-01 -3.89932E-01 -4.04763E-01
  -4.01577E-01 -4.05496E-01 -4.31192E-01 -4.71209E-01 -5.16449E-01 -5.68607E-01 -6.40140E-01 -7.04148E-01 -7.35045E-01 -7.41187E-01
  -7.39319E-01 -7.31887E-01 -7.23174E-01 -7.13059E-01 -7.13672E-01 -7.31841E-01 -7.48520E-01 -7.47484E-01 -7.30478E-01 -7.05796E-01
  -6.76812E-01 -6.44396E-01 -6.12373E-01 -5.88246E-01 -5.75290E-01 -5.69566E-01 -5.67705E-01 -5.71910E-01 -5.82013E-01 -5.98518E-01
  -6.21782E-01 -6.51557E-01 -6.87392E-01 -7.28553E-01 -7.74165E-01 -8.23305E-01 -8.74917E-01 -9.27947E-01 -9.81513E-01 -1.03491E+00
  -1.08730E+00 -1.13784E+00 -1.18585E+00 -1.23074E+00 -1.27201E+00 -1.30925E+00 -1.34211E+00 -1.37031E+00 -1.39366E+00 -1.41200E+00
  -1.42518E+00 -1.43306E+00 -1.43550E+00 -1.43237E+00 -1.42349E+00 -1.40863E+00 -1.38751E+00 -1.35979E+00 -1.32506E+00 -1.28292E+00
  -1.23294E+00 -1.17467E+00 -1.10772E+00 -1.03176E+00 -9.46610E-01 -8.52237E-01 -7.48826E-01 -6.36781E-01 -5.16764E-01 -3.89718E-01
  -2.56872E-01 -1.19714E-01  2.00489E-02  1.60539E-01  2.99753E-01  4.35622E-01  5.66080E-01  6.89150E-01  8.03017E-01  9.06089E-01
   9.97041E-01  1.07484E+00  1.13879E+00  1.18851E+00  1.22399E+00  1.24551E+00  1.25361E+00  1.24907E+00  1.23286E+00  1.20607E+00
   1.16990E+00  1.12560E+00  1.07438E+00  1.01745E+00  9.55922E-01  8.90863E-01  8.23234E-01  7.53896E-01  6.83598E-01  6.12998E-01
   5.42679E-01  4.73163E-01  4.04920E-01  3.38382E-01  2.73957E-01  2.12062E-01  1.53137E-01  9.76608E-02  4.61458E-02 -8.59183E-04
  -4.27638E-02 -7.89381E-02 -1.08724E-01 -1.31466E-01 -1.46543E-01 -1.53402E-01 -1.51585E-01 -1.40762E-01 -1.20768E-01 -9.16440E-02
  -5.36655E-02 -7.35353E-03  4.65313E-02  1.06999E-01  1.72848E-01  2.42693E-01  3.15014E-01  3.88218E-01  4.60704E-01  5.30927E-01
   5.97449E-01  6.58985E-01  7.14450E-01  7.63003E-01  8.04067E-01  8.37325E-01  8.62703E-01  8.80354E-01  8.90631E-01  8.94062E-01
   8.91306E-01  8.83107E-01  8.70249E-01  8.53526E-01  8.33717E-01  8.11564E-01  7.87752E-01  7.62890E-01  7.37501E-01  7.12029E-01
   6.86840E-01  6.62236E-01  6.38449E-01  6.15645E-01  5.93938E-01  5.73399E-01  5.54074E-01  5.35984E-01  5.19126E-01  5.03476E-01
   4.88997E-01  4.75649E-01  4.63394E-01  4.52192E-01  4.41998E-01  4.32758E-01  4.24425E-01  4.16959E-01  4.10325E-01  4.04487E-01
   3.99406E-01  3.95046E-01  3.91373E-01  3.88362E-01  3.85992E-01  3.84236E-01  3.83066E-01  3.82457E-01  3.82388E-01  3.82847E-01
   3.83819E-01  3.85288E-01  3.87231E-01  3.89634E-01  3.92483E-01  3.95772E-01  3.99491E-01  4.03622E-01  4.08152E-01  4.13070E-01
   4.18372E-01  4.24053E-01  4.30104E-01  4.36512E-01  4.43266E-01  4.50359E-01  4.57792E-01  4.65559E-01  4.73651E-01  4.82056E-01
   4.90767E-01  4.99783E-01  5.09103E-01  5.18722E-01  5.28629E-01  5.38815E-01  5.49275E-01  5.60011E-01  5.71020E-01  5.82294E-01
   5.93822E-01  6.05597E-01  6.17615E-01  6.29876E-01  6.42375E-01  6.55100E-01  6.68038E-01  6.81179E-01
 NY background values follow
     1.336E+01    1.329E+01    1.322E+01    1.314E+01    1.307E+01    1.300E+01    1.293E+01    1.286E+01    1.279E+01    1.272E+01
     1.265E+01    1.258E+01    1.250E+01    1.243E+01    1.236E+01    1.229E+01    1.222E+01    1.215E+01    1.208E+01    1.201E+01
     1.194E+01    1.187E+01    1.180E+01    1.173E+01    1.166E+01    1.159E+01    1.152E+01    1.146E+01    1.139E+01    1.132E+01
     1.125E+01    1.118E+01    1.111E+01    1.104E+01    1.097E+01    1.091E+01    1.084E+01    1.077E+01    1.070E+01    1.063E+01
     1.057E+01    1.050E+01    1.043E+01    1.036E+01    1.030E+01    1.023E+01    1.016E+01    1.010E+01    1.003E+01    9.965E+00
     9.899E+00    9.832E+00    9.767E+00    9.701E+00    9.635E+00    9.570E+00    9.505E+00    9.440E+00    9.375E+00    9.310E+00
     9.246E+00    9.181E+00    9.117E+00    9.053E+00    8.989E+00    8.925E+00    8.862E+00    8.799E+00    8.735E+00    8.672E+00
     8.610E+00    8.547E+00    8.485E+00    8.422E+00    8.360E+00    8.299E+00    8.237E+00    8.176E+00    8.114E+00    8.053E+00
     7.993E+00    7.932E+00    7.872E+00    7.811E+00    7.751E+00    7.692E+00    7.632E+00    7.573E+00    7.513E+00    7.455E+00
     7.396E+00    7.337E+00    7.279E+00    7.221E+00    7.163E+00    7.106E+00    7.048E+00    6.991E+00    6.934E+00    6.877E+00
     6.821E+00    6.764E+00    6.708E+00    6.653E+00    6.597E+00    6.542E+00    6.486E+00    6.431E+00    6.377E+00    6.322E+00
     6.268E+00    6.214E+00    6.160E+00    6.107E+00    6.053E+00    6.000E+00    5.947E+00    5.894E+00    5.842E+00    5.790E+00
     5.738E+00    5.686E+00    5.635E+00    5.583E+00    5.532E+00    5.481E+00    5.431E+00    5.380E+00    5.330E+00    5.280E+00
     5.231E+00    5.181E+00    5.132E+00    5.083E+00    5.034E+00    4.986E+00    4.937E+00    4.889E+00    4.842E+00    4.794E+00
     4.747E+00    4.699E+00    4.653E+00    4.606E+00    4.559E+00    4.513E+00    4.467E+00    4.421E+00    4.376E+00    4.331E+00
     4.286E+00    4.241E+00    4.196E+00    4.152E+00    4.108E+00    4.064E+00    4.020E+00    3.977E+00    3.933E+00    3.890E+00
     3.847E+00    3.805E+00    3.762E+00    3.720E+00    3.678E+00    3.637E+00    3.595E+00    3.554E+00    3.513E+00    3.472E+00
     3.432E+00    3.391E+00    3.351E+00    3.311E+00    3.271E+00    3.232E+00    3.193E+00    3.153E+00    3.115E+00    3.076E+00
     3.038E+00    2.999E+00    2.961E+00    2.924E+00    2.886E+00    2.849E+00    2.811E+00    2.775E+00    2.738E+00    2.701E+00
     2.665E+00    2.629E+00    2.593E+00    2.557E+00    2.522E+00    2.487E+00    2.452E+00    2.417E+00    2.382E+00    2.348E+00
     2.313E+00    2.279E+00    2.246E+00    2.212E+00    2.179E+00    2.145E+00    2.112E+00    2.080E+00    2.047E+00    2.015E+00
     1.982E+00    1.950E+00    1.919E+00    1.887E+00    1.855E+00    1.824E+00    1.793E+00    1.762E+00    1.732E+00    1.701E+00
     1.671E+00    1.641E+00    1.611E+00    1.582E+00    1.552E+00    1.523E+00    1.494E+00    1.465E+00    1.436E+00    1.408E+00
     1.379E+00    1.351E+00    1.323E+00    1.296E+00    1.268E+00    1.241E+00    1.214E+00    1.187E+00    1.160E+00    1.133E+00
     1.107E+00    1.081E+00    1.055E+00    1.029E+00    1.003E+00    9.776E-01    9.523E-01    9.272E-01    9.023E-01    8.775E-01
     8.530E-01    8.286E-01    8.045E-01    7.805E-01    7.567E-01    7.331E-01    7.096E-01    6.864E-01    6.633E-01    6.404E-01
     6.177E-01    5.952E-01    5.729E-01    5.507E-01    5.287E-01    5.069E-01    4.853E-01    4.639E-01    4.427E-01    4.216E-01
     4.007E-01    3.800E-01    3.595E-01    3.391E-01    3.190E-01    2.990E-01    2.792E-01    2.595E-01    2.401E-01    2.208E-01
     2.017E-01    1.828E-01    1.641E-01    1.455E-01    1.271E-01    1.089E-01    9.090E-02    7.305E-02    5.538E-02    3.788E-02
     2.055E-02    3.405E-03   -1.357E-02   -3.037E-02   -4.699E-02   -6.344E-02   -7.971E-02   -9.581E-02   -1.117E-01   -1.275E-01
    -1.431E-01   -1.585E-01   -1.737E-01   -1.887E-01   -2.036E-01   -2.183E-01   -2.329E-01   -2.472E-01   -2.614E-01   -2.755E-01
    -2.893E-01   -3.030E-01   -3.165E-01   -3.298E-01   -3.430E-01   -3.560E-01   -3.688E-01   -3.814E-01   -3.939E-01   -4.062E-01
    -4.183E-01   -4.303E-01   -4.421E-01   -4.537E-01   -4.652E-01   -4.764E-01   -4.875E-01   -4.985E-01   -5.092E-01   -5.198E-01
    -5.302E-01   -5.405E-01   -5.506E-01   -5.605E-01   -5.702E-01   -5.797E-01   -5.891E-01   -5.983E-01   -6.074E-01   -6.163E-01
    -6.250E-01   -6.335E-01   -6.418E-01   -6.500E-01   -6.580E-01   -6.659E-01   -6.735E-01   -6.810E-01   -6.884E-01   -6.955E-01
    -7.025E-01   -7.093E-01   -7.159E-01   -7.224E-01   -7.287E-01   -7.348E-01   -7.407E-01   -7.465E-01   -7.521E-01   -7.575E-01
    -7.628E-01   -7.679E-01   -7.728E-01   -7.775E-01   -7.821E-01   -7.865E-01   -7.907E-01   -7.947E-01   -7.986E-01   -8.023E-01
    -8.058E-01   -8.092E-01   -8.123E-01   -8.153E-01   -8.182E-01   -8.208E-01   -8.233E-01   -8.256E-01   -8.277E-01   -8.297E-01
    -8.315E-01   -8.331E-01   -8.345E-01   -8.358E-01   -8.369E-01   -8.378E-01   -8.385E-01   -8.391E-01   -8.395E-01   -8.397E-01
    -8.397E-01   -8.396E-01   -8.393E-01   -8.388E-01   -8.382E-01   -8.373E-01   -8.363E-01   -8.351E-01   -8.338E-01   -8.322E-01
    -8.305E-01   -8.286E-01   -8.266E-01   -8.243E-01   -8.219E-01   -8.193E-01   -8.166E-01   -8.136E-01   -8.105E-01   -8.072E-01
    -8.038E-01   -8.001E-01   -7.963E-01   -7.923E-01   -7.882E-01   -7.838E-01   -7.793E-01   -7.746E-01   -7.697E-01   -7.647E-01
    -7.595E-01   -7.541E-01   -7.485E-01   -7.428E-01   -7.368E-01   -7.307E-01   -7.245E-01   -7.180E-01   -7.114E-01   -7.046E-01
    -6.976E-01   -6.904E-01   -6.831E-01   -6.756E-01   -6.679E-01   -6.600E-01   -6.520E-01   -6.438E-01   -6.354E-01   -6.268E-01
    -6.181E-01   -6.092E-01   -6.001E-01   -5.908E-01   -5.814E-01   -5.718E-01   -5.620E-01   -5.520E-01   -5.419E-01   -5.315E-01
    -5.210E-01   -5.104E-01   -4.995E-01   -4.885E-01   -4.773E-01   -4.659E-01   -4.543E-01   -4.426E-01   -4.307E-01   -4.186E-01
    -4.064E-01   -3.939E-01   -3.813E-01   -3.685E-01   -3.556E-01   -3.425E-01   -3.291E-01   -3.157E-01   -3.020E-01   -2.882E-01
    -2.742E-01   -2.600E-01   -2.456E-01   -2.311E-01   -2.164E-01   -2.015E-01   -1.864E-01   -1.712E-01   -1.558E-01   -1.402E-01
    -1.244E-01   -1.085E-01   -9.240E-02   -7.612E-02   -5.966E-02   -4.303E-02   -2.623E-02   -9.247E-03    7.906E-03    2.523E-02
     4.273E-02    6.041E-02    7.825E-02    9.628E-02    1.145E-01    1.328E-01    1.514E-01    1.701E-01
 Asp      Conc. = 3.87E+00
