 LCModel (Version 6.3-1L) Copyright: S.W. Provencher.          Ref.: Magn. Reson. Med. 30:672-679 (1993).                
 Slice#3 Row#7 Col#6  PD_24_press_1_raw_act
 36 lines in following concentration table = NCONC+1
    Conc.  %SD /Cr+PCr  Metabolite                                         
  174.064  76% 8.4E-02 Ala                                                 
    0.000 999%   0.000 Asp                                                 
  934.932  29%   0.452 Cr                                                  
 1.13E+03  24%   0.548 PCr                                                 
    0.000 999%   0.000 GABA                                                
    0.000 999%   0.000 Glc                                                 
  746.253  38%   0.361 Gln                                                 
 1.65E+03  19%   0.796 Glu                                                 
  844.907   3%   0.408 GPC                                                 
    0.000 999%   0.000 PCh                                                 
  553.101  16%   0.267 GSH                                                 
  970.241  31%   0.469 Ins                                                 
    0.000 999%   0.000 Lac                                                 
 2.69E+03   3%   1.299 NAA                                                 
    0.000 999%   0.000 NAAG                                                
   72.662  45% 3.5E-02 Scyllo                                              
    0.000 999%   0.000 Tau                                                 
    0.000 999%   0.000 -CrCH2                                              
  844.907   3%   0.408 GPC+PCh                                             
 2.69E+03   3%   1.299 NAA+NAAG                                            
 2.07E+03   3%   1.000 Cr+PCr                                              
 2.39E+03  19%   1.157 Glu+Gln                                             
   94.189 520% 4.6E-02 Lip13a                                              
    0.000 999%   0.000 Lip13b                                              
   27.506 562% 1.3E-02 Lip09                                               
 2.08E+03  14%   1.003 MM09                                                
   18.048 509% 8.7E-03 Lip20                                               
 3.37E+03  13%   1.628 MM20                                                
  669.501  43%   0.323 MM12                                                
  919.516  39%   0.444 MM14                                                
    0.000 999%   0.000 MM17                                                
   94.189 520% 4.6E-02 Lip13a+Lip13b                                       
 1.68E+03  24%   0.813 MM14+Lip13a+Lip13b+MM12                             
 2.10E+03  12%   1.016 MM09+Lip09                                          
 3.39E+03  13%   1.637 MM20+Lip20                                          
   6 lines in following misc. output table
  FWHM = 0.054 ppm    S/N =  11                                            
  Data shift = 0.015 ppm                                                   
  Ph: -21 deg      -3.9 deg/ppm                                            
  alphaB,S = 9.5E-01,   1.0E+02                                            
   14 spline knots.   Ns = 7(1)                                            
  (14) 4 infls.   (13) 1 extrs.                                            
  498 points on ppm-axis = NY
      4.000000     3.992357     3.984714     3.977070     3.969427     3.961784     3.954141     3.946497     3.938854     3.931211
      3.923568     3.915925     3.908281     3.900638     3.892995     3.885352     3.877708     3.870065     3.862422     3.854779
      3.847136     3.839492     3.831849     3.824206     3.816563     3.808919     3.801276     3.793633     3.785990     3.778347
      3.770703     3.763060     3.755417     3.747774     3.740130     3.732487     3.724844     3.717201     3.709558     3.701914
      3.694271     3.686628     3.678985     3.671341     3.663698     3.656055     3.648412     3.640769     3.633125     3.625482
      3.617839     3.610196     3.602552     3.594909     3.587266     3.579623     3.571980     3.564336     3.556693     3.549050
      3.541407     3.533763     3.526120     3.518477     3.510834     3.503191     3.495547     3.487904     3.480261     3.472618
      3.464974     3.457331     3.449688     3.442045     3.434402     3.426758     3.419115     3.411472     3.403829     3.396185
      3.388542     3.380899     3.373256     3.365613     3.357969     3.350326     3.342683     3.335040     3.327396     3.319753
      3.312110     3.304467     3.296824     3.289180     3.281537     3.273894     3.266251     3.258607     3.250964     3.243321
      3.235678     3.228034     3.220391     3.212748     3.205105     3.197462     3.189818     3.182175     3.174532     3.166889
      3.159245     3.151602     3.143959     3.136316     3.128673     3.121029     3.113386     3.105743     3.098100     3.090456
      3.082813     3.075170     3.067527     3.059884     3.052240     3.044597     3.036954     3.029311     3.021667     3.014024
      3.006381     2.998738     2.991095     2.983451     2.975808     2.968165     2.960522     2.952878     2.945235     2.937592
      2.929949     2.922306     2.914662     2.907019     2.899376     2.891733     2.884089     2.876446     2.868803     2.861160
      2.853517     2.845873     2.838230     2.830587     2.822944     2.815300     2.807657     2.800014     2.792371     2.784728
      2.777084     2.769441     2.761798     2.754155     2.746511     2.738868     2.731225     2.723582     2.715939     2.708295
      2.700652     2.693009     2.685366     2.677722     2.670079     2.662436     2.654793     2.647150     2.639506     2.631863
      2.624220     2.616577     2.608933     2.601290     2.593647     2.586004     2.578361     2.570717     2.563074     2.555431
      2.547788     2.540144     2.532501     2.524858     2.517215     2.509572     2.501928     2.494285     2.486642     2.478999
      2.471355     2.463712     2.456069     2.448426     2.440783     2.433139     2.425496     2.417853     2.410210     2.402566
      2.394923     2.387280     2.379637     2.371994     2.364350     2.356707     2.349064     2.341421     2.333777     2.326134
      2.318491     2.310848     2.303205     2.295561     2.287918     2.280275     2.272632     2.264988     2.257345     2.249702
      2.242059     2.234416     2.226772     2.219129     2.211486     2.203843     2.196199     2.188556     2.180913     2.173270
      2.165627     2.157983     2.150340     2.142697     2.135054     2.127410     2.119767     2.112124     2.104481     2.096838
      2.089194     2.081551     2.073908     2.066265     2.058621     2.050978     2.043335     2.035692     2.028049     2.020405
      2.012762     2.005119     1.997476     1.989833     1.982190     1.974546     1.966903     1.959260     1.951617     1.943974
      1.936331     1.928688     1.921045     1.913402     1.905759     1.898115     1.890472     1.882829     1.875186     1.867543
      1.859900     1.852257     1.844614     1.836971     1.829327     1.821684     1.814041     1.806398     1.798755     1.791112
      1.783469     1.775826     1.768183     1.760540     1.752896     1.745253     1.737610     1.729967     1.722324     1.714681
      1.707038     1.699395     1.691752     1.684108     1.676465     1.668822     1.661179     1.653536     1.645893     1.638250
      1.630607     1.622964     1.615321     1.607677     1.600034     1.592391     1.584748     1.577105     1.569462     1.561819
      1.554176     1.546533     1.538890     1.531246     1.523603     1.515960     1.508317     1.500674     1.493031     1.485388
      1.477745     1.470102     1.462458     1.454815     1.447172     1.439529     1.431886     1.424243     1.416600     1.408957
      1.401314     1.393671     1.386027     1.378384     1.370741     1.363098     1.355455     1.347812     1.340169     1.332526
      1.324883     1.317240     1.309596     1.301953     1.294310     1.286667     1.279024     1.271381     1.263738     1.256095
      1.248452     1.240808     1.233165     1.225522     1.217879     1.210236     1.202593     1.194950     1.187307     1.179664
      1.172021     1.164377     1.156734     1.149091     1.141448     1.133805     1.126162     1.118519     1.110876     1.103233
      1.095590     1.087946     1.080303     1.072660     1.065017     1.057374     1.049731     1.042088     1.034445     1.026802
      1.019158     1.011515     1.003872     0.996229     0.988586     0.980943     0.973300     0.965657     0.958014     0.950371
      0.942727     0.935084     0.927441     0.919798     0.912155     0.904512     0.896869     0.889226     0.881583     0.873940
      0.866296     0.858653     0.851010     0.843367     0.835724     0.828081     0.820438     0.812795     0.805152     0.797508
      0.789865     0.782222     0.774579     0.766936     0.759293     0.751650     0.744007     0.736364     0.728721     0.721077
      0.713434     0.705791     0.698148     0.690505     0.682862     0.675219     0.667576     0.659933     0.652290     0.644646
      0.637003     0.629360     0.621717     0.614074     0.606431     0.598788     0.591145     0.583502     0.575858     0.568215
      0.560572     0.552929     0.545286     0.537643     0.530000     0.522357     0.514714     0.507071     0.499427     0.491784
      0.484141     0.476498     0.468855     0.461212     0.453569     0.445925     0.438282     0.430639     0.422996     0.415353
      0.407710     0.400067     0.392424     0.384780     0.377137     0.369494     0.361851     0.354208     0.346565     0.338922
      0.331278     0.323635     0.315992     0.308349     0.300706     0.293063     0.285420     0.277777     0.270133     0.262490
      0.254847     0.247204     0.239561     0.231918     0.224275     0.216631     0.208988     0.201345
 NY phased data points follow
   3.12401E+01  2.96755E+01  2.96496E+01  3.43170E+01  3.86118E+01  4.58079E+01  4.70817E+01  5.45013E+01  6.66859E+01  7.70059E+01
   7.80285E+01  8.83230E+01  7.38476E+01  7.53368E+01  6.23784E+01  5.75923E+01  5.11532E+01  4.46778E+01  3.74214E+01  3.72531E+01
   3.13295E+01  3.17183E+01  3.15899E+01  3.21746E+01  3.35561E+01  3.17278E+01  3.02419E+01  3.70134E+01  4.45069E+01  3.76141E+01
   3.37338E+01  3.78015E+01  3.48922E+01  3.88757E+01  3.61683E+01  3.69021E+01  3.51429E+01  3.14847E+01  2.82970E+01  3.27671E+01
   3.19371E+01  3.42915E+01  3.07736E+01  3.51352E+01  3.28200E+01  3.63442E+01  3.51519E+01  3.74511E+01  3.55238E+01  3.83463E+01
   3.08433E+01  3.13860E+01  2.37574E+01  3.21068E+01  2.54092E+01  2.18552E+01  2.46232E+01  2.33642E+01  2.34514E+01  2.67375E+01
   1.64392E+01  2.14309E+01  1.40345E+01  1.35498E+01  1.30508E+01  1.47590E+01  1.80551E+01  9.65930E+00  1.12966E+01  1.48499E+01
   9.97006E+00  1.57012E+01  1.21613E+01  1.61424E+01  1.62001E+01  1.94219E+01  1.12849E+01  1.74964E+01  1.09429E+01  1.55596E+01
   1.07725E+01  1.46957E+01  1.44554E+01  1.75407E+01  1.16611E+01  2.11102E+01  1.41437E+01  1.83009E+01  1.20599E+01  1.75989E+01
   1.18542E+01  1.86383E+01  1.62695E+01  1.84709E+01  1.43985E+01  1.17644E+01  1.42465E+01  1.87990E+01  2.93225E+01  4.53077E+01
   5.38122E+01  6.70386E+01  7.78166E+01  8.36382E+01  8.56256E+01  7.66026E+01  7.10282E+01  5.46463E+01  4.08902E+01  3.83604E+01
   2.91652E+01  2.42761E+01  1.72139E+01  1.81058E+01  1.18804E+01  1.04812E+01  1.17431E+01  1.30137E+01  1.19883E+01  1.21982E+01
   1.05836E+01  1.81092E+01  2.76165E+01  3.02636E+01  3.98197E+01  5.61611E+01  5.93433E+01  7.01463E+01  7.78393E+01  6.75578E+01
   6.02632E+01  5.05774E+01  3.12626E+01  3.29406E+01  2.65976E+01  2.33268E+01  2.14611E+01  1.63347E+01  1.41470E+01  1.40065E+01
   5.19332E+00  1.51611E+01  9.39187E+00  9.84445E+00  6.21369E+00  7.31549E+00  9.07788E+00  1.10571E+01  1.71642E+00  1.09851E+01
   4.54609E+00  4.83286E+00  4.16321E+00  9.07657E+00  5.73686E+00  4.28679E+00  8.34179E+00  5.93324E+00  8.78797E+00  1.18543E+01
   7.16002E-01  3.79463E+00  2.20423E+00  3.12206E+00  5.55209E+00  6.94271E+00  5.28675E+00  6.72471E+00  2.23563E+00  5.88721E+00
   1.58499E+00 -4.75570E-01 -1.70828E+00 -6.43572E-01 -5.35730E+00 -4.34484E+00 -1.02593E+01 -4.05446E+00 -6.46250E+00 -3.43669E-01
  -7.49929E+00 -2.86590E+00 -1.16363E+01 -2.90312E+00 -1.01690E+01 -4.73537E+00 -5.06696E+00 -1.31619E+00  4.63148E-01  6.20074E+00
   1.03842E+01  9.34181E+00  1.02358E+01  1.68239E+01  1.10158E+01  1.65561E+01  1.11919E+01  1.20578E+01  8.28960E+00  5.84591E+00
   3.48813E+00  4.74611E+00  9.20288E+00  9.17933E+00  9.02186E+00  1.26716E+01  5.11154E+00  8.80367E+00  5.21250E-01  3.66085E+00
   3.50653E+00  6.10390E+00  1.05498E+01  1.24859E+01  1.62731E+01  1.84724E+01  1.75368E+01  2.05830E+01  1.42363E+01  1.76501E+01
   5.95252E+00  4.35101E+00  1.44682E+00  7.16970E+00  1.13412E+01  1.01505E+01  1.06120E+01  1.31364E+01  1.02166E+01  1.40848E+01
   1.30469E+01  1.76457E+01  1.07564E+01  1.60991E+01  9.98771E+00  1.49221E+01  8.93489E+00  1.54466E+01  7.70363E+00  8.28749E+00
   9.54884E+00  7.99685E+00  1.03017E+01  1.16024E+01  1.09204E+01  1.14604E+01  6.54072E+00  6.92363E+00  1.32919E+01  1.36372E+01
   1.40350E+01  1.70279E+01  2.14207E+01  2.24260E+01  2.46649E+01  3.75168E+01  4.25128E+01  6.05775E+01  7.49111E+01  9.03349E+01
   1.02049E+02  9.84058E+01  8.33923E+01  7.34751E+01  5.40782E+01  4.45671E+01  3.30436E+01  2.77353E+01  1.91148E+01  2.09935E+01
   1.92434E+01  2.11644E+01  1.14354E+01  1.52924E+01  8.68052E+00  8.63188E+00  1.23732E+01  4.35445E+00  5.27315E+00  1.07537E+01
   9.36263E+00  8.27201E+00  9.91265E+00  4.17289E+00  4.62057E+00  7.84794E+00  2.52491E+00  4.43703E+00  6.71107E+00 -2.75710E+00
   7.29716E-01  5.40424E+00  2.15040E+00  2.91723E+00 -1.53318E-01  3.79513E+00 -5.35889E+00  3.61860E+00  8.30749E+00  5.27873E+00
   6.03165E+00 -8.81014E-01  6.82728E+00  2.84815E+00  3.94858E+00  4.52651E+00  4.36786E+00  1.49329E+00  5.50476E+00  3.85969E+00
  -8.93555E-01 -1.96328E+00 -1.83640E+00  7.53853E+00 -8.66557E-01  4.11307E+00 -4.69999E-01  3.87328E+00  5.40905E+00  5.64399E+00
   5.51095E-02  1.09911E+00 -3.92762E-01  7.69728E+00  8.27698E+00  8.50913E+00  1.04712E+01  7.91260E+00  6.51036E+00  5.53570E+00
   3.26455E+00  4.11649E+00  5.03850E+00  6.65713E+00  4.37650E+00  8.02063E+00  4.80387E+00  4.48096E+00  1.67381E+00  1.04363E+01
   9.45415E+00  1.11536E+01  1.00751E+01  1.01781E+01  9.62586E+00  1.42467E+01  1.76244E+01  1.31814E+01  1.35454E+01  9.12916E+00
   4.07053E+00  1.28793E+01  1.05190E+01  1.11461E+01  9.33427E+00  8.26406E+00  4.63651E+00  6.85508E+00 -1.19428E+00  3.89057E+00
   4.58533E+00  5.04610E+00  3.43780E+00  6.17460E+00  9.69507E+00  1.00589E+01  7.56538E+00  6.68393E+00  8.16903E+00  1.01213E+01
   1.07499E+01  8.86964E+00  9.90840E+00  8.67083E+00  3.62948E+00  9.90646E+00  6.57078E+00  1.14016E+01  1.00248E+01  5.51391E+00
   1.02227E+01  1.04250E+01  1.19108E+01  1.16954E+01  1.78043E+01  1.51668E+01  9.92144E+00  1.01341E+01  7.76754E+00  1.20156E+01
   1.02024E+01  1.09823E+01  1.10892E+01  1.17692E+01  1.61293E+01  1.38841E+01  1.25755E+01  1.93471E+01  1.42196E+01  1.43812E+01
   1.37875E+01  1.75722E+01  1.51113E+01  1.86403E+01  1.77679E+01  2.19275E+01  1.79014E+01  2.19250E+01  1.80796E+01  1.88209E+01
   1.72921E+01  1.39003E+01  1.60178E+01  1.52248E+01  2.26107E+01  1.64921E+01  1.39814E+01  1.21285E+01  1.41623E+01  1.25861E+01
   1.15363E+01  1.33081E+01  8.23763E+00  1.01620E+01  1.35281E+01  9.81439E+00  7.01827E+00  1.68916E+01  1.05539E+01  4.32351E+00
   8.85369E+00  1.10526E+01  6.03397E+00  7.18529E+00  5.80466E+00  5.00473E+00  3.81584E+00  3.78217E+00  9.34450E+00  8.73360E+00
   6.21375E+00  1.03439E+01  8.18710E+00  9.79366E+00  1.06794E+00  1.03001E+01  2.74760E+00  4.03737E+00  6.42803E+00  5.94531E+00
   6.12220E+00  6.58582E+00  7.24186E+00  7.57258E+00  3.23510E+00  1.04787E+01  3.08807E+00  6.89608E+00  6.09542E+00  1.41461E+01
   4.64983E+00  5.07301E+00  5.70180E+00  6.01108E+00  6.74005E+00  5.51978E+00  4.42399E+00  7.13801E+00  5.17686E+00  6.32572E+00
   9.80330E+00  7.14733E+00  4.94716E+00  9.79251E+00  4.60976E+00  8.97934E+00  2.11874E+00  4.29167E+00  6.47760E+00  8.36329E+00
   5.49918E+00  5.58962E+00  5.37623E+00  7.95241E+00  1.81558E+00  7.42662E+00  1.99134E+00  6.38929E+00  8.39408E+00  5.90735E+00
   3.07842E+00  4.17580E+00  4.30876E+00  9.37556E+00  4.23841E+00  7.35076E+00  1.84383E+00  4.74155E+00
 NY points of the fit to the data follow
   3.31212E+01  3.29149E+01  3.32793E+01  3.46497E+01  3.77178E+01  4.25443E+01  4.86966E+01  5.59022E+01  6.36896E+01  7.08986E+01
   7.58237E+01  7.69271E+01  7.38597E+01  6.77440E+01  6.04361E+01  5.37891E+01  4.87017E+01  4.45158E+01  4.02317E+01  3.64107E+01
   3.41190E+01  3.28560E+01  3.18938E+01  3.12989E+01  3.10950E+01  3.12850E+01  3.20663E+01  3.36127E+01  3.57944E+01  3.81384E+01
   3.99687E+01  4.07096E+01  4.01557E+01  3.84260E+01  3.60576E+01  3.36782E+01  3.16221E+01  2.97822E+01  2.82426E+01  2.76241E+01
   2.77813E+01  2.83628E+01  2.91739E+01  3.01376E+01  3.12348E+01  3.22552E+01  3.29576E+01  3.29780E+01  3.21820E+01  3.08960E+01
   2.92917E+01  2.75668E+01  2.61776E+01  2.52532E+01  2.44099E+01  2.36016E+01  2.31772E+01  2.31080E+01  2.30531E+01  2.28377E+01
   2.24568E+01  2.18691E+01  2.10950E+01  2.02205E+01  1.94458E+01  1.89450E+01  1.86927E+01  1.85791E+01  1.85598E+01  1.85954E+01
   1.86324E+01  1.86253E+01  1.85086E+01  1.82680E+01  1.79249E+01  1.75170E+01  1.71175E+01  1.67717E+01  1.64963E+01  1.63130E+01
   1.62703E+01  1.63480E+01  1.64809E+01  1.66511E+01  1.68046E+01  1.68221E+01  1.65788E+01  1.60312E+01  1.52919E+01  1.45757E+01
   1.40536E+01  1.38091E+01  1.37764E+01  1.37719E+01  1.37433E+01  1.41304E+01  1.63987E+01  2.18778E+01  3.00691E+01  4.04659E+01
   5.30334E+01  6.68761E+01  7.94229E+01  8.71952E+01  8.74018E+01  8.01019E+01  6.80110E+01  5.46287E+01  4.33631E+01  3.53466E+01
   2.85298E+01  2.11045E+01  1.53010E+01  1.32412E+01  1.25182E+01  1.21367E+01  1.19030E+01  1.17772E+01  1.17959E+01  1.21858E+01
   1.38715E+01  1.80321E+01  2.47013E+01  3.33396E+01  4.37252E+01  5.52662E+01  6.62172E+01  7.39203E+01  7.58972E+01  7.15234E+01
   6.24980E+01  5.15856E+01  4.15304E+01  3.36568E+01  2.69528E+01  2.00384E+01  1.41199E+01  1.12002E+01  1.05117E+01  1.06570E+01
   1.10289E+01  1.12760E+01  1.13289E+01  1.12338E+01  1.09614E+01  1.05641E+01  1.01284E+01  9.66074E+00  9.16689E+00  8.66751E+00
   8.19500E+00  7.82916E+00  7.54161E+00  7.30823E+00  7.06281E+00  6.77280E+00  6.43988E+00  6.06861E+00  5.69574E+00  5.31656E+00
   4.96959E+00  4.78124E+00  4.82614E+00  4.99851E+00  5.09513E+00  4.93729E+00  4.45809E+00  3.79395E+00  3.15798E+00  2.62396E+00
   2.07661E+00  1.50788E+00  9.09046E-01  3.28955E-01 -9.57030E-02 -3.55034E-01 -4.08893E-01 -2.55055E-01 -5.17706E-02  2.71331E-02
  -1.00368E-01 -3.40916E-01 -4.72895E-01 -3.39401E-01  5.81904E-02  6.12161E-01  1.36411E+00  2.52304E+00  4.07217E+00  5.71292E+00
   6.95846E+00  7.50468E+00  7.38050E+00  6.83685E+00  6.15886E+00  5.52758E+00  5.02616E+00  4.91313E+00  5.36737E+00  6.35385E+00
   7.70694E+00  9.16727E+00  1.03687E+01  1.08355E+01  1.04344E+01  9.26860E+00  7.46326E+00  5.18194E+00  3.02201E+00  1.65950E+00
   1.48458E+00  2.45803E+00  4.34399E+00  6.87291E+00  9.49280E+00  1.13937E+01  1.19384E+01  1.10043E+01  8.92831E+00  6.04411E+00
   3.21534E+00  1.29155E+00  5.36008E-01  9.83603E-01  2.43121E+00  4.62849E+00  7.02571E+00  8.88907E+00  9.96797E+00  1.04520E+01
   1.07629E+01  1.10165E+01  1.11328E+01  1.13128E+01  1.17989E+01  1.24572E+01  1.29986E+01  1.32226E+01  1.30923E+01  1.27013E+01
   1.20510E+01  1.12531E+01  1.07305E+01  1.07928E+01  1.13533E+01  1.20878E+01  1.29247E+01  1.37682E+01  1.43869E+01  1.47771E+01
   1.51859E+01  1.58048E+01  1.68413E+01  2.00692E+01  2.68375E+01  3.63409E+01  4.79787E+01  6.18116E+01  7.67852E+01  8.99387E+01
   9.73960E+01  9.62992E+01  8.71881E+01  7.32364E+01  5.83580E+01  4.61955E+01  3.74492E+01  2.94817E+01  2.06894E+01  1.44312E+01
   1.21523E+01  1.10589E+01  1.03451E+01  9.88389E+00  9.56866E+00  9.24569E+00  8.89944E+00  8.51915E+00  8.11070E+00  7.70532E+00
   7.32506E+00  6.95688E+00  6.60528E+00  6.29609E+00  6.03420E+00  5.80186E+00  5.58472E+00  5.38244E+00  5.20120E+00  5.03958E+00
   4.88593E+00  4.74235E+00  4.61232E+00  4.49571E+00  4.39090E+00  4.29692E+00  4.21366E+00  4.13985E+00  4.07369E+00  4.01623E+00
   3.96758E+00  3.92639E+00  3.89235E+00  3.86553E+00  3.84564E+00  3.83232E+00  3.82549E+00  3.82547E+00  3.83327E+00  3.85016E+00
   3.87706E+00  3.91454E+00  3.96378E+00  4.02663E+00  4.10486E+00  4.20092E+00  4.31781E+00  4.45976E+00  4.63370E+00  4.85386E+00
   5.15227E+00  5.53346E+00  5.93031E+00  6.29961E+00  6.61718E+00  6.82613E+00  6.83827E+00  6.58606E+00  6.10164E+00  5.57964E+00
   5.21054E+00  5.10384E+00  5.32822E+00  5.86693E+00  6.59911E+00  7.41177E+00  8.24528E+00  8.97583E+00  9.42074E+00  9.59009E+00
   9.59568E+00  9.56670E+00  9.52699E+00  9.39683E+00  9.16907E+00  8.98812E+00  8.85499E+00  8.74108E+00  8.63735E+00  8.54147E+00
   8.45331E+00  8.37355E+00  8.30308E+00  8.24271E+00  8.19298E+00  8.15389E+00  8.12487E+00  8.10482E+00  8.09231E+00  8.08572E+00
   8.08319E+00  8.08272E+00  8.08228E+00  8.07999E+00  8.07435E+00  8.06432E+00  8.04923E+00  8.02885E+00  8.00342E+00  7.97377E+00
   7.94133E+00  7.90805E+00  7.87625E+00  7.84852E+00  7.82780E+00  7.81735E+00  7.82067E+00  7.84139E+00  7.88314E+00  7.94952E+00
   8.04416E+00  8.17069E+00  8.33266E+00  8.53337E+00  8.77574E+00  9.06232E+00  9.39518E+00  9.77577E+00  1.02047E+01  1.06814E+01
   1.12041E+01  1.17695E+01  1.23730E+01  1.30082E+01  1.36669E+01  1.43393E+01  1.50139E+01  1.56781E+01  1.63182E+01  1.69203E+01
   1.74701E+01  1.79541E+01  1.83598E+01  1.86765E+01  1.88959E+01  1.90122E+01  1.90223E+01  1.89264E+01  1.87276E+01  1.84318E+01
   1.80478E+01  1.75859E+01  1.70585E+01  1.64786E+01  1.58598E+01  1.52156E+01  1.45590E+01  1.39015E+01  1.32538E+01  1.26245E+01
   1.20210E+01  1.14489E+01  1.09121E+01  1.04129E+01  9.95262E+00  9.53116E+00  9.14773E+00  8.80083E+00  8.48842E+00  8.20807E+00
   7.95723E+00  7.73331E+00  7.53380E+00  7.35625E+00  7.19831E+00  7.05779E+00  6.93272E+00  6.82138E+00  6.72224E+00  6.63389E+00
   6.55505E+00  6.48461E+00  6.42163E+00  6.36531E+00  6.31497E+00  6.26992E+00  6.22956E+00  6.19338E+00  6.16099E+00  6.13205E+00
   6.10622E+00  6.08317E+00  6.06259E+00  6.04428E+00  6.02805E+00  6.01377E+00  6.00125E+00  5.99031E+00  5.98077E+00  5.97256E+00
   5.96562E+00  5.95985E+00  5.95513E+00  5.95135E+00  5.94844E+00  5.94637E+00  5.94512E+00  5.94461E+00  5.94476E+00  5.94549E+00
   5.94679E+00  5.94867E+00  5.95110E+00  5.95402E+00  5.95737E+00  5.96111E+00  5.96526E+00  5.96983E+00  5.97478E+00  5.98007E+00
   5.98563E+00  5.99148E+00  5.99764E+00  6.00412E+00  6.01088E+00  6.01787E+00  6.02506E+00  6.03249E+00  6.04017E+00  6.04811E+00
   6.05625E+00  6.06455E+00  6.07303E+00  6.08172E+00  6.09065E+00  6.09978E+00  6.10908E+00  6.11852E+00
 NY background values follow
     2.969E+01    2.949E+01    2.928E+01    2.907E+01    2.886E+01    2.866E+01    2.845E+01    2.824E+01    2.803E+01    2.782E+01
     2.761E+01    2.741E+01    2.720E+01    2.699E+01    2.678E+01    2.657E+01    2.636E+01    2.616E+01    2.595E+01    2.574E+01
     2.553E+01    2.532E+01    2.512E+01    2.491E+01    2.470E+01    2.449E+01    2.429E+01    2.408E+01    2.387E+01    2.367E+01
     2.346E+01    2.326E+01    2.305E+01    2.285E+01    2.264E+01    2.244E+01    2.223E+01    2.203E+01    2.183E+01    2.162E+01
     2.142E+01    2.122E+01    2.102E+01    2.082E+01    2.062E+01    2.042E+01    2.022E+01    2.002E+01    1.982E+01    1.962E+01
     1.943E+01    1.923E+01    1.903E+01    1.884E+01    1.864E+01    1.845E+01    1.826E+01    1.806E+01    1.787E+01    1.768E+01
     1.749E+01    1.730E+01    1.712E+01    1.693E+01    1.674E+01    1.656E+01    1.637E+01    1.619E+01    1.601E+01    1.583E+01
     1.564E+01    1.547E+01    1.529E+01    1.511E+01    1.493E+01    1.476E+01    1.459E+01    1.441E+01    1.424E+01    1.407E+01
     1.390E+01    1.374E+01    1.357E+01    1.340E+01    1.324E+01    1.308E+01    1.292E+01    1.276E+01    1.260E+01    1.244E+01
     1.229E+01    1.213E+01    1.198E+01    1.183E+01    1.168E+01    1.153E+01    1.139E+01    1.124E+01    1.110E+01    1.096E+01
     1.082E+01    1.068E+01    1.054E+01    1.041E+01    1.027E+01    1.014E+01    1.001E+01    9.879E+00    9.750E+00    9.624E+00
     9.498E+00    9.374E+00    9.252E+00    9.131E+00    9.012E+00    8.894E+00    8.777E+00    8.662E+00    8.549E+00    8.437E+00
     8.326E+00    8.217E+00    8.109E+00    8.003E+00    7.899E+00    7.796E+00    7.694E+00    7.594E+00    7.495E+00    7.398E+00
     7.302E+00    7.208E+00    7.115E+00    7.023E+00    6.933E+00    6.845E+00    6.758E+00    6.672E+00    6.588E+00    6.506E+00
     6.425E+00    6.345E+00    6.266E+00    6.189E+00    6.114E+00    6.040E+00    5.967E+00    5.895E+00    5.825E+00    5.756E+00
     5.688E+00    5.622E+00    5.557E+00    5.493E+00    5.430E+00    5.369E+00    5.309E+00    5.250E+00    5.192E+00    5.136E+00
     5.081E+00    5.026E+00    4.973E+00    4.921E+00    4.871E+00    4.821E+00    4.772E+00    4.725E+00    4.678E+00    4.633E+00
     4.589E+00    4.545E+00    4.503E+00    4.462E+00    4.422E+00    4.382E+00    4.344E+00    4.307E+00    4.270E+00    4.235E+00
     4.200E+00    4.167E+00    4.134E+00    4.102E+00    4.071E+00    4.040E+00    4.011E+00    3.982E+00    3.954E+00    3.927E+00
     3.900E+00    3.874E+00    3.849E+00    3.824E+00    3.800E+00    3.776E+00    3.753E+00    3.730E+00    3.708E+00    3.686E+00
     3.664E+00    3.643E+00    3.622E+00    3.602E+00    3.582E+00    3.562E+00    3.542E+00    3.523E+00    3.503E+00    3.484E+00
     3.465E+00    3.446E+00    3.427E+00    3.408E+00    3.389E+00    3.370E+00    3.351E+00    3.332E+00    3.313E+00    3.294E+00
     3.274E+00    3.255E+00    3.235E+00    3.215E+00    3.195E+00    3.174E+00    3.153E+00    3.132E+00    3.110E+00    3.088E+00
     3.066E+00    3.043E+00    3.020E+00    2.997E+00    2.974E+00    2.951E+00    2.927E+00    2.903E+00    2.879E+00    2.855E+00
     2.831E+00    2.806E+00    2.782E+00    2.757E+00    2.732E+00    2.708E+00    2.683E+00    2.658E+00    2.633E+00    2.609E+00
     2.584E+00    2.559E+00    2.535E+00    2.510E+00    2.486E+00    2.462E+00    2.438E+00    2.414E+00    2.390E+00    2.366E+00
     2.343E+00    2.320E+00    2.297E+00    2.274E+00    2.252E+00    2.230E+00    2.208E+00    2.186E+00    2.165E+00    2.145E+00
     2.124E+00    2.104E+00    2.085E+00    2.065E+00    2.047E+00    2.028E+00    2.010E+00    1.993E+00    1.976E+00    1.959E+00
     1.943E+00    1.928E+00    1.912E+00    1.898E+00    1.884E+00    1.870E+00    1.857E+00    1.844E+00    1.832E+00    1.820E+00
     1.809E+00    1.798E+00    1.788E+00    1.779E+00    1.770E+00    1.761E+00    1.753E+00    1.746E+00    1.739E+00    1.733E+00
     1.728E+00    1.723E+00    1.718E+00    1.714E+00    1.711E+00    1.709E+00    1.707E+00    1.705E+00    1.705E+00    1.705E+00
     1.705E+00    1.707E+00    1.709E+00    1.711E+00    1.715E+00    1.719E+00    1.723E+00    1.729E+00    1.735E+00    1.741E+00
     1.749E+00    1.757E+00    1.765E+00    1.775E+00    1.785E+00    1.795E+00    1.806E+00    1.818E+00    1.830E+00    1.843E+00
     1.857E+00    1.870E+00    1.885E+00    1.900E+00    1.915E+00    1.931E+00    1.948E+00    1.965E+00    1.982E+00    2.000E+00
     2.018E+00    2.037E+00    2.056E+00    2.075E+00    2.095E+00    2.115E+00    2.136E+00    2.157E+00    2.178E+00    2.200E+00
     2.222E+00    2.244E+00    2.267E+00    2.289E+00    2.312E+00    2.336E+00    2.359E+00    2.383E+00    2.407E+00    2.431E+00
     2.456E+00    2.481E+00    2.505E+00    2.530E+00    2.556E+00    2.581E+00    2.606E+00    2.632E+00    2.658E+00    2.684E+00
     2.710E+00    2.736E+00    2.762E+00    2.788E+00    2.815E+00    2.841E+00    2.868E+00    2.895E+00    2.922E+00    2.949E+00
     2.976E+00    3.003E+00    3.030E+00    3.057E+00    3.084E+00    3.111E+00    3.138E+00    3.166E+00    3.193E+00    3.220E+00
     3.248E+00    3.275E+00    3.302E+00    3.329E+00    3.357E+00    3.384E+00    3.411E+00    3.438E+00    3.466E+00    3.493E+00
     3.520E+00    3.547E+00    3.574E+00    3.601E+00    3.627E+00    3.654E+00    3.681E+00    3.707E+00    3.734E+00    3.760E+00
     3.786E+00    3.812E+00    3.838E+00    3.864E+00    3.890E+00    3.916E+00    3.941E+00    3.967E+00    3.992E+00    4.017E+00
     4.042E+00    4.067E+00    4.092E+00    4.117E+00    4.142E+00    4.166E+00    4.191E+00    4.215E+00    4.239E+00    4.263E+00
     4.287E+00    4.310E+00    4.334E+00    4.357E+00    4.381E+00    4.404E+00    4.427E+00    4.450E+00    4.473E+00    4.495E+00
     4.518E+00    4.540E+00    4.562E+00    4.584E+00    4.606E+00    4.628E+00    4.649E+00    4.670E+00    4.692E+00    4.713E+00
     4.734E+00    4.754E+00    4.775E+00    4.795E+00    4.815E+00    4.835E+00    4.855E+00    4.875E+00    4.895E+00    4.914E+00
     4.933E+00    4.952E+00    4.972E+00    4.990E+00    5.009E+00    5.028E+00    5.046E+00    5.065E+00    5.083E+00    5.101E+00
     5.119E+00    5.137E+00    5.155E+00    5.173E+00    5.191E+00    5.208E+00    5.226E+00    5.243E+00    5.261E+00    5.278E+00
     5.295E+00    5.313E+00    5.330E+00    5.347E+00    5.364E+00    5.381E+00    5.398E+00    5.415E+00    5.432E+00    5.449E+00
     5.465E+00    5.482E+00    5.499E+00    5.516E+00    5.532E+00    5.549E+00    5.566E+00    5.583E+00
 Ala      Conc. = 1.74E+02
