 LCModel (Version 6.3-1L) Copyright: S.W. Provencher.          Ref.: Magn. Reson. Med. 30:672-679 (1993).                
 Slice#1 Row#6 Col#13  PD_24_press_1_raw_act
 36 lines in following concentration table = NCONC+1
    Conc.  %SD /Cr+PCr  Metabolite                                         
  244.590  29%   4.911 Ala                                                 
   19.642  78%   0.394 Asp                                                 
   49.803  51%   1.000 Cr                                                  
    0.000 999%   0.000 PCr                                                 
    9.315  99%   0.187 GABA                                                
    9.690  96%   0.195 Glc                                                 
    0.000 999%   0.000 Gln                                                 
  232.564  56%   4.670 Glu                                                 
   37.248  27%   0.748 GPC                                                 
    0.000 999%   0.000 PCh                                                 
   35.494 102%   0.713 GSH                                                 
  187.853  65%   3.772 Ins                                                 
   70.854  91%   1.423 Lac                                                 
  165.967  20%   3.332 NAA                                                 
    0.000 999%   0.000 NAAG                                                
    3.358  91% 6.7E-02 Scyllo                                              
   15.865  97%   0.319 Tau                                                 
    0.878 999% 1.8E-02 -CrCH2                                              
   37.248  27%   0.748 GPC+PCh                                             
  165.967  20%   3.332 NAA+NAAG                                            
   49.803  51%   1.000 Cr+PCr                                              
  232.564  56%   4.670 Glu+Gln                                             
 2.70E+04  15% 542.797 Lip13a                                              
    0.000 999%   0.000 Lip13b                                              
 1.15E+04  13% 231.438 Lip09                                               
 5.31E+03  21% 106.538 MM09                                                
 1.77E+03  30%  35.453 Lip20                                               
  144.794 227%   2.907 MM20                                                
 5.28E+03  26% 105.966 MM12                                                
 2.46E+03  46%  49.397 MM14                                                
  960.435  40%  19.285 MM17                                                
 2.70E+04  15% 542.797 Lip13a+Lip13b                                       
 3.48E+04   9% 698.159 MM14+Lip13a+Lip13b+MM12                             
 1.68E+04   9% 337.976 MM09+Lip09                                          
 1.91E+03  20%  38.360 MM20+Lip20                                          
   6 lines in following misc. output table
  FWHM = 0.061 ppm    S/N =  25                                            
  Data shift = 0.031 ppm                                                   
  Ph: -51 deg     -15.8 deg/ppm                                            
  alphaB,S = 2.8E+00,   2.5E+01                                            
   14 spline knots.   Ns = 6(1)                                            
  ( 8) 3 infls.   ( 8) 4 extrs.                                            
  498 points on ppm-axis = NY
      4.000000     3.992357     3.984714     3.977070     3.969427     3.961784     3.954141     3.946497     3.938854     3.931211
      3.923568     3.915925     3.908281     3.900638     3.892995     3.885352     3.877708     3.870065     3.862422     3.854779
      3.847136     3.839492     3.831849     3.824206     3.816563     3.808919     3.801276     3.793633     3.785990     3.778347
      3.770703     3.763060     3.755417     3.747774     3.740130     3.732487     3.724844     3.717201     3.709558     3.701914
      3.694271     3.686628     3.678985     3.671341     3.663698     3.656055     3.648412     3.640769     3.633125     3.625482
      3.617839     3.610196     3.602552     3.594909     3.587266     3.579623     3.571980     3.564336     3.556693     3.549050
      3.541407     3.533763     3.526120     3.518477     3.510834     3.503191     3.495547     3.487904     3.480261     3.472618
      3.464974     3.457331     3.449688     3.442045     3.434402     3.426758     3.419115     3.411472     3.403829     3.396185
      3.388542     3.380899     3.373256     3.365613     3.357969     3.350326     3.342683     3.335040     3.327396     3.319753
      3.312110     3.304467     3.296824     3.289180     3.281537     3.273894     3.266251     3.258607     3.250964     3.243321
      3.235678     3.228034     3.220391     3.212748     3.205105     3.197462     3.189818     3.182175     3.174532     3.166889
      3.159245     3.151602     3.143959     3.136316     3.128673     3.121029     3.113386     3.105743     3.098100     3.090456
      3.082813     3.075170     3.067527     3.059884     3.052240     3.044597     3.036954     3.029311     3.021667     3.014024
      3.006381     2.998738     2.991095     2.983451     2.975808     2.968165     2.960522     2.952878     2.945235     2.937592
      2.929949     2.922306     2.914662     2.907019     2.899376     2.891733     2.884089     2.876446     2.868803     2.861160
      2.853517     2.845873     2.838230     2.830587     2.822944     2.815300     2.807657     2.800014     2.792371     2.784728
      2.777084     2.769441     2.761798     2.754155     2.746511     2.738868     2.731225     2.723582     2.715939     2.708295
      2.700652     2.693009     2.685366     2.677722     2.670079     2.662436     2.654793     2.647150     2.639506     2.631863
      2.624220     2.616577     2.608933     2.601290     2.593647     2.586004     2.578361     2.570717     2.563074     2.555431
      2.547788     2.540144     2.532501     2.524858     2.517215     2.509572     2.501928     2.494285     2.486642     2.478999
      2.471355     2.463712     2.456069     2.448426     2.440783     2.433139     2.425496     2.417853     2.410210     2.402566
      2.394923     2.387280     2.379637     2.371994     2.364350     2.356707     2.349064     2.341421     2.333777     2.326134
      2.318491     2.310848     2.303205     2.295561     2.287918     2.280275     2.272632     2.264988     2.257345     2.249702
      2.242059     2.234416     2.226772     2.219129     2.211486     2.203843     2.196199     2.188556     2.180913     2.173270
      2.165627     2.157983     2.150340     2.142697     2.135054     2.127410     2.119767     2.112124     2.104481     2.096838
      2.089194     2.081551     2.073908     2.066265     2.058621     2.050978     2.043335     2.035692     2.028049     2.020405
      2.012762     2.005119     1.997476     1.989833     1.982190     1.974546     1.966903     1.959260     1.951617     1.943974
      1.936331     1.928688     1.921045     1.913402     1.905759     1.898115     1.890472     1.882829     1.875186     1.867543
      1.859900     1.852257     1.844614     1.836971     1.829327     1.821684     1.814041     1.806398     1.798755     1.791112
      1.783469     1.775826     1.768183     1.760540     1.752896     1.745253     1.737610     1.729967     1.722324     1.714681
      1.707038     1.699395     1.691752     1.684108     1.676465     1.668822     1.661179     1.653536     1.645893     1.638250
      1.630607     1.622964     1.615321     1.607677     1.600034     1.592391     1.584748     1.577105     1.569462     1.561819
      1.554176     1.546533     1.538890     1.531246     1.523603     1.515960     1.508317     1.500674     1.493031     1.485388
      1.477745     1.470102     1.462458     1.454815     1.447172     1.439529     1.431886     1.424243     1.416600     1.408957
      1.401314     1.393671     1.386027     1.378384     1.370741     1.363098     1.355455     1.347812     1.340169     1.332526
      1.324883     1.317240     1.309596     1.301953     1.294310     1.286667     1.279024     1.271381     1.263738     1.256095
      1.248452     1.240808     1.233165     1.225522     1.217879     1.210236     1.202593     1.194950     1.187307     1.179664
      1.172021     1.164377     1.156734     1.149091     1.141448     1.133805     1.126162     1.118519     1.110876     1.103233
      1.095590     1.087946     1.080303     1.072660     1.065017     1.057374     1.049731     1.042088     1.034445     1.026802
      1.019158     1.011515     1.003872     0.996229     0.988586     0.980943     0.973300     0.965657     0.958014     0.950371
      0.942727     0.935084     0.927441     0.919798     0.912155     0.904512     0.896869     0.889226     0.881583     0.873940
      0.866296     0.858653     0.851010     0.843367     0.835724     0.828081     0.820438     0.812795     0.805152     0.797508
      0.789865     0.782222     0.774579     0.766936     0.759293     0.751650     0.744007     0.736364     0.728721     0.721077
      0.713434     0.705791     0.698148     0.690505     0.682862     0.675219     0.667576     0.659933     0.652290     0.644646
      0.637003     0.629360     0.621717     0.614074     0.606431     0.598788     0.591145     0.583502     0.575858     0.568215
      0.560572     0.552929     0.545286     0.537643     0.530000     0.522357     0.514714     0.507071     0.499427     0.491784
      0.484141     0.476498     0.468855     0.461212     0.453569     0.445925     0.438282     0.430639     0.422996     0.415353
      0.407710     0.400067     0.392424     0.384780     0.377137     0.369494     0.361851     0.354208     0.346565     0.338922
      0.331278     0.323635     0.315992     0.308349     0.300706     0.293063     0.285420     0.277777     0.270133     0.262490
      0.254847     0.247204     0.239561     0.231918     0.224275     0.216631     0.208988     0.201345
 NY phased data points follow
   7.11375E+00  7.71774E+00  6.31334E+00  9.38606E+00  1.10405E+01  8.70170E+00  1.05020E+01  1.04836E+01  8.12361E+00  1.17324E+01
   1.03075E+01  1.08330E+01  1.58908E+01  1.10377E+01  9.34774E+00  1.36894E+01  1.12520E+01  1.53444E+01  1.05432E+01  1.10754E+01
   1.10136E+01  7.02404E+00  1.00451E+01  1.15618E+01  1.06977E+01  9.81894E+00  8.93759E+00  1.12935E+01  9.39059E+00  9.38559E+00
   1.03363E+01  1.10753E+01  1.04810E+01  1.01827E+01  1.03153E+01  1.09302E+01  9.66287E+00  1.29145E+01  8.91448E+00  9.50629E+00
   9.91709E+00  7.99311E+00  1.02641E+01  8.90788E+00  9.14496E+00  9.93418E+00  1.29251E+01  1.04347E+01  1.06958E+01  1.08352E+01
   1.14845E+01  1.11041E+01  1.17095E+01  1.05775E+01  1.08311E+01  1.12585E+01  1.17630E+01  1.06890E+01  1.20077E+01  1.20552E+01
   1.51337E+01  1.05464E+01  9.44126E+00  1.09117E+01  1.08945E+01  1.21216E+01  1.02169E+01  1.21595E+01  1.11830E+01  5.66490E+00
   1.22064E+01  9.71167E+00  8.79310E+00  1.10936E+01  1.05169E+01  1.02609E+01  1.10747E+01  9.46944E+00  8.43759E+00  1.13371E+01
   1.06561E+01  1.05950E+01  9.10425E+00  1.06005E+01  1.30809E+01  8.99319E+00  8.40707E+00  1.12480E+01  1.02075E+01  1.11317E+01
   1.07200E+01  1.07750E+01  7.23209E+00  9.38938E+00  8.54559E+00  7.50975E+00  5.72258E+00  7.76032E+00  9.79572E+00  9.10823E+00
   8.63120E+00  1.41015E+01  1.24282E+01  1.43294E+01  1.34587E+01  1.29010E+01  1.07475E+01  1.31590E+01  1.24737E+01  1.37596E+01
   1.00087E+01  1.28376E+01  1.17795E+01  1.08932E+01  1.08298E+01  1.12256E+01  1.16069E+01  1.14883E+01  1.01530E+01  9.47641E+00
   8.81554E+00  7.95674E+00  8.51624E+00  1.18883E+01  8.46558E+00  1.29224E+01  1.43997E+01  1.16669E+01  9.31728E+00  1.35955E+01
   1.21546E+01  9.92658E+00  1.13598E+01  1.18037E+01  1.14424E+01  1.07442E+01  1.21802E+01  1.25879E+01  1.25649E+01  1.01119E+01
   1.34803E+01  1.19553E+01  1.24995E+01  1.21086E+01  1.43728E+01  1.20636E+01  9.05334E+00  1.44455E+01  1.05615E+01  1.23152E+01
   1.48393E+01  1.20064E+01  1.35824E+01  1.12977E+01  1.17935E+01  1.33285E+01  1.31769E+01  1.28032E+01  1.13744E+01  1.23739E+01
   7.62267E+00  1.47117E+01  1.00548E+01  1.15479E+01  1.22113E+01  1.61523E+01  1.09689E+01  1.49446E+01  9.20818E+00  1.31930E+01
   1.42078E+01  1.42549E+01  1.24953E+01  1.37148E+01  1.17672E+01  1.09151E+01  1.29901E+01  1.38869E+01  1.26100E+01  1.35790E+01
   1.16369E+01  1.32020E+01  1.26525E+01  1.01024E+01  1.31637E+01  1.39050E+01  1.39584E+01  1.29392E+01  1.38001E+01  1.41010E+01
   1.16455E+01  1.45595E+01  1.06487E+01  1.28248E+01  1.22805E+01  1.25946E+01  1.22062E+01  1.49574E+01  1.13081E+01  1.50533E+01
   1.45383E+01  1.45174E+01  1.17633E+01  1.23959E+01  1.32256E+01  1.61447E+01  1.57727E+01  1.23413E+01  1.48952E+01  1.42231E+01
   1.43563E+01  1.66413E+01  1.81849E+01  1.34427E+01  1.69341E+01  1.69711E+01  1.65153E+01  2.02200E+01  1.59054E+01  1.55814E+01
   1.68519E+01  1.54350E+01  1.51922E+01  1.41910E+01  1.48787E+01  1.58527E+01  1.56900E+01  1.48949E+01  1.49525E+01  1.53696E+01
   1.49910E+01  1.60458E+01  1.42926E+01  1.28211E+01  1.35882E+01  2.05709E+01  1.68189E+01  1.74858E+01  1.57060E+01  1.46730E+01
   1.69468E+01  1.67259E+01  1.46240E+01  1.68041E+01  1.77757E+01  1.75459E+01  1.84800E+01  2.01124E+01  1.78907E+01  1.71449E+01
   1.79447E+01  2.25035E+01  2.20730E+01  2.06279E+01  1.71745E+01  1.67798E+01  1.65943E+01  1.92263E+01  2.14149E+01  2.43098E+01
   2.52377E+01  2.54996E+01  2.46512E+01  2.30650E+01  2.01589E+01  2.04709E+01  2.13063E+01  2.12109E+01  2.07714E+01  1.44631E+01
   1.96521E+01  1.72289E+01  1.72195E+01  1.71866E+01  1.67748E+01  1.46379E+01  1.68732E+01  1.75727E+01  1.70901E+01  1.91885E+01
   1.70374E+01  1.83924E+01  2.04260E+01  1.95929E+01  1.78045E+01  1.79780E+01  1.59181E+01  1.85499E+01  1.57191E+01  1.72991E+01
   1.81413E+01  1.74162E+01  2.09931E+01  1.92582E+01  1.87750E+01  2.00458E+01  2.16136E+01  2.46303E+01  2.28383E+01  2.38619E+01
   2.28592E+01  2.39333E+01  2.56361E+01  2.62137E+01  2.47255E+01  2.93766E+01  2.98959E+01  2.57311E+01  3.15531E+01  2.94231E+01
   3.15353E+01  3.13021E+01  3.13419E+01  3.46777E+01  3.13160E+01  3.22170E+01  3.61343E+01  3.79435E+01  3.72909E+01  3.76796E+01
   3.63600E+01  4.07597E+01  4.44076E+01  4.48464E+01  4.68793E+01  4.75506E+01  4.66609E+01  5.17023E+01  5.00563E+01  5.18686E+01
   5.35250E+01  5.43997E+01  5.41608E+01  5.59780E+01  5.79289E+01  5.93014E+01  6.22154E+01  6.44156E+01  6.82293E+01  7.03119E+01
   7.44103E+01  7.73731E+01  7.88068E+01  8.24317E+01  8.32991E+01  8.84881E+01  8.82592E+01  8.70243E+01  8.67911E+01  9.18587E+01
   9.19882E+01  9.41276E+01  9.59959E+01  9.74069E+01  9.71872E+01  9.76200E+01  1.00049E+02  1.00968E+02  1.02758E+02  1.02289E+02
   1.03810E+02  1.06902E+02  1.06879E+02  1.06340E+02  1.07962E+02  1.08595E+02  1.10210E+02  1.10078E+02  1.09855E+02  1.06355E+02
   1.06465E+02  1.05532E+02  1.09955E+02  1.04726E+02  1.06699E+02  1.06725E+02  1.07170E+02  1.08980E+02  1.03905E+02  1.06321E+02
   1.03838E+02  1.01331E+02  1.04501E+02  9.97721E+01  9.95031E+01  1.01269E+02  9.76199E+01  9.90297E+01  9.61913E+01  9.71528E+01
   9.41002E+01  9.50237E+01  9.02292E+01  9.07595E+01  8.68574E+01  8.59858E+01  8.98252E+01  8.49415E+01  8.52053E+01  8.26845E+01
   8.39325E+01  8.21878E+01  7.77766E+01  7.79022E+01  7.66305E+01  7.54766E+01  7.44801E+01  7.27395E+01  6.89566E+01  7.03679E+01
   6.61408E+01  6.68789E+01  6.68822E+01  6.08959E+01  6.14261E+01  6.18788E+01  5.85113E+01  5.63013E+01  5.51007E+01  5.21131E+01
   5.48565E+01  5.00541E+01  4.74262E+01  4.80282E+01  4.51886E+01  4.80370E+01  4.39656E+01  4.38974E+01  3.93249E+01  4.07432E+01
   3.68117E+01  3.60254E+01  3.46321E+01  3.49462E+01  3.48694E+01  3.36458E+01  3.11320E+01  3.12782E+01  3.35843E+01  3.28861E+01
   2.80552E+01  3.00847E+01  2.37783E+01  2.62841E+01  2.29481E+01  2.63172E+01  2.66949E+01  2.32800E+01  2.44809E+01  2.30389E+01
   2.18916E+01  1.97808E+01  2.17115E+01  1.87151E+01  1.82649E+01  1.65783E+01  1.63924E+01  1.55124E+01  1.74331E+01  1.43983E+01
   1.70712E+01  1.50573E+01  1.32463E+01  1.35649E+01  1.44272E+01  1.24596E+01  1.00894E+01  9.68180E+00  8.76775E+00  1.23007E+01
   1.01132E+01  1.05522E+01  1.02789E+01  1.07640E+01  1.01663E+01  8.83764E+00  7.57657E+00  9.66268E+00  8.01324E+00  7.30335E+00
   6.46139E+00  6.46256E+00  7.84113E+00  5.83842E+00  6.51220E+00  5.63645E+00  6.31563E+00  4.43709E+00  5.34527E+00  5.08309E+00
   6.53292E+00  5.22851E+00  3.52527E+00  4.31540E+00  5.12236E+00  5.67134E+00  5.25546E+00  3.91943E+00
 NY points of the fit to the data follow
   1.00237E+01  9.91393E+00  9.81693E+00  9.72839E+00  9.71103E+00  9.69153E+00  9.66915E+00  9.78550E+00  1.00764E+01  1.04458E+01
   1.07483E+01  1.08976E+01  1.09177E+01  1.08720E+01  1.07904E+01  1.06966E+01  1.05683E+01  1.03377E+01  1.00146E+01  9.80695E+00
   9.82044E+00  1.00100E+01  1.03090E+01  1.05441E+01  1.05629E+01  1.04270E+01  1.02546E+01  1.00963E+01  9.96145E+00  9.90505E+00
   9.98986E+00  1.01398E+01  1.02571E+01  1.04284E+01  1.07371E+01  1.09977E+01  1.10006E+01  1.08114E+01  1.06892E+01  1.06102E+01
   1.03833E+01  9.99430E+00  9.74046E+00  9.79694E+00  1.01174E+01  1.05876E+01  1.10107E+01  1.12349E+01  1.12977E+01  1.11970E+01
   1.10190E+01  1.09022E+01  1.08189E+01  1.06014E+01  1.02241E+01  9.91337E+00  9.85104E+00  9.99162E+00  1.02013E+01  1.03847E+01
   1.04902E+01  1.04948E+01  1.04253E+01  1.03419E+01  1.03011E+01  1.02799E+01  1.02120E+01  1.01355E+01  1.01066E+01  1.01358E+01
   1.02188E+01  1.03191E+01  1.04134E+01  1.04799E+01  1.05055E+01  1.05025E+01  1.04777E+01  1.04448E+01  1.03889E+01  1.03191E+01
   1.02827E+01  1.02855E+01  1.03063E+01  1.03192E+01  1.02922E+01  1.02022E+01  1.00715E+01  9.95045E+00  9.87135E+00  9.84585E+00
   9.85883E+00  9.88248E+00  9.90068E+00  9.93066E+00  1.00168E+01  1.01143E+01  1.01221E+01  9.90968E+00  9.81079E+00  1.02566E+01
   1.12274E+01  1.23520E+01  1.31847E+01  1.35180E+01  1.34637E+01  1.32472E+01  1.30754E+01  1.30353E+01  1.29036E+01  1.23082E+01
   1.13244E+01  1.07259E+01  1.05931E+01  1.05659E+01  1.05706E+01  1.05825E+01  1.05986E+01  1.06146E+01  1.06300E+01  1.06438E+01
   1.06446E+01  1.05820E+01  1.05787E+01  1.08303E+01  1.13327E+01  1.19223E+01  1.23976E+01  1.26499E+01  1.27105E+01  1.27078E+01
   1.27475E+01  1.28402E+01  1.28667E+01  1.26393E+01  1.21720E+01  1.18435E+01  1.17726E+01  1.18124E+01  1.19104E+01  1.20204E+01
   1.21110E+01  1.22059E+01  1.23394E+01  1.24895E+01  1.26393E+01  1.27756E+01  1.28761E+01  1.29425E+01  1.29917E+01  1.30360E+01
   1.30904E+01  1.31406E+01  1.31839E+01  1.32256E+01  1.32754E+01  1.33327E+01  1.33749E+01  1.33821E+01  1.33511E+01  1.32951E+01
   1.32546E+01  1.32533E+01  1.32754E+01  1.32886E+01  1.32707E+01  1.32209E+01  1.31597E+01  1.31160E+01  1.30945E+01  1.30619E+01
   1.30037E+01  1.29150E+01  1.27875E+01  1.26637E+01  1.25632E+01  1.25000E+01  1.24690E+01  1.24351E+01  1.23789E+01  1.23092E+01
   1.22508E+01  1.22262E+01  1.22277E+01  1.22201E+01  1.21695E+01  1.20922E+01  1.20732E+01  1.21493E+01  1.22928E+01  1.24257E+01
   1.25055E+01  1.25489E+01  1.26031E+01  1.26760E+01  1.27366E+01  1.27457E+01  1.27146E+01  1.26808E+01  1.26546E+01  1.26678E+01
   1.27403E+01  1.28706E+01  1.30250E+01  1.31674E+01  1.33070E+01  1.34197E+01  1.34517E+01  1.34264E+01  1.33637E+01  1.32709E+01
   1.31512E+01  1.31683E+01  1.34649E+01  1.39710E+01  1.45084E+01  1.48981E+01  1.51196E+01  1.51832E+01  1.50035E+01  1.46510E+01
   1.42939E+01  1.39981E+01  1.37922E+01  1.37356E+01  1.39732E+01  1.43641E+01  1.47355E+01  1.50768E+01  1.54688E+01  1.59134E+01
   1.62331E+01  1.63384E+01  1.63774E+01  1.64821E+01  1.66213E+01  1.67606E+01  1.68592E+01  1.69280E+01  1.69658E+01  1.69455E+01
   1.68946E+01  1.69072E+01  1.70060E+01  1.71641E+01  1.73555E+01  1.75742E+01  1.78029E+01  1.79916E+01  1.81187E+01  1.82251E+01
   1.83553E+01  1.84561E+01  1.85400E+01  1.85773E+01  1.83629E+01  1.80210E+01  1.83708E+01  1.96822E+01  2.15082E+01  2.31020E+01
   2.39519E+01  2.40373E+01  2.36580E+01  2.31974E+01  2.29273E+01  2.27175E+01  2.19583E+01  2.03700E+01  1.88680E+01  1.82561E+01
   1.79618E+01  1.77694E+01  1.76671E+01  1.76112E+01  1.75586E+01  1.75230E+01  1.75019E+01  1.74944E+01  1.75028E+01  1.75227E+01
   1.75401E+01  1.75624E+01  1.76085E+01  1.76821E+01  1.77817E+01  1.79089E+01  1.80665E+01  1.82574E+01  1.84797E+01  1.87295E+01
   1.90105E+01  1.93251E+01  1.96737E+01  2.00583E+01  2.04822E+01  2.09466E+01  2.14500E+01  2.19913E+01  2.25697E+01  2.31823E+01
   2.38253E+01  2.44950E+01  2.51860E+01  2.58927E+01  2.66095E+01  2.73311E+01  2.80532E+01  2.87722E+01  2.94858E+01  3.01929E+01
   3.08940E+01  3.15920E+01  3.22920E+01  3.30005E+01  3.37256E+01  3.44765E+01  3.52636E+01  3.60979E+01  3.69903E+01  3.79505E+01
   3.89818E+01  4.00655E+01  4.12895E+01  4.30618E+01  4.53063E+01  4.75291E+01  4.92692E+01  5.03986E+01  5.11624E+01  5.18534E+01
   5.24175E+01  5.30866E+01  5.42186E+01  5.58410E+01  5.78615E+01  6.04629E+01  6.37118E+01  6.67899E+01  6.94648E+01  7.19961E+01
   7.46403E+01  7.73121E+01  7.95577E+01  8.11622E+01  8.27712E+01  8.45346E+01  8.61903E+01  8.76800E+01  8.90642E+01  9.03503E+01
   9.15939E+01  9.29273E+01  9.43766E+01  9.58623E+01  9.73513E+01  9.89372E+01  1.00544E+02  1.01973E+02  1.03261E+02  1.04484E+02
   1.05644E+02  1.06600E+02  1.07224E+02  1.07676E+02  1.08097E+02  1.08437E+02  1.08669E+02  1.08784E+02  1.08779E+02  1.08658E+02
   1.08427E+02  1.08096E+02  1.07678E+02  1.07187E+02  1.06638E+02  1.06047E+02  1.05429E+02  1.04796E+02  1.04158E+02  1.03522E+02
   1.02891E+02  1.02265E+02  1.01637E+02  1.01001E+02  1.00347E+02  9.96603E+01  9.89299E+01  9.81432E+01  9.72890E+01  9.63588E+01
   9.53468E+01  9.42506E+01  9.30714E+01  9.18136E+01  9.04847E+01  8.90945E+01  8.76546E+01  8.61775E+01  8.46758E+01  8.31615E+01
   8.16452E+01  8.01360E+01  7.86407E+01  7.71643E+01  7.57090E+01  7.42754E+01  7.28620E+01  7.14662E+01  7.00840E+01  6.87109E+01
   6.73421E+01  6.59730E+01  6.45994E+01  6.32178E+01  6.18253E+01  6.04204E+01  5.90022E+01  5.75710E+01  5.61280E+01  5.46753E+01
   5.32155E+01  5.17520E+01  5.02886E+01  4.88290E+01  4.73777E+01  4.59385E+01  4.45156E+01  4.31127E+01  4.17334E+01  4.03809E+01
   3.90578E+01  3.77667E+01  3.65094E+01  3.52877E+01  3.41025E+01  3.29548E+01  3.18450E+01  3.07733E+01  2.97394E+01  2.87432E+01
   2.77838E+01  2.68607E+01  2.59729E+01  2.51195E+01  2.42993E+01  2.35111E+01  2.27538E+01  2.20261E+01  2.13269E+01  2.06548E+01
   2.00087E+01  1.93874E+01  1.87897E+01  1.82144E+01  1.76606E+01  1.71271E+01  1.66129E+01  1.61171E+01  1.56388E+01  1.51771E+01
   1.47311E+01  1.43001E+01  1.38833E+01  1.34801E+01  1.30897E+01  1.27115E+01  1.23449E+01  1.19893E+01  1.16443E+01  1.13092E+01
   1.09837E+01  1.06673E+01  1.03595E+01  1.00600E+01  9.76828E+00  9.48410E+00  9.20709E+00  8.93693E+00  8.67330E+00  8.41591E+00
   8.16451E+00  7.91885E+00  7.67867E+00  7.44374E+00  7.21382E+00  6.98874E+00  6.76829E+00  6.55230E+00  6.34058E+00  6.13295E+00
   5.92926E+00  5.72936E+00  5.53313E+00  5.34042E+00  5.15109E+00  4.96501E+00  4.78208E+00  4.60219E+00
 NY background values follow
     9.430E+00    9.434E+00    9.438E+00    9.442E+00    9.446E+00    9.449E+00    9.453E+00    9.457E+00    9.461E+00    9.465E+00
     9.468E+00    9.472E+00    9.476E+00    9.479E+00    9.483E+00    9.487E+00    9.490E+00    9.494E+00    9.498E+00    9.501E+00
     9.505E+00    9.508E+00    9.512E+00    9.515E+00    9.519E+00    9.522E+00    9.526E+00    9.529E+00    9.532E+00    9.536E+00
     9.539E+00    9.543E+00    9.546E+00    9.549E+00    9.552E+00    9.556E+00    9.559E+00    9.562E+00    9.565E+00    9.569E+00
     9.572E+00    9.575E+00    9.578E+00    9.581E+00    9.584E+00    9.587E+00    9.590E+00    9.593E+00    9.596E+00    9.599E+00
     9.602E+00    9.605E+00    9.608E+00    9.611E+00    9.613E+00    9.616E+00    9.619E+00    9.622E+00    9.625E+00    9.628E+00
     9.631E+00    9.634E+00    9.637E+00    9.640E+00    9.643E+00    9.646E+00    9.650E+00    9.653E+00    9.656E+00    9.659E+00
     9.663E+00    9.666E+00    9.669E+00    9.673E+00    9.676E+00    9.680E+00    9.684E+00    9.688E+00    9.691E+00    9.695E+00
     9.699E+00    9.703E+00    9.708E+00    9.712E+00    9.716E+00    9.721E+00    9.725E+00    9.730E+00    9.735E+00    9.740E+00
     9.745E+00    9.750E+00    9.755E+00    9.760E+00    9.766E+00    9.771E+00    9.777E+00    9.783E+00    9.789E+00    9.795E+00
     9.801E+00    9.807E+00    9.814E+00    9.820E+00    9.827E+00    9.834E+00    9.841E+00    9.848E+00    9.855E+00    9.862E+00
     9.870E+00    9.877E+00    9.885E+00    9.893E+00    9.901E+00    9.909E+00    9.917E+00    9.926E+00    9.934E+00    9.943E+00
     9.952E+00    9.961E+00    9.970E+00    9.979E+00    9.989E+00    9.998E+00    1.001E+01    1.002E+01    1.003E+01    1.004E+01
     1.005E+01    1.006E+01    1.007E+01    1.008E+01    1.009E+01    1.010E+01    1.011E+01    1.012E+01    1.014E+01    1.015E+01
     1.016E+01    1.017E+01    1.018E+01    1.019E+01    1.021E+01    1.022E+01    1.023E+01    1.024E+01    1.026E+01    1.027E+01
     1.028E+01    1.029E+01    1.031E+01    1.032E+01    1.033E+01    1.034E+01    1.036E+01    1.037E+01    1.038E+01    1.039E+01
     1.040E+01    1.042E+01    1.043E+01    1.044E+01    1.045E+01    1.047E+01    1.048E+01    1.049E+01    1.050E+01    1.051E+01
     1.052E+01    1.053E+01    1.054E+01    1.056E+01    1.057E+01    1.058E+01    1.059E+01    1.060E+01    1.061E+01    1.062E+01
     1.062E+01    1.063E+01    1.064E+01    1.065E+01    1.066E+01    1.067E+01    1.067E+01    1.068E+01    1.069E+01    1.070E+01
     1.070E+01    1.071E+01    1.072E+01    1.072E+01    1.073E+01    1.073E+01    1.074E+01    1.074E+01    1.074E+01    1.075E+01
     1.075E+01    1.075E+01    1.076E+01    1.076E+01    1.076E+01    1.076E+01    1.076E+01    1.076E+01    1.077E+01    1.077E+01
     1.076E+01    1.076E+01    1.076E+01    1.076E+01    1.076E+01    1.076E+01    1.075E+01    1.075E+01    1.075E+01    1.074E+01
     1.074E+01    1.073E+01    1.073E+01    1.072E+01    1.072E+01    1.071E+01    1.070E+01    1.069E+01    1.069E+01    1.068E+01
     1.067E+01    1.066E+01    1.065E+01    1.064E+01    1.063E+01    1.061E+01    1.060E+01    1.059E+01    1.058E+01    1.056E+01
     1.055E+01    1.054E+01    1.052E+01    1.051E+01    1.049E+01    1.048E+01    1.046E+01    1.044E+01    1.043E+01    1.041E+01
     1.039E+01    1.037E+01    1.035E+01    1.033E+01    1.032E+01    1.030E+01    1.028E+01    1.026E+01    1.023E+01    1.021E+01
     1.019E+01    1.017E+01    1.015E+01    1.013E+01    1.010E+01    1.008E+01    1.006E+01    1.003E+01    1.001E+01    9.985E+00
     9.961E+00    9.936E+00    9.911E+00    9.885E+00    9.859E+00    9.833E+00    9.807E+00    9.780E+00    9.753E+00    9.726E+00
     9.699E+00    9.671E+00    9.643E+00    9.614E+00    9.585E+00    9.557E+00    9.527E+00    9.498E+00    9.468E+00    9.438E+00
     9.407E+00    9.377E+00    9.346E+00    9.314E+00    9.283E+00    9.251E+00    9.219E+00    9.187E+00    9.154E+00    9.121E+00
     9.088E+00    9.054E+00    9.021E+00    8.987E+00    8.952E+00    8.918E+00    8.883E+00    8.848E+00    8.812E+00    8.777E+00
     8.741E+00    8.704E+00    8.668E+00    8.631E+00    8.594E+00    8.557E+00    8.519E+00    8.481E+00    8.443E+00    8.405E+00
     8.366E+00    8.328E+00    8.288E+00    8.249E+00    8.209E+00    8.169E+00    8.129E+00    8.089E+00    8.048E+00    8.007E+00
     7.966E+00    7.924E+00    7.883E+00    7.841E+00    7.798E+00    7.756E+00    7.713E+00    7.670E+00    7.627E+00    7.583E+00
     7.539E+00    7.495E+00    7.451E+00    7.407E+00    7.362E+00    7.317E+00    7.272E+00    7.226E+00    7.180E+00    7.134E+00
     7.088E+00    7.041E+00    6.995E+00    6.948E+00    6.900E+00    6.853E+00    6.805E+00    6.757E+00    6.709E+00    6.661E+00
     6.612E+00    6.563E+00    6.514E+00    6.465E+00    6.415E+00    6.365E+00    6.315E+00    6.265E+00    6.214E+00    6.163E+00
     6.112E+00    6.061E+00    6.010E+00    5.958E+00    5.906E+00    5.854E+00    5.801E+00    5.749E+00    5.696E+00    5.643E+00
     5.589E+00    5.536E+00    5.482E+00    5.428E+00    5.374E+00    5.320E+00    5.265E+00    5.210E+00    5.155E+00    5.100E+00
     5.044E+00    4.989E+00    4.933E+00    4.877E+00    4.820E+00    4.764E+00    4.707E+00    4.650E+00    4.593E+00    4.535E+00
     4.478E+00    4.420E+00    4.362E+00    4.303E+00    4.245E+00    4.186E+00    4.128E+00    4.068E+00    4.009E+00    3.950E+00
     3.890E+00    3.830E+00    3.770E+00    3.710E+00    3.649E+00    3.589E+00    3.528E+00    3.467E+00    3.405E+00    3.344E+00
     3.282E+00    3.220E+00    3.158E+00    3.096E+00    3.034E+00    2.971E+00    2.908E+00    2.845E+00    2.782E+00    2.718E+00
     2.655E+00    2.591E+00    2.527E+00    2.462E+00    2.398E+00    2.333E+00    2.269E+00    2.204E+00    2.138E+00    2.073E+00
     2.007E+00    1.942E+00    1.876E+00    1.810E+00    1.743E+00    1.677E+00    1.610E+00    1.543E+00    1.476E+00    1.409E+00
     1.341E+00    1.274E+00    1.206E+00    1.138E+00    1.070E+00    1.001E+00    9.326E-01    8.638E-01    7.950E-01    7.259E-01
     6.568E-01    5.874E-01    5.180E-01    4.484E-01    3.786E-01    3.088E-01    2.388E-01    1.687E-01    9.853E-02    2.824E-02
    -4.216E-02   -1.126E-01   -1.832E-01   -2.539E-01   -3.246E-01   -3.954E-01   -4.663E-01   -5.372E-01   -6.082E-01   -6.793E-01
    -7.504E-01   -8.215E-01   -8.927E-01   -9.639E-01   -1.035E+00   -1.106E+00   -1.178E+00   -1.249E+00   -1.320E+00   -1.392E+00
    -1.463E+00   -1.534E+00   -1.605E+00   -1.677E+00   -1.748E+00   -1.819E+00   -1.890E+00   -1.961E+00
 Ala      Conc. = 2.45E+02
