 LCModel (Version 6.3-1L) Copyright: S.W. Provencher.          Ref.: Magn. Reson. Med. 30:672-679 (1993).                
 Slice#1 Row#4 Col#9  PD_24_press_1_raw_act
 36 lines in following concentration table = NCONC+1
    Conc.  %SD /Cr+PCr  Metabolite                                         
  183.841 110%   0.147 Ala                                                 
    0.000 999%   0.000 Asp                                                 
 1.21E+03  22%   0.970 Cr                                                  
   37.463 715% 3.0E-02 PCr                                                 
   35.426 478% 2.8E-02 GABA                                                
    0.000 999%   0.000 Glc                                                 
 1.10E+03  35%   0.881 Gln                                                 
  989.120  44%   0.793 Glu                                                 
  645.007   3%   0.517 GPC                                                 
    0.000 999%   0.000 PCh                                                 
  501.216  16%   0.402 GSH                                                 
 2.37E+03  10%   1.901 Ins                                                 
  352.102  71%   0.282 Lac                                                 
 1.76E+03   8%   1.412 NAA                                                 
   86.788 186% 7.0E-02 NAAG                                                
  141.951  18%   0.114 Scyllo                                              
    0.000 999%   0.000 Tau                                                 
    0.000 999%   0.000 -CrCH2                                              
  645.007   3%   0.517 GPC+PCh                                             
 1.85E+03   5%   1.481 NAA+NAAG                                            
 1.25E+03   4%   1.000 Cr+PCr                                              
 2.09E+03  34%   1.673 Glu+Gln                                             
    0.000 999%   0.000 Lip13a                                              
 1.04E+03  35%   0.833 Lip13b                                              
  101.065 202% 8.1E-02 Lip09                                               
 1.17E+03  18%   0.940 MM09                                                
  198.809  69%   0.159 Lip20                                               
 2.29E+03  14%   1.839 MM20                                                
  295.149  55%   0.236 MM12                                                
 2.02E+03  18%   1.616 MM14                                                
 1.20E+03  20%   0.960 MM17                                                
 1.04E+03  35%   0.833 Lip13a+Lip13b                                       
 3.35E+03  10%   2.685 MM14+Lip13a+Lip13b+MM12                             
 1.27E+03  11%   1.021 MM09+Lip09                                          
 2.49E+03  12%   1.998 MM20+Lip20                                          
   6 lines in following misc. output table
  FWHM = 0.092 ppm    S/N =   9                                            
  Data shift = 0.000 ppm                                                   
  Ph: -25 deg      -2.3 deg/ppm                                            
  alphaB,S = 8.5E+01,   4.1E+02                                            
   14 spline knots.   Ns =10(1)                                            
   2 inflections.     1 extrema                                            
  498 points on ppm-axis = NY
      4.000000     3.992357     3.984714     3.977070     3.969427     3.961784     3.954141     3.946497     3.938854     3.931211
      3.923568     3.915925     3.908281     3.900638     3.892995     3.885352     3.877708     3.870065     3.862422     3.854779
      3.847136     3.839492     3.831849     3.824206     3.816563     3.808919     3.801276     3.793633     3.785990     3.778347
      3.770703     3.763060     3.755417     3.747774     3.740130     3.732487     3.724844     3.717201     3.709558     3.701914
      3.694271     3.686628     3.678985     3.671341     3.663698     3.656055     3.648412     3.640769     3.633125     3.625482
      3.617839     3.610196     3.602552     3.594909     3.587266     3.579623     3.571980     3.564336     3.556693     3.549050
      3.541407     3.533763     3.526120     3.518477     3.510834     3.503191     3.495547     3.487904     3.480261     3.472618
      3.464974     3.457331     3.449688     3.442045     3.434402     3.426758     3.419115     3.411472     3.403829     3.396185
      3.388542     3.380899     3.373256     3.365613     3.357969     3.350326     3.342683     3.335040     3.327396     3.319753
      3.312110     3.304467     3.296824     3.289180     3.281537     3.273894     3.266251     3.258607     3.250964     3.243321
      3.235678     3.228034     3.220391     3.212748     3.205105     3.197462     3.189818     3.182175     3.174532     3.166889
      3.159245     3.151602     3.143959     3.136316     3.128673     3.121029     3.113386     3.105743     3.098100     3.090456
      3.082813     3.075170     3.067527     3.059884     3.052240     3.044597     3.036954     3.029311     3.021667     3.014024
      3.006381     2.998738     2.991095     2.983451     2.975808     2.968165     2.960522     2.952878     2.945235     2.937592
      2.929949     2.922306     2.914662     2.907019     2.899376     2.891733     2.884089     2.876446     2.868803     2.861160
      2.853517     2.845873     2.838230     2.830587     2.822944     2.815300     2.807657     2.800014     2.792371     2.784728
      2.777084     2.769441     2.761798     2.754155     2.746511     2.738868     2.731225     2.723582     2.715939     2.708295
      2.700652     2.693009     2.685366     2.677722     2.670079     2.662436     2.654793     2.647150     2.639506     2.631863
      2.624220     2.616577     2.608933     2.601290     2.593647     2.586004     2.578361     2.570717     2.563074     2.555431
      2.547788     2.540144     2.532501     2.524858     2.517215     2.509572     2.501928     2.494285     2.486642     2.478999
      2.471355     2.463712     2.456069     2.448426     2.440783     2.433139     2.425496     2.417853     2.410210     2.402566
      2.394923     2.387280     2.379637     2.371994     2.364350     2.356707     2.349064     2.341421     2.333777     2.326134
      2.318491     2.310848     2.303205     2.295561     2.287918     2.280275     2.272632     2.264988     2.257345     2.249702
      2.242059     2.234416     2.226772     2.219129     2.211486     2.203843     2.196199     2.188556     2.180913     2.173270
      2.165627     2.157983     2.150340     2.142697     2.135054     2.127410     2.119767     2.112124     2.104481     2.096838
      2.089194     2.081551     2.073908     2.066265     2.058621     2.050978     2.043335     2.035692     2.028049     2.020405
      2.012762     2.005119     1.997476     1.989833     1.982190     1.974546     1.966903     1.959260     1.951617     1.943974
      1.936331     1.928688     1.921045     1.913402     1.905759     1.898115     1.890472     1.882829     1.875186     1.867543
      1.859900     1.852257     1.844614     1.836971     1.829327     1.821684     1.814041     1.806398     1.798755     1.791112
      1.783469     1.775826     1.768183     1.760540     1.752896     1.745253     1.737610     1.729967     1.722324     1.714681
      1.707038     1.699395     1.691752     1.684108     1.676465     1.668822     1.661179     1.653536     1.645893     1.638250
      1.630607     1.622964     1.615321     1.607677     1.600034     1.592391     1.584748     1.577105     1.569462     1.561819
      1.554176     1.546533     1.538890     1.531246     1.523603     1.515960     1.508317     1.500674     1.493031     1.485388
      1.477745     1.470102     1.462458     1.454815     1.447172     1.439529     1.431886     1.424243     1.416600     1.408957
      1.401314     1.393671     1.386027     1.378384     1.370741     1.363098     1.355455     1.347812     1.340169     1.332526
      1.324883     1.317240     1.309596     1.301953     1.294310     1.286667     1.279024     1.271381     1.263738     1.256095
      1.248452     1.240808     1.233165     1.225522     1.217879     1.210236     1.202593     1.194950     1.187307     1.179664
      1.172021     1.164377     1.156734     1.149091     1.141448     1.133805     1.126162     1.118519     1.110876     1.103233
      1.095590     1.087946     1.080303     1.072660     1.065017     1.057374     1.049731     1.042088     1.034445     1.026802
      1.019158     1.011515     1.003872     0.996229     0.988586     0.980943     0.973300     0.965657     0.958014     0.950371
      0.942727     0.935084     0.927441     0.919798     0.912155     0.904512     0.896869     0.889226     0.881583     0.873940
      0.866296     0.858653     0.851010     0.843367     0.835724     0.828081     0.820438     0.812795     0.805152     0.797508
      0.789865     0.782222     0.774579     0.766936     0.759293     0.751650     0.744007     0.736364     0.728721     0.721077
      0.713434     0.705791     0.698148     0.690505     0.682862     0.675219     0.667576     0.659933     0.652290     0.644646
      0.637003     0.629360     0.621717     0.614074     0.606431     0.598788     0.591145     0.583502     0.575858     0.568215
      0.560572     0.552929     0.545286     0.537643     0.530000     0.522357     0.514714     0.507071     0.499427     0.491784
      0.484141     0.476498     0.468855     0.461212     0.453569     0.445925     0.438282     0.430639     0.422996     0.415353
      0.407710     0.400067     0.392424     0.384780     0.377137     0.369494     0.361851     0.354208     0.346565     0.338922
      0.331278     0.323635     0.315992     0.308349     0.300706     0.293063     0.285420     0.277777     0.270133     0.262490
      0.254847     0.247204     0.239561     0.231918     0.224275     0.216631     0.208988     0.201345
 NY phased data points follow
  -9.27553E-01 -7.38778E-01 -1.46606E+00  3.42804E+00  1.76749E+00  5.64680E+00  1.16878E+01  1.69406E+01  1.68224E+01  1.81171E+01
   2.09291E+01  1.75840E+01  1.69979E+01  1.22237E+01  1.66474E+01  1.09381E+01  1.44522E+01  9.77175E+00  8.18946E+00  5.76307E+00
   5.05009E+00  3.26518E+00  2.04158E+00  3.06029E+00  8.26343E+00  1.45857E+00  6.22785E+00  4.06005E+00  5.40418E+00  5.02875E+00
   7.35873E+00  4.40176E+00  1.80282E+00  4.03164E+00  3.57689E+00  5.03536E+00  9.01090E-01  5.07426E+00  1.71226E+00  4.39947E+00
   9.90300E+00  3.99930E+00  2.13025E-01  8.40873E+00  8.07818E+00  8.41731E+00  6.14051E+00  8.28483E+00  8.55349E+00  4.75131E+00
   7.37542E+00  7.71236E+00  9.08296E+00  8.26881E+00  3.62255E+00  4.93377E+00  5.41920E+00  3.67565E+00  4.25739E+00  2.26895E+00
   5.40857E+00  4.01992E+00  1.25980E+00 -7.05196E-01 -2.92721E+00  1.04574E-02 -1.69911E+00 -2.64474E+00  6.57492E-01 -5.41422E+00
  -2.29091E-01  1.31505E+00 -2.01550E-01 -1.82193E-01 -4.24913E+00 -1.65558E+00 -4.23463E+00 -4.25805E+00 -2.21900E+00  3.87256E+00
  -3.73742E+00 -3.99948E+00 -2.95662E+00 -1.45253E+00  6.83532E-02  2.07426E-01 -3.94680E+00  2.05410E+00 -5.18466E-01  2.07673E+00
  -2.57342E+00  1.37508E+00  8.00901E-01 -2.78944E+00 -2.51779E+00 -4.42420E+00  3.64434E+00  7.65793E+00  2.13264E+01  2.51547E+01
   3.20466E+01  3.00448E+01  3.61889E+01  3.34482E+01  3.17138E+01  2.98050E+01  2.26806E+01  2.17612E+01  2.24414E+01  1.69474E+01
   1.27144E+01  1.07206E+01  1.30400E+00  5.41348E+00  1.70501E+00 -1.28856E+00 -3.26981E+00 -4.82548E+00 -7.51727E+00 -3.20042E+00
   2.04099E+00  8.06541E+00  1.05553E+01  1.75558E+01  1.53214E+01  2.30406E+01  2.70529E+01  2.30350E+01  1.99167E+01  2.06647E+01
   1.58475E+01  1.61320E+01  1.62270E+01  1.14188E+01  1.29616E+01  4.30104E+00  5.95008E+00  4.64769E+00  4.61362E-01  2.40042E+00
  -2.57179E-01  5.02838E+00  1.24555E+00  9.45063E-01  5.19869E-01 -4.46912E+00 -5.33556E+00 -1.50077E+00 -6.95606E+00 -2.37989E+00
  -8.25004E+00 -4.17251E+00 -3.77605E+00 -3.68845E+00 -1.19095E+00 -6.63437E+00 -3.62208E+00 -3.18949E+00 -1.32763E+00 -4.74378E+00
  -2.64879E+00 -2.91998E-01 -9.68133E-01 -6.33175E+00 -9.00228E+00 -4.62240E+00 -8.17426E+00 -5.82370E+00 -7.34919E+00 -3.17002E+00
  -8.87529E+00 -1.13275E+01 -8.96206E+00 -1.37257E+01 -1.27071E+01 -8.56760E+00 -1.14540E+01 -8.28276E+00 -1.49369E+01 -8.89756E+00
  -1.16017E+01 -1.11241E+01 -8.01715E+00 -1.44253E+01 -8.19543E+00 -8.33600E+00 -8.91882E+00 -2.91601E+00 -4.06792E+00 -5.77464E+00
  -6.29026E+00 -7.12988E+00 -9.86002E+00 -6.58128E+00 -4.38999E+00 -5.92239E+00 -9.12001E+00 -9.47463E+00 -7.06431E+00 -7.65083E+00
  -2.97376E+00 -4.91698E+00 -4.58258E+00 -3.93178E+00 -7.23599E+00 -7.64055E+00 -5.51397E+00 -6.27541E+00 -4.86198E+00 -3.51438E+00
  -4.96720E+00  2.17038E+00 -1.75111E+00 -2.12286E+00  2.95299E+00 -2.34099E-01  1.92871E+00  1.75683E+00 -2.56091E+00 -3.35098E+00
  -3.20083E+00 -3.49355E+00 -1.74853E+00 -3.62104E+00  1.05147E+00 -3.75320E-01  4.40033E+00 -1.18722E+00  2.74625E-01  2.75604E+00
   1.79135E+00 -9.94180E-01  2.22618E+00  1.10968E+00  1.91173E+00 -2.58584E+00  1.33752E+00  5.03248E+00 -4.48319E+00 -8.70974E-02
   9.90781E-01  4.44376E+00  2.18823E+00  3.51207E+00  5.37996E+00  3.11508E+00  3.36801E+00  9.97769E+00  4.55590E+00  6.12184E+00
   7.29341E+00  1.12363E+01  1.40854E+01  2.01355E+01  2.16282E+01  2.67871E+01  3.80266E+01  4.43384E+01  4.72194E+01  5.11791E+01
   3.87689E+01  3.85561E+01  3.98533E+01  3.51159E+01  3.02977E+01  2.46258E+01  2.02602E+01  1.42304E+01  1.20764E+01  6.48458E+00
   7.07166E+00  3.80179E+00  6.30478E+00  1.06318E-01  1.75411E+00 -1.57533E+00  1.87303E+00 -2.44087E+00  1.29780E-01 -4.61277E+00
  -3.69769E+00 -1.79202E+00 -2.75225E+00 -3.02806E+00 -2.43693E+00 -4.19433E+00 -1.18904E+00 -1.01366E+00 -3.57507E+00 -5.99379E+00
   6.86667E-01  1.44909E+00 -6.45507E-01 -1.38468E+00  1.47083E+00 -1.78344E+00  3.79422E+00  6.41454E-01  3.20939E+00  7.07660E-01
  -2.21712E+00  3.12565E+00  4.16075E+00  2.82159E+00  6.05388E+00  3.75596E-02  7.71686E+00  6.58330E+00  5.58821E+00  6.00489E+00
   5.99680E+00  5.87679E+00  7.11788E+00  9.63238E+00  8.30646E+00  3.85527E+00  9.86624E+00  6.91248E+00  7.51471E+00  6.16279E+00
   7.46417E+00  8.76584E+00  9.01489E+00  5.24504E+00  8.94971E+00  4.98851E+00  5.65610E+00  7.19207E+00  8.64042E+00  6.93886E+00
   7.34070E+00  8.10373E+00  7.60566E+00  9.40241E+00  6.28601E+00  8.50830E+00  7.02585E+00  6.45699E+00  1.06575E+01  1.07648E+01
   6.56418E+00  8.41203E+00  1.01996E+01  8.21884E+00  1.11805E+01  9.90814E+00  8.93125E+00  1.03326E+01  7.27458E+00  6.77215E+00
   9.35087E+00  4.81464E+00  1.00930E+01  8.23847E+00  8.08209E+00  5.87524E+00  6.68049E+00  7.11528E+00  6.88469E+00  1.33163E+01
   1.11529E+01  6.04501E+00  8.38470E+00  1.03405E+01  6.56389E+00  5.33385E+00  5.92186E+00  2.11039E+00  6.34802E-01  2.75006E+00
  -2.76934E+00  6.25817E-01  3.15889E+00  1.79476E-01 -5.89892E+00 -2.73387E+00 -9.30449E-01 -1.40651E+00 -5.42618E+00 -2.71692E+00
   8.73023E-01 -6.60390E+00  1.08628E+00 -1.59357E+00  6.72230E-01  7.03991E-01  3.19837E+00  3.65060E+00  1.64289E+00  6.89091E-01
   9.17896E-01  2.74539E+00  5.99864E+00  1.78987E+00 -2.36852E+00  4.00845E+00  2.97461E+00  1.46522E+00  2.19894E+00  2.90919E+00
   8.98104E+00  1.14950E+01  9.62904E+00  5.66574E+00  7.53562E+00  7.22585E+00  7.60057E+00  9.94372E+00  6.49565E+00  6.72813E+00
   7.90632E+00  2.22539E+00  7.69495E+00  1.90888E+00  1.91933E+00 -1.58212E+00  6.17665E+00  1.06191E+00 -7.55583E-01 -9.43415E-01
  -2.97437E+00 -3.90724E-01 -2.22634E+00 -1.75806E-01 -3.29378E+00  9.64917E-01  5.54809E+00 -4.33783E-01 -1.56918E+00 -1.97853E+00
  -2.30094E+00  3.15153E-01 -2.36395E+00 -2.96548E+00 -2.23114E+00 -2.85828E+00  4.82369E-01 -2.14380E+00  3.73383E-01 -2.16523E+00
  -2.85138E+00 -5.84586E-01 -2.67200E+00 -1.78339E+00 -3.58094E+00 -8.23445E+00 -1.08501E+00 -1.16294E+00  1.01655E+00 -6.89692E+00
  -1.42370E+00 -3.00767E+00 -5.95992E+00 -4.76884E+00 -3.49653E+00 -2.27975E+00 -2.46514E+00 -1.00821E+00 -2.04649E+00 -1.39634E-02
  -1.79089E+00 -1.47879E+00 -3.03181E+00 -1.84576E+00 -2.21089E+00 -5.52756E-01 -2.06377E+00 -5.43608E+00 -1.62685E-01 -3.64623E+00
  -3.88123E+00 -4.08208E+00 -3.65529E+00 -2.32956E+00  1.84218E+00 -8.03660E-01 -2.93345E+00 -4.44303E+00 -2.08382E+00 -5.40113E+00
  -4.55185E+00 -1.18267E+00 -1.64263E+00 -3.77378E-01 -1.93886E+00 -3.77127E+00 -9.67006E-01 -2.77509E+00 -5.92175E+00 -3.36522E+00
  -2.24462E+00 -2.13938E+00 -3.44366E+00 -3.72947E+00 -3.06885E+00  1.79628E+00 -1.08320E+00 -1.16828E+00
 NY points of the fit to the data follow
   4.73404E-01  1.06505E-01  2.96020E-01  1.24961E+00  3.06130E+00  5.61073E+00  8.54738E+00  1.15109E+01  1.41318E+01  1.60454E+01
   1.70503E+01  1.71640E+01  1.66048E+01  1.56444E+01  1.44627E+01  1.31360E+01  1.16481E+01  9.95175E+00  8.05251E+00  6.08113E+00
   4.27054E+00  2.79682E+00  1.79571E+00  1.49887E+00  2.10274E+00  3.23577E+00  4.49300E+00  5.61583E+00  6.42214E+00  6.81707E+00
   6.82319E+00  6.52328E+00  6.01220E+00  5.38071E+00  4.69354E+00  3.97106E+00  3.26268E+00  2.73615E+00  2.57119E+00  2.86615E+00
   3.61267E+00  4.80771E+00  6.29896E+00  7.68823E+00  8.71102E+00  9.17674E+00  9.02533E+00  8.35784E+00  7.38121E+00  6.34298E+00
   5.40692E+00  4.63408E+00  4.03487E+00  3.55121E+00  3.11997E+00  2.71872E+00  2.29449E+00  1.75602E+00  1.14276E+00  6.40409E-01
   2.98988E-01  2.95287E-02 -1.75814E-01 -2.55356E-01 -2.16795E-01 -1.12274E-01 -2.86609E-03  7.50361E-02  1.06862E-01  7.05440E-02
  -2.83118E-02 -1.32461E-01 -2.08657E-01 -2.59713E-01 -3.05619E-01 -3.82155E-01 -4.77776E-01 -5.33455E-01 -5.19600E-01 -4.40815E-01
  -3.38068E-01 -2.67097E-01 -2.99604E-01 -4.67183E-01 -7.49190E-01 -1.12345E+00 -1.52063E+00 -1.85350E+00 -2.08174E+00 -2.23712E+00
  -2.38885E+00 -2.59637E+00 -2.84689E+00 -2.81883E+00 -1.74925E+00  8.87610E-01  5.19727E+00  1.09131E+01  1.74868E+01  2.40616E+01
   2.95654E+01  3.32084E+01  3.46683E+01  3.41190E+01  3.21828E+01  2.95488E+01  2.66432E+01  2.35988E+01  2.03619E+01  1.68308E+01
   1.30519E+01  9.21941E+00  5.53507E+00  2.12128E+00 -8.52041E-01 -2.84287E+00 -3.45493E+00 -3.25656E+00 -2.18871E+00 -2.86048E-02
   3.22974E+00  7.36753E+00  1.19889E+01  1.65512E+01  2.04589E+01  2.32143E+01  2.45500E+01  2.45011E+01  2.33920E+01  2.16250E+01
   1.94776E+01  1.70934E+01  1.45240E+01  1.18165E+01  9.08891E+00  6.48600E+00  4.10250E+00  1.95072E+00  6.55234E-02 -1.26955E+00
  -1.83528E+00 -2.08915E+00 -2.27436E+00 -2.42584E+00 -2.54836E+00 -2.64462E+00 -2.75482E+00 -2.92331E+00 -3.14343E+00 -3.39398E+00
  -3.65108E+00 -3.89227E+00 -4.12304E+00 -4.33998E+00 -4.55129E+00 -4.75658E+00 -4.94132E+00 -5.09241E+00 -5.20253E+00 -5.27414E+00
  -5.32329E+00 -5.38171E+00 -5.48242E+00 -5.63777E+00 -5.83940E+00 -6.06830E+00 -6.31592E+00 -6.58498E+00 -6.86749E+00 -7.15450E+00
  -7.43236E+00 -7.68911E+00 -7.92105E+00 -8.13297E+00 -8.30894E+00 -8.44189E+00 -8.54040E+00 -8.62136E+00 -8.71058E+00 -8.78769E+00
  -8.79384E+00 -8.67227E+00 -8.38462E+00 -7.92074E+00 -7.30830E+00 -6.60936E+00 -5.92104E+00 -5.36254E+00 -5.03781E+00 -4.95766E+00
  -5.04506E+00 -5.20346E+00 -5.32497E+00 -5.32132E+00 -5.11285E+00 -4.65359E+00 -3.97324E+00 -3.16987E+00 -2.37783E+00 -1.75501E+00
  -1.44610E+00 -1.51970E+00 -1.96305E+00 -2.70040E+00 -3.60481E+00 -4.50686E+00 -5.19878E+00 -5.51199E+00 -5.40839E+00 -4.95140E+00
  -4.28065E+00 -3.55251E+00 -2.93206E+00 -2.53938E+00 -2.41675E+00 -2.51375E+00 -2.71465E+00 -2.88846E+00 -2.93757E+00 -2.81055E+00
  -2.51256E+00 -2.14588E+00 -1.85160E+00 -1.61870E+00 -1.43956E+00 -1.34558E+00 -1.30385E+00 -1.21280E+00 -9.64404E-01 -5.65709E-01
  -7.11489E-02  4.97609E-01  1.09682E+00  1.62838E+00  1.98530E+00  2.13494E+00  2.12768E+00  2.02201E+00  1.86546E+00  1.73029E+00
   1.68438E+00  1.77243E+00  1.99014E+00  2.28547E+00  2.63331E+00  3.05551E+00  3.57989E+00  4.20759E+00  4.94098E+00  5.88561E+00
   7.40828E+00  1.00536E+01  1.40687E+01  1.93557E+01  2.54884E+01  3.18002E+01  3.75183E+01  4.18801E+01  4.43268E+01  4.46741E+01
   4.32137E+01  4.05682E+01  3.73209E+01  3.38034E+01  3.01108E+01  2.62036E+01  2.20759E+01  1.78764E+01  1.38260E+01  1.00539E+01
   6.60830E+00  3.69565E+00  1.87750E+00  1.11368E+00  6.59460E-01  2.95818E-01 -1.21487E-02 -2.81007E-01 -5.23711E-01 -7.37354E-01
  -9.25573E-01 -1.09299E+00 -1.24172E+00 -1.37115E+00 -1.48013E+00 -1.56181E+00 -1.60790E+00 -1.61550E+00 -1.58473E+00 -1.51602E+00
  -1.40905E+00 -1.26284E+00 -1.07679E+00 -8.50302E-01 -5.80180E-01 -2.64054E-01  9.83526E-02  5.05552E-01  9.54638E-01  1.44027E+00
   1.95498E+00  2.48997E+00  3.03513E+00  3.57911E+00  4.11053E+00  4.61772E+00  5.08912E+00  5.51442E+00  5.88527E+00  6.19583E+00
   6.44317E+00  6.62756E+00  6.75310E+00  6.82736E+00  6.86133E+00  6.87002E+00  6.87457E+00  6.90537E+00  6.97892E+00  7.08363E+00
   7.19357E+00  7.27741E+00  7.30326E+00  7.24424E+00  7.08774E+00  6.85649E+00  6.61442E+00  6.43563E+00  6.37745E+00  6.46263E+00
   6.68100E+00  6.99610E+00  7.35730E+00  7.71697E+00  8.04004E+00  8.31163E+00  8.54625E+00  8.79118E+00  9.09913E+00  9.46026E+00
   9.78189E+00  9.96129E+00  9.93937E+00  9.67314E+00  9.14672E+00  8.41222E+00  7.60935E+00  6.93344E+00  6.54935E+00  6.50749E+00
   6.78429E+00  7.29560E+00  7.91828E+00  8.52670E+00  9.01952E+00  9.33416E+00  9.45405E+00  9.39323E+00  9.18629E+00  8.87812E+00
   8.45100E+00  7.83760E+00  7.06926E+00  6.20475E+00  5.29506E+00  4.37343E+00  3.47110E+00  2.66738E+00  2.01715E+00  1.48515E+00
   1.04507E+00  6.81145E-01  3.81366E-01  1.36010E-01 -6.26990E-02 -2.20747E-01 -3.42473E-01 -4.30755E-01 -4.87215E-01 -5.12442E-01
  -5.06202E-01 -4.67614E-01 -3.95303E-01 -2.87547E-01 -1.42445E-01  4.19091E-02  2.67215E-01  5.34762E-01  8.45194E-01  1.19827E+00
   1.59259E+00  2.02539E+00  2.49228E+00  2.98720E+00  3.50229E+00  4.02799E+00  4.55322E+00  5.06561E+00  5.55200E+00  5.99888E+00
   6.39307E+00  6.72231E+00  6.97589E+00  7.14521E+00  7.22429E+00  7.21008E+00  7.10266E+00  6.90519E+00  6.62372E+00  6.26686E+00
   5.84525E+00  5.37100E+00  4.85705E+00  4.31656E+00  3.76226E+00  3.20600E+00  2.65832E+00  2.12819E+00  1.62284E+00  1.14772E+00
   7.06528E-01  3.01410E-01 -6.68786E-02 -3.98733E-01 -6.95462E-01 -9.59043E-01 -1.19191E+00 -1.39674E+00 -1.57631E+00 -1.73338E+00
  -1.87060E+00 -1.99043E+00 -2.09512E+00 -2.18668E+00 -2.26689E+00 -2.33731E+00 -2.39928E+00 -2.45397E+00 -2.50236E+00 -2.54528E+00
  -2.58346E+00 -2.61750E+00 -2.64791E+00 -2.67515E+00 -2.69958E+00 -2.72152E+00 -2.74124E+00 -2.75899E+00 -2.77497E+00 -2.78936E+00
  -2.80231E+00 -2.81395E+00 -2.82441E+00 -2.83379E+00 -2.84218E+00 -2.84967E+00 -2.85634E+00 -2.86224E+00 -2.86743E+00 -2.87197E+00
  -2.87591E+00 -2.87929E+00 -2.88215E+00 -2.88452E+00 -2.88644E+00 -2.88794E+00 -2.88904E+00 -2.88978E+00 -2.89016E+00 -2.89021E+00
  -2.88996E+00 -2.88941E+00 -2.88859E+00 -2.88750E+00 -2.88617E+00 -2.88460E+00 -2.88281E+00 -2.88081E+00 -2.87860E+00 -2.87620E+00
  -2.87361E+00 -2.87084E+00 -2.86789E+00 -2.86479E+00 -2.86151E+00 -2.85808E+00 -2.85450E+00 -2.85076E+00 -2.84688E+00 -2.84285E+00
  -2.83868E+00 -2.83435E+00 -2.82988E+00 -2.82525E+00 -2.82048E+00 -2.81553E+00 -2.81042E+00 -2.80512E+00
 NY background values follow
    -6.830E+00   -6.822E+00   -6.815E+00   -6.807E+00   -6.799E+00   -6.792E+00   -6.784E+00   -6.776E+00   -6.768E+00   -6.761E+00
    -6.753E+00   -6.745E+00   -6.738E+00   -6.730E+00   -6.722E+00   -6.715E+00   -6.707E+00   -6.699E+00   -6.692E+00   -6.684E+00
    -6.676E+00   -6.668E+00   -6.661E+00   -6.653E+00   -6.645E+00   -6.638E+00   -6.630E+00   -6.622E+00   -6.615E+00   -6.607E+00
    -6.599E+00   -6.591E+00   -6.584E+00   -6.576E+00   -6.568E+00   -6.561E+00   -6.553E+00   -6.545E+00   -6.538E+00   -6.530E+00
    -6.522E+00   -6.515E+00   -6.507E+00   -6.499E+00   -6.491E+00   -6.484E+00   -6.476E+00   -6.468E+00   -6.461E+00   -6.453E+00
    -6.445E+00   -6.438E+00   -6.430E+00   -6.422E+00   -6.414E+00   -6.407E+00   -6.399E+00   -6.391E+00   -6.384E+00   -6.376E+00
    -6.368E+00   -6.361E+00   -6.353E+00   -6.345E+00   -6.337E+00   -6.330E+00   -6.322E+00   -6.314E+00   -6.307E+00   -6.299E+00
    -6.291E+00   -6.284E+00   -6.276E+00   -6.268E+00   -6.260E+00   -6.253E+00   -6.245E+00   -6.237E+00   -6.230E+00   -6.222E+00
    -6.214E+00   -6.207E+00   -6.199E+00   -6.191E+00   -6.183E+00   -6.176E+00   -6.168E+00   -6.160E+00   -6.153E+00   -6.145E+00
    -6.137E+00   -6.129E+00   -6.122E+00   -6.114E+00   -6.106E+00   -6.099E+00   -6.091E+00   -6.083E+00   -6.076E+00   -6.068E+00
    -6.060E+00   -6.052E+00   -6.045E+00   -6.037E+00   -6.029E+00   -6.022E+00   -6.014E+00   -6.006E+00   -5.998E+00   -5.991E+00
    -5.983E+00   -5.975E+00   -5.968E+00   -5.960E+00   -5.952E+00   -5.945E+00   -5.937E+00   -5.929E+00   -5.921E+00   -5.914E+00
    -5.906E+00   -5.898E+00   -5.891E+00   -5.883E+00   -5.875E+00   -5.867E+00   -5.860E+00   -5.852E+00   -5.844E+00   -5.837E+00
    -5.829E+00   -5.821E+00   -5.813E+00   -5.806E+00   -5.798E+00   -5.790E+00   -5.783E+00   -5.775E+00   -5.767E+00   -5.759E+00
    -5.752E+00   -5.744E+00   -5.736E+00   -5.729E+00   -5.721E+00   -5.713E+00   -5.705E+00   -5.698E+00   -5.690E+00   -5.682E+00
    -5.675E+00   -5.667E+00   -5.659E+00   -5.651E+00   -5.644E+00   -5.636E+00   -5.628E+00   -5.621E+00   -5.613E+00   -5.605E+00
    -5.597E+00   -5.590E+00   -5.582E+00   -5.574E+00   -5.567E+00   -5.559E+00   -5.551E+00   -5.543E+00   -5.536E+00   -5.528E+00
    -5.520E+00   -5.512E+00   -5.505E+00   -5.497E+00   -5.489E+00   -5.482E+00   -5.474E+00   -5.466E+00   -5.458E+00   -5.451E+00
    -5.443E+00   -5.435E+00   -5.428E+00   -5.420E+00   -5.412E+00   -5.404E+00   -5.397E+00   -5.389E+00   -5.381E+00   -5.373E+00
    -5.366E+00   -5.358E+00   -5.350E+00   -5.343E+00   -5.335E+00   -5.327E+00   -5.319E+00   -5.312E+00   -5.304E+00   -5.296E+00
    -5.288E+00   -5.281E+00   -5.273E+00   -5.265E+00   -5.258E+00   -5.250E+00   -5.242E+00   -5.234E+00   -5.227E+00   -5.219E+00
    -5.211E+00   -5.203E+00   -5.196E+00   -5.188E+00   -5.180E+00   -5.173E+00   -5.165E+00   -5.157E+00   -5.149E+00   -5.142E+00
    -5.134E+00   -5.126E+00   -5.118E+00   -5.111E+00   -5.103E+00   -5.095E+00   -5.088E+00   -5.080E+00   -5.072E+00   -5.064E+00
    -5.057E+00   -5.049E+00   -5.041E+00   -5.033E+00   -5.026E+00   -5.018E+00   -5.010E+00   -5.002E+00   -4.995E+00   -4.987E+00
    -4.979E+00   -4.971E+00   -4.964E+00   -4.956E+00   -4.948E+00   -4.941E+00   -4.933E+00   -4.925E+00   -4.917E+00   -4.910E+00
    -4.902E+00   -4.894E+00   -4.886E+00   -4.879E+00   -4.871E+00   -4.863E+00   -4.855E+00   -4.848E+00   -4.840E+00   -4.832E+00
    -4.824E+00   -4.817E+00   -4.809E+00   -4.801E+00   -4.793E+00   -4.786E+00   -4.778E+00   -4.770E+00   -4.763E+00   -4.755E+00
    -4.747E+00   -4.739E+00   -4.732E+00   -4.724E+00   -4.716E+00   -4.708E+00   -4.701E+00   -4.693E+00   -4.685E+00   -4.677E+00
    -4.670E+00   -4.662E+00   -4.654E+00   -4.646E+00   -4.639E+00   -4.631E+00   -4.623E+00   -4.615E+00   -4.608E+00   -4.600E+00
    -4.592E+00   -4.584E+00   -4.577E+00   -4.569E+00   -4.561E+00   -4.553E+00   -4.546E+00   -4.538E+00   -4.530E+00   -4.522E+00
    -4.515E+00   -4.507E+00   -4.499E+00   -4.491E+00   -4.484E+00   -4.476E+00   -4.468E+00   -4.460E+00   -4.453E+00   -4.445E+00
    -4.437E+00   -4.429E+00   -4.422E+00   -4.414E+00   -4.406E+00   -4.398E+00   -4.391E+00   -4.383E+00   -4.375E+00   -4.367E+00
    -4.360E+00   -4.352E+00   -4.344E+00   -4.336E+00   -4.329E+00   -4.321E+00   -4.313E+00   -4.305E+00   -4.298E+00   -4.290E+00
    -4.282E+00   -4.274E+00   -4.267E+00   -4.259E+00   -4.251E+00   -4.243E+00   -4.236E+00   -4.228E+00   -4.220E+00   -4.212E+00
    -4.205E+00   -4.197E+00   -4.189E+00   -4.181E+00   -4.174E+00   -4.166E+00   -4.158E+00   -4.150E+00   -4.143E+00   -4.135E+00
    -4.127E+00   -4.119E+00   -4.112E+00   -4.104E+00   -4.096E+00   -4.088E+00   -4.081E+00   -4.073E+00   -4.065E+00   -4.057E+00
    -4.050E+00   -4.042E+00   -4.034E+00   -4.026E+00   -4.019E+00   -4.011E+00   -4.003E+00   -3.995E+00   -3.988E+00   -3.980E+00
    -3.972E+00   -3.964E+00   -3.957E+00   -3.949E+00   -3.941E+00   -3.933E+00   -3.926E+00   -3.918E+00   -3.910E+00   -3.902E+00
    -3.894E+00   -3.887E+00   -3.879E+00   -3.871E+00   -3.863E+00   -3.856E+00   -3.848E+00   -3.840E+00   -3.832E+00   -3.825E+00
    -3.817E+00   -3.809E+00   -3.801E+00   -3.794E+00   -3.786E+00   -3.778E+00   -3.770E+00   -3.763E+00   -3.755E+00   -3.747E+00
    -3.739E+00   -3.732E+00   -3.724E+00   -3.716E+00   -3.708E+00   -3.701E+00   -3.693E+00   -3.685E+00   -3.677E+00   -3.669E+00
    -3.662E+00   -3.654E+00   -3.646E+00   -3.638E+00   -3.631E+00   -3.623E+00   -3.615E+00   -3.607E+00   -3.600E+00   -3.592E+00
    -3.584E+00   -3.576E+00   -3.569E+00   -3.561E+00   -3.553E+00   -3.545E+00   -3.538E+00   -3.530E+00   -3.522E+00   -3.514E+00
    -3.506E+00   -3.499E+00   -3.491E+00   -3.483E+00   -3.475E+00   -3.468E+00   -3.460E+00   -3.452E+00   -3.444E+00   -3.437E+00
    -3.429E+00   -3.421E+00   -3.413E+00   -3.406E+00   -3.398E+00   -3.390E+00   -3.382E+00   -3.375E+00   -3.367E+00   -3.359E+00
    -3.351E+00   -3.343E+00   -3.336E+00   -3.328E+00   -3.320E+00   -3.312E+00   -3.305E+00   -3.297E+00   -3.289E+00   -3.281E+00
    -3.274E+00   -3.266E+00   -3.258E+00   -3.250E+00   -3.243E+00   -3.235E+00   -3.227E+00   -3.219E+00   -3.211E+00   -3.204E+00
    -3.196E+00   -3.188E+00   -3.180E+00   -3.173E+00   -3.165E+00   -3.157E+00   -3.149E+00   -3.142E+00   -3.134E+00   -3.126E+00
    -3.118E+00   -3.111E+00   -3.103E+00   -3.095E+00   -3.087E+00   -3.079E+00   -3.072E+00   -3.064E+00   -3.056E+00   -3.048E+00
    -3.041E+00   -3.033E+00   -3.025E+00   -3.017E+00   -3.010E+00   -3.002E+00   -2.994E+00   -2.986E+00
 Ala      Conc. = 1.84E+02
