 LCModel (Version 6.3-1L) Copyright: S.W. Provencher.          Ref.: Magn. Reson. Med. 30:672-679 (1993).                
 Slice#3 Row#3 Col#4  PD_24_press_1_raw_act
 36 lines in following concentration table = NCONC+1
    Conc.  %SD /Cr+PCr  Metabolite                                         
 8.39E+03  19%  19.969 Ala                                                 
   56.202  30%   0.134 Asp                                                 
  419.976  21%   1.000 Cr                                                  
    0.000 999%   0.000 PCr                                                 
   33.429  31% 8.0E-02 GABA                                                
   34.134  30% 8.1E-02 Glc                                                 
 1.80E+03  58%   4.280 Gln                                                 
 1.51E+03  92%   3.607 Glu                                                 
    0.000 999%   0.000 GPC                                                 
  233.940  17%   0.557 PCh                                                 
  344.323  59%   0.820 GSH                                                 
 1.72E+03  27%   4.096 Ins                                                 
 1.21E+03 152%   2.893 Lac                                                 
    0.000 999%   0.000 NAA                                                 
    0.000 999%   0.000 NAAG                                                
   11.864  29% 2.8E-02 Scyllo                                              
   58.351  29%   0.139 Tau                                                 
   41.039  49% 9.8E-02 -CrCH2                                              
  233.940  17%   0.557 GPC+PCh                                             
    0.000 999%   0.000 NAA+NAAG                                            
  419.976  21%   1.000 Cr+PCr                                              
 3.31E+03  68%   7.887 Glu+Gln                                             
 3.05E+04   6%  72.579 Lip13a                                              
    0.000 999%   0.000 Lip13b                                              
 9.21E+03   8%  21.937 Lip09                                               
    0.000 999%   0.000 MM09                                                
    0.000 999%   0.000-Lip20                                               
    0.000 999%   0.000 MM20                                                
  204.794 311%   0.488 MM12                                                
 1.62E+04   9%  38.540+MM14                                                
 3.32E+03  15%   7.910 MM17                                                
 3.05E+04   6%  72.579 Lip13a+Lip13b                                       
 4.69E+04   4% 111.607 MM14+Lip13a+Lip13b+MM12                             
 9.21E+03   8%  21.937 MM09+Lip09                                          
    0.000 999%   0.000 MM20+Lip20                                          
   6 lines in following misc. output table
  FWHM = 0.168 ppm    S/N =  23                                            
  Data shift = 0.183 ppm                                                   
  Ph:  46 deg     -27.8 deg/ppm                                            
  alphaB,S = 8.5E+01,   4.1E+02                                            
    6 spline knots.   Ns = 9(2)                                            
  (11) 2 infls.   ( 1) 1 extrs.                                            
  498 points on ppm-axis = NY
      4.000000     3.992357     3.984714     3.977070     3.969427     3.961784     3.954141     3.946497     3.938854     3.931211
      3.923568     3.915925     3.908281     3.900638     3.892995     3.885352     3.877708     3.870065     3.862422     3.854779
      3.847136     3.839492     3.831849     3.824206     3.816563     3.808919     3.801276     3.793633     3.785990     3.778347
      3.770703     3.763060     3.755417     3.747774     3.740130     3.732487     3.724844     3.717201     3.709558     3.701914
      3.694271     3.686628     3.678985     3.671341     3.663698     3.656055     3.648412     3.640769     3.633125     3.625482
      3.617839     3.610196     3.602552     3.594909     3.587266     3.579623     3.571980     3.564336     3.556693     3.549050
      3.541407     3.533763     3.526120     3.518477     3.510834     3.503191     3.495547     3.487904     3.480261     3.472618
      3.464974     3.457331     3.449688     3.442045     3.434402     3.426758     3.419115     3.411472     3.403829     3.396185
      3.388542     3.380899     3.373256     3.365613     3.357969     3.350326     3.342683     3.335040     3.327396     3.319753
      3.312110     3.304467     3.296824     3.289180     3.281537     3.273894     3.266251     3.258607     3.250964     3.243321
      3.235678     3.228034     3.220391     3.212748     3.205105     3.197462     3.189818     3.182175     3.174532     3.166889
      3.159245     3.151602     3.143959     3.136316     3.128673     3.121029     3.113386     3.105743     3.098100     3.090456
      3.082813     3.075170     3.067527     3.059884     3.052240     3.044597     3.036954     3.029311     3.021667     3.014024
      3.006381     2.998738     2.991095     2.983451     2.975808     2.968165     2.960522     2.952878     2.945235     2.937592
      2.929949     2.922306     2.914662     2.907019     2.899376     2.891733     2.884089     2.876446     2.868803     2.861160
      2.853517     2.845873     2.838230     2.830587     2.822944     2.815300     2.807657     2.800014     2.792371     2.784728
      2.777084     2.769441     2.761798     2.754155     2.746511     2.738868     2.731225     2.723582     2.715939     2.708295
      2.700652     2.693009     2.685366     2.677722     2.670079     2.662436     2.654793     2.647150     2.639506     2.631863
      2.624220     2.616577     2.608933     2.601290     2.593647     2.586004     2.578361     2.570717     2.563074     2.555431
      2.547788     2.540144     2.532501     2.524858     2.517215     2.509572     2.501928     2.494285     2.486642     2.478999
      2.471355     2.463712     2.456069     2.448426     2.440783     2.433139     2.425496     2.417853     2.410210     2.402566
      2.394923     2.387280     2.379637     2.371994     2.364350     2.356707     2.349064     2.341421     2.333777     2.326134
      2.318491     2.310848     2.303205     2.295561     2.287918     2.280275     2.272632     2.264988     2.257345     2.249702
      2.242059     2.234416     2.226772     2.219129     2.211486     2.203843     2.196199     2.188556     2.180913     2.173270
      2.165627     2.157983     2.150340     2.142697     2.135054     2.127410     2.119767     2.112124     2.104481     2.096838
      2.089194     2.081551     2.073908     2.066265     2.058621     2.050978     2.043335     2.035692     2.028049     2.020405
      2.012762     2.005119     1.997476     1.989833     1.982190     1.974546     1.966903     1.959260     1.951617     1.943974
      1.936331     1.928688     1.921045     1.913402     1.905759     1.898115     1.890472     1.882829     1.875186     1.867543
      1.859900     1.852257     1.844614     1.836971     1.829327     1.821684     1.814041     1.806398     1.798755     1.791112
      1.783469     1.775826     1.768183     1.760540     1.752896     1.745253     1.737610     1.729967     1.722324     1.714681
      1.707038     1.699395     1.691752     1.684108     1.676465     1.668822     1.661179     1.653536     1.645893     1.638250
      1.630607     1.622964     1.615321     1.607677     1.600034     1.592391     1.584748     1.577105     1.569462     1.561819
      1.554176     1.546533     1.538890     1.531246     1.523603     1.515960     1.508317     1.500674     1.493031     1.485388
      1.477745     1.470102     1.462458     1.454815     1.447172     1.439529     1.431886     1.424243     1.416600     1.408957
      1.401314     1.393671     1.386027     1.378384     1.370741     1.363098     1.355455     1.347812     1.340169     1.332526
      1.324883     1.317240     1.309596     1.301953     1.294310     1.286667     1.279024     1.271381     1.263738     1.256095
      1.248452     1.240808     1.233165     1.225522     1.217879     1.210236     1.202593     1.194950     1.187307     1.179664
      1.172021     1.164377     1.156734     1.149091     1.141448     1.133805     1.126162     1.118519     1.110876     1.103233
      1.095590     1.087946     1.080303     1.072660     1.065017     1.057374     1.049731     1.042088     1.034445     1.026802
      1.019158     1.011515     1.003872     0.996229     0.988586     0.980943     0.973300     0.965657     0.958014     0.950371
      0.942727     0.935084     0.927441     0.919798     0.912155     0.904512     0.896869     0.889226     0.881583     0.873940
      0.866296     0.858653     0.851010     0.843367     0.835724     0.828081     0.820438     0.812795     0.805152     0.797508
      0.789865     0.782222     0.774579     0.766936     0.759293     0.751650     0.744007     0.736364     0.728721     0.721077
      0.713434     0.705791     0.698148     0.690505     0.682862     0.675219     0.667576     0.659933     0.652290     0.644646
      0.637003     0.629360     0.621717     0.614074     0.606431     0.598788     0.591145     0.583502     0.575858     0.568215
      0.560572     0.552929     0.545286     0.537643     0.530000     0.522357     0.514714     0.507071     0.499427     0.491784
      0.484141     0.476498     0.468855     0.461212     0.453569     0.445925     0.438282     0.430639     0.422996     0.415353
      0.407710     0.400067     0.392424     0.384780     0.377137     0.369494     0.361851     0.354208     0.346565     0.338922
      0.331278     0.323635     0.315992     0.308349     0.300706     0.293063     0.285420     0.277777     0.270133     0.262490
      0.254847     0.247204     0.239561     0.231918     0.224275     0.216631     0.208988     0.201345
 NY phased data points follow
   1.27801E+01  1.52439E+01  1.50991E+01  1.74666E+01  1.25428E+01  1.42371E+01  1.18276E+01  1.50279E+01  1.73779E+01  1.71551E+01
   1.45627E+01  1.59863E+01  1.29431E+01  1.95142E+01  1.58913E+01  1.91177E+01  1.59641E+01  1.68562E+01  1.73439E+01  1.68558E+01
   1.72707E+01  1.94035E+01  1.43722E+01  1.89475E+01  1.92163E+01  1.94527E+01  1.76924E+01  2.10906E+01  1.72972E+01  2.29496E+01
   1.85956E+01  2.27056E+01  1.88277E+01  2.30854E+01  1.94365E+01  2.13848E+01  2.07717E+01  2.55790E+01  2.11438E+01  2.29387E+01
   1.73494E+01  2.13452E+01  2.37322E+01  2.47149E+01  2.54732E+01  2.21697E+01  1.91476E+01  2.74703E+01  2.14106E+01  2.27334E+01
   2.15618E+01  2.72151E+01  2.33912E+01  2.96346E+01  2.65741E+01  2.79410E+01  2.33327E+01  2.75150E+01  2.58017E+01  2.55156E+01
   2.49172E+01  2.81248E+01  2.52164E+01  2.73157E+01  2.23806E+01  2.87860E+01  3.15876E+01  2.79186E+01  2.90079E+01  3.02365E+01
   2.76858E+01  3.04312E+01  2.69985E+01  3.25660E+01  2.67708E+01  2.90633E+01  2.83173E+01  2.78663E+01  2.66373E+01  3.33000E+01
   3.14914E+01  3.29484E+01  2.87241E+01  3.46191E+01  3.24596E+01  3.54821E+01  3.28832E+01  3.61535E+01  3.26129E+01  3.48669E+01
   3.03887E+01  3.66215E+01  3.17785E+01  3.48833E+01  3.30650E+01  3.58018E+01  3.65198E+01  3.80430E+01  3.38258E+01  3.65698E+01
   3.61004E+01  3.76550E+01  2.80033E+01  3.62448E+01  3.97807E+01  3.33864E+01  3.41420E+01  3.50655E+01  3.24120E+01  3.66969E+01
   3.35005E+01  4.03691E+01  3.69390E+01  3.80579E+01  3.42318E+01  3.74529E+01  3.36406E+01  3.62146E+01  3.28005E+01  3.91371E+01
   3.83938E+01  3.96154E+01  3.73756E+01  3.95806E+01  3.45779E+01  3.34500E+01  3.21341E+01  4.03180E+01  3.54579E+01  3.84085E+01
   3.81668E+01  3.84998E+01  3.62771E+01  3.88891E+01  3.96626E+01  3.93631E+01  3.84089E+01  3.89148E+01  3.47075E+01  3.77016E+01
   3.51327E+01  3.77089E+01  3.83973E+01  3.93020E+01  3.34603E+01  4.06703E+01  4.08839E+01  3.85872E+01  3.49663E+01  3.93337E+01
   3.76675E+01  3.97885E+01  3.94057E+01  3.80638E+01  3.54868E+01  3.47865E+01  3.84508E+01  3.97806E+01  3.71438E+01  3.73697E+01
   3.77111E+01  3.75564E+01  4.05703E+01  3.94727E+01  3.89726E+01  4.10133E+01  4.37000E+01  3.79444E+01  3.69962E+01  4.56842E+01
   3.74933E+01  4.22312E+01  4.27849E+01  4.07140E+01  4.32022E+01  4.41987E+01  4.42787E+01  4.38690E+01  3.98512E+01  4.42793E+01
   4.41879E+01  4.34263E+01  4.52909E+01  4.38111E+01  4.77704E+01  4.74019E+01  4.89478E+01  4.80908E+01  4.55906E+01  4.80589E+01
   5.00533E+01  5.28052E+01  4.66163E+01  5.29144E+01  5.19173E+01  5.20404E+01  4.87692E+01  5.23374E+01  5.39291E+01  5.36627E+01
   5.29754E+01  5.04512E+01  5.08295E+01  5.10671E+01  4.80286E+01  5.12861E+01  4.87468E+01  5.02627E+01  4.90510E+01  4.92605E+01
   5.04924E+01  5.15306E+01  5.10534E+01  5.31738E+01  4.73489E+01  5.22160E+01  4.95060E+01  5.05787E+01  5.16058E+01  5.42385E+01
   5.45059E+01  5.49774E+01  5.58390E+01  5.07171E+01  5.32951E+01  5.33940E+01  5.10097E+01  5.11503E+01  5.32738E+01  5.43175E+01
   5.52200E+01  5.53924E+01  5.66970E+01  5.57886E+01  5.16434E+01  5.28258E+01  4.95621E+01  5.66953E+01  5.59058E+01  5.66785E+01
   5.46547E+01  5.44306E+01  5.60889E+01  5.46556E+01  5.46315E+01  5.74024E+01  5.33036E+01  5.44170E+01  5.56423E+01  5.41800E+01
   5.24182E+01  5.25058E+01  5.26393E+01  4.95895E+01  5.17808E+01  5.29184E+01  5.28205E+01  5.75005E+01  5.39714E+01  5.44684E+01
   5.46622E+01  5.94688E+01  6.00369E+01  5.81694E+01  5.82752E+01  6.08029E+01  6.15762E+01  6.36701E+01  6.59363E+01  6.93495E+01
   6.43782E+01  6.59570E+01  7.10160E+01  7.32363E+01  7.07128E+01  7.21560E+01  7.12518E+01  7.21070E+01  7.34060E+01  7.50077E+01
   7.26121E+01  7.66319E+01  7.49862E+01  7.41460E+01  7.48207E+01  7.69229E+01  7.57203E+01  7.52691E+01  7.82491E+01  7.88683E+01
   7.70463E+01  7.43649E+01  7.74445E+01  8.13391E+01  8.18527E+01  7.90528E+01  8.17556E+01  7.87368E+01  8.29561E+01  8.39831E+01
   8.88808E+01  8.89123E+01  9.03275E+01  8.93014E+01  9.45584E+01  9.69408E+01  9.79397E+01  1.03813E+02  1.02865E+02  1.08953E+02
   1.11488E+02  1.15870E+02  1.16988E+02  1.21416E+02  1.24902E+02  1.26390E+02  1.36368E+02  1.38702E+02  1.45008E+02  1.45803E+02
   1.51541E+02  1.55444E+02  1.60304E+02  1.63722E+02  1.68276E+02  1.71462E+02  1.70711E+02  1.74978E+02  1.73451E+02  1.74013E+02
   1.73004E+02  1.67495E+02  1.69422E+02  1.68507E+02  1.64001E+02  1.66023E+02  1.62551E+02  1.55626E+02  1.56788E+02  1.55167E+02
   1.52382E+02  1.47976E+02  1.45044E+02  1.42848E+02  1.41195E+02  1.35078E+02  1.34138E+02  1.33151E+02  1.30583E+02  1.25582E+02
   1.25733E+02  1.23880E+02  1.22740E+02  1.19421E+02  1.20766E+02  1.15241E+02  1.12569E+02  1.12241E+02  1.08251E+02  1.09364E+02
   1.11026E+02  1.05804E+02  1.10287E+02  1.05642E+02  1.06329E+02  1.03839E+02  1.00372E+02  9.79824E+01  1.01526E+02  9.37527E+01
   9.57966E+01  9.39710E+01  8.96416E+01  8.96033E+01  8.70502E+01  8.67043E+01  8.43156E+01  8.63776E+01  8.42865E+01  8.30594E+01
   8.05659E+01  7.95430E+01  7.63602E+01  7.48927E+01  8.03864E+01  8.04392E+01  8.01822E+01  7.15202E+01  7.67830E+01  7.24188E+01
   7.43457E+01  7.22077E+01  7.28846E+01  7.42465E+01  7.04327E+01  7.08087E+01  6.63389E+01  6.33922E+01  6.75842E+01  6.42908E+01
   6.60589E+01  6.64341E+01  6.33034E+01  6.43736E+01  6.51332E+01  6.48592E+01  6.06408E+01  6.01261E+01  6.38902E+01  5.60559E+01
   5.61907E+01  5.92831E+01  5.32258E+01  5.67418E+01  5.91722E+01  5.44778E+01  5.49253E+01  4.92064E+01  5.31009E+01  4.71480E+01
   5.38553E+01  4.70427E+01  4.95608E+01  4.85372E+01  4.64881E+01  4.30487E+01  4.58098E+01  4.59287E+01  4.88856E+01  4.13001E+01
   4.38801E+01  4.13512E+01  4.38191E+01  3.93949E+01  4.12178E+01  3.97100E+01  3.93534E+01  4.00980E+01  3.89790E+01  3.86808E+01
   3.78084E+01  3.89352E+01  3.85925E+01  3.64329E+01  3.88884E+01  3.60986E+01  3.87791E+01  3.21937E+01  3.36722E+01  3.68847E+01
   3.61654E+01  3.44617E+01  3.22117E+01  3.42656E+01  3.02897E+01  2.99078E+01  3.19729E+01  2.93233E+01  3.07130E+01  2.63305E+01
   3.25652E+01  3.03442E+01  2.50750E+01  2.98689E+01  2.53805E+01  2.76236E+01  2.89821E+01  2.71776E+01  2.73483E+01  2.48489E+01
   2.54960E+01  2.29238E+01  2.38253E+01  2.21438E+01  2.37360E+01  2.28564E+01  2.27480E+01  1.90139E+01  1.78155E+01  1.83744E+01
   2.23595E+01  2.03631E+01  2.00653E+01  2.17656E+01  2.05981E+01  1.84262E+01  1.86513E+01  1.97059E+01  1.69781E+01  1.80947E+01
   1.45261E+01  1.74154E+01  1.98570E+01  1.89863E+01  1.97975E+01  1.62682E+01  1.60917E+01  1.50773E+01
 NY points of the fit to the data follow
   1.29153E+01  1.37129E+01  1.32874E+01  1.43246E+01  1.39412E+01  1.51497E+01  1.47076E+01  1.57416E+01  1.47648E+01  1.59201E+01
   1.46392E+01  1.62308E+01  1.47241E+01  1.67877E+01  1.53014E+01  1.79040E+01  1.60523E+01  1.89070E+01  1.66155E+01  1.96089E+01
   1.69713E+01  2.00529E+01  1.70826E+01  2.03496E+01  1.72363E+01  2.06725E+01  1.75861E+01  2.11552E+01  1.83180E+01  2.18798E+01
   1.92128E+01  2.24862E+01  2.00180E+01  2.28825E+01  2.05658E+01  2.29707E+01  2.09508E+01  2.28881E+01  2.12049E+01  2.27158E+01
   2.14991E+01  2.28058E+01  2.19908E+01  2.30386E+01  2.25360E+01  2.32842E+01  2.29385E+01  2.32875E+01  2.28205E+01  2.30923E+01
   2.27862E+01  2.31530E+01  2.30199E+01  2.35262E+01  2.36154E+01  2.42943E+01  2.43218E+01  2.49036E+01  2.48628E+01  2.53849E+01
   2.52799E+01  2.57591E+01  2.55758E+01  2.60963E+01  2.59520E+01  2.65071E+01  2.64104E+01  2.69886E+01  2.69168E+01  2.74531E+01
   2.73121E+01  2.77516E+01  2.76110E+01  2.80339E+01  2.79545E+01  2.83774E+01  2.83774E+01  2.88089E+01  2.89123E+01  2.93351E+01
   2.95755E+01  3.00339E+01  3.04246E+01  3.09921E+01  3.16968E+01  3.23191E+01  3.29039E+01  3.35770E+01  3.39702E+01  3.47383E+01
   3.49343E+01  3.58146E+01  3.57873E+01  3.67769E+01  3.64651E+01  3.75258E+01  3.69036E+01  3.80331E+01  3.71015E+01  3.82818E+01
   3.70367E+01  3.82468E+01  3.67206E+01  3.79481E+01  3.62369E+01  3.74737E+01  3.57404E+01  3.70074E+01  3.54943E+01  3.67916E+01
   3.53571E+01  3.66520E+01  3.53362E+01  3.66331E+01  3.55151E+01  3.68139E+01  3.58320E+01  3.70868E+01  3.61892E+01  3.73853E+01
   3.65618E+01  3.77581E+01  3.70207E+01  3.82597E+01  3.75518E+01  3.87702E+01  3.77530E+01  3.88917E+01  3.76793E+01  3.87433E+01
   3.74505E+01  3.84339E+01  3.71633E+01  3.80634E+01  3.69046E+01  3.77218E+01  3.67325E+01  3.74717E+01  3.67046E+01  3.73689E+01
   3.68186E+01  3.74002E+01  3.70497E+01  3.75525E+01  3.73942E+01  3.78325E+01  3.78684E+01  3.82723E+01  3.84839E+01  3.88702E+01
   3.90492E+01  3.93726E+01  3.95551E+01  3.98430E+01  4.00367E+01  4.02953E+01  4.04780E+01  4.06957E+01  4.08824E+01  4.10822E+01
   4.12822E+01  4.14886E+01  4.16933E+01  4.19062E+01  4.20998E+01  4.23079E+01  4.24876E+01  4.26853E+01  4.28601E+01  4.30501E+01
   4.32275E+01  4.34195E+01  4.36064E+01  4.37945E+01  4.39730E+01  4.41191E+01  4.42669E+01  4.43788E+01  4.44662E+01  4.45814E+01
   4.46628E+01  4.48425E+01  4.49556E+01  4.52630E+01  4.53947E+01  4.57790E+01  4.58855E+01  4.63444E+01  4.63369E+01  4.67953E+01
   4.66256E+01  4.69813E+01  4.66401E+01  4.71936E+01  4.67828E+01  4.75798E+01  4.71447E+01  4.81874E+01  4.77508E+01  4.88210E+01
   4.83204E+01  4.93351E+01  4.87504E+01  4.96342E+01  4.89566E+01  4.97718E+01  4.91814E+01  4.99653E+01  4.95097E+01  5.02724E+01
   4.99676E+01  5.06720E+01  5.05064E+01  5.10593E+01  5.10165E+01  5.13886E+01  5.14203E+01  5.15744E+01  5.16277E+01  5.17655E+01
   5.18827E+01  5.20774E+01  5.22459E+01  5.25577E+01  5.26097E+01  5.29379E+01  5.28722E+01  5.32391E+01  5.30179E+01  5.33696E+01
   5.30080E+01  5.33316E+01  5.28692E+01  5.33636E+01  5.29265E+01  5.35477E+01  5.31743E+01  5.38571E+01  5.35465E+01  5.41167E+01
   5.38126E+01  5.42632E+01  5.40308E+01  5.43803E+01  5.42584E+01  5.45955E+01  5.46862E+01  5.50184E+01  5.52601E+01  5.56050E+01
   5.59445E+01  5.62898E+01  5.66817E+01  5.70120E+01  5.74241E+01  5.77658E+01  5.81889E+01  5.85326E+01  5.89508E+01  5.93870E+01
   5.98248E+01  6.03136E+01  6.07465E+01  6.12687E+01  6.16512E+01  6.21548E+01  6.25653E+01  6.30963E+01  6.35453E+01  6.41191E+01
   6.46339E+01  6.52554E+01  6.58489E+01  6.65409E+01  6.72177E+01  6.79799E+01  6.87243E+01  6.95317E+01  7.03123E+01  7.11425E+01
   7.19406E+01  7.27837E+01  7.36075E+01  7.44484E+01  7.52633E+01  7.60679E+01  7.68455E+01  7.75782E+01  7.82863E+01  7.89411E+01
   7.95665E+01  8.01402E+01  8.06909E+01  8.12066E+01  8.17178E+01  8.22290E+01  8.27663E+01  8.33434E+01  8.39904E+01  8.47318E+01
   8.56005E+01  8.66326E+01  8.78652E+01  8.93473E+01  9.11284E+01  9.32753E+01  9.58731E+01  9.90639E+01  1.03115E+02  1.07922E+02
   1.11410E+02  1.16398E+02  1.19167E+02  1.24150E+02  1.26281E+02  1.31104E+02  1.32584E+02  1.39081E+02  1.41099E+02  1.48300E+02
   1.50374E+02  1.57309E+02  1.58935E+02  1.64992E+02  1.65810E+02  1.70521E+02  1.70460E+02  1.73407E+02  1.72670E+02  1.73812E+02
   1.72509E+02  1.71763E+02  1.70355E+02  1.67964E+02  1.66807E+02  1.62988E+02  1.62170E+02  1.57490E+02  1.57115E+02  1.51906E+02
   1.51728E+02  1.46236E+02  1.46086E+02  1.40677E+02  1.40549E+02  1.35538E+02  1.35477E+02  1.31391E+02  1.31456E+02  1.28443E+02
   1.27536E+02  1.24441E+02  1.22959E+02  1.20045E+02  1.18125E+02  1.15592E+02  1.13537E+02  1.12221E+02  1.11004E+02  1.09977E+02
   1.08919E+02  1.07847E+02  1.06745E+02  1.05521E+02  1.04306E+02  1.02904E+02  1.01575E+02  1.00084E+02  9.86796E+01  9.71764E+01
   9.56060E+01  9.39053E+01  9.22568E+01  9.04745E+01  8.88178E+01  8.70727E+01  8.54923E+01  8.40300E+01  8.26560E+01  8.13645E+01
   8.01507E+01  7.90152E+01  7.79547E+01  7.69692E+01  7.60543E+01  7.52085E+01  7.44258E+01  7.37033E+01  7.30335E+01  7.24126E+01
   7.18320E+01  7.12873E+01  7.07692E+01  7.02732E+01  6.97899E+01  6.93150E+01  6.88397E+01  6.83601E+01  6.78682E+01  6.73613E+01
   6.68326E+01  6.62806E+01  6.56999E+01  6.50904E+01  6.44482E+01  6.37748E+01  6.30678E+01  6.23301E+01  6.15604E+01  6.07629E+01
   5.99374E+01  5.90891E+01  5.82186E+01  5.73314E+01  5.64286E+01  5.55161E+01  5.45951E+01  5.36713E+01  5.27458E+01  5.18241E+01
   5.09068E+01  4.99991E+01  4.91010E+01  4.82172E+01  4.73471E+01  4.64949E+01  4.56594E+01  4.48444E+01  4.40480E+01  4.32736E+01
   4.25189E+01  4.17868E+01  4.10747E+01  4.03852E+01  3.97154E+01  3.90677E+01  3.84390E+01  3.78315E+01  3.72419E+01  3.66724E+01
   3.61196E+01  3.55856E+01  3.50671E+01  3.45660E+01  3.40791E+01  3.36084E+01  3.31505E+01  3.27075E+01  3.22760E+01  3.18583E+01
   3.14510E+01  3.10563E+01  3.06708E+01  3.02969E+01  2.99313E+01  2.95763E+01  2.92287E+01  2.88908E+01  2.85594E+01  2.82371E+01
   2.79204E+01  2.76121E+01  2.73088E+01  2.70132E+01  2.67221E+01  2.64380E+01  2.61578E+01  2.58841E+01  2.56139E+01  2.53497E+01
   2.50885E+01  2.48330E+01  2.45800E+01  2.43322E+01  2.40867E+01  2.38460E+01  2.36072E+01  2.33729E+01  2.31402E+01  2.29117E+01
   2.26845E+01  2.24613E+01  2.22390E+01  2.20204E+01  2.18025E+01  2.15881E+01  2.13741E+01  2.11633E+01  2.09526E+01  2.07448E+01
   2.05369E+01  2.03316E+01  2.01257E+01  1.99222E+01  1.97177E+01  1.95151E+01  1.93111E+01  1.91083E+01
 NY background values follow
    -4.019E+00   -3.770E+00   -3.522E+00   -3.274E+00   -3.027E+00   -2.781E+00   -2.536E+00   -2.292E+00   -2.048E+00   -1.805E+00
    -1.563E+00   -1.322E+00   -1.082E+00   -8.421E-01   -6.034E-01   -3.656E-01   -1.286E-01    1.075E-01    3.428E-01    5.772E-01
     8.108E-01    1.043E+00    1.275E+00    1.506E+00    1.736E+00    1.965E+00    2.194E+00    2.421E+00    2.648E+00    2.873E+00
     3.098E+00    3.322E+00    3.545E+00    3.767E+00    3.988E+00    4.208E+00    4.427E+00    4.646E+00    4.863E+00    5.079E+00
     5.295E+00    5.509E+00    5.723E+00    5.936E+00    6.147E+00    6.358E+00    6.568E+00    6.777E+00    6.985E+00    7.192E+00
     7.398E+00    7.603E+00    7.807E+00    8.010E+00    8.212E+00    8.413E+00    8.613E+00    8.812E+00    9.010E+00    9.207E+00
     9.403E+00    9.599E+00    9.793E+00    9.986E+00    1.018E+01    1.037E+01    1.056E+01    1.075E+01    1.094E+01    1.112E+01
     1.131E+01    1.149E+01    1.168E+01    1.186E+01    1.204E+01    1.222E+01    1.240E+01    1.258E+01    1.276E+01    1.294E+01
     1.311E+01    1.329E+01    1.346E+01    1.363E+01    1.380E+01    1.397E+01    1.414E+01    1.431E+01    1.448E+01    1.464E+01
     1.481E+01    1.497E+01    1.514E+01    1.530E+01    1.546E+01    1.562E+01    1.578E+01    1.593E+01    1.609E+01    1.625E+01
     1.640E+01    1.655E+01    1.671E+01    1.686E+01    1.701E+01    1.716E+01    1.730E+01    1.745E+01    1.760E+01    1.774E+01
     1.788E+01    1.802E+01    1.817E+01    1.831E+01    1.844E+01    1.858E+01    1.872E+01    1.885E+01    1.899E+01    1.912E+01
     1.925E+01    1.939E+01    1.952E+01    1.964E+01    1.977E+01    1.990E+01    2.002E+01    2.015E+01    2.027E+01    2.039E+01
     2.052E+01    2.064E+01    2.075E+01    2.087E+01    2.099E+01    2.110E+01    2.122E+01    2.133E+01    2.144E+01    2.156E+01
     2.167E+01    2.177E+01    2.188E+01    2.199E+01    2.209E+01    2.220E+01    2.230E+01    2.240E+01    2.250E+01    2.260E+01
     2.270E+01    2.280E+01    2.290E+01    2.299E+01    2.309E+01    2.318E+01    2.327E+01    2.336E+01    2.345E+01    2.354E+01
     2.363E+01    2.371E+01    2.380E+01    2.388E+01    2.397E+01    2.405E+01    2.413E+01    2.421E+01    2.429E+01    2.436E+01
     2.444E+01    2.452E+01    2.459E+01    2.466E+01    2.473E+01    2.480E+01    2.487E+01    2.494E+01    2.501E+01    2.508E+01
     2.514E+01    2.521E+01    2.527E+01    2.533E+01    2.539E+01    2.545E+01    2.551E+01    2.557E+01    2.562E+01    2.568E+01
     2.573E+01    2.579E+01    2.584E+01    2.589E+01    2.594E+01    2.599E+01    2.603E+01    2.608E+01    2.613E+01    2.617E+01
     2.621E+01    2.626E+01    2.630E+01    2.634E+01    2.638E+01    2.641E+01    2.645E+01    2.649E+01    2.652E+01    2.655E+01
     2.659E+01    2.662E+01    2.665E+01    2.668E+01    2.671E+01    2.673E+01    2.676E+01    2.678E+01    2.681E+01    2.683E+01
     2.685E+01    2.687E+01    2.689E+01    2.691E+01    2.693E+01    2.695E+01    2.696E+01    2.698E+01    2.699E+01    2.700E+01
     2.701E+01    2.702E+01    2.703E+01    2.704E+01    2.705E+01    2.706E+01    2.706E+01    2.707E+01    2.707E+01    2.707E+01
     2.707E+01    2.707E+01    2.707E+01    2.707E+01    2.707E+01    2.706E+01    2.706E+01    2.705E+01    2.705E+01    2.704E+01
     2.703E+01    2.702E+01    2.701E+01    2.700E+01    2.699E+01    2.697E+01    2.696E+01    2.694E+01    2.693E+01    2.691E+01
     2.689E+01    2.687E+01    2.685E+01    2.683E+01    2.681E+01    2.678E+01    2.676E+01    2.674E+01    2.671E+01    2.668E+01
     2.666E+01    2.663E+01    2.660E+01    2.657E+01    2.654E+01    2.650E+01    2.647E+01    2.644E+01    2.640E+01    2.637E+01
     2.633E+01    2.629E+01    2.625E+01    2.621E+01    2.617E+01    2.613E+01    2.609E+01    2.605E+01    2.601E+01    2.596E+01
     2.592E+01    2.587E+01    2.582E+01    2.577E+01    2.573E+01    2.568E+01    2.563E+01    2.558E+01    2.552E+01    2.547E+01
     2.542E+01    2.536E+01    2.531E+01    2.525E+01    2.519E+01    2.514E+01    2.508E+01    2.502E+01    2.496E+01    2.490E+01
     2.484E+01    2.477E+01    2.471E+01    2.465E+01    2.458E+01    2.452E+01    2.445E+01    2.439E+01    2.432E+01    2.425E+01
     2.418E+01    2.411E+01    2.404E+01    2.397E+01    2.390E+01    2.383E+01    2.375E+01    2.368E+01    2.360E+01    2.353E+01
     2.345E+01    2.338E+01    2.330E+01    2.322E+01    2.314E+01    2.306E+01    2.298E+01    2.290E+01    2.282E+01    2.274E+01
     2.265E+01    2.257E+01    2.249E+01    2.240E+01    2.232E+01    2.223E+01    2.215E+01    2.206E+01    2.197E+01    2.188E+01
     2.180E+01    2.171E+01    2.162E+01    2.153E+01    2.143E+01    2.134E+01    2.125E+01    2.116E+01    2.107E+01    2.097E+01
     2.088E+01    2.078E+01    2.069E+01    2.059E+01    2.050E+01    2.040E+01    2.030E+01    2.020E+01    2.011E+01    2.001E+01
     1.991E+01    1.981E+01    1.971E+01    1.961E+01    1.951E+01    1.940E+01    1.930E+01    1.920E+01    1.910E+01    1.899E+01
     1.889E+01    1.879E+01    1.868E+01    1.858E+01    1.847E+01    1.837E+01    1.826E+01    1.815E+01    1.805E+01    1.794E+01
     1.783E+01    1.772E+01    1.762E+01    1.751E+01    1.740E+01    1.729E+01    1.718E+01    1.707E+01    1.696E+01    1.685E+01
     1.674E+01    1.663E+01    1.652E+01    1.640E+01    1.629E+01    1.618E+01    1.607E+01    1.595E+01    1.584E+01    1.573E+01
     1.561E+01    1.550E+01    1.539E+01    1.527E+01    1.516E+01    1.504E+01    1.493E+01    1.481E+01    1.470E+01    1.458E+01
     1.447E+01    1.435E+01    1.424E+01    1.412E+01    1.400E+01    1.389E+01    1.377E+01    1.365E+01    1.354E+01    1.342E+01
     1.330E+01    1.319E+01    1.307E+01    1.295E+01    1.283E+01    1.272E+01    1.260E+01    1.248E+01    1.236E+01    1.224E+01
     1.213E+01    1.201E+01    1.189E+01    1.177E+01    1.165E+01    1.154E+01    1.142E+01    1.130E+01    1.118E+01    1.106E+01
     1.094E+01    1.083E+01    1.071E+01    1.059E+01    1.047E+01    1.035E+01    1.023E+01    1.012E+01    9.998E+00    9.880E+00
     9.762E+00    9.644E+00    9.527E+00    9.409E+00    9.291E+00    9.173E+00    9.056E+00    8.939E+00    8.821E+00    8.704E+00
     8.587E+00    8.470E+00    8.353E+00    8.237E+00    8.120E+00    8.004E+00    7.887E+00    7.771E+00    7.655E+00    7.540E+00
     7.424E+00    7.309E+00    7.194E+00    7.079E+00    6.964E+00    6.849E+00    6.735E+00    6.621E+00    6.507E+00    6.393E+00
     6.280E+00    6.166E+00    6.053E+00    5.941E+00    5.828E+00    5.716E+00    5.604E+00    5.492E+00
 Ala      Conc. = 8.39E+03
