 LCModel (Version 6.3-1L) Copyright: S.W. Provencher.          Ref.: Magn. Reson. Med. 30:672-679 (1993).                
 Slice#1 Row#13 Col#1  PD_24_press_1_raw_act
 36 lines in following concentration table = NCONC+1
    Conc.  %SD /Cr+PCr  Metabolite                                         
   28.162 213%   0.525 Ala                                                 
    6.154  79%   0.115 Asp                                                 
   53.660  34%   1.000 Cr                                                  
    0.000 999%   0.000 PCr                                                 
    3.649  80% 6.8E-02 GABA                                                
    3.484  84% 6.5E-02 Glc                                                 
  129.633 105%   2.416 Gln                                                 
   66.408 225%   1.238 Glu                                                 
    0.000 999%   0.000 GPC                                                 
    0.000 999%   0.000 PCh                                                 
    0.000 999%   0.000 GSH                                                 
    0.000 999%   0.000 Ins                                                 
   41.191 166%   0.768 Lac                                                 
   64.916  50%   1.210 NAA                                                 
    5.391 598%   0.100 NAAG                                                
    1.124  86% 2.1E-02 Scyllo                                              
    5.181  94% 9.7E-02 Tau                                                 
    0.000 999%   0.000 -CrCH2                                              
    0.000 999%   0.000 GPC+PCh                                             
   70.307  33%   1.310 NAA+NAAG                                            
   53.660  34%   1.000 Cr+PCr                                              
  196.041 122%   3.653 Glu+Gln                                             
  165.499  57%   3.084 Lip13a                                              
    0.000 999%   0.000 Lip13b                                              
   13.534 243%   0.252 Lip09                                               
    0.000 999%   0.000 MM09                                                
   29.983  74%   0.559 Lip20                                               
    0.479 999% 8.9E-03 MM20                                                
 3.07E-03 999% 5.7E-05 MM12                                                
    2.568 359% 4.8E-02 MM14                                                
    0.113 999% 2.1E-03 MM17                                                
  165.499  57%   3.084 Lip13a+Lip13b                                       
  168.070  56%   3.132 MM14+Lip13a+Lip13b+MM12                             
   13.534 243%   0.252 MM09+Lip09                                          
   30.462  77%   0.568 MM20+Lip20                                          
   6 lines in following misc. output table
  FWHM = 0.076 ppm    S/N =   1                                            
  Data shift =-0.061 ppm                                                   
  Ph: 146 deg     -37.8 deg/ppm                                            
  alphaB,S = 7.0E-01,   1.7E+02                                            
   14 spline knots.   Ns = 8(1)                                            
  ( 7) 3 infls.   (10) 2 extrs.                                            
  498 points on ppm-axis = NY
      4.000000     3.992357     3.984714     3.977070     3.969427     3.961784     3.954141     3.946497     3.938854     3.931211
      3.923568     3.915925     3.908281     3.900638     3.892995     3.885352     3.877708     3.870065     3.862422     3.854779
      3.847136     3.839492     3.831849     3.824206     3.816563     3.808919     3.801276     3.793633     3.785990     3.778347
      3.770703     3.763060     3.755417     3.747774     3.740130     3.732487     3.724844     3.717201     3.709558     3.701914
      3.694271     3.686628     3.678985     3.671341     3.663698     3.656055     3.648412     3.640769     3.633125     3.625482
      3.617839     3.610196     3.602552     3.594909     3.587266     3.579623     3.571980     3.564336     3.556693     3.549050
      3.541407     3.533763     3.526120     3.518477     3.510834     3.503191     3.495547     3.487904     3.480261     3.472618
      3.464974     3.457331     3.449688     3.442045     3.434402     3.426758     3.419115     3.411472     3.403829     3.396185
      3.388542     3.380899     3.373256     3.365613     3.357969     3.350326     3.342683     3.335040     3.327396     3.319753
      3.312110     3.304467     3.296824     3.289180     3.281537     3.273894     3.266251     3.258607     3.250964     3.243321
      3.235678     3.228034     3.220391     3.212748     3.205105     3.197462     3.189818     3.182175     3.174532     3.166889
      3.159245     3.151602     3.143959     3.136316     3.128673     3.121029     3.113386     3.105743     3.098100     3.090456
      3.082813     3.075170     3.067527     3.059884     3.052240     3.044597     3.036954     3.029311     3.021667     3.014024
      3.006381     2.998738     2.991095     2.983451     2.975808     2.968165     2.960522     2.952878     2.945235     2.937592
      2.929949     2.922306     2.914662     2.907019     2.899376     2.891733     2.884089     2.876446     2.868803     2.861160
      2.853517     2.845873     2.838230     2.830587     2.822944     2.815300     2.807657     2.800014     2.792371     2.784728
      2.777084     2.769441     2.761798     2.754155     2.746511     2.738868     2.731225     2.723582     2.715939     2.708295
      2.700652     2.693009     2.685366     2.677722     2.670079     2.662436     2.654793     2.647150     2.639506     2.631863
      2.624220     2.616577     2.608933     2.601290     2.593647     2.586004     2.578361     2.570717     2.563074     2.555431
      2.547788     2.540144     2.532501     2.524858     2.517215     2.509572     2.501928     2.494285     2.486642     2.478999
      2.471355     2.463712     2.456069     2.448426     2.440783     2.433139     2.425496     2.417853     2.410210     2.402566
      2.394923     2.387280     2.379637     2.371994     2.364350     2.356707     2.349064     2.341421     2.333777     2.326134
      2.318491     2.310848     2.303205     2.295561     2.287918     2.280275     2.272632     2.264988     2.257345     2.249702
      2.242059     2.234416     2.226772     2.219129     2.211486     2.203843     2.196199     2.188556     2.180913     2.173270
      2.165627     2.157983     2.150340     2.142697     2.135054     2.127410     2.119767     2.112124     2.104481     2.096838
      2.089194     2.081551     2.073908     2.066265     2.058621     2.050978     2.043335     2.035692     2.028049     2.020405
      2.012762     2.005119     1.997476     1.989833     1.982190     1.974546     1.966903     1.959260     1.951617     1.943974
      1.936331     1.928688     1.921045     1.913402     1.905759     1.898115     1.890472     1.882829     1.875186     1.867543
      1.859900     1.852257     1.844614     1.836971     1.829327     1.821684     1.814041     1.806398     1.798755     1.791112
      1.783469     1.775826     1.768183     1.760540     1.752896     1.745253     1.737610     1.729967     1.722324     1.714681
      1.707038     1.699395     1.691752     1.684108     1.676465     1.668822     1.661179     1.653536     1.645893     1.638250
      1.630607     1.622964     1.615321     1.607677     1.600034     1.592391     1.584748     1.577105     1.569462     1.561819
      1.554176     1.546533     1.538890     1.531246     1.523603     1.515960     1.508317     1.500674     1.493031     1.485388
      1.477745     1.470102     1.462458     1.454815     1.447172     1.439529     1.431886     1.424243     1.416600     1.408957
      1.401314     1.393671     1.386027     1.378384     1.370741     1.363098     1.355455     1.347812     1.340169     1.332526
      1.324883     1.317240     1.309596     1.301953     1.294310     1.286667     1.279024     1.271381     1.263738     1.256095
      1.248452     1.240808     1.233165     1.225522     1.217879     1.210236     1.202593     1.194950     1.187307     1.179664
      1.172021     1.164377     1.156734     1.149091     1.141448     1.133805     1.126162     1.118519     1.110876     1.103233
      1.095590     1.087946     1.080303     1.072660     1.065017     1.057374     1.049731     1.042088     1.034445     1.026802
      1.019158     1.011515     1.003872     0.996229     0.988586     0.980943     0.973300     0.965657     0.958014     0.950371
      0.942727     0.935084     0.927441     0.919798     0.912155     0.904512     0.896869     0.889226     0.881583     0.873940
      0.866296     0.858653     0.851010     0.843367     0.835724     0.828081     0.820438     0.812795     0.805152     0.797508
      0.789865     0.782222     0.774579     0.766936     0.759293     0.751650     0.744007     0.736364     0.728721     0.721077
      0.713434     0.705791     0.698148     0.690505     0.682862     0.675219     0.667576     0.659933     0.652290     0.644646
      0.637003     0.629360     0.621717     0.614074     0.606431     0.598788     0.591145     0.583502     0.575858     0.568215
      0.560572     0.552929     0.545286     0.537643     0.530000     0.522357     0.514714     0.507071     0.499427     0.491784
      0.484141     0.476498     0.468855     0.461212     0.453569     0.445925     0.438282     0.430639     0.422996     0.415353
      0.407710     0.400067     0.392424     0.384780     0.377137     0.369494     0.361851     0.354208     0.346565     0.338922
      0.331278     0.323635     0.315992     0.308349     0.300706     0.293063     0.285420     0.277777     0.270133     0.262490
      0.254847     0.247204     0.239561     0.231918     0.224275     0.216631     0.208988     0.201345
 NY phased data points follow
   1.64505E+01  1.57239E+01  1.64146E+01  1.58474E+01  1.49467E+01  1.46067E+01  1.29208E+01  1.52851E+01  1.50720E+01  1.60559E+01
   1.39565E+01  1.58975E+01  1.50053E+01  1.29487E+01  1.43256E+01  1.61435E+01  1.53888E+01  1.20156E+01  1.50611E+01  1.35605E+01
   1.42829E+01  1.34171E+01  1.24951E+01  9.56614E+00  1.06674E+01  1.14701E+01  1.06065E+01  1.20633E+01  1.13952E+01  1.07400E+01
   8.72256E+00  9.19229E+00  1.06832E+01  9.60506E+00  1.11932E+01  8.50331E+00  9.20476E+00  1.01814E+01  7.60033E+00  7.92027E+00
   8.84250E+00  7.87080E+00  6.08984E+00  7.30049E+00  8.06449E+00  5.49640E+00  7.70629E+00  9.79056E+00  5.88509E+00  6.54128E+00
   7.56925E+00  8.84760E+00  8.50052E+00  8.31912E+00  7.13749E+00  6.23246E+00  5.17929E+00  5.57561E+00  5.66143E+00  6.98588E+00
   4.12515E+00  5.42593E+00  6.40850E+00  3.71009E+00  4.03634E+00  5.23456E+00  4.50057E+00  6.64106E+00  4.96218E+00  5.14315E+00
   3.87442E+00  1.78236E+00  4.04482E+00  3.41463E+00  4.78770E+00  1.57851E+00  4.29219E+00  3.78044E+00  5.35004E+00  2.18936E+00
   1.07700E+00  2.39697E+00  1.65719E+00  3.55082E+00  4.22197E+00  2.19885E+00  5.61750E+00  2.91911E+00  3.23944E-01  2.42253E-01
   2.85905E+00  1.98098E+00  5.65033E-01  5.11233E-01  3.62211E+00  4.90034E-01  2.75824E+00  1.36183E-01 -4.21929E-01  2.38827E+00
   9.03064E-01  6.59505E-01  1.22159E+00  1.91396E+00  1.18572E+00 -1.09040E-02 -8.16240E-01  9.75223E-02  5.19163E-01 -2.10443E-01
  -9.62021E-01 -2.89340E-01  2.01868E+00  1.24694E+00 -1.44343E+00 -1.39692E+00  2.61181E-01  1.47293E-01 -1.31524E+00 -2.54151E+00
  -1.69063E+00 -2.63026E+00  2.51634E-01 -1.01149E+00 -2.62429E+00 -1.23792E+00 -1.25211E+00 -1.44903E+00 -1.17426E+00 -9.95758E-01
  -1.19974E+00 -6.15708E-01 -3.52614E-01 -1.89268E+00 -5.83561E-01 -9.28562E-01 -2.84882E+00 -8.24949E-01 -9.13133E-01 -2.54348E+00
  -2.29475E+00 -7.32655E-01 -8.89257E-01 -3.08361E+00 -3.95803E+00 -2.77121E+00 -2.69760E+00 -1.28401E+00 -4.25779E+00 -3.43335E+00
  -1.66302E+00 -1.70234E+00 -3.26874E-01 -3.54253E+00 -3.34161E+00 -3.27710E+00 -6.53833E-01 -4.81679E+00 -5.42233E+00 -1.42851E+00
  -4.72703E+00 -4.37369E+00 -3.72186E+00 -2.05018E+00 -2.54286E+00 -2.27993E+00 -3.10965E+00 -2.35610E+00 -3.32491E+00 -1.83661E+00
  -2.74442E+00 -2.18900E+00 -4.75734E+00 -5.49573E+00 -5.05433E+00 -2.78242E+00 -3.54773E+00 -2.28286E+00 -1.69735E+00 -4.14194E+00
  -4.60743E+00 -4.85345E+00 -5.15651E+00 -3.31598E+00 -5.85923E+00 -4.05889E+00 -2.73244E+00 -5.24537E+00 -3.72587E+00 -1.42371E+00
  -3.41034E+00 -4.47944E+00 -4.24898E+00 -5.12954E+00 -5.17458E+00 -4.80330E+00 -2.29053E+00 -4.15339E+00 -4.39145E+00 -3.04715E+00
  -2.46282E+00 -3.67911E+00 -3.77205E+00 -5.24765E+00 -4.04584E+00 -3.54405E+00 -2.85375E+00 -4.45793E+00 -4.73164E+00 -3.28967E+00
  -5.37266E+00 -3.96139E+00 -3.66471E+00 -5.33542E+00 -6.59815E+00 -5.56149E+00 -3.86736E+00 -4.79977E+00 -4.92226E+00 -4.17744E+00
  -2.98383E+00 -2.76949E+00 -3.11751E+00 -5.34343E+00 -4.77201E+00 -5.47121E+00 -4.94941E+00 -4.98241E+00 -1.94327E+00 -5.82759E+00
  -5.40851E+00 -6.39611E+00 -3.50388E+00 -3.45637E+00 -4.14039E+00 -4.31630E+00 -3.00815E+00 -4.82624E+00 -5.29552E+00 -5.88126E+00
  -6.11426E+00 -5.23966E+00 -2.61729E+00 -3.78755E+00 -5.34454E+00 -3.89272E+00 -4.30096E+00 -3.91797E+00 -4.84631E+00 -4.85495E+00
  -3.93337E+00 -5.25791E+00 -4.69878E+00 -4.21563E+00 -6.54900E+00 -6.33474E+00 -3.42931E+00 -6.90737E+00 -2.95839E+00 -2.75951E+00
  -6.56155E+00 -3.34432E+00 -2.10192E+00 -2.03102E+00 -3.70017E+00 -3.06063E+00 -3.68974E+00 -2.56583E+00 -3.68338E+00 -7.06812E+00
  -2.34099E+00 -5.55844E+00 -2.84274E+00 -2.05254E+00 -1.89232E+00 -5.40895E+00 -4.29165E+00 -5.74235E+00 -4.72477E+00 -5.53198E+00
  -6.97910E+00 -7.43686E+00 -4.72551E+00 -4.94280E+00 -5.84863E+00 -5.50124E+00 -3.98257E+00 -4.54401E+00 -4.04927E+00 -4.28461E+00
  -4.89671E+00 -6.27240E+00 -5.74676E+00 -4.65864E+00 -6.48044E+00 -4.25271E+00 -5.46497E+00 -5.57293E+00 -5.57803E+00 -5.35709E+00
  -5.25018E+00 -8.36220E+00 -6.54728E+00 -4.59626E+00 -5.04518E+00 -6.94711E+00 -4.06596E+00 -4.76927E+00 -4.77048E+00 -5.19714E+00
  -4.68877E+00 -4.44941E+00 -5.28775E+00 -5.01574E+00 -6.14765E+00 -4.60545E+00 -6.83167E+00 -4.81357E+00 -2.92487E+00 -3.59515E+00
  -6.18277E+00 -4.78438E+00 -5.51068E+00 -4.97975E+00 -4.32846E+00 -3.49481E+00 -8.17257E+00 -6.20944E+00 -3.58059E+00 -3.82354E+00
  -3.57122E+00 -3.23062E+00 -4.63381E+00 -6.45149E+00 -5.18862E+00 -4.81573E+00 -3.97718E+00 -3.63359E+00 -5.33308E+00 -5.00909E+00
  -8.21858E-01 -3.33438E+00 -6.29238E+00 -3.98036E+00 -3.82208E+00 -5.09570E+00 -4.54940E+00 -2.79163E+00 -4.30989E+00 -3.24365E+00
  -2.92361E+00 -3.61766E+00 -2.19967E+00 -5.58720E+00 -4.42504E+00 -1.40879E+00 -3.77481E+00 -4.53877E+00 -3.37641E+00 -2.39000E+00
  -3.94673E+00 -2.78071E+00 -4.18493E+00 -3.75492E+00 -3.56983E+00 -3.06160E+00 -4.50161E+00 -2.35401E+00 -2.47175E+00 -3.03231E+00
  -8.30807E-01 -2.14533E+00 -2.40338E+00 -4.70996E+00 -2.76877E+00 -3.45776E+00 -4.14022E+00 -2.87960E+00 -3.41506E+00 -3.73008E+00
  -3.46922E+00 -4.33334E+00 -2.24695E+00 -2.68558E+00 -1.95930E+00 -5.63536E+00 -4.15094E+00 -2.34232E+00 -5.23942E+00 -6.07388E+00
  -2.44144E+00 -1.91293E+00 -2.01182E+00 -1.83878E+00 -2.78477E+00 -2.66354E+00 -3.66312E+00 -3.02934E+00 -2.00274E+00 -3.67065E+00
  -1.04798E+00 -2.37522E+00 -2.78906E+00 -2.85921E+00 -2.95431E+00 -2.72050E+00 -2.70577E+00 -2.39463E+00 -2.63297E+00 -2.66921E+00
  -2.83240E+00 -4.03979E+00 -2.44186E+00 -4.05115E+00 -2.49317E+00 -4.93168E+00 -4.78753E+00 -5.29325E+00 -5.03941E+00 -1.85835E+00
  -2.56583E+00 -1.37281E+00 -4.01263E+00 -1.43408E+00 -2.84830E+00 -3.71817E+00 -3.18024E+00 -2.99593E+00 -3.30835E+00 -2.20994E+00
  -4.47220E+00 -4.63547E+00 -2.35956E+00 -2.80713E+00 -2.02926E+00 -1.62289E+00 -2.30810E+00 -2.74697E+00 -3.90905E+00 -3.42181E+00
  -4.13475E+00  9.37376E-01 -2.74526E+00 -4.42074E+00 -2.02284E+00 -1.81652E+00 -2.61958E+00 -2.04161E+00  5.95684E-01 -1.86129E-01
  -1.77730E+00 -3.56421E+00 -8.86707E-01 -1.99377E+00 -4.54815E+00 -2.31689E+00 -1.70783E+00 -2.62561E+00 -3.45169E+00 -3.07043E+00
  -1.70765E+00 -1.17167E+00  3.20202E-01 -1.02562E+00 -2.58110E+00 -1.74663E+00 -1.48100E+00 -1.27662E+00 -1.54134E+00 -2.84816E-02
  -3.10760E+00 -1.25457E+00 -8.83093E-01 -2.24170E+00 -6.96673E-01 -2.67682E-03 -2.26983E+00 -1.82955E+00 -5.29991E-01 -7.45286E-01
  -1.24791E+00 -2.82010E+00 -1.73879E+00  3.77517E-01 -1.05748E+00 -4.92417E-01  6.06791E-01 -1.37908E+00 -2.95502E-01  2.44208E-02
  -1.68175E+00 -1.36073E+00 -9.96012E-01  3.48383E-01 -8.52984E-01 -2.84121E+00 -2.30803E-01 -5.12894E-01
 NY points of the fit to the data follow
   1.43542E+01  1.41926E+01  1.40386E+01  1.39050E+01  1.38108E+01  1.37504E+01  1.37113E+01  1.36823E+01  1.36555E+01  1.36269E+01
   1.35914E+01  1.35426E+01  1.34724E+01  1.33716E+01  1.32328E+01  1.30525E+01  1.28338E+01  1.25886E+01  1.23292E+01  1.20652E+01
   1.18115E+01  1.15887E+01  1.13977E+01  1.12129E+01  1.10333E+01  1.08677E+01  1.07153E+01  1.05710E+01  1.04288E+01  1.02862E+01
   1.01426E+01  1.00037E+01  9.87772E+00  9.76604E+00  9.66345E+00  9.55890E+00  9.43432E+00  9.27709E+00  9.09066E+00  8.88802E+00
   8.68529E+00  8.50020E+00  8.34942E+00  8.23167E+00  8.12866E+00  8.02514E+00  7.91033E+00  7.77914E+00  7.63294E+00  7.48173E+00
   7.33324E+00  7.18765E+00  7.04454E+00  6.90364E+00  6.76454E+00  6.62692E+00  6.49052E+00  6.35515E+00  6.22091E+00  6.08806E+00
   5.95648E+00  5.82613E+00  5.69685E+00  5.56838E+00  5.44064E+00  5.31367E+00  5.18737E+00  5.06193E+00  4.93788E+00  4.81527E+00
   4.69378E+00  4.57308E+00  4.45284E+00  4.33290E+00  4.21349E+00  4.09484E+00  3.97692E+00  3.85947E+00  3.74300E+00  3.62838E+00
   3.51516E+00  3.40290E+00  3.29177E+00  3.18210E+00  3.07430E+00  2.96876E+00  2.86484E+00  2.76062E+00  2.65453E+00  2.54566E+00
   2.43386E+00  2.32010E+00  2.20545E+00  2.09067E+00  1.97674E+00  1.86491E+00  1.75665E+00  1.65196E+00  1.54955E+00  1.44883E+00
   1.34960E+00  1.25156E+00  1.15421E+00  1.05675E+00  9.58518E-01  8.59547E-01  7.60245E-01  6.61172E-01  5.63032E-01  4.66136E-01
   3.69758E-01  2.73306E-01  1.76394E-01  7.84153E-02 -2.10409E-02 -1.22334E-01 -2.26207E-01 -3.33731E-01 -4.44006E-01 -5.36094E-01
  -5.76107E-01 -5.63324E-01 -5.09675E-01 -4.27205E-01 -3.25262E-01 -2.11061E-01 -9.20649E-02  2.19296E-02  1.17005E-01  1.75893E-01
   1.81515E-01  1.20978E-01 -1.06262E-02 -2.07138E-01 -4.52037E-01 -7.20932E-01 -9.79762E-01 -1.18597E+00 -1.32638E+00 -1.43478E+00
  -1.52821E+00 -1.61240E+00 -1.69029E+00 -1.76368E+00 -1.83369E+00 -1.90101E+00 -1.96596E+00 -2.02902E+00 -2.09054E+00 -2.15053E+00
  -2.20900E+00 -2.26595E+00 -2.32171E+00 -2.37748E+00 -2.43417E+00 -2.49163E+00 -2.54914E+00 -2.60546E+00 -2.66019E+00 -2.71388E+00
  -2.76700E+00 -2.81974E+00 -2.87199E+00 -2.92344E+00 -2.97360E+00 -3.02207E+00 -3.06872E+00 -3.11408E+00 -3.15970E+00 -3.20772E+00
  -3.25864E+00 -3.31245E+00 -3.36774E+00 -3.42290E+00 -3.47724E+00 -3.52941E+00 -3.57935E+00 -3.62712E+00 -3.67230E+00 -3.71559E+00
  -3.75748E+00 -3.79681E+00 -3.83262E+00 -3.86460E+00 -3.89276E+00 -3.91760E+00 -3.94136E+00 -3.96557E+00 -3.98948E+00 -4.01571E+00
  -4.04698E+00 -4.08631E+00 -4.13524E+00 -4.19165E+00 -4.24887E+00 -4.29958E+00 -4.33995E+00 -4.36592E+00 -4.37029E+00 -4.34943E+00
  -4.30550E+00 -4.24408E+00 -4.18475E+00 -4.15088E+00 -4.14830E+00 -4.17802E+00 -4.24209E+00 -4.34121E+00 -4.46609E+00 -4.60484E+00
  -4.74561E+00 -4.87053E+00 -4.95861E+00 -4.99685E+00 -4.98396E+00 -4.92664E+00 -4.83716E+00 -4.73456E+00 -4.64110E+00 -4.57973E+00
  -4.57244E+00 -4.61586E+00 -4.68223E+00 -4.75514E+00 -4.82252E+00 -4.87032E+00 -4.88653E+00 -4.87174E+00 -4.84283E+00 -4.81728E+00
  -4.80366E+00 -4.80697E+00 -4.83027E+00 -4.86800E+00 -4.90303E+00 -4.93034E+00 -4.95240E+00 -4.96848E+00 -4.97813E+00 -4.98307E+00
  -4.98469E+00 -4.98662E+00 -4.99683E+00 -5.02198E+00 -5.06589E+00 -5.13330E+00 -5.22941E+00 -5.34627E+00 -5.46133E+00 -5.55853E+00
  -5.63099E+00 -5.67955E+00 -5.69601E+00 -5.65226E+00 -5.54107E+00 -5.37368E+00 -5.16843E+00 -4.94063E+00 -4.69968E+00 -4.45327E+00
  -4.20977E+00 -3.97769E+00 -3.77087E+00 -3.60801E+00 -3.50848E+00 -3.48702E+00 -3.54665E+00 -3.68151E+00 -3.87697E+00 -4.10187E+00
  -4.30124E+00 -4.43110E+00 -4.51626E+00 -4.57882E+00 -4.62655E+00 -4.66362E+00 -4.69359E+00 -4.71799E+00 -4.73835E+00 -4.75631E+00
  -4.77331E+00 -4.79027E+00 -4.80759E+00 -4.82486E+00 -4.84112E+00 -4.85570E+00 -4.86840E+00 -4.87926E+00 -4.88850E+00 -4.89642E+00
  -4.90338E+00 -4.90982E+00 -4.91591E+00 -4.92169E+00 -4.92718E+00 -4.93239E+00 -4.93725E+00 -4.94175E+00 -4.94595E+00 -4.94989E+00
  -4.95354E+00 -4.95689E+00 -4.95993E+00 -4.96259E+00 -4.96488E+00 -4.96686E+00 -4.96855E+00 -4.96998E+00 -4.97119E+00 -4.97224E+00
  -4.97318E+00 -4.97400E+00 -4.97471E+00 -4.97529E+00 -4.97568E+00 -4.97584E+00 -4.97561E+00 -4.97462E+00 -4.97146E+00 -4.96020E+00
  -4.93520E+00 -4.90066E+00 -4.86226E+00 -4.82441E+00 -4.79048E+00 -4.76398E+00 -4.75119E+00 -4.75791E+00 -4.78028E+00 -4.81442E+00
  -4.85838E+00 -4.91026E+00 -4.96643E+00 -5.02053E+00 -5.06426E+00 -5.08846E+00 -5.08408E+00 -5.04470E+00 -4.97485E+00 -4.88382E+00
  -4.77050E+00 -4.64573E+00 -4.52363E+00 -4.41557E+00 -4.32854E+00 -4.26129E+00 -4.20993E+00 -4.17795E+00 -4.16042E+00 -4.15461E+00
  -4.16051E+00 -4.17801E+00 -4.20429E+00 -4.23215E+00 -4.25083E+00 -4.24805E+00 -4.21146E+00 -4.13136E+00 -4.01251E+00 -3.88054E+00
  -3.75342E+00 -3.64264E+00 -3.55693E+00 -3.50255E+00 -3.48059E+00 -3.47829E+00 -3.47740E+00 -3.47561E+00 -3.47399E+00 -3.47306E+00
  -3.47297E+00 -3.47366E+00 -3.47499E+00 -3.47674E+00 -3.47869E+00 -3.48063E+00 -3.48234E+00 -3.48365E+00 -3.48441E+00 -3.48448E+00
  -3.48376E+00 -3.48219E+00 -3.47970E+00 -3.47626E+00 -3.47185E+00 -3.46644E+00 -3.46003E+00 -3.45262E+00 -3.44419E+00 -3.43476E+00
  -3.42430E+00 -3.41283E+00 -3.40033E+00 -3.38680E+00 -3.37223E+00 -3.35662E+00 -3.33998E+00 -3.32232E+00 -3.30367E+00 -3.28406E+00
  -3.26353E+00 -3.24215E+00 -3.21998E+00 -3.19711E+00 -3.17363E+00 -3.14965E+00 -3.12527E+00 -3.10059E+00 -3.07573E+00 -3.05078E+00
  -3.02583E+00 -3.00095E+00 -2.97623E+00 -2.95169E+00 -2.92737E+00 -2.90329E+00 -2.87944E+00 -2.85581E+00 -2.83238E+00 -2.80910E+00
  -2.78594E+00 -2.76285E+00 -2.73978E+00 -2.71669E+00 -2.69352E+00 -2.67023E+00 -2.64679E+00 -2.62316E+00 -2.59931E+00 -2.57522E+00
  -2.55087E+00 -2.52624E+00 -2.50133E+00 -2.47613E+00 -2.45063E+00 -2.42483E+00 -2.39873E+00 -2.37233E+00 -2.34563E+00 -2.31864E+00
  -2.29137E+00 -2.26380E+00 -2.23596E+00 -2.20783E+00 -2.17944E+00 -2.15077E+00 -2.12184E+00 -2.09265E+00 -2.06320E+00 -2.03350E+00
  -2.00354E+00 -1.97333E+00 -1.94288E+00 -1.91219E+00 -1.88126E+00 -1.85009E+00 -1.81868E+00 -1.78704E+00 -1.75517E+00 -1.72308E+00
  -1.69075E+00 -1.65820E+00 -1.62543E+00 -1.59244E+00 -1.55923E+00 -1.52581E+00 -1.49216E+00 -1.45830E+00 -1.42424E+00 -1.38995E+00
  -1.35546E+00 -1.32076E+00 -1.28586E+00 -1.25075E+00 -1.21544E+00 -1.17992E+00 -1.14420E+00 -1.10829E+00 -1.07218E+00 -1.03587E+00
  -9.99371E-01 -9.62678E-01 -9.25795E-01 -8.88724E-01 -8.51467E-01 -8.14026E-01 -7.76403E-01 -7.38600E-01 -7.00621E-01 -6.62469E-01
  -6.24146E-01 -5.85657E-01 -5.47003E-01 -5.08191E-01 -4.69225E-01 -4.30110E-01 -3.90854E-01 -3.51461E-01
 NY background values follow
     1.443E+01    1.428E+01    1.413E+01    1.398E+01    1.383E+01    1.369E+01    1.354E+01    1.339E+01    1.324E+01    1.310E+01
     1.295E+01    1.280E+01    1.265E+01    1.251E+01    1.236E+01    1.221E+01    1.206E+01    1.192E+01    1.177E+01    1.163E+01
     1.148E+01    1.133E+01    1.119E+01    1.104E+01    1.090E+01    1.075E+01    1.061E+01    1.047E+01    1.032E+01    1.018E+01
     1.004E+01    9.893E+00    9.750E+00    9.608E+00    9.467E+00    9.326E+00    9.185E+00    9.044E+00    8.904E+00    8.765E+00
     8.626E+00    8.487E+00    8.349E+00    8.211E+00    8.074E+00    7.938E+00    7.801E+00    7.666E+00    7.531E+00    7.396E+00
     7.262E+00    7.128E+00    6.995E+00    6.863E+00    6.731E+00    6.600E+00    6.469E+00    6.339E+00    6.210E+00    6.081E+00
     5.953E+00    5.825E+00    5.699E+00    5.572E+00    5.447E+00    5.322E+00    5.198E+00    5.074E+00    4.951E+00    4.829E+00
     4.708E+00    4.587E+00    4.467E+00    4.348E+00    4.230E+00    4.112E+00    3.995E+00    3.879E+00    3.763E+00    3.649E+00
     3.535E+00    3.422E+00    3.310E+00    3.198E+00    3.087E+00    2.978E+00    2.869E+00    2.761E+00    2.653E+00    2.547E+00
     2.441E+00    2.337E+00    2.233E+00    2.130E+00    2.028E+00    1.926E+00    1.826E+00    1.726E+00    1.628E+00    1.530E+00
     1.433E+00    1.337E+00    1.242E+00    1.148E+00    1.054E+00    9.618E-01    8.701E-01    7.794E-01    6.895E-01    6.004E-01
     5.123E-01    4.250E-01    3.386E-01    2.530E-01    1.684E-01    8.456E-02    1.636E-03   -8.041E-02   -1.616E-01   -2.419E-01
    -3.213E-01   -3.999E-01   -4.776E-01   -5.544E-01   -6.303E-01   -7.054E-01   -7.796E-01   -8.529E-01   -9.254E-01   -9.970E-01
    -1.068E+00   -1.138E+00   -1.207E+00   -1.275E+00   -1.342E+00   -1.408E+00   -1.474E+00   -1.539E+00   -1.603E+00   -1.666E+00
    -1.728E+00   -1.789E+00   -1.849E+00   -1.909E+00   -1.968E+00   -2.026E+00   -2.083E+00   -2.140E+00   -2.196E+00   -2.250E+00
    -2.305E+00   -2.358E+00   -2.411E+00   -2.463E+00   -2.514E+00   -2.564E+00   -2.614E+00   -2.663E+00   -2.711E+00   -2.758E+00
    -2.805E+00   -2.851E+00   -2.897E+00   -2.942E+00   -2.986E+00   -3.029E+00   -3.072E+00   -3.114E+00   -3.155E+00   -3.196E+00
    -3.236E+00   -3.276E+00   -3.315E+00   -3.353E+00   -3.391E+00   -3.428E+00   -3.464E+00   -3.500E+00   -3.536E+00   -3.570E+00
    -3.605E+00   -3.638E+00   -3.671E+00   -3.704E+00   -3.736E+00   -3.767E+00   -3.798E+00   -3.828E+00   -3.858E+00   -3.887E+00
    -3.916E+00   -3.944E+00   -3.972E+00   -3.999E+00   -4.026E+00   -4.052E+00   -4.078E+00   -4.104E+00   -4.128E+00   -4.153E+00
    -4.177E+00   -4.201E+00   -4.224E+00   -4.246E+00   -4.269E+00   -4.290E+00   -4.312E+00   -4.333E+00   -4.353E+00   -4.374E+00
    -4.393E+00   -4.413E+00   -4.432E+00   -4.451E+00   -4.469E+00   -4.487E+00   -4.504E+00   -4.521E+00   -4.538E+00   -4.555E+00
    -4.571E+00   -4.587E+00   -4.602E+00   -4.617E+00   -4.632E+00   -4.647E+00   -4.661E+00   -4.675E+00   -4.689E+00   -4.702E+00
    -4.715E+00   -4.728E+00   -4.740E+00   -4.752E+00   -4.764E+00   -4.775E+00   -4.787E+00   -4.797E+00   -4.808E+00   -4.818E+00
    -4.829E+00   -4.838E+00   -4.848E+00   -4.857E+00   -4.866E+00   -4.875E+00   -4.883E+00   -4.891E+00   -4.899E+00   -4.907E+00
    -4.914E+00   -4.921E+00   -4.928E+00   -4.934E+00   -4.941E+00   -4.947E+00   -4.952E+00   -4.958E+00   -4.963E+00   -4.968E+00
    -4.973E+00   -4.977E+00   -4.981E+00   -4.985E+00   -4.989E+00   -4.993E+00   -4.996E+00   -4.999E+00   -5.002E+00   -5.004E+00
    -5.006E+00   -5.008E+00   -5.010E+00   -5.012E+00   -5.013E+00   -5.014E+00   -5.015E+00   -5.016E+00   -5.016E+00   -5.016E+00
    -5.016E+00   -5.016E+00   -5.015E+00   -5.015E+00   -5.014E+00   -5.012E+00   -5.011E+00   -5.009E+00   -5.007E+00   -5.005E+00
    -5.003E+00   -5.001E+00   -4.998E+00   -4.995E+00   -4.992E+00   -4.988E+00   -4.985E+00   -4.981E+00   -4.977E+00   -4.973E+00
    -4.968E+00   -4.963E+00   -4.959E+00   -4.953E+00   -4.948E+00   -4.943E+00   -4.937E+00   -4.931E+00   -4.925E+00   -4.919E+00
    -4.912E+00   -4.905E+00   -4.898E+00   -4.891E+00   -4.884E+00   -4.876E+00   -4.868E+00   -4.860E+00   -4.852E+00   -4.844E+00
    -4.835E+00   -4.827E+00   -4.818E+00   -4.808E+00   -4.799E+00   -4.790E+00   -4.780E+00   -4.770E+00   -4.760E+00   -4.750E+00
    -4.739E+00   -4.728E+00   -4.718E+00   -4.707E+00   -4.695E+00   -4.684E+00   -4.672E+00   -4.661E+00   -4.649E+00   -4.637E+00
    -4.624E+00   -4.612E+00   -4.599E+00   -4.586E+00   -4.573E+00   -4.560E+00   -4.547E+00   -4.533E+00   -4.520E+00   -4.506E+00
    -4.492E+00   -4.477E+00   -4.463E+00   -4.449E+00   -4.434E+00   -4.419E+00   -4.404E+00   -4.389E+00   -4.373E+00   -4.358E+00
    -4.342E+00   -4.326E+00   -4.310E+00   -4.294E+00   -4.278E+00   -4.261E+00   -4.244E+00   -4.227E+00   -4.210E+00   -4.193E+00
    -4.176E+00   -4.158E+00   -4.140E+00   -4.123E+00   -4.104E+00   -4.086E+00   -4.068E+00   -4.049E+00   -4.030E+00   -4.012E+00
    -3.992E+00   -3.973E+00   -3.954E+00   -3.934E+00   -3.914E+00   -3.894E+00   -3.874E+00   -3.854E+00   -3.833E+00   -3.812E+00
    -3.791E+00   -3.770E+00   -3.749E+00   -3.728E+00   -3.706E+00   -3.684E+00   -3.662E+00   -3.640E+00   -3.617E+00   -3.595E+00
    -3.572E+00   -3.549E+00   -3.526E+00   -3.503E+00   -3.479E+00   -3.456E+00   -3.432E+00   -3.408E+00   -3.383E+00   -3.359E+00
    -3.334E+00   -3.310E+00   -3.285E+00   -3.259E+00   -3.234E+00   -3.208E+00   -3.183E+00   -3.157E+00   -3.131E+00   -3.104E+00
    -3.078E+00   -3.051E+00   -3.024E+00   -2.997E+00   -2.970E+00   -2.942E+00   -2.915E+00   -2.887E+00   -2.859E+00   -2.830E+00
    -2.802E+00   -2.773E+00   -2.744E+00   -2.715E+00   -2.686E+00   -2.657E+00   -2.627E+00   -2.597E+00   -2.567E+00   -2.537E+00
    -2.507E+00   -2.476E+00   -2.446E+00   -2.415E+00   -2.383E+00   -2.352E+00   -2.321E+00   -2.289E+00   -2.257E+00   -2.225E+00
    -2.192E+00   -2.160E+00   -2.127E+00   -2.094E+00   -2.061E+00   -2.028E+00   -1.995E+00   -1.961E+00   -1.927E+00   -1.893E+00
    -1.859E+00   -1.824E+00   -1.790E+00   -1.755E+00   -1.720E+00   -1.685E+00   -1.649E+00   -1.614E+00   -1.578E+00   -1.542E+00
    -1.506E+00   -1.470E+00   -1.433E+00   -1.396E+00   -1.359E+00   -1.322E+00   -1.285E+00   -1.248E+00   -1.210E+00   -1.172E+00
    -1.134E+00   -1.096E+00   -1.058E+00   -1.019E+00   -9.802E-01   -9.412E-01   -9.021E-01   -8.627E-01   -8.232E-01   -7.835E-01
    -7.436E-01   -7.036E-01   -6.633E-01   -6.229E-01   -5.822E-01   -5.414E-01   -5.004E-01   -4.592E-01
 Ala      Conc. = 2.82E+01
