 LCModel (Version 6.3-1L) Copyright: S.W. Provencher.          Ref.: Magn. Reson. Med. 30:672-679 (1993).                
 Slice#1 Row#8 Col#4  PD_24_press_1_raw_act
 36 lines in following concentration table = NCONC+1
    Conc.  %SD /Cr+PCr  Metabolite                                         
  169.042  70%   0.154 Ala                                                 
   45.502 494% 4.2E-02 Asp                                                 
  385.888  58%   0.352 Cr                                                  
  710.096  32%   0.648 PCr                                                 
    0.000 999%   0.000 GABA                                                
    6.989 999% 6.4E-03 Glc                                                 
  611.797  40%   0.558 Gln                                                 
 1.32E+03  21%   1.202 Glu                                                 
  555.053   5%   0.506 GPC                                                 
    0.000 999%   0.000 PCh                                                 
  421.367  19%   0.384 GSH                                                 
  909.289  28%   0.830 Ins                                                 
  181.637  72%   0.166 Lac                                                 
 2.04E+03   6%   1.866 NAA                                                 
  545.338  26%   0.498 NAAG                                                
  104.812  28% 9.6E-02 Scyllo                                              
  196.592 103%   0.179 Tau                                                 
   27.030 401% 2.5E-02 -CrCH2                                              
  555.053   5%   0.506 GPC+PCh                                             
 2.59E+03   4%   2.363 NAA+NAAG                                            
 1.10E+03   6%   1.000 Cr+PCr                                              
 1.93E+03  20%   1.761 Glu+Gln                                             
 1.89E+03  24%   1.728 Lip13a                                              
    0.000 999%   0.000 Lip13b                                              
    0.000 999%   0.000 Lip09                                               
 1.47E+03  12%   1.344 MM09                                                
  316.969  55%   0.289 Lip20                                               
 2.92E+03  11%   2.665 MM20                                                
  486.755  25%   0.444 MM12                                                
 1.76E+03  19%   1.604 MM14                                                
 1.05E+03  20%   0.958 MM17                                                
 1.89E+03  24%   1.728 Lip13a+Lip13b                                       
 4.14E+03   9%   3.777 MM14+Lip13a+Lip13b+MM12                             
 1.47E+03  12%   1.344 MM09+Lip09                                          
 3.24E+03  10%   2.955 MM20+Lip20                                          
   6 lines in following misc. output table
  FWHM = 0.054 ppm    S/N =  11                                            
  Data shift = 0.015 ppm                                                   
  Ph: -57 deg     -12.2 deg/ppm                                            
  alphaB,S = 8.5E+01,   1.4E+02                                            
   14 spline knots.   Ns = 7(1)                                            
   2 inflections.     1 extrema                                            
  498 points on ppm-axis = NY
      4.000000     3.992357     3.984714     3.977070     3.969427     3.961784     3.954141     3.946497     3.938854     3.931211
      3.923568     3.915925     3.908281     3.900638     3.892995     3.885352     3.877708     3.870065     3.862422     3.854779
      3.847136     3.839492     3.831849     3.824206     3.816563     3.808919     3.801276     3.793633     3.785990     3.778347
      3.770703     3.763060     3.755417     3.747774     3.740130     3.732487     3.724844     3.717201     3.709558     3.701914
      3.694271     3.686628     3.678985     3.671341     3.663698     3.656055     3.648412     3.640769     3.633125     3.625482
      3.617839     3.610196     3.602552     3.594909     3.587266     3.579623     3.571980     3.564336     3.556693     3.549050
      3.541407     3.533763     3.526120     3.518477     3.510834     3.503191     3.495547     3.487904     3.480261     3.472618
      3.464974     3.457331     3.449688     3.442045     3.434402     3.426758     3.419115     3.411472     3.403829     3.396185
      3.388542     3.380899     3.373256     3.365613     3.357969     3.350326     3.342683     3.335040     3.327396     3.319753
      3.312110     3.304467     3.296824     3.289180     3.281537     3.273894     3.266251     3.258607     3.250964     3.243321
      3.235678     3.228034     3.220391     3.212748     3.205105     3.197462     3.189818     3.182175     3.174532     3.166889
      3.159245     3.151602     3.143959     3.136316     3.128673     3.121029     3.113386     3.105743     3.098100     3.090456
      3.082813     3.075170     3.067527     3.059884     3.052240     3.044597     3.036954     3.029311     3.021667     3.014024
      3.006381     2.998738     2.991095     2.983451     2.975808     2.968165     2.960522     2.952878     2.945235     2.937592
      2.929949     2.922306     2.914662     2.907019     2.899376     2.891733     2.884089     2.876446     2.868803     2.861160
      2.853517     2.845873     2.838230     2.830587     2.822944     2.815300     2.807657     2.800014     2.792371     2.784728
      2.777084     2.769441     2.761798     2.754155     2.746511     2.738868     2.731225     2.723582     2.715939     2.708295
      2.700652     2.693009     2.685366     2.677722     2.670079     2.662436     2.654793     2.647150     2.639506     2.631863
      2.624220     2.616577     2.608933     2.601290     2.593647     2.586004     2.578361     2.570717     2.563074     2.555431
      2.547788     2.540144     2.532501     2.524858     2.517215     2.509572     2.501928     2.494285     2.486642     2.478999
      2.471355     2.463712     2.456069     2.448426     2.440783     2.433139     2.425496     2.417853     2.410210     2.402566
      2.394923     2.387280     2.379637     2.371994     2.364350     2.356707     2.349064     2.341421     2.333777     2.326134
      2.318491     2.310848     2.303205     2.295561     2.287918     2.280275     2.272632     2.264988     2.257345     2.249702
      2.242059     2.234416     2.226772     2.219129     2.211486     2.203843     2.196199     2.188556     2.180913     2.173270
      2.165627     2.157983     2.150340     2.142697     2.135054     2.127410     2.119767     2.112124     2.104481     2.096838
      2.089194     2.081551     2.073908     2.066265     2.058621     2.050978     2.043335     2.035692     2.028049     2.020405
      2.012762     2.005119     1.997476     1.989833     1.982190     1.974546     1.966903     1.959260     1.951617     1.943974
      1.936331     1.928688     1.921045     1.913402     1.905759     1.898115     1.890472     1.882829     1.875186     1.867543
      1.859900     1.852257     1.844614     1.836971     1.829327     1.821684     1.814041     1.806398     1.798755     1.791112
      1.783469     1.775826     1.768183     1.760540     1.752896     1.745253     1.737610     1.729967     1.722324     1.714681
      1.707038     1.699395     1.691752     1.684108     1.676465     1.668822     1.661179     1.653536     1.645893     1.638250
      1.630607     1.622964     1.615321     1.607677     1.600034     1.592391     1.584748     1.577105     1.569462     1.561819
      1.554176     1.546533     1.538890     1.531246     1.523603     1.515960     1.508317     1.500674     1.493031     1.485388
      1.477745     1.470102     1.462458     1.454815     1.447172     1.439529     1.431886     1.424243     1.416600     1.408957
      1.401314     1.393671     1.386027     1.378384     1.370741     1.363098     1.355455     1.347812     1.340169     1.332526
      1.324883     1.317240     1.309596     1.301953     1.294310     1.286667     1.279024     1.271381     1.263738     1.256095
      1.248452     1.240808     1.233165     1.225522     1.217879     1.210236     1.202593     1.194950     1.187307     1.179664
      1.172021     1.164377     1.156734     1.149091     1.141448     1.133805     1.126162     1.118519     1.110876     1.103233
      1.095590     1.087946     1.080303     1.072660     1.065017     1.057374     1.049731     1.042088     1.034445     1.026802
      1.019158     1.011515     1.003872     0.996229     0.988586     0.980943     0.973300     0.965657     0.958014     0.950371
      0.942727     0.935084     0.927441     0.919798     0.912155     0.904512     0.896869     0.889226     0.881583     0.873940
      0.866296     0.858653     0.851010     0.843367     0.835724     0.828081     0.820438     0.812795     0.805152     0.797508
      0.789865     0.782222     0.774579     0.766936     0.759293     0.751650     0.744007     0.736364     0.728721     0.721077
      0.713434     0.705791     0.698148     0.690505     0.682862     0.675219     0.667576     0.659933     0.652290     0.644646
      0.637003     0.629360     0.621717     0.614074     0.606431     0.598788     0.591145     0.583502     0.575858     0.568215
      0.560572     0.552929     0.545286     0.537643     0.530000     0.522357     0.514714     0.507071     0.499427     0.491784
      0.484141     0.476498     0.468855     0.461212     0.453569     0.445925     0.438282     0.430639     0.422996     0.415353
      0.407710     0.400067     0.392424     0.384780     0.377137     0.369494     0.361851     0.354208     0.346565     0.338922
      0.331278     0.323635     0.315992     0.308349     0.300706     0.293063     0.285420     0.277777     0.270133     0.262490
      0.254847     0.247204     0.239561     0.231918     0.224275     0.216631     0.208988     0.201345
 NY phased data points follow
  -6.65078E+00 -8.23551E+00 -6.69258E-01  2.70702E+00  1.79240E+00  2.42531E+00  5.41860E+00  9.79002E+00  1.66196E+01  2.03717E+01
   2.10548E+01  2.12963E+01  1.78208E+01  1.59307E+01  1.34210E+01  8.64246E+00  3.40659E+00  2.02575E+00 -6.70162E+00  2.70524E+00
  -2.57474E+00 -3.61440E+00 -2.40130E+00 -2.72114E+00  3.56555E+00  2.52647E+00 -1.17208E-02  1.74549E+00  6.42931E-01 -4.35718E-02
   4.95923E+00  8.40661E+00  9.80747E+00  3.13607E+00 -3.45104E-01  7.57742E+00 -4.51829E+00 -8.65789E-01  1.38174E+00  1.00129E+00
   4.98764E+00  2.46232E+00  7.14632E+00 -1.04561E+00  5.42122E+00  6.83192E+00  7.16557E+00  7.25676E+00  7.77119E+00  4.73952E+00
  -3.39834E+00  7.58985E-01 -2.78785E+00  2.69552E+00  7.40900E-01 -1.07872E-02 -1.35772E+00 -1.04399E+00  5.08029E-01 -2.26717E+00
   5.57450E-01  4.75740E-01 -2.43835E+00 -4.22121E+00 -2.09686E+00 -2.71110E+00 -6.53171E+00 -7.18797E+00 -6.29365E+00 -4.95729E+00
  -8.47214E-01 -3.97186E+00 -6.97852E+00  2.23797E+00 -9.77187E-01  1.30783E+00 -7.14743E+00 -3.89399E+00 -4.69625E+00 -3.08046E+00
  -2.09167E+00 -1.57612E+00 -2.85394E+00  9.87689E-03  9.69131E-01 -6.06900E-01 -2.11796E+00  4.02256E-02  3.59251E-01 -2.83826E-01
   7.54929E-01  2.42652E+00  4.35860E+00  4.63582E+00  6.71886E+00  2.86936E+00  3.10312E+00  8.60198E+00  1.14089E+01  1.67505E+01
   2.03266E+01  4.12962E+01  4.74332E+01  5.40936E+01  4.47114E+01  4.05258E+01  2.66058E+01  2.04932E+01  9.77903E+00  9.64502E+00
   3.04474E+00 -9.98685E-01 -2.39480E-01 -1.35403E+00  9.95093E-01  6.11667E+00 -2.65719E+00  3.90561E+00  1.07703E+00  1.06063E+01
   1.32124E+00  4.00373E+00  3.44635E+00  1.24857E+01  1.19784E+01  2.73155E+01  2.86371E+01  3.57271E+01  3.73558E+01  3.42577E+01
   2.14941E+01  1.61771E+01  1.51290E+01  2.85385E+00  2.96311E+00  3.37925E+00 -8.82601E-01 -2.55839E+00 -2.70082E+00  3.71071E-01
   1.16806E+00  2.61518E+00  4.99589E+00  3.36899E+00 -3.17636E+00 -2.11227E+00 -2.58452E+00 -1.90757E+00  1.36294E+00 -6.34696E-01
  -2.51210E+00 -2.54950E+00  2.02197E+00 -7.08802E+00  5.30198E-01 -3.98886E+00 -6.80874E+00 -3.15253E+00 -5.31581E+00  1.21104E+00
   7.45528E-01 -3.17624E+00 -4.53494E+00 -4.50862E+00 -8.43858E+00 -8.50078E+00 -8.88956E+00 -3.20781E+00 -5.23775E+00 -9.20197E+00
  -1.32167E+01 -8.71247E+00 -9.02111E+00 -1.57950E+01 -1.35411E+01 -1.26232E+01 -1.74295E+01 -1.39873E+01 -1.27432E+01 -1.23924E+01
  -1.28875E+01 -1.69340E+01 -8.92679E+00 -1.07591E+01 -7.43326E+00 -1.84743E+00 -6.24960E+00 -9.87472E+00 -9.30310E+00 -6.36029E+00
  -5.27614E+00 -4.68476E+00 -5.11758E+00 -5.80880E+00 -5.74248E+00 -4.05848E+00 -8.60203E+00 -1.05476E+01 -6.94742E+00 -1.25175E+01
  -5.64868E+00 -7.48608E+00 -4.98352E-01 -7.10610E-01  8.12985E+00  4.72490E+00 -3.24571E+00 -2.35686E+00 -4.48419E+00 -4.10553E+00
  -5.43736E+00 -1.38151E+00  7.02135E+00  4.83676E+00  3.38922E+00  1.02909E+01  5.62119E+00  6.69194E+00  8.17853E+00  4.29573E+00
  -1.18451E-01 -3.57296E+00 -6.35560E+00  1.16284E-01 -2.48812E+00 -2.05929E+00  6.74458E+00  3.10666E+00  3.75506E+00  8.65048E+00
   5.28869E+00  5.21713E+00  5.48996E+00  8.93248E+00  1.34817E+00  4.29941E+00  7.07580E+00  7.84634E+00  4.43549E+00  4.11589E+00
  -6.57204E-01 -4.84985E+00 -2.05697E+00 -1.64879E+00  3.87653E+00  8.21032E+00  1.37294E+01  7.88862E+00  1.07398E+01  1.45218E+01
   1.99365E+01  2.00893E+01  2.72988E+01  3.60753E+01  3.81537E+01  3.80079E+01  5.00676E+01  5.55870E+01  6.74663E+01  8.32891E+01
   8.45632E+01  8.65487E+01  7.19650E+01  5.46661E+01  3.20377E+01  2.63586E+01  1.88975E+01  1.43640E+01  7.54962E+00  1.11883E+01
   1.08442E+01  9.29524E+00  1.89409E+00  5.55424E+00  8.13912E+00  4.28947E+00  2.30549E+00  3.80244E+00  2.48525E+00  5.66814E+00
  -2.01496E-01  3.66247E+00  4.44805E+00 -5.50074E-01 -2.18051E+00  7.79568E+00  3.60840E-01  7.11941E+00 -4.38346E-01  5.63473E+00
  -1.06448E+00  3.82056E+00 -3.53944E+00  7.08857E+00  7.19859E+00  8.88346E-01 -2.84250E+00  4.02339E+00  5.26104E+00  9.23579E+00
   2.27300E+00  6.62098E+00  5.76349E+00  4.07949E+00  1.88900E+00  2.30174E+00  5.36267E-01  4.55311E+00  8.88277E+00  1.10887E+01
   5.03132E+00  7.14837E+00  7.63164E+00  3.19769E+00  6.93307E+00  8.14381E+00  3.51431E+00  6.50929E+00  3.85890E+00  1.55951E+00
   8.58833E+00  3.86996E+00  2.63397E+00  8.22805E-01  8.82778E+00  7.09946E+00  6.68062E+00  1.37810E+01  3.11317E+00  5.89891E+00
   6.73004E+00  4.49874E+00  1.01558E+01  1.07974E+01  3.85258E+00  8.01403E+00  1.25125E+01  1.78582E+00  1.38670E+01  1.71880E+01
   1.62966E+01  1.09498E+01  1.06580E+01  9.01158E+00  1.50486E+01  1.64235E+01  1.55776E+01  1.18280E+01  1.15008E+01  1.25130E+01
   9.76855E+00  1.06746E+01  8.70143E+00  4.41792E+00  9.88308E+00  1.12049E+01  1.39708E+01  1.30054E+01  6.86559E+00  5.87577E+00
   7.01855E+00  8.16001E+00  9.41515E+00  6.77532E+00  8.57069E+00  6.65030E+00  1.29612E+01  8.19580E+00  3.95584E+00  1.16324E+01
   8.08739E+00  5.65385E+00  3.13784E+00  4.24019E+00  5.92002E+00  6.10026E+00  6.88339E+00  6.82095E+00  9.34251E+00  6.43316E+00
   4.47094E+00  1.32540E+00  3.58462E+00  5.21677E+00  5.51997E+00  5.37386E+00  6.56710E-02  2.70369E+00  3.78158E-02  2.92064E+00
  -8.88425E-01  2.62211E+00  4.93650E+00  5.29563E+00  5.50492E+00  8.22647E+00  5.36881E+00  7.87609E+00  5.70091E+00  8.40506E+00
   8.11012E+00  7.45771E+00  1.40577E+00  2.44101E+00 -1.78305E+00  3.82428E+00  5.79930E+00  5.39920E+00  7.55124E+00  6.85076E+00
   8.34545E+00  7.17015E+00  8.21077E+00  4.67101E+00  5.79490E+00  3.87645E+00  2.20032E+00  2.43320E+00  7.43218E-01  4.74040E+00
   2.43173E+00  3.10305E+00 -6.40545E+00 -2.43563E+00 -5.86758E+00 -3.16683E+00  3.01956E-01 -5.18710E+00  3.59705E-01 -3.61107E+00
  -4.15944E+00 -2.12174E+00 -7.52257E-02 -4.65034E+00  9.94492E-01 -3.68102E+00 -1.79072E+00 -1.23379E+00  1.68610E+00 -3.84044E+00
   6.60084E-01 -4.25939E-02 -2.30641E+00  4.03916E-01 -3.21003E+00 -3.46699E+00 -4.26472E+00 -5.72774E+00 -8.94266E+00 -4.34676E+00
  -4.79739E+00 -5.51109E+00 -3.11063E+00 -6.16954E+00 -5.05012E-01  1.32645E-01  1.97861E+00 -2.04688E+00  3.40138E+00 -6.04654E-01
  -1.97369E+00 -4.38399E+00 -3.07890E+00 -3.42210E+00  2.92367E+00 -1.53316E+00  3.23024E+00 -3.17218E+00 -2.03518E+00 -2.37311E+00
  -4.85894E+00 -2.01812E+00 -2.33394E+00 -1.50516E+00 -3.13701E-01  1.44013E+00 -4.27445E+00  8.07662E-01 -5.20844E+00 -5.08079E-01
   1.24003E+00  1.73286E+00  2.25466E+00  2.23178E-01 -1.34070E+00  2.56567E+00 -1.38023E+00 -3.69780E+00 -3.31949E+00 -8.24214E+00
  -2.52414E+00 -4.11607E+00 -6.10257E+00 -1.93389E+00  2.78904E+00 -2.00255E+00 -4.25745E+00  1.17356E+00
 NY points of the fit to the data follow
  -3.57546E+00 -3.52641E+00 -2.74178E+00 -1.24179E+00  8.13415E-01  3.60308E+00  7.13039E+00  1.13280E+01  1.57190E+01  1.93789E+01
   2.13205E+01  2.09570E+01  1.85133E+01  1.48769E+01  1.10458E+01  7.67337E+00  4.96594E+00  2.86757E+00  1.39507E+00  4.24714E-01
  -2.12512E-01 -6.80120E-01 -1.01439E+00 -9.97167E-01 -8.90343E-01 -7.24977E-01 -1.85283E-01  1.09060E+00  3.12802E+00  5.48640E+00
   7.57660E+00  8.77838E+00  8.71848E+00  7.51249E+00  5.56439E+00  3.38174E+00  1.37803E+00 -2.79901E-01 -1.36252E+00 -1.57966E+00
  -1.07219E+00 -2.06461E-01  7.63567E-01  1.87667E+00  3.15082E+00  4.41379E+00  5.35718E+00  5.65249E+00  5.13336E+00  3.90086E+00
   2.27130E+00  6.99536E-01 -4.80871E-01 -1.26830E+00 -1.73293E+00 -1.88228E+00 -1.73602E+00 -1.40175E+00 -1.03643E+00 -7.68584E-01
  -7.24461E-01 -9.93536E-01 -1.50673E+00 -2.11068E+00 -2.58861E+00 -2.81126E+00 -2.81134E+00 -2.66889E+00 -2.41654E+00 -2.09852E+00
  -1.80691E+00 -1.59883E+00 -1.48692E+00 -1.47050E+00 -1.54802E+00 -1.70980E+00 -1.95702E+00 -2.29152E+00 -2.64301E+00 -2.84766E+00
  -2.69161E+00 -2.34070E+00 -1.86739E+00 -1.20315E+00 -3.45170E-01  5.31771E-01  1.10229E+00  1.12261E+00  5.71937E-01 -3.26833E-01
  -1.27190E+00 -1.99441E+00 -2.41761E+00 -2.64321E+00 -2.62403E+00 -1.53979E+00  1.86932E+00  6.26899E+00  1.13641E+01  1.83412E+01
   2.77550E+01  3.82632E+01  4.67949E+01  5.03605E+01  4.76336E+01  3.96716E+01  2.93509E+01  1.96949E+01  1.21592E+01  6.58824E+00
   2.43335E+00 -3.27014E-01 -1.49711E+00 -1.91951E+00 -2.12399E+00 -2.22712E+00 -2.26590E+00 -2.23521E+00 -2.08736E+00 -1.53854E+00
   3.89391E-01  3.40587E+00  6.80507E+00  1.12055E+01  1.72736E+01  2.45810E+01  3.13650E+01  3.53988E+01  3.52126E+01  3.09781E+01
   2.43935E+01  1.76083E+01  1.19521E+01  7.48885E+00  3.79105E+00  7.97754E-01 -1.05649E+00 -1.82800E+00 -1.90914E+00 -1.51345E+00
  -9.19150E-01 -3.93633E-01 -8.51761E-02 -4.50361E-02 -2.48050E-01 -5.87963E-01 -9.67645E-01 -1.35983E+00 -1.73835E+00 -2.07839E+00
  -2.38117E+00 -2.64900E+00 -2.88901E+00 -3.10493E+00 -3.31036E+00 -3.43913E+00 -3.48477E+00 -3.54552E+00 -3.71490E+00 -4.09127E+00
  -4.56752E+00 -4.90613E+00 -4.97488E+00 -4.84326E+00 -4.69933E+00 -4.75008E+00 -5.08232E+00 -5.60534E+00 -6.16008E+00 -6.64221E+00
  -7.00021E+00 -7.21956E+00 -7.44500E+00 -7.78281E+00 -8.21301E+00 -8.55862E+00 -8.62403E+00 -8.40509E+00 -8.11674E+00 -7.96561E+00
  -8.00415E+00 -8.03471E+00 -7.85628E+00 -7.45976E+00 -6.93039E+00 -6.31133E+00 -5.54140E+00 -4.48549E+00 -3.13146E+00 -1.71608E+00
  -6.17858E-01 -1.80542E-01 -3.70004E-01 -9.81959E-01 -1.78673E+00 -2.55151E+00 -3.04485E+00 -3.01320E+00 -2.41669E+00 -1.37006E+00
  -8.26884E-02  1.17961E+00  2.08261E+00  2.32403E+00  1.92284E+00  8.22080E-01 -1.00710E+00 -3.20020E+00 -5.12326E+00 -6.12722E+00
  -6.07520E+00 -5.06147E+00 -3.15272E+00 -6.16951E-01  1.95909E+00  3.80455E+00  4.37601E+00  3.59793E+00  1.68053E+00 -9.75040E-01
  -3.59480E+00 -5.46208E+00 -6.10885E+00 -5.36008E+00 -3.48140E+00 -9.89218E-01  1.44095E+00  3.25193E+00  4.23475E+00  4.51581E+00
   4.44834E+00  4.28330E+00  4.20111E+00  4.42047E+00  5.01263E+00  5.76194E+00  6.40480E+00  6.81210E+00  6.88256E+00  6.53454E+00
   5.80803E+00  5.04421E+00  4.67022E+00  4.92366E+00  5.77623E+00  7.02183E+00  8.41727E+00  9.72847E+00  1.11194E+01  1.29551E+01
   1.49574E+01  1.72927E+01  2.08383E+01  2.74668E+01  3.64170E+01  4.48282E+01  5.27511E+01  6.14596E+01  7.10661E+01  7.94942E+01
   8.34791E+01  8.04844E+01  7.03234E+01  5.56936E+01  4.08430E+01  2.88158E+01  1.99200E+01  1.32870E+01  8.42564E+00  5.68136E+00
   4.59659E+00  4.03115E+00  3.68171E+00  3.44064E+00  3.20671E+00  2.92263E+00  2.59601E+00  2.24615E+00  1.91251E+00  1.63551E+00
   1.43356E+00  1.30070E+00  1.22764E+00  1.20094E+00  1.20208E+00  1.21373E+00  1.22929E+00  1.26254E+00  1.33370E+00  1.45730E+00
   1.63957E+00  1.87716E+00  2.15510E+00  2.45350E+00  2.75113E+00  3.03478E+00  3.30137E+00  3.55393E+00  3.79723E+00  4.03370E+00
   4.26429E+00  4.48510E+00  4.68414E+00  4.84896E+00  4.97211E+00  5.05156E+00  5.08849E+00  5.08534E+00  5.04692E+00  4.98208E+00
   4.89931E+00  4.80694E+00  4.71383E+00  4.62910E+00  4.56222E+00  4.52280E+00  4.52028E+00  4.56432E+00  4.66655E+00  4.84654E+00
   5.13871E+00  5.49927E+00  5.85051E+00  6.23141E+00  6.64555E+00  7.00019E+00  7.14965E+00  6.99441E+00  6.61384E+00  6.22949E+00
   5.97539E+00  5.97827E+00  6.33520E+00  7.06059E+00  8.08131E+00  9.24774E+00  1.03740E+01  1.12620E+01  1.18056E+01  1.20877E+01
   1.22828E+01  1.24358E+01  1.25091E+01  1.25562E+01  1.26056E+01  1.25887E+01  1.23240E+01  1.17071E+01  1.08719E+01  1.00008E+01
   9.24895E+00  8.80217E+00  8.77615E+00  9.15166E+00  9.78879E+00  1.04880E+01  1.10495E+01  1.12952E+01  1.11710E+01  1.07933E+01
   1.03040E+01  9.78100E+00  9.24035E+00  8.68917E+00  8.17268E+00  7.70126E+00  7.25050E+00  6.81172E+00  6.38370E+00  5.96803E+00
   5.56759E+00  5.18579E+00  4.82612E+00  4.49189E+00  4.18622E+00  3.91209E+00  3.67223E+00  3.46902E+00  3.30438E+00  3.17986E+00
   3.09672E+00  3.05597E+00  3.05831E+00  3.10393E+00  3.19249E+00  3.32315E+00  3.49453E+00  3.70469E+00  3.95087E+00  4.22938E+00
   4.53554E+00  4.86377E+00  5.20767E+00  5.55996E+00  5.91256E+00  6.25665E+00  6.58306E+00  6.88258E+00  7.14635E+00  7.36603E+00
   7.53411E+00  7.64426E+00  7.69170E+00  7.67346E+00  7.58853E+00  7.43773E+00  7.22367E+00  6.95068E+00  6.62467E+00  6.25284E+00
   5.84332E+00  5.40466E+00  4.94551E+00  4.47439E+00  3.99944E+00  3.52812E+00  3.06697E+00  2.62142E+00  2.19578E+00  1.79334E+00
   1.41645E+00  1.06652E+00  7.44104E-01  4.48931E-01  1.80214E-01 -6.32067E-02 -2.82724E-01 -4.79965E-01 -6.56734E-01 -8.14921E-01
  -9.56326E-01 -1.08260E+00 -1.19527E+00 -1.29579E+00 -1.38558E+00 -1.46591E+00 -1.53788E+00 -1.60236E+00 -1.66017E+00 -1.71206E+00
  -1.75877E+00 -1.80092E+00 -1.83897E+00 -1.87329E+00 -1.90423E+00 -1.93220E+00 -1.95755E+00 -1.98057E+00 -2.00140E+00 -2.02020E+00
  -2.03715E+00 -2.05249E+00 -2.06640E+00 -2.07898E+00 -2.09027E+00 -2.10034E+00 -2.10932E+00 -2.11736E+00 -2.12455E+00 -2.13092E+00
  -2.13645E+00 -2.14120E+00 -2.14528E+00 -2.14880E+00 -2.15177E+00 -2.15416E+00 -2.15597E+00 -2.15726E+00 -2.15813E+00 -2.15864E+00
  -2.15876E+00 -2.15844E+00 -2.15769E+00 -2.15660E+00 -2.15523E+00 -2.15359E+00 -2.15163E+00 -2.14932E+00 -2.14669E+00 -2.14383E+00
  -2.14077E+00 -2.13748E+00 -2.13391E+00 -2.13004E+00 -2.12593E+00 -2.12163E+00 -2.11717E+00 -2.11247E+00 -2.10748E+00 -2.10222E+00
  -2.09675E+00 -2.09112E+00 -2.08526E+00 -2.07913E+00 -2.07267E+00 -2.06592E+00 -2.05892E+00 -2.05167E+00
 NY background values follow
    -5.544E+00   -5.537E+00   -5.529E+00   -5.522E+00   -5.515E+00   -5.508E+00   -5.500E+00   -5.493E+00   -5.486E+00   -5.478E+00
    -5.471E+00   -5.464E+00   -5.457E+00   -5.449E+00   -5.442E+00   -5.435E+00   -5.427E+00   -5.420E+00   -5.413E+00   -5.405E+00
    -5.398E+00   -5.391E+00   -5.383E+00   -5.376E+00   -5.369E+00   -5.362E+00   -5.354E+00   -5.347E+00   -5.340E+00   -5.332E+00
    -5.325E+00   -5.318E+00   -5.310E+00   -5.303E+00   -5.296E+00   -5.288E+00   -5.281E+00   -5.274E+00   -5.266E+00   -5.259E+00
    -5.252E+00   -5.244E+00   -5.237E+00   -5.230E+00   -5.222E+00   -5.215E+00   -5.208E+00   -5.200E+00   -5.193E+00   -5.186E+00
    -5.178E+00   -5.171E+00   -5.164E+00   -5.156E+00   -5.149E+00   -5.142E+00   -5.134E+00   -5.127E+00   -5.119E+00   -5.112E+00
    -5.105E+00   -5.097E+00   -5.090E+00   -5.083E+00   -5.075E+00   -5.068E+00   -5.061E+00   -5.053E+00   -5.046E+00   -5.039E+00
    -5.031E+00   -5.024E+00   -5.016E+00   -5.009E+00   -5.002E+00   -4.994E+00   -4.987E+00   -4.980E+00   -4.972E+00   -4.965E+00
    -4.957E+00   -4.950E+00   -4.943E+00   -4.935E+00   -4.928E+00   -4.921E+00   -4.913E+00   -4.906E+00   -4.898E+00   -4.891E+00
    -4.884E+00   -4.876E+00   -4.869E+00   -4.862E+00   -4.854E+00   -4.847E+00   -4.839E+00   -4.832E+00   -4.825E+00   -4.817E+00
    -4.810E+00   -4.802E+00   -4.795E+00   -4.788E+00   -4.780E+00   -4.773E+00   -4.765E+00   -4.758E+00   -4.751E+00   -4.743E+00
    -4.736E+00   -4.728E+00   -4.721E+00   -4.714E+00   -4.706E+00   -4.699E+00   -4.691E+00   -4.684E+00   -4.677E+00   -4.669E+00
    -4.662E+00   -4.654E+00   -4.647E+00   -4.640E+00   -4.632E+00   -4.625E+00   -4.617E+00   -4.610E+00   -4.602E+00   -4.595E+00
    -4.588E+00   -4.580E+00   -4.573E+00   -4.565E+00   -4.558E+00   -4.551E+00   -4.543E+00   -4.536E+00   -4.528E+00   -4.521E+00
    -4.513E+00   -4.506E+00   -4.499E+00   -4.491E+00   -4.484E+00   -4.476E+00   -4.469E+00   -4.461E+00   -4.454E+00   -4.447E+00
    -4.439E+00   -4.432E+00   -4.424E+00   -4.417E+00   -4.409E+00   -4.402E+00   -4.394E+00   -4.387E+00   -4.380E+00   -4.372E+00
    -4.365E+00   -4.357E+00   -4.350E+00   -4.342E+00   -4.335E+00   -4.327E+00   -4.320E+00   -4.313E+00   -4.305E+00   -4.298E+00
    -4.290E+00   -4.283E+00   -4.275E+00   -4.268E+00   -4.260E+00   -4.253E+00   -4.246E+00   -4.238E+00   -4.231E+00   -4.223E+00
    -4.216E+00   -4.208E+00   -4.201E+00   -4.193E+00   -4.186E+00   -4.178E+00   -4.171E+00   -4.163E+00   -4.156E+00   -4.149E+00
    -4.141E+00   -4.134E+00   -4.126E+00   -4.119E+00   -4.111E+00   -4.104E+00   -4.096E+00   -4.089E+00   -4.081E+00   -4.074E+00
    -4.066E+00   -4.059E+00   -4.051E+00   -4.044E+00   -4.037E+00   -4.029E+00   -4.022E+00   -4.014E+00   -4.007E+00   -3.999E+00
    -3.992E+00   -3.984E+00   -3.977E+00   -3.969E+00   -3.962E+00   -3.954E+00   -3.947E+00   -3.939E+00   -3.932E+00   -3.924E+00
    -3.917E+00   -3.909E+00   -3.902E+00   -3.894E+00   -3.887E+00   -3.879E+00   -3.872E+00   -3.865E+00   -3.857E+00   -3.850E+00
    -3.842E+00   -3.835E+00   -3.827E+00   -3.820E+00   -3.812E+00   -3.805E+00   -3.797E+00   -3.790E+00   -3.782E+00   -3.775E+00
    -3.767E+00   -3.760E+00   -3.752E+00   -3.745E+00   -3.737E+00   -3.730E+00   -3.722E+00   -3.715E+00   -3.707E+00   -3.700E+00
    -3.692E+00   -3.685E+00   -3.677E+00   -3.670E+00   -3.662E+00   -3.655E+00   -3.647E+00   -3.640E+00   -3.632E+00   -3.625E+00
    -3.617E+00   -3.610E+00   -3.602E+00   -3.595E+00   -3.587E+00   -3.580E+00   -3.572E+00   -3.565E+00   -3.557E+00   -3.550E+00
    -3.542E+00   -3.535E+00   -3.527E+00   -3.520E+00   -3.512E+00   -3.505E+00   -3.497E+00   -3.490E+00   -3.482E+00   -3.475E+00
    -3.467E+00   -3.460E+00   -3.452E+00   -3.445E+00   -3.437E+00   -3.430E+00   -3.422E+00   -3.415E+00   -3.407E+00   -3.400E+00
    -3.392E+00   -3.385E+00   -3.377E+00   -3.370E+00   -3.362E+00   -3.355E+00   -3.347E+00   -3.340E+00   -3.332E+00   -3.324E+00
    -3.317E+00   -3.309E+00   -3.302E+00   -3.294E+00   -3.287E+00   -3.279E+00   -3.272E+00   -3.264E+00   -3.257E+00   -3.249E+00
    -3.242E+00   -3.234E+00   -3.227E+00   -3.219E+00   -3.212E+00   -3.204E+00   -3.197E+00   -3.189E+00   -3.182E+00   -3.174E+00
    -3.167E+00   -3.159E+00   -3.152E+00   -3.144E+00   -3.137E+00   -3.129E+00   -3.122E+00   -3.114E+00   -3.107E+00   -3.099E+00
    -3.092E+00   -3.084E+00   -3.076E+00   -3.069E+00   -3.061E+00   -3.054E+00   -3.046E+00   -3.039E+00   -3.031E+00   -3.024E+00
    -3.016E+00   -3.009E+00   -3.001E+00   -2.994E+00   -2.986E+00   -2.979E+00   -2.971E+00   -2.964E+00   -2.956E+00   -2.949E+00
    -2.941E+00   -2.934E+00   -2.926E+00   -2.919E+00   -2.911E+00   -2.904E+00   -2.896E+00   -2.888E+00   -2.881E+00   -2.873E+00
    -2.866E+00   -2.858E+00   -2.851E+00   -2.843E+00   -2.836E+00   -2.828E+00   -2.821E+00   -2.813E+00   -2.806E+00   -2.798E+00
    -2.791E+00   -2.783E+00   -2.776E+00   -2.768E+00   -2.761E+00   -2.753E+00   -2.746E+00   -2.738E+00   -2.731E+00   -2.723E+00
    -2.716E+00   -2.708E+00   -2.700E+00   -2.693E+00   -2.685E+00   -2.678E+00   -2.670E+00   -2.663E+00   -2.655E+00   -2.648E+00
    -2.640E+00   -2.633E+00   -2.625E+00   -2.618E+00   -2.610E+00   -2.603E+00   -2.595E+00   -2.588E+00   -2.580E+00   -2.573E+00
    -2.565E+00   -2.558E+00   -2.550E+00   -2.543E+00   -2.535E+00   -2.527E+00   -2.520E+00   -2.512E+00   -2.505E+00   -2.497E+00
    -2.490E+00   -2.482E+00   -2.475E+00   -2.467E+00   -2.460E+00   -2.452E+00   -2.445E+00   -2.437E+00   -2.430E+00   -2.422E+00
    -2.415E+00   -2.407E+00   -2.400E+00   -2.392E+00   -2.385E+00   -2.377E+00   -2.370E+00   -2.362E+00   -2.355E+00   -2.347E+00
    -2.340E+00   -2.332E+00   -2.325E+00   -2.317E+00   -2.309E+00   -2.302E+00   -2.294E+00   -2.287E+00   -2.279E+00   -2.272E+00
    -2.264E+00   -2.257E+00   -2.249E+00   -2.242E+00   -2.234E+00   -2.227E+00   -2.219E+00   -2.212E+00   -2.204E+00   -2.197E+00
    -2.189E+00   -2.182E+00   -2.174E+00   -2.167E+00   -2.159E+00   -2.152E+00   -2.144E+00   -2.137E+00   -2.129E+00   -2.122E+00
    -2.114E+00   -2.107E+00   -2.099E+00   -2.092E+00   -2.084E+00   -2.077E+00   -2.069E+00   -2.062E+00   -2.054E+00   -2.047E+00
    -2.039E+00   -2.032E+00   -2.024E+00   -2.017E+00   -2.009E+00   -2.001E+00   -1.994E+00   -1.986E+00   -1.979E+00   -1.971E+00
    -1.964E+00   -1.956E+00   -1.949E+00   -1.941E+00   -1.934E+00   -1.926E+00   -1.919E+00   -1.911E+00   -1.904E+00   -1.896E+00
    -1.889E+00   -1.881E+00   -1.874E+00   -1.866E+00   -1.859E+00   -1.851E+00   -1.844E+00   -1.836E+00
 Ala      Conc. = 1.69E+02
