 LCModel (Version 6.3-1L) Copyright: S.W. Provencher.          Ref.: Magn. Reson. Med. 30:672-679 (1993).                
 Slice#1 Row#9 Col#6  PD_24_press_1_raw_act
 36 lines in following concentration table = NCONC+1
    Conc.  %SD /Cr+PCr  Metabolite                                         
    0.000 999%   0.000 Ala                                                 
   45.582 150%   0.188 Asp                                                 
  242.405  17%   1.000 Cr                                                  
    0.000 999%   0.000 PCr                                                 
   39.150 105%   0.162 GABA                                                
   26.135 158%   0.108 Glc                                                 
   49.704 375%   0.205 Gln                                                 
  651.687  32%   2.688 Glu                                                 
  126.699  13%   0.523 GPC                                                 
    0.000 999%   0.000 PCh                                                 
  111.151  56%   0.459 GSH                                                 
  169.646 112%   0.700 Ins                                                 
    0.000 999%   0.000 Lac                                                 
  401.771  17%   1.657 NAA                                                 
  220.225  32%   0.909 NAAG                                                
   18.451  67% 7.6E-02 Scyllo                                              
   37.725 176%   0.156 Tau                                                 
    0.000 999%   0.000 -CrCH2                                              
  126.699  13%   0.523 GPC+PCh                                             
  621.996  10%   2.566 NAA+NAAG                                            
  242.405  17%   1.000 Cr+PCr                                              
  701.390  40%   2.893 Glu+Gln                                             
   96.584 992%   0.398 Lip13a                                              
  784.456 100%   3.236 Lip13b                                              
  106.789 156%   0.441 Lip09                                               
  362.012  49%   1.493 MM09                                                
  106.639 109%   0.440 Lip20                                               
  574.008  46%   2.368 MM20                                                
  109.883  69%   0.453 MM12                                                
  421.170  53%   1.737 MM14                                                
  332.165  36%   1.370 MM17                                                
  881.040  39%   3.635 Lip13a+Lip13b                                       
 1.41E+03  18%   5.825 MM14+Lip13a+Lip13b+MM12                             
  468.802  28%   1.934 MM09+Lip09                                          
  680.647  37%   2.808 MM20+Lip20                                          
   6 lines in following misc. output table
  FWHM = 0.054 ppm    S/N =   3                                            
  Data shift = 0.023 ppm                                                   
  Ph: -42 deg      -4.8 deg/ppm                                            
  alphaB,S = 8.5E+01,   1.0E+02                                            
   14 spline knots.   Ns = 5(1)                                            
   2 inflections.     1 extrema                                            
  498 points on ppm-axis = NY
      4.000000     3.992357     3.984714     3.977070     3.969427     3.961784     3.954141     3.946497     3.938854     3.931211
      3.923568     3.915925     3.908281     3.900638     3.892995     3.885352     3.877708     3.870065     3.862422     3.854779
      3.847136     3.839492     3.831849     3.824206     3.816563     3.808919     3.801276     3.793633     3.785990     3.778347
      3.770703     3.763060     3.755417     3.747774     3.740130     3.732487     3.724844     3.717201     3.709558     3.701914
      3.694271     3.686628     3.678985     3.671341     3.663698     3.656055     3.648412     3.640769     3.633125     3.625482
      3.617839     3.610196     3.602552     3.594909     3.587266     3.579623     3.571980     3.564336     3.556693     3.549050
      3.541407     3.533763     3.526120     3.518477     3.510834     3.503191     3.495547     3.487904     3.480261     3.472618
      3.464974     3.457331     3.449688     3.442045     3.434402     3.426758     3.419115     3.411472     3.403829     3.396185
      3.388542     3.380899     3.373256     3.365613     3.357969     3.350326     3.342683     3.335040     3.327396     3.319753
      3.312110     3.304467     3.296824     3.289180     3.281537     3.273894     3.266251     3.258607     3.250964     3.243321
      3.235678     3.228034     3.220391     3.212748     3.205105     3.197462     3.189818     3.182175     3.174532     3.166889
      3.159245     3.151602     3.143959     3.136316     3.128673     3.121029     3.113386     3.105743     3.098100     3.090456
      3.082813     3.075170     3.067527     3.059884     3.052240     3.044597     3.036954     3.029311     3.021667     3.014024
      3.006381     2.998738     2.991095     2.983451     2.975808     2.968165     2.960522     2.952878     2.945235     2.937592
      2.929949     2.922306     2.914662     2.907019     2.899376     2.891733     2.884089     2.876446     2.868803     2.861160
      2.853517     2.845873     2.838230     2.830587     2.822944     2.815300     2.807657     2.800014     2.792371     2.784728
      2.777084     2.769441     2.761798     2.754155     2.746511     2.738868     2.731225     2.723582     2.715939     2.708295
      2.700652     2.693009     2.685366     2.677722     2.670079     2.662436     2.654793     2.647150     2.639506     2.631863
      2.624220     2.616577     2.608933     2.601290     2.593647     2.586004     2.578361     2.570717     2.563074     2.555431
      2.547788     2.540144     2.532501     2.524858     2.517215     2.509572     2.501928     2.494285     2.486642     2.478999
      2.471355     2.463712     2.456069     2.448426     2.440783     2.433139     2.425496     2.417853     2.410210     2.402566
      2.394923     2.387280     2.379637     2.371994     2.364350     2.356707     2.349064     2.341421     2.333777     2.326134
      2.318491     2.310848     2.303205     2.295561     2.287918     2.280275     2.272632     2.264988     2.257345     2.249702
      2.242059     2.234416     2.226772     2.219129     2.211486     2.203843     2.196199     2.188556     2.180913     2.173270
      2.165627     2.157983     2.150340     2.142697     2.135054     2.127410     2.119767     2.112124     2.104481     2.096838
      2.089194     2.081551     2.073908     2.066265     2.058621     2.050978     2.043335     2.035692     2.028049     2.020405
      2.012762     2.005119     1.997476     1.989833     1.982190     1.974546     1.966903     1.959260     1.951617     1.943974
      1.936331     1.928688     1.921045     1.913402     1.905759     1.898115     1.890472     1.882829     1.875186     1.867543
      1.859900     1.852257     1.844614     1.836971     1.829327     1.821684     1.814041     1.806398     1.798755     1.791112
      1.783469     1.775826     1.768183     1.760540     1.752896     1.745253     1.737610     1.729967     1.722324     1.714681
      1.707038     1.699395     1.691752     1.684108     1.676465     1.668822     1.661179     1.653536     1.645893     1.638250
      1.630607     1.622964     1.615321     1.607677     1.600034     1.592391     1.584748     1.577105     1.569462     1.561819
      1.554176     1.546533     1.538890     1.531246     1.523603     1.515960     1.508317     1.500674     1.493031     1.485388
      1.477745     1.470102     1.462458     1.454815     1.447172     1.439529     1.431886     1.424243     1.416600     1.408957
      1.401314     1.393671     1.386027     1.378384     1.370741     1.363098     1.355455     1.347812     1.340169     1.332526
      1.324883     1.317240     1.309596     1.301953     1.294310     1.286667     1.279024     1.271381     1.263738     1.256095
      1.248452     1.240808     1.233165     1.225522     1.217879     1.210236     1.202593     1.194950     1.187307     1.179664
      1.172021     1.164377     1.156734     1.149091     1.141448     1.133805     1.126162     1.118519     1.110876     1.103233
      1.095590     1.087946     1.080303     1.072660     1.065017     1.057374     1.049731     1.042088     1.034445     1.026802
      1.019158     1.011515     1.003872     0.996229     0.988586     0.980943     0.973300     0.965657     0.958014     0.950371
      0.942727     0.935084     0.927441     0.919798     0.912155     0.904512     0.896869     0.889226     0.881583     0.873940
      0.866296     0.858653     0.851010     0.843367     0.835724     0.828081     0.820438     0.812795     0.805152     0.797508
      0.789865     0.782222     0.774579     0.766936     0.759293     0.751650     0.744007     0.736364     0.728721     0.721077
      0.713434     0.705791     0.698148     0.690505     0.682862     0.675219     0.667576     0.659933     0.652290     0.644646
      0.637003     0.629360     0.621717     0.614074     0.606431     0.598788     0.591145     0.583502     0.575858     0.568215
      0.560572     0.552929     0.545286     0.537643     0.530000     0.522357     0.514714     0.507071     0.499427     0.491784
      0.484141     0.476498     0.468855     0.461212     0.453569     0.445925     0.438282     0.430639     0.422996     0.415353
      0.407710     0.400067     0.392424     0.384780     0.377137     0.369494     0.361851     0.354208     0.346565     0.338922
      0.331278     0.323635     0.315992     0.308349     0.300706     0.293063     0.285420     0.277777     0.270133     0.262490
      0.254847     0.247204     0.239561     0.231918     0.224275     0.216631     0.208988     0.201345
 NY phased data points follow
   3.60944E-01 -2.22380E+00  1.15286E+00 -2.70123E+00  2.21140E+00 -9.28452E+00  3.31027E+00  6.25614E+00  6.51819E+00  3.30526E+00
   7.58456E+00  8.29645E+00  6.82353E+00  6.86502E+00  4.85740E+00  1.34321E+00  5.25521E+00 -3.99223E+00 -1.01383E+00 -1.36361E+00
   8.20306E+00  7.17450E+00  3.70717E+00  6.90165E+00  2.37173E+00 -1.42967E+00  2.75027E+00  2.19529E+00  8.44893E+00 -5.29321E-01
   3.17559E+00  9.13030E-01  4.30431E+00 -5.89903E+00 -5.10971E-01 -3.74045E+00  6.05727E-01 -2.42250E+00 -2.94751E-01  5.39807E+00
   1.50411E+00  4.32495E+00  8.31193E+00  2.55433E+00  1.94612E-01  3.97864E+00  5.07010E+00  5.00654E+00  2.42592E+00  4.22955E+00
   1.10471E+00  1.40881E+00  5.35204E+00  1.62863E+00  2.42330E+00 -3.67193E+00  4.86536E-01  3.14856E+00 -8.06930E-02 -4.81746E+00
  -4.99429E-01 -8.84372E+00  4.17859E+00 -4.32928E+00 -1.20105E+00 -7.92412E+00  4.63549E-01  2.35407E+00 -6.78438E+00 -5.76949E+00
   1.11595E+00  2.72604E+00  1.73876E+00  2.43438E-02 -8.63402E-01  7.30220E-01 -3.47334E+00 -6.39399E+00 -1.75402E-01 -1.03109E+01
  -3.14937E-01  2.74592E-01  1.70488E+00 -2.29330E+00  1.91445E-01  9.49776E-01 -2.68355E-01  5.99944E+00 -9.48042E-01  6.93620E-01
   2.07070E+00  1.15069E+00  6.02135E+00 -8.65669E-01 -1.78151E-01 -1.60095E+00  2.81837E+00 -2.24234E+00  9.92080E-01  3.34499E-01
   3.30222E+00  9.94401E+00  1.58257E+01  1.04132E+01  1.41332E+01  7.68337E+00  7.49103E+00  4.57388E+00  1.43054E+00  5.30418E+00
   5.11168E+00  2.48694E+00 -5.11899E+00 -1.33852E+00  5.39067E+00 -2.12259E+00  2.98500E-01  3.62781E+00 -2.13661E-01  3.94772E+00
   4.00432E+00 -8.65096E+00 -3.35801E+00 -1.18754E+01 -9.24345E-01  3.82420E+00  7.71921E+00  8.82288E+00  9.26308E+00  1.05440E+01
   9.80923E+00 -2.80040E+00  6.43198E+00  9.71727E-03  4.79483E+00 -3.71771E-01 -2.69020E+00 -1.71983E+00 -1.32224E+00 -6.93404E-01
   2.05527E-01  7.06274E-01 -3.08380E+00  1.58775E-01 -6.52597E-01 -1.47278E+00 -1.36172E+00  3.46117E-01 -1.37007E+00 -4.03986E+00
  -1.87311E+00 -4.91564E-01 -3.59180E+00 -5.77577E+00 -1.93512E+00 -4.33525E+00  7.03492E-01  1.04445E+00  5.86410E-01  7.09677E-01
   1.14589E+00  1.03614E+00 -8.95408E-01 -5.71716E-01 -6.59249E-01 -5.69902E+00  4.47295E-02 -3.85646E+00 -5.84065E+00 -7.30475E-01
  -6.15095E+00 -3.94811E+00 -2.28013E+00 -1.47959E+00 -4.65528E+00 -2.64941E+00 -3.59408E+00 -2.53682E+00 -2.87784E+00 -9.02728E+00
  -4.41185E+00 -6.01156E+00 -8.10106E-01 -7.06556E+00  2.23824E-02 -9.74744E-01 -4.47567E+00 -4.83185E+00 -1.32816E+00  3.40424E+00
  -2.53295E+00  4.89304E-02  2.78315E+00 -4.23829E+00 -4.63452E-01 -2.41460E+00 -1.40547E+00 -2.12980E+00 -2.91315E+00 -5.93377E+00
   1.27254E-02 -1.52120E+00 -1.43531E+00  2.21422E+00  7.26193E+00 -6.79493E-01 -1.65283E+00 -5.68822E+00 -4.23939E+00 -3.07558E+00
   3.47408E+00  2.20147E+00  6.00792E+00 -3.31179E+00  1.31053E+00  6.25514E+00  2.56648E+00 -3.60575E+00  1.16870E+00  6.08634E-01
  -4.92138E+00 -7.92135E+00 -2.66904E+00  1.88355E+00 -5.54215E+00 -4.38725E+00 -2.29859E+00  2.27457E+00  1.75812E+00  2.84182E+00
   1.24967E+00  7.95930E-01  7.68967E-01 -1.14175E-01  2.45270E+00  5.79696E+00 -3.59310E+00  1.94483E+00  5.14433E+00  3.55827E+00
  -2.76294E+00 -7.94084E-01 -3.10974E+00  6.34988E-01 -4.41492E-01  7.37900E+00  3.83071E+00 -1.30135E+00  3.50357E-01  6.53315E+00
   3.22012E+00  6.88970E+00  7.77809E+00  7.02250E+00  1.09030E+01  1.42583E+01  8.99207E+00  4.65905E+00  1.73805E+01  2.16600E+01
   2.94304E+01  1.83712E+01  1.20225E+01  7.87673E+00  1.00228E+01  7.16960E+00  4.36825E+00  1.03284E+00  4.81695E+00  5.78836E+00
   1.83312E+00  3.89601E+00  2.87225E+00 -1.76839E+00 -2.70620E+00 -7.31066E+00  3.39709E+00 -1.95562E+00 -5.79768E+00  3.26582E+00
   5.30912E-01 -1.30454E+00 -1.19424E+00 -1.59848E+00 -5.69534E+00 -5.02939E+00  1.83389E+00  4.85776E+00  1.88253E+00  5.99794E+00
  -2.53819E+00  3.23339E+00  2.61959E+00  6.24196E-01  2.46313E+00 -6.61271E-01  5.77917E+00  5.05962E-01  2.15851E+00  9.25786E-01
   6.54747E+00 -1.30583E+00 -1.38964E+00  9.61182E+00  2.89394E+00  2.77333E+00  1.23568E+00  4.45530E+00  3.25793E+00  6.04363E-01
   2.03827E+00  5.85773E+00 -4.40621E-01  6.96132E+00  6.32479E+00 -3.34000E+00 -1.11650E+00  1.67687E-01  2.78306E+00 -2.56691E+00
  -1.51433E+00 -3.98370E+00 -4.81199E+00 -5.99100E+00  1.72859E+00 -1.75714E+00  7.39688E+00 -4.39886E+00 -2.33924E+00  1.84196E+00
  -1.34952E+00  1.92682E+00  1.75532E+00  1.24014E+01 -6.21339E-01  4.05014E+00  5.67819E+00  1.66943E+00 -7.81015E-01  1.68909E+00
  -3.27235E-02 -1.65088E-01  5.44926E+00  7.99968E+00  7.44798E+00  1.02320E+01  2.56554E+00  2.72343E+00  8.14177E+00  5.13201E+00
   9.12751E+00  4.73355E+00  1.35174E+01  1.35677E+01  9.06638E+00  6.82909E+00  4.87108E+00  6.55501E+00  7.01369E+00  5.82848E+00
  -1.39937E+00  9.77702E-01  4.42651E+00  4.01973E+00  5.07291E+00  2.06174E+00  2.24094E+00  1.64869E+00  3.57558E+00  2.24043E+00
   8.00711E+00 -1.20489E+00  2.44390E+00  1.10676E-01  5.71815E+00 -3.76686E+00  2.20500E+00  3.84130E+00 -2.98125E+00  5.06832E+00
   5.28259E-01 -1.61495E+00 -5.84191E+00  3.21448E-01  1.22473E+00  6.36206E-01 -6.13798E-01 -4.30530E+00  4.66078E-02 -1.09435E+00
   6.41294E-01  4.84472E+00 -2.60805E+00 -3.64250E+00  1.00680E+00  6.49861E+00 -1.58982E+00 -1.13266E+00 -3.08808E+00 -1.13836E+00
  -8.71023E-01  7.53958E-01 -2.50404E+00 -1.73432E-01  4.72013E+00 -1.47195E+00  1.24325E+00  4.45639E-01  2.91486E+00  1.18809E+00
   2.04532E+00  3.63165E+00  4.41928E+00  7.02689E+00  5.31519E+00  1.39745E+00  8.99295E-01  3.68750E+00  7.88624E+00  5.60389E+00
   4.34813E+00  5.13317E+00 -1.47512E+00 -3.16710E+00  8.59803E-01 -1.47727E+00 -5.78754E+00 -2.54780E+00 -2.95517E-01  1.85039E+00
   8.64150E-01  1.31797E+00 -3.04511E-01  4.66369E-01 -5.75286E-01 -1.60409E+00 -3.63362E+00  5.82409E+00  4.41548E-01  8.17869E+00
  -6.55386E-01  2.68097E+00 -5.50708E+00  4.06038E+00 -2.43282E+00  2.41328E+00 -2.96768E+00 -1.53886E+00 -3.19120E+00  3.89223E+00
   6.03496E-01 -2.96802E+00  1.40824E-02 -1.75736E+00  2.32611E+00  2.47697E+00  1.11031E+00  1.64605E+00 -2.60371E+00 -1.51042E+00
  -4.98113E+00 -6.20212E+00 -2.00265E+00  1.35723E-01  5.58648E-01 -2.01759E-01 -3.83040E+00  6.85776E-01 -3.79883E+00  7.35970E+00
  -4.27793E-01  8.50737E-01 -1.52554E+00  1.18043E+00 -1.63435E+00 -4.98032E-01 -3.19379E+00 -3.60532E+00 -7.70876E+00 -1.61469E+00
  -2.74409E+00  1.22265E+00 -2.09018E+00 -2.04332E-02  2.69082E+00  5.86942E+00 -1.04507E+00  3.01800E+00 -4.81677E+00  2.96819E+00
  -2.64688E+00 -3.05120E+00  8.36333E-02 -5.51237E+00 -6.84142E-01  3.78238E+00 -4.02502E+00  2.84482E+00
 NY points of the fit to the data follow
  -1.00743E-01 -1.03460E-01 -4.40284E-02  8.35617E-02  2.60495E-01  4.78936E-01  8.70513E-01  1.71516E+00  2.95182E+00  4.30645E+00
   5.44296E+00  6.07486E+00  6.09572E+00  5.58976E+00  4.72342E+00  3.64760E+00  2.50134E+00  1.46094E+00  7.75091E-01  5.43505E-01
   4.97865E-01  5.09647E-01  5.19343E-01  4.49526E-01  3.39478E-01  3.59936E-01  5.82755E-01  1.04861E+00  1.73135E+00  2.50442E+00
   3.15083E+00  3.48718E+00  3.43812E+00  2.97467E+00  2.13963E+00  1.15603E+00  3.28780E-01 -1.54625E-01 -3.43849E-01 -2.80545E-01
  -4.51182E-02  2.77894E-01  6.18248E-01  9.45766E-01  1.22995E+00  1.42871E+00  1.53632E+00  1.55077E+00  1.42658E+00  1.18426E+00
   8.83502E-01  5.57795E-01  2.30423E-01 -3.54448E-02 -1.80711E-01 -2.12789E-01 -1.74595E-01 -9.07498E-02  2.99853E-03  6.30985E-02
   6.07870E-02 -6.25836E-03 -1.11861E-01 -2.29421E-01 -3.36795E-01 -4.20174E-01 -4.61980E-01 -4.48368E-01 -3.91085E-01 -3.12285E-01
  -2.29212E-01 -1.47262E-01 -7.86937E-02 -3.44895E-02 -2.22770E-02 -5.18254E-02 -1.18521E-01 -2.08630E-01 -2.97189E-01 -3.57959E-01
  -3.76709E-01 -3.02820E-01 -1.14201E-01  1.27441E-01  3.31232E-01  4.27161E-01  3.89311E-01  2.43419E-01  4.31743E-02 -1.64014E-01
  -3.54385E-01 -5.07627E-01 -5.91736E-01 -5.72345E-01 -4.80977E-01 -3.73293E-01 -2.32348E-01  1.03842E-01  1.24817E+00  3.55427E+00
   6.58385E+00  9.60694E+00  1.18259E+01  1.27005E+01  1.21633E+01  1.05294E+01  8.21991E+00  5.59544E+00  3.01383E+00  9.51287E-01
  -9.49139E-02 -3.69735E-01 -4.50010E-01 -4.77920E-01 -4.85023E-01 -4.86633E-01 -4.91642E-01 -4.98417E-01 -5.02444E-01 -4.90701E-01
  -4.38430E-01 -2.87418E-01  2.35103E-01  1.53530E+00  3.46931E+00  5.60714E+00  7.41852E+00  8.45529E+00  8.56919E+00  7.89170E+00
   6.63538E+00  5.00308E+00  3.18590E+00  1.44653E+00  1.94017E-01 -4.00391E-01 -6.77485E-01 -7.66640E-01 -7.06798E-01 -5.42425E-01
  -3.22112E-01 -1.12392E-01  1.93178E-02  5.89680E-02  1.64862E-02 -8.79197E-02 -2.13132E-01 -3.32060E-01 -4.31398E-01 -5.23665E-01
  -6.31671E-01 -7.45390E-01 -8.43802E-01 -9.02251E-01 -9.07304E-01 -8.79211E-01 -8.64908E-01 -9.02416E-01 -9.93169E-01 -1.10965E+00
  -1.20465E+00 -1.26149E+00 -1.28600E+00 -1.28878E+00 -1.29456E+00 -1.32386E+00 -1.37402E+00 -1.44033E+00 -1.51404E+00 -1.57223E+00
  -1.61334E+00 -1.66718E+00 -1.74842E+00 -1.84457E+00 -1.92588E+00 -1.96517E+00 -1.97879E+00 -2.00142E+00 -2.03406E+00 -2.04565E+00
  -2.01698E+00 -1.95040E+00 -1.88410E+00 -1.83824E+00 -1.76588E+00 -1.60030E+00 -1.31641E+00 -9.32277E-01 -5.27568E-01 -1.88686E-01
   3.74322E-02  1.31519E-01  7.70052E-02 -1.26550E-01 -4.19507E-01 -6.95541E-01 -8.64344E-01 -8.87003E-01 -7.58134E-01 -4.94688E-01
  -1.52487E-01  2.09230E-01  5.06562E-01  6.68802E-01  6.12503E-01  2.81062E-01 -2.51467E-01 -8.67139E-01 -1.44658E+00 -1.82424E+00
  -1.79654E+00 -1.17889E+00 -1.12333E-01  1.08969E+00  2.06178E+00  2.51973E+00  2.25707E+00  1.20414E+00 -4.33669E-01 -2.23352E+00
  -3.73657E+00 -4.55429E+00 -4.45984E+00 -3.54382E+00 -2.22908E+00 -8.51167E-01  3.26969E-01  1.11913E+00  1.43016E+00  1.29663E+00
   9.83958E-01  7.87180E-01  8.08678E-01  1.01124E+00  1.31211E+00  1.57336E+00  1.69019E+00  1.57254E+00  1.18256E+00  6.63844E-01
   2.29698E-01  2.55699E-02  1.14187E-01  4.78723E-01  1.01239E+00  1.54323E+00  1.91205E+00  2.05801E+00  2.04070E+00  1.95844E+00
   2.06842E+00  2.88825E+00  4.47673E+00  6.45487E+00  8.42295E+00  1.04599E+01  1.29318E+01  1.55885E+01  1.79557E+01  1.94390E+01
   1.95106E+01  1.81040E+01  1.57299E+01  1.30073E+01  1.00236E+01  6.90185E+00  4.10998E+00  2.28134E+00  1.49523E+00  1.11336E+00
   9.21079E-01  8.65192E-01  8.72263E-01  8.99786E-01  9.19571E-01  9.00105E-01  8.27711E-01  7.07381E-01  5.60134E-01  4.15053E-01
   3.01665E-01  2.37982E-01  2.19301E-01  2.29061E-01  2.51692E-01  2.79044E-01  3.06222E-01  3.34271E-01  3.70230E-01  4.23721E-01
   5.00555E-01  5.97930E-01  7.08568E-01  8.27075E-01  9.44037E-01  1.05280E+00  1.15139E+00  1.23931E+00  1.31959E+00  1.39821E+00
   1.47449E+00  1.54352E+00  1.60074E+00  1.64243E+00  1.66554E+00  1.66714E+00  1.64551E+00  1.60370E+00  1.54539E+00  1.47390E+00
   1.39303E+00  1.30624E+00  1.21692E+00  1.12843E+00  1.04400E+00  9.66610E-01  8.98929E-01  8.43138E-01  8.00856E-01  7.73134E-01
   7.60472E-01  7.62883E-01  7.80038E-01  8.11224E-01  8.55351E-01  9.11027E-01  9.76700E-01  1.05075E+00  1.13153E+00  1.21734E+00
   1.30660E+00  1.39788E+00  1.49020E+00  1.58306E+00  1.67662E+00  1.77183E+00  1.87069E+00  1.97659E+00  2.09451E+00  2.23124E+00
   2.39524E+00  2.59643E+00  2.84559E+00  3.15321E+00  3.52793E+00  3.97435E+00  4.49075E+00  5.06705E+00  5.68357E+00  6.31098E+00
   6.91200E+00  7.44461E+00  7.86683E+00  8.14216E+00  8.24477E+00  8.16329E+00  7.90246E+00  7.48227E+00  6.93485E+00  6.29985E+00
   5.61912E+00  4.93177E+00  4.27036E+00  3.65869E+00  3.11136E+00  2.63458E+00  2.22790E+00  1.88627E+00  1.60197E+00  1.36625E+00
   1.17054E+00  1.00725E+00  8.70060E-01  7.53965E-01  6.55132E-01  5.70729E-01  4.98774E-01  4.37963E-01  3.87497E-01  3.46920E-01
   3.16016E-01  2.94781E-01  2.83411E-01  2.82270E-01  2.91832E-01  3.12617E-01  3.45170E-01  3.90065E-01  4.47892E-01  5.19181E-01
   6.04312E-01  7.03426E-01  8.16382E-01  9.42716E-01  1.08159E+00  1.23169E+00  1.39116E+00  1.55760E+00  1.72810E+00  1.89929E+00
   2.06747E+00  2.22863E+00  2.37863E+00  2.51333E+00  2.62887E+00  2.72182E+00  2.78934E+00  2.82931E+00  2.84042E+00  2.82224E+00
   2.77533E+00  2.70112E+00  2.60185E+00  2.48039E+00  2.34011E+00  2.18473E+00  2.01815E+00  1.84428E+00  1.66683E+00  1.48915E+00
   1.31422E+00  1.14456E+00  9.82211E-01  8.28712E-01  6.85098E-01  5.51946E-01  4.29462E-01  3.17574E-01  2.15972E-01  1.24148E-01
   4.14393E-02 -3.29004E-02 -9.96266E-02 -1.59468E-01 -2.13129E-01 -2.61297E-01 -3.04629E-01 -3.43719E-01 -3.79071E-01 -4.11114E-01
  -4.40235E-01 -4.66799E-01 -4.91136E-01 -5.13519E-01 -5.34156E-01 -5.53223E-01 -5.70890E-01 -5.87328E-01 -6.02687E-01 -6.17075E-01
  -6.30564E-01 -6.43223E-01 -6.55139E-01 -6.66402E-01 -6.77080E-01 -6.87210E-01 -6.96813E-01 -7.05927E-01 -7.14610E-01 -7.22918E-01
  -7.30880E-01 -7.38499E-01 -7.45781E-01 -7.52757E-01 -7.59469E-01 -7.65950E-01 -7.72204E-01 -7.78225E-01 -7.84017E-01 -7.89612E-01
  -7.95042E-01 -8.00320E-01 -8.05435E-01 -8.10378E-01 -8.15160E-01 -8.19812E-01 -8.24358E-01 -8.28798E-01 -8.33115E-01 -8.37305E-01
  -8.41387E-01 -8.45390E-01 -8.49325E-01 -8.53178E-01 -8.56934E-01 -8.60598E-01 -8.64193E-01 -8.67743E-01 -8.71247E-01 -8.74686E-01
  -8.78051E-01 -8.81357E-01 -8.84628E-01 -8.87879E-01 -8.91098E-01 -8.94268E-01 -8.97390E-01 -9.00485E-01
 NY background values follow
    -9.343E-01   -9.348E-01   -9.353E-01   -9.358E-01   -9.362E-01   -9.367E-01   -9.372E-01   -9.376E-01   -9.381E-01   -9.386E-01
    -9.391E-01   -9.395E-01   -9.400E-01   -9.405E-01   -9.409E-01   -9.414E-01   -9.419E-01   -9.423E-01   -9.428E-01   -9.433E-01
    -9.438E-01   -9.442E-01   -9.447E-01   -9.452E-01   -9.456E-01   -9.461E-01   -9.466E-01   -9.470E-01   -9.475E-01   -9.480E-01
    -9.484E-01   -9.489E-01   -9.494E-01   -9.498E-01   -9.503E-01   -9.508E-01   -9.513E-01   -9.517E-01   -9.522E-01   -9.527E-01
    -9.531E-01   -9.536E-01   -9.541E-01   -9.545E-01   -9.550E-01   -9.555E-01   -9.559E-01   -9.564E-01   -9.569E-01   -9.573E-01
    -9.578E-01   -9.583E-01   -9.587E-01   -9.592E-01   -9.597E-01   -9.601E-01   -9.606E-01   -9.611E-01   -9.615E-01   -9.620E-01
    -9.624E-01   -9.629E-01   -9.634E-01   -9.638E-01   -9.643E-01   -9.648E-01   -9.652E-01   -9.657E-01   -9.662E-01   -9.666E-01
    -9.671E-01   -9.676E-01   -9.680E-01   -9.685E-01   -9.690E-01   -9.694E-01   -9.699E-01   -9.703E-01   -9.708E-01   -9.713E-01
    -9.717E-01   -9.722E-01   -9.727E-01   -9.731E-01   -9.736E-01   -9.740E-01   -9.745E-01   -9.750E-01   -9.754E-01   -9.759E-01
    -9.764E-01   -9.768E-01   -9.773E-01   -9.777E-01   -9.782E-01   -9.787E-01   -9.791E-01   -9.796E-01   -9.800E-01   -9.805E-01
    -9.810E-01   -9.814E-01   -9.819E-01   -9.824E-01   -9.828E-01   -9.833E-01   -9.837E-01   -9.842E-01   -9.847E-01   -9.851E-01
    -9.856E-01   -9.860E-01   -9.865E-01   -9.869E-01   -9.874E-01   -9.879E-01   -9.883E-01   -9.888E-01   -9.892E-01   -9.897E-01
    -9.902E-01   -9.906E-01   -9.911E-01   -9.915E-01   -9.920E-01   -9.925E-01   -9.929E-01   -9.934E-01   -9.938E-01   -9.943E-01
    -9.947E-01   -9.952E-01   -9.957E-01   -9.961E-01   -9.966E-01   -9.970E-01   -9.975E-01   -9.979E-01   -9.984E-01   -9.988E-01
    -9.993E-01   -9.998E-01   -1.000E+00   -1.001E+00   -1.001E+00   -1.002E+00   -1.002E+00   -1.002E+00   -1.003E+00   -1.003E+00
    -1.004E+00   -1.004E+00   -1.005E+00   -1.005E+00   -1.006E+00   -1.006E+00   -1.007E+00   -1.007E+00   -1.007E+00   -1.008E+00
    -1.008E+00   -1.009E+00   -1.009E+00   -1.010E+00   -1.010E+00   -1.011E+00   -1.011E+00   -1.012E+00   -1.012E+00   -1.012E+00
    -1.013E+00   -1.013E+00   -1.014E+00   -1.014E+00   -1.015E+00   -1.015E+00   -1.016E+00   -1.016E+00   -1.017E+00   -1.017E+00
    -1.017E+00   -1.018E+00   -1.018E+00   -1.019E+00   -1.019E+00   -1.020E+00   -1.020E+00   -1.021E+00   -1.021E+00   -1.021E+00
    -1.022E+00   -1.022E+00   -1.023E+00   -1.023E+00   -1.024E+00   -1.024E+00   -1.025E+00   -1.025E+00   -1.026E+00   -1.026E+00
    -1.026E+00   -1.027E+00   -1.027E+00   -1.028E+00   -1.028E+00   -1.029E+00   -1.029E+00   -1.030E+00   -1.030E+00   -1.030E+00
    -1.031E+00   -1.031E+00   -1.032E+00   -1.032E+00   -1.033E+00   -1.033E+00   -1.034E+00   -1.034E+00   -1.034E+00   -1.035E+00
    -1.035E+00   -1.036E+00   -1.036E+00   -1.037E+00   -1.037E+00   -1.038E+00   -1.038E+00   -1.038E+00   -1.039E+00   -1.039E+00
    -1.040E+00   -1.040E+00   -1.041E+00   -1.041E+00   -1.042E+00   -1.042E+00   -1.042E+00   -1.043E+00   -1.043E+00   -1.044E+00
    -1.044E+00   -1.045E+00   -1.045E+00   -1.046E+00   -1.046E+00   -1.046E+00   -1.047E+00   -1.047E+00   -1.048E+00   -1.048E+00
    -1.049E+00   -1.049E+00   -1.050E+00   -1.050E+00   -1.050E+00   -1.051E+00   -1.051E+00   -1.052E+00   -1.052E+00   -1.053E+00
    -1.053E+00   -1.053E+00   -1.054E+00   -1.054E+00   -1.055E+00   -1.055E+00   -1.056E+00   -1.056E+00   -1.057E+00   -1.057E+00
    -1.057E+00   -1.058E+00   -1.058E+00   -1.059E+00   -1.059E+00   -1.060E+00   -1.060E+00   -1.061E+00   -1.061E+00   -1.061E+00
    -1.062E+00   -1.062E+00   -1.063E+00   -1.063E+00   -1.064E+00   -1.064E+00   -1.064E+00   -1.065E+00   -1.065E+00   -1.066E+00
    -1.066E+00   -1.067E+00   -1.067E+00   -1.067E+00   -1.068E+00   -1.068E+00   -1.069E+00   -1.069E+00   -1.070E+00   -1.070E+00
    -1.071E+00   -1.071E+00   -1.071E+00   -1.072E+00   -1.072E+00   -1.073E+00   -1.073E+00   -1.074E+00   -1.074E+00   -1.074E+00
    -1.075E+00   -1.075E+00   -1.076E+00   -1.076E+00   -1.077E+00   -1.077E+00   -1.077E+00   -1.078E+00   -1.078E+00   -1.079E+00
    -1.079E+00   -1.080E+00   -1.080E+00   -1.080E+00   -1.081E+00   -1.081E+00   -1.082E+00   -1.082E+00   -1.083E+00   -1.083E+00
    -1.083E+00   -1.084E+00   -1.084E+00   -1.085E+00   -1.085E+00   -1.086E+00   -1.086E+00   -1.086E+00   -1.087E+00   -1.087E+00
    -1.088E+00   -1.088E+00   -1.089E+00   -1.089E+00   -1.089E+00   -1.090E+00   -1.090E+00   -1.091E+00   -1.091E+00   -1.092E+00
    -1.092E+00   -1.092E+00   -1.093E+00   -1.093E+00   -1.094E+00   -1.094E+00   -1.095E+00   -1.095E+00   -1.095E+00   -1.096E+00
    -1.096E+00   -1.097E+00   -1.097E+00   -1.098E+00   -1.098E+00   -1.098E+00   -1.099E+00   -1.099E+00   -1.100E+00   -1.100E+00
    -1.101E+00   -1.101E+00   -1.101E+00   -1.102E+00   -1.102E+00   -1.103E+00   -1.103E+00   -1.103E+00   -1.104E+00   -1.104E+00
    -1.105E+00   -1.105E+00   -1.106E+00   -1.106E+00   -1.106E+00   -1.107E+00   -1.107E+00   -1.108E+00   -1.108E+00   -1.109E+00
    -1.109E+00   -1.109E+00   -1.110E+00   -1.110E+00   -1.111E+00   -1.111E+00   -1.111E+00   -1.112E+00   -1.112E+00   -1.113E+00
    -1.113E+00   -1.114E+00   -1.114E+00   -1.114E+00   -1.115E+00   -1.115E+00   -1.116E+00   -1.116E+00   -1.116E+00   -1.117E+00
    -1.117E+00   -1.118E+00   -1.118E+00   -1.119E+00   -1.119E+00   -1.119E+00   -1.120E+00   -1.120E+00   -1.121E+00   -1.121E+00
    -1.121E+00   -1.122E+00   -1.122E+00   -1.123E+00   -1.123E+00   -1.124E+00   -1.124E+00   -1.124E+00   -1.125E+00   -1.125E+00
    -1.126E+00   -1.126E+00   -1.126E+00   -1.127E+00   -1.127E+00   -1.128E+00   -1.128E+00   -1.129E+00   -1.129E+00   -1.129E+00
    -1.130E+00   -1.130E+00   -1.131E+00   -1.131E+00   -1.131E+00   -1.132E+00   -1.132E+00   -1.133E+00   -1.133E+00   -1.133E+00
    -1.134E+00   -1.134E+00   -1.135E+00   -1.135E+00   -1.135E+00   -1.136E+00   -1.136E+00   -1.137E+00   -1.137E+00   -1.138E+00
    -1.138E+00   -1.138E+00   -1.139E+00   -1.139E+00   -1.140E+00   -1.140E+00   -1.140E+00   -1.141E+00   -1.141E+00   -1.142E+00
    -1.142E+00   -1.142E+00   -1.143E+00   -1.143E+00   -1.144E+00   -1.144E+00   -1.144E+00   -1.145E+00   -1.145E+00   -1.146E+00
    -1.146E+00   -1.146E+00   -1.147E+00   -1.147E+00   -1.148E+00   -1.148E+00   -1.148E+00   -1.149E+00   -1.149E+00   -1.150E+00
    -1.150E+00   -1.151E+00   -1.151E+00   -1.151E+00   -1.152E+00   -1.152E+00   -1.153E+00   -1.153E+00
 Asp      Conc. = 4.56E+01
