 LCModel (Version 6.3-1L) Copyright: S.W. Provencher.          Ref.: Magn. Reson. Med. 30:672-679 (1993).                
 Slice#2 Row#4 Col#9  PD_24_press_1_raw_act
 36 lines in following concentration table = NCONC+1
    Conc.  %SD /Cr+PCr  Metabolite                                         
    0.000 999%   0.000 Ala                                                 
    0.000 999%   0.000 Asp                                                 
  638.794  33%   0.322 Cr                                                  
 1.34E+03  16%   0.678 PCr                                                 
    0.000 999%   0.000 GABA                                                
    0.000 999%   0.000 Glc                                                 
  887.359  25%   0.447 Gln                                                 
 2.05E+03  12%   1.034 Glu                                                 
  838.273   3%   0.423 GPC                                                 
    0.000 999%   0.000 PCh                                                 
  493.817  14%   0.249 GSH                                                 
 1.21E+03  20%   0.611 Ins                                                 
    0.000 999%   0.000 Lac                                                 
 2.53E+03   4%   1.274 NAA                                                 
    0.148 999% 7.5E-05 NAAG                                                
   88.754  31% 4.5E-02 Scyllo                                              
    0.000 999%   0.000 Tau                                                 
    0.000 999%   0.000 -CrCH2                                              
  838.273   3%   0.423 GPC+PCh                                             
 2.53E+03   3%   1.274 NAA+NAAG                                            
 1.98E+03   3%   1.000 Cr+PCr                                              
 2.94E+03  12%   1.482 Glu+Gln                                             
 4.40E+03  19%   2.216 Lip13a                                              
    0.000 999%   0.000 Lip13b                                              
  674.463  70%   0.340 Lip09                                               
 1.82E+03  26%   0.915 MM09                                                
  905.353  37%   0.456 Lip20                                               
 3.75E+03  13%   1.889 MM20                                                
  639.972  48%   0.323 MM12                                                
  912.879  58%   0.460 MM14                                                
 1.87E+03  20%   0.942 MM17                                                
 4.40E+03  19%   2.216 Lip13a+Lip13b                                       
 5.95E+03  10%   2.999 MM14+Lip13a+Lip13b+MM12                             
 2.49E+03  10%   1.255 MM09+Lip09                                          
 4.65E+03  10%   2.345 MM20+Lip20                                          
   6 lines in following misc. output table
  FWHM = 0.061 ppm    S/N =  14                                            
  Data shift = 0.000 ppm                                                   
  Ph: -18 deg      -7.0 deg/ppm                                            
  alphaB,S = 1.9E+00,   9.7E+01                                            
   14 spline knots.   Ns = 7(1)                                            
  (13) 2 infls.   ( 9) 1 extrs.                                            
  498 points on ppm-axis = NY
      4.000000     3.992357     3.984714     3.977070     3.969427     3.961784     3.954141     3.946497     3.938854     3.931211
      3.923568     3.915925     3.908281     3.900638     3.892995     3.885352     3.877708     3.870065     3.862422     3.854779
      3.847136     3.839492     3.831849     3.824206     3.816563     3.808919     3.801276     3.793633     3.785990     3.778347
      3.770703     3.763060     3.755417     3.747774     3.740130     3.732487     3.724844     3.717201     3.709558     3.701914
      3.694271     3.686628     3.678985     3.671341     3.663698     3.656055     3.648412     3.640769     3.633125     3.625482
      3.617839     3.610196     3.602552     3.594909     3.587266     3.579623     3.571980     3.564336     3.556693     3.549050
      3.541407     3.533763     3.526120     3.518477     3.510834     3.503191     3.495547     3.487904     3.480261     3.472618
      3.464974     3.457331     3.449688     3.442045     3.434402     3.426758     3.419115     3.411472     3.403829     3.396185
      3.388542     3.380899     3.373256     3.365613     3.357969     3.350326     3.342683     3.335040     3.327396     3.319753
      3.312110     3.304467     3.296824     3.289180     3.281537     3.273894     3.266251     3.258607     3.250964     3.243321
      3.235678     3.228034     3.220391     3.212748     3.205105     3.197462     3.189818     3.182175     3.174532     3.166889
      3.159245     3.151602     3.143959     3.136316     3.128673     3.121029     3.113386     3.105743     3.098100     3.090456
      3.082813     3.075170     3.067527     3.059884     3.052240     3.044597     3.036954     3.029311     3.021667     3.014024
      3.006381     2.998738     2.991095     2.983451     2.975808     2.968165     2.960522     2.952878     2.945235     2.937592
      2.929949     2.922306     2.914662     2.907019     2.899376     2.891733     2.884089     2.876446     2.868803     2.861160
      2.853517     2.845873     2.838230     2.830587     2.822944     2.815300     2.807657     2.800014     2.792371     2.784728
      2.777084     2.769441     2.761798     2.754155     2.746511     2.738868     2.731225     2.723582     2.715939     2.708295
      2.700652     2.693009     2.685366     2.677722     2.670079     2.662436     2.654793     2.647150     2.639506     2.631863
      2.624220     2.616577     2.608933     2.601290     2.593647     2.586004     2.578361     2.570717     2.563074     2.555431
      2.547788     2.540144     2.532501     2.524858     2.517215     2.509572     2.501928     2.494285     2.486642     2.478999
      2.471355     2.463712     2.456069     2.448426     2.440783     2.433139     2.425496     2.417853     2.410210     2.402566
      2.394923     2.387280     2.379637     2.371994     2.364350     2.356707     2.349064     2.341421     2.333777     2.326134
      2.318491     2.310848     2.303205     2.295561     2.287918     2.280275     2.272632     2.264988     2.257345     2.249702
      2.242059     2.234416     2.226772     2.219129     2.211486     2.203843     2.196199     2.188556     2.180913     2.173270
      2.165627     2.157983     2.150340     2.142697     2.135054     2.127410     2.119767     2.112124     2.104481     2.096838
      2.089194     2.081551     2.073908     2.066265     2.058621     2.050978     2.043335     2.035692     2.028049     2.020405
      2.012762     2.005119     1.997476     1.989833     1.982190     1.974546     1.966903     1.959260     1.951617     1.943974
      1.936331     1.928688     1.921045     1.913402     1.905759     1.898115     1.890472     1.882829     1.875186     1.867543
      1.859900     1.852257     1.844614     1.836971     1.829327     1.821684     1.814041     1.806398     1.798755     1.791112
      1.783469     1.775826     1.768183     1.760540     1.752896     1.745253     1.737610     1.729967     1.722324     1.714681
      1.707038     1.699395     1.691752     1.684108     1.676465     1.668822     1.661179     1.653536     1.645893     1.638250
      1.630607     1.622964     1.615321     1.607677     1.600034     1.592391     1.584748     1.577105     1.569462     1.561819
      1.554176     1.546533     1.538890     1.531246     1.523603     1.515960     1.508317     1.500674     1.493031     1.485388
      1.477745     1.470102     1.462458     1.454815     1.447172     1.439529     1.431886     1.424243     1.416600     1.408957
      1.401314     1.393671     1.386027     1.378384     1.370741     1.363098     1.355455     1.347812     1.340169     1.332526
      1.324883     1.317240     1.309596     1.301953     1.294310     1.286667     1.279024     1.271381     1.263738     1.256095
      1.248452     1.240808     1.233165     1.225522     1.217879     1.210236     1.202593     1.194950     1.187307     1.179664
      1.172021     1.164377     1.156734     1.149091     1.141448     1.133805     1.126162     1.118519     1.110876     1.103233
      1.095590     1.087946     1.080303     1.072660     1.065017     1.057374     1.049731     1.042088     1.034445     1.026802
      1.019158     1.011515     1.003872     0.996229     0.988586     0.980943     0.973300     0.965657     0.958014     0.950371
      0.942727     0.935084     0.927441     0.919798     0.912155     0.904512     0.896869     0.889226     0.881583     0.873940
      0.866296     0.858653     0.851010     0.843367     0.835724     0.828081     0.820438     0.812795     0.805152     0.797508
      0.789865     0.782222     0.774579     0.766936     0.759293     0.751650     0.744007     0.736364     0.728721     0.721077
      0.713434     0.705791     0.698148     0.690505     0.682862     0.675219     0.667576     0.659933     0.652290     0.644646
      0.637003     0.629360     0.621717     0.614074     0.606431     0.598788     0.591145     0.583502     0.575858     0.568215
      0.560572     0.552929     0.545286     0.537643     0.530000     0.522357     0.514714     0.507071     0.499427     0.491784
      0.484141     0.476498     0.468855     0.461212     0.453569     0.445925     0.438282     0.430639     0.422996     0.415353
      0.407710     0.400067     0.392424     0.384780     0.377137     0.369494     0.361851     0.354208     0.346565     0.338922
      0.331278     0.323635     0.315992     0.308349     0.300706     0.293063     0.285420     0.277777     0.270133     0.262490
      0.254847     0.247204     0.239561     0.231918     0.224275     0.216631     0.208988     0.201345
 NY phased data points follow
   2.94323E+01  2.65364E+01  2.56938E+01  2.81560E+01  3.22076E+01  3.95982E+01  5.52646E+01  5.73157E+01  6.70667E+01  6.69146E+01
   7.01867E+01  6.42387E+01  6.47658E+01  5.10689E+01  4.98541E+01  3.81355E+01  3.84011E+01  3.24939E+01  3.01271E+01  2.83182E+01
   2.51559E+01  2.43928E+01  2.64048E+01  2.34476E+01  2.74405E+01  2.48714E+01  2.56202E+01  2.45963E+01  2.90181E+01  2.97520E+01
   3.09111E+01  2.60264E+01  2.50855E+01  2.07354E+01  1.58767E+01  1.95327E+01  1.89601E+01  1.96766E+01  2.42980E+01  1.83656E+01
   2.18454E+01  2.15906E+01  1.59934E+01  2.17696E+01  3.12965E+01  2.68489E+01  3.00670E+01  2.65219E+01  2.98201E+01  2.10259E+01
   1.92196E+01  1.54455E+01  1.70599E+01  1.92580E+01  1.75653E+01  1.27020E+01  1.78748E+01  1.26669E+01  1.29152E+01  1.17241E+01
   1.38403E+01  4.51414E+00  5.55688E+00  2.99379E+00  6.74850E-01 -4.05591E-01 -1.92297E+00 -3.26920E+00  1.42996E+00  2.62881E+00
   3.35463E+00  5.42269E+00  5.37774E+00  6.43145E+00  2.56110E+00  8.26973E-01  1.08414E+00  1.37799E+00  4.25757E-01  2.72193E+00
   3.01061E+00 -3.14326E+00  5.07048E+00 -1.53593E+00  6.66295E+00  5.25279E+00  4.04103E+00  5.18451E+00  4.84694E+00  5.17039E+00
   5.89062E+00  6.50484E+00  6.40888E+00  1.85444E+00  4.61285E-02 -1.19809E+00  9.05360E-01  5.93260E-01  1.62312E+01  3.05209E+01
   5.41356E+01  7.13323E+01  8.01437E+01  7.34379E+01  6.51940E+01  5.72524E+01  4.42571E+01  3.61135E+01  2.95932E+01  2.11232E+01
   1.15312E+01  5.02546E+00  2.53078E+00  4.72334E+00  5.52965E+00  1.01029E+00 -3.43557E+00 -3.15411E+00 -8.44160E+00 -3.15842E+00
  -7.79554E-01 -4.05367E-01  1.08115E+01  2.18108E+01  3.64118E+01  5.15537E+01  6.27696E+01  5.97902E+01  5.20161E+01  4.30660E+01
   4.27715E+01  2.77288E+01  1.89250E+01  7.87601E+00  7.60055E+00  7.95638E-01  3.67820E+00 -3.19055E+00  3.31844E-01 -2.22416E+00
  -3.09229E+00 -1.18028E+00 -1.88791E+00 -2.43006E+00 -9.67450E-01 -2.83795E+00 -6.44056E+00 -6.20209E+00 -6.84750E+00 -8.13249E+00
  -6.94214E+00 -9.58528E+00 -4.93586E+00 -4.54167E+00 -6.81550E+00 -8.05828E+00 -8.59238E+00 -5.10798E+00 -6.83873E+00 -7.73444E+00
  -1.32926E+01 -7.49434E+00 -5.94554E+00 -6.88902E+00 -7.66547E+00 -7.14855E+00 -9.46365E+00 -1.23151E+01 -1.42353E+01 -1.16346E+01
  -1.39488E+01 -1.97687E+01 -1.51522E+01 -1.40075E+01 -1.53539E+01 -1.76263E+01 -1.90488E+01 -1.47607E+01 -1.89260E+01 -1.65999E+01
  -1.78625E+01 -2.04826E+01 -1.44569E+01 -2.21578E+01 -1.50158E+01 -1.48307E+01 -1.49142E+01 -1.30616E+01 -9.96441E+00 -6.36355E+00
  -7.14126E+00 -6.22958E+00 -1.97155E+00 -7.60256E+00 -1.05544E-01 -6.31422E+00 -6.53472E+00 -1.27960E+01 -1.16708E+01 -1.04421E+01
  -9.30370E+00 -8.97687E+00 -4.61053E+00 -3.48364E+00 -7.81381E+00 -9.74909E+00 -1.12149E+01 -1.29893E+01 -1.56910E+01 -1.39473E+01
  -1.94673E+01 -8.97963E+00 -6.31373E+00 -8.87766E+00  5.28135E+00  2.82226E+00  4.20106E+00  3.25635E+00 -4.93288E+00 -1.11421E+01
  -9.93820E+00 -1.50219E+01 -1.09212E+01 -1.21362E+01 -6.09209E+00 -7.30582E+00 -3.28617E+00 -1.77874E+00 -1.08295E+00 -1.38778E+00
   2.40652E+00 -5.15881E-01 -2.20801E+00  8.67187E-01 -5.77617E-01 -2.64786E+00 -4.96799E+00  1.30951E+00 -6.23359E-01 -8.52509E+00
  -1.74320E+00 -2.41542E+00 -3.42324E+00 -2.00841E-01 -2.24990E-01 -7.91648E-01  2.20376E+00  4.63101E+00  6.98108E+00  9.71988E+00
   7.39403E+00  4.99839E+00  6.70118E+00  6.82815E+00  1.02169E+01  1.58585E+01  3.69189E+01  5.40488E+01  7.39999E+01  8.39918E+01
   8.16798E+01  7.43560E+01  6.72574E+01  5.70960E+01  4.45850E+01  3.30752E+01  2.84116E+01  1.08371E+01  7.59928E+00 -1.61564E+00
  -1.05328E+00 -2.50422E+00 -1.41199E+00 -5.52948E+00 -5.43752E+00 -5.00907E+00 -3.44026E+00 -4.52308E+00 -3.13702E+00 -6.48216E+00
  -6.46965E+00 -6.84098E+00 -1.03099E+01 -9.44450E+00 -8.17254E+00 -8.31484E+00 -7.79062E+00 -7.54517E+00 -4.58368E+00 -9.97672E+00
  -7.67255E+00 -7.50619E+00 -5.83212E+00 -1.02225E+01 -8.46639E+00 -8.28443E+00 -4.13388E+00 -4.27568E+00 -6.67927E+00 -8.39182E+00
  -7.29775E+00 -5.77254E+00 -2.64420E+00 -4.69091E+00 -7.80151E-01 -3.99505E+00 -2.32912E+00 -1.15361E+00  9.09335E-01  3.09961E-01
  -2.15440E+00 -8.68828E-01  1.08582E+00 -1.00768E+00  9.17853E-01 -3.76191E+00  4.03165E-01 -1.20241E+00  3.06656E+00  2.71772E+00
  -7.96311E-01  4.36112E+00  5.20488E+00  2.90610E+00  2.42888E+00  1.03438E+00  1.62402E+00 -3.59790E-01  1.96314E+00 -5.26359E+00
   3.47592E+00  1.93133E+00 -2.29838E+00  1.33193E+00 -6.78928E-01 -4.38999E+00  2.83203E-01 -4.75707E+00 -6.15891E-01 -2.46366E+00
   1.81902E-01 -2.97343E+00  5.09904E+00  3.17914E+00  4.94773E+00  4.26238E+00  5.54898E+00  6.08742E+00  9.13681E+00  7.00201E+00
   8.59363E+00  7.67406E+00  1.19407E+01  9.99991E+00  8.73662E+00  1.12065E+01  6.24219E+00  6.53880E+00  4.50626E+00  6.64971E+00
   8.49687E+00  7.37355E+00  4.08340E+00  1.00373E+01  8.22927E+00  9.92572E+00  8.24866E+00  2.93702E+00  7.40382E+00  8.81698E+00
   7.47526E+00  2.22159E+00  7.20148E+00  1.84830E+00 -1.15169E+00 -3.00691E+00 -1.33385E+00 -1.90511E-01 -9.35676E-01 -2.14098E+00
   1.64112E+00 -2.05078E+00 -7.90295E-01 -1.06164E+00 -2.91895E+00 -2.78957E+00  1.48780E+00  2.88927E+00  3.73237E-02 -7.94911E-01
  -9.64839E-01 -3.57056E-01  3.84320E+00  7.42533E-01  1.63163E+00 -1.09967E+00  5.87732E+00  2.43371E-01  3.12995E+00  8.75008E-01
   4.29983E+00  5.43808E+00  9.65705E+00  8.95812E+00  9.67959E+00  9.55595E+00  1.27684E+01  6.82495E+00  1.00877E+01  7.31021E+00
   8.05205E+00  1.65269E+00  6.48506E+00  1.62555E+00  3.23224E+00 -4.28346E+00  4.23884E+00  5.94624E-01 -3.81667E-01 -4.53904E+00
  -6.14626E+00 -4.09602E+00 -4.20061E+00 -1.79983E+00 -3.44013E+00 -6.20583E+00  3.06067E+00 -4.84960E+00 -6.07076E+00 -5.69296E+00
  -4.66780E+00 -5.30663E+00 -1.87332E+00 -7.55329E+00 -5.22315E+00 -8.50261E+00 -5.80608E+00 -9.22077E+00 -8.25440E+00 -7.17214E+00
  -7.57080E+00 -1.08523E+01 -1.01200E+01 -1.22632E+01 -5.46450E+00 -9.35461E+00 -8.49846E+00 -6.77457E+00 -3.86296E+00 -7.68245E+00
  -1.01773E+01 -7.23588E+00 -9.69309E+00 -1.17795E+01 -9.03469E+00 -9.32739E+00 -7.30983E+00 -7.71756E+00 -9.87076E+00 -7.88555E+00
  -1.24040E+01 -9.23328E+00 -5.30704E+00 -9.83448E+00 -7.51542E+00 -1.12717E+01 -7.75099E+00 -1.05178E+01 -8.53377E+00 -1.12309E+01
  -5.46788E+00 -1.11981E+01 -1.14589E+01 -1.17984E+01 -8.27972E+00 -9.67823E+00 -6.67161E+00 -1.14187E+01 -7.58290E+00 -1.22779E+01
  -1.05930E+01 -1.01217E+01 -9.22366E+00 -4.93704E+00 -8.34645E+00 -1.12130E+01 -1.06808E+01 -1.01190E+01 -1.32028E+01 -1.09885E+01
  -1.17377E+01 -9.36964E+00 -1.02187E+01 -8.50310E+00 -1.01296E+01 -1.19457E+01 -6.03515E+00 -9.35331E+00
 NY points of the fit to the data follow
   2.56763E+01  2.55461E+01  2.59109E+01  2.73078E+01  3.12176E+01  3.82112E+01  4.75138E+01  5.69823E+01  6.38902E+01  6.65459E+01
   6.52007E+01  6.12781E+01  5.61735E+01  5.07483E+01  4.54652E+01  4.04171E+01  3.55839E+01  3.10871E+01  2.74221E+01  2.50459E+01
   2.34939E+01  2.25590E+01  2.18346E+01  2.15645E+01  2.20170E+01  2.30886E+01  2.46133E+01  2.62669E+01  2.76707E+01  2.87264E+01
   2.93295E+01  2.91377E+01  2.78514E+01  2.56470E+01  2.31561E+01  2.08561E+01  1.89928E+01  1.77203E+01  1.72682E+01  1.71654E+01
   1.71772E+01  1.77754E+01  1.92331E+01  2.12519E+01  2.32484E+01  2.45268E+01  2.45648E+01  2.34619E+01  2.17821E+01  2.00108E+01
   1.82062E+01  1.64485E+01  1.49323E+01  1.37239E+01  1.27692E+01  1.22337E+01  1.22809E+01  1.25907E+01  1.26600E+01  1.22761E+01
   1.15004E+01  1.05031E+01  9.49206E+00  8.63866E+00  8.02716E+00  7.65557E+00  7.48344E+00  7.46340E+00  7.56605E+00  7.70224E+00
   7.75456E+00  7.64713E+00  7.38228E+00  7.02728E+00  6.62597E+00  6.19903E+00  5.78289E+00  5.38880E+00  5.02326E+00  4.68255E+00
   4.43538E+00  4.51363E+00  4.93005E+00  5.44327E+00  5.75011E+00  5.62063E+00  5.03289E+00  4.24871E+00  3.58534E+00  3.14460E+00
   2.89228E+00  2.77742E+00  2.70019E+00  2.53660E+00  2.27512E+00  2.04912E+00  2.19615E+00  5.39916E+00  1.58457E+01  3.33928E+01
   5.36749E+01  7.04055E+01  7.81497E+01  7.60567E+01  6.80172E+01  5.81202E+01  4.78249E+01  3.75271E+01  2.79600E+01  1.92658E+01
   1.12037E+01  4.23549E+00  9.77456E-02 -1.05140E+00 -1.40198E+00 -1.57507E+00 -1.66143E+00 -1.64854E+00 -1.48078E+00 -1.10964E+00
  -4.35163E-01  2.41013E+00  1.06942E+01  2.45306E+01  4.06981E+01  5.43953E+01  6.13785E+01  6.07811E+01  5.53349E+01  4.80183E+01
   3.98654E+01  3.10781E+01  2.23793E+01  1.43266E+01  7.10244E+00  1.21628E+00 -2.10076E+00 -2.73286E+00 -2.61051E+00 -2.49559E+00
  -2.53113E+00 -2.65120E+00 -2.78769E+00 -2.98524E+00 -3.27129E+00 -3.63912E+00 -4.08768E+00 -4.57776E+00 -5.06424E+00 -5.49612E+00
  -5.82656E+00 -6.07208E+00 -6.23986E+00 -6.34024E+00 -6.40228E+00 -6.56259E+00 -6.96301E+00 -7.60010E+00 -8.33125E+00 -8.85082E+00
  -8.93489E+00 -8.68754E+00 -8.42384E+00 -8.42194E+00 -8.75083E+00 -9.28713E+00 -9.85441E+00 -1.03557E+01 -1.08037E+01 -1.12594E+01
  -1.18780E+01 -1.27580E+01 -1.37214E+01 -1.44723E+01 -1.47681E+01 -1.46962E+01 -1.45594E+01 -1.45606E+01 -1.47298E+01 -1.49249E+01
  -1.50121E+01 -1.50956E+01 -1.52834E+01 -1.53819E+01 -1.50757E+01 -1.41876E+01 -1.27712E+01 -1.10972E+01 -9.66148E+00 -8.79263E+00
  -8.61749E+00 -9.00925E+00 -9.65187E+00 -1.02871E+01 -1.07314E+01 -1.08719E+01 -1.07059E+01 -1.02068E+01 -9.24036E+00 -7.79641E+00
  -6.07356E+00 -4.45928E+00 -3.40037E+00 -3.28554E+00 -4.50132E+00 -6.94645E+00 -9.91975E+00 -1.27350E+01 -1.48174E+01 -1.56758E+01
  -1.48710E+01 -1.23113E+01 -8.53006E+00 -4.49531E+00 -1.43761E+00 -2.20513E-01 -1.02385E+00 -3.63148E+00 -7.49458E+00 -1.16918E+01
  -1.48905E+01 -1.61685E+01 -1.55450E+01 -1.36582E+01 -1.12425E+01 -8.69412E+00 -6.42051E+00 -4.74912E+00 -3.57916E+00 -2.66875E+00
  -1.94267E+00 -1.44828E+00 -1.19599E+00 -9.72090E-01 -5.78291E-01 -1.10266E-01  2.48796E-01  2.35274E-01 -2.04049E-01 -8.66078E-01
  -1.44436E+00 -1.59541E+00 -1.12997E+00 -2.33550E-01  7.22274E-01  1.52671E+00  2.18644E+00  2.65140E+00  3.04397E+00  3.61251E+00
   4.46645E+00  5.46447E+00  6.27137E+00  6.82749E+00  9.44683E+00  1.87182E+01  3.54024E+01  5.58326E+01  7.39252E+01  8.37455E+01
   8.33839E+01  7.61356E+01  6.62582E+01  5.55744E+01  4.45922E+01  3.41297E+01  2.44372E+01  1.51969E+01  6.83249E+00  1.13955E+00
  -1.15870E+00 -2.21298E+00 -2.86502E+00 -3.33451E+00 -3.74783E+00 -4.19336E+00 -4.65502E+00 -5.13102E+00 -5.60818E+00 -6.06015E+00
  -6.47177E+00 -6.85244E+00 -7.19714E+00 -7.48871E+00 -7.72489E+00 -7.91527E+00 -8.06571E+00 -8.17497E+00 -8.24158E+00 -8.26962E+00
  -8.26482E+00 -8.22070E+00 -8.13245E+00 -7.99832E+00 -7.81660E+00 -7.58534E+00 -7.30377E+00 -6.97257E+00 -6.59236E+00 -6.16310E+00
  -5.68717E+00 -5.16963E+00 -4.61711E+00 -4.03804E+00 -3.44147E+00 -2.83713E+00 -2.23585E+00 -1.64947E+00 -1.09020E+00 -5.70074E-01
  -1.00194E-01  3.09954E-01  6.53099E-01  9.23975E-01  1.11930E+00  1.23878E+00  1.28513E+00  1.26379E+00  1.18241E+00  1.05032E+00
   8.78243E-01  6.77896E-01  4.61474E-01  2.40903E-01  2.72165E-02 -1.69792E-01 -3.41624E-01 -4.81095E-01 -5.82483E-01 -6.41660E-01
  -6.56042E-01 -6.24266E-01 -5.45767E-01 -4.20541E-01 -2.49072E-01 -3.23407E-02  2.28325E-01  5.31491E-01  8.75737E-01  1.25956E+00
   1.68107E+00  2.13778E+00  2.62658E+00  3.14369E+00  3.68465E+00  4.24404E+00  4.81526E+00  5.39057E+00  5.96129E+00  6.51806E+00
   7.05104E+00  7.54999E+00  8.00451E+00  8.40443E+00  8.74032E+00  9.00395E+00  9.18842E+00  9.28839E+00  9.30019E+00  9.22211E+00
   9.05461E+00  8.80029E+00  8.46364E+00  8.05077E+00  7.56926E+00  7.02804E+00  6.43711E+00  5.80725E+00  5.14947E+00  4.47476E+00
   3.79387E+00  3.11728E+00  2.45499E+00  1.81625E+00  1.20944E+00  6.41977E-01  1.20522E-01 -3.48928E-01 -7.61044E-01 -1.11121E+00
  -1.39551E+00 -1.61056E+00 -1.75338E+00 -1.82131E+00 -1.81217E+00 -1.72445E+00 -1.55740E+00 -1.31111E+00 -9.86582E-01 -5.86047E-01
  -1.13296E-01  4.26015E-01  1.02425E+00  1.67178E+00  2.35701E+00  3.06632E+00  3.78422E+00  4.49365E+00  5.17658E+00  5.81470E+00
   6.39003E+00  6.88558E+00  7.28601E+00  7.57834E+00  7.75266E+00  7.80264E+00  7.72573E+00  7.52314E+00  7.19969E+00  6.76364E+00
   6.22625E+00  5.60120E+00  4.90386E+00  4.15038E+00  3.35712E+00  2.54005E+00  1.71425E+00  8.93391E-01  8.93269E-02 -6.88150E-01
  -1.43130E+00 -2.13429E+00 -2.79310E+00 -3.40540E+00 -3.97043E+00 -4.48869E+00 -4.96162E+00 -5.39131E+00 -5.78025E+00 -6.13132E+00
  -6.44764E+00 -6.73237E+00 -6.98854E+00 -7.21896E+00 -7.42623E+00 -7.61282E+00 -7.78108E+00 -7.93307E+00 -8.07059E+00 -8.19515E+00
  -8.30812E+00 -8.41080E+00 -8.50438E+00 -8.58984E+00 -8.66797E+00 -8.73946E+00 -8.80494E+00 -8.86507E+00 -8.92043E+00 -8.97146E+00
  -9.01847E+00 -9.06177E+00 -9.10170E+00 -9.13863E+00 -9.17283E+00 -9.20448E+00 -9.23372E+00 -9.26071E+00 -9.28568E+00 -9.30883E+00
  -9.33030E+00 -9.35015E+00 -9.36842E+00 -9.38523E+00 -9.40076E+00 -9.41513E+00 -9.42839E+00 -9.44054E+00 -9.45160E+00 -9.46170E+00
  -9.47096E+00 -9.47943E+00 -9.48711E+00 -9.49396E+00 -9.50004E+00 -9.50547E+00 -9.51033E+00 -9.51463E+00 -9.51831E+00 -9.52139E+00
  -9.52393E+00 -9.52602E+00 -9.52771E+00 -9.52896E+00 -9.52973E+00 -9.53004E+00 -9.52998E+00 -9.52961E+00 -9.52894E+00 -9.52791E+00
  -9.52650E+00 -9.52476E+00 -9.52277E+00 -9.52057E+00 -9.51813E+00 -9.51540E+00 -9.51236E+00 -9.50911E+00
 NY background values follow
     2.026E+01    2.001E+01    1.976E+01    1.951E+01    1.926E+01    1.901E+01    1.876E+01    1.851E+01    1.826E+01    1.801E+01
     1.776E+01    1.750E+01    1.725E+01    1.700E+01    1.675E+01    1.650E+01    1.625E+01    1.600E+01    1.575E+01    1.550E+01
     1.525E+01    1.500E+01    1.475E+01    1.450E+01    1.425E+01    1.400E+01    1.375E+01    1.350E+01    1.326E+01    1.301E+01
     1.276E+01    1.252E+01    1.227E+01    1.202E+01    1.178E+01    1.153E+01    1.129E+01    1.105E+01    1.080E+01    1.056E+01
     1.032E+01    1.008E+01    9.834E+00    9.594E+00    9.354E+00    9.115E+00    8.877E+00    8.639E+00    8.402E+00    8.166E+00
     7.931E+00    7.696E+00    7.462E+00    7.229E+00    6.997E+00    6.766E+00    6.535E+00    6.306E+00    6.077E+00    5.850E+00
     5.623E+00    5.398E+00    5.173E+00    4.950E+00    4.727E+00    4.506E+00    4.285E+00    4.066E+00    3.848E+00    3.631E+00
     3.415E+00    3.201E+00    2.987E+00    2.775E+00    2.565E+00    2.355E+00    2.147E+00    1.940E+00    1.734E+00    1.530E+00
     1.327E+00    1.126E+00    9.256E-01    7.270E-01    5.299E-01    3.342E-01    1.400E-01   -5.258E-02   -2.437E-01   -4.332E-01
    -6.211E-01   -8.075E-01   -9.922E-01   -1.175E+00   -1.357E+00   -1.537E+00   -1.715E+00   -1.892E+00   -2.067E+00   -2.240E+00
    -2.412E+00   -2.583E+00   -2.752E+00   -2.919E+00   -3.084E+00   -3.248E+00   -3.411E+00   -3.572E+00   -3.731E+00   -3.889E+00
    -4.045E+00   -4.200E+00   -4.353E+00   -4.504E+00   -4.654E+00   -4.803E+00   -4.950E+00   -5.095E+00   -5.239E+00   -5.381E+00
    -5.522E+00   -5.661E+00   -5.799E+00   -5.935E+00   -6.069E+00   -6.202E+00   -6.334E+00   -6.464E+00   -6.593E+00   -6.720E+00
    -6.845E+00   -6.969E+00   -7.092E+00   -7.213E+00   -7.332E+00   -7.450E+00   -7.567E+00   -7.682E+00   -7.795E+00   -7.907E+00
    -8.018E+00   -8.127E+00   -8.235E+00   -8.341E+00   -8.446E+00   -8.549E+00   -8.651E+00   -8.752E+00   -8.851E+00   -8.949E+00
    -9.045E+00   -9.141E+00   -9.234E+00   -9.327E+00   -9.418E+00   -9.507E+00   -9.595E+00   -9.682E+00   -9.768E+00   -9.853E+00
    -9.936E+00   -1.002E+01   -1.010E+01   -1.018E+01   -1.026E+01   -1.033E+01   -1.041E+01   -1.048E+01   -1.055E+01   -1.063E+01
    -1.070E+01   -1.077E+01   -1.083E+01   -1.090E+01   -1.097E+01   -1.103E+01   -1.109E+01   -1.116E+01   -1.122E+01   -1.128E+01
    -1.134E+01   -1.139E+01   -1.145E+01   -1.151E+01   -1.156E+01   -1.161E+01   -1.167E+01   -1.172E+01   -1.177E+01   -1.182E+01
    -1.186E+01   -1.191E+01   -1.196E+01   -1.200E+01   -1.205E+01   -1.209E+01   -1.213E+01   -1.218E+01   -1.222E+01   -1.226E+01
    -1.230E+01   -1.233E+01   -1.237E+01   -1.241E+01   -1.244E+01   -1.248E+01   -1.251E+01   -1.255E+01   -1.258E+01   -1.261E+01
    -1.264E+01   -1.267E+01   -1.270E+01   -1.273E+01   -1.276E+01   -1.279E+01   -1.282E+01   -1.284E+01   -1.287E+01   -1.290E+01
    -1.292E+01   -1.295E+01   -1.297E+01   -1.300E+01   -1.302E+01   -1.304E+01   -1.306E+01   -1.309E+01   -1.311E+01   -1.313E+01
    -1.315E+01   -1.317E+01   -1.319E+01   -1.321E+01   -1.323E+01   -1.325E+01   -1.326E+01   -1.328E+01   -1.330E+01   -1.332E+01
    -1.333E+01   -1.335E+01   -1.337E+01   -1.338E+01   -1.340E+01   -1.341E+01   -1.342E+01   -1.344E+01   -1.345E+01   -1.346E+01
    -1.348E+01   -1.349E+01   -1.350E+01   -1.351E+01   -1.352E+01   -1.353E+01   -1.354E+01   -1.355E+01   -1.356E+01   -1.357E+01
    -1.358E+01   -1.359E+01   -1.359E+01   -1.360E+01   -1.361E+01   -1.362E+01   -1.362E+01   -1.363E+01   -1.363E+01   -1.364E+01
    -1.364E+01   -1.365E+01   -1.365E+01   -1.365E+01   -1.366E+01   -1.366E+01   -1.366E+01   -1.367E+01   -1.367E+01   -1.367E+01
    -1.367E+01   -1.367E+01   -1.367E+01   -1.367E+01   -1.367E+01   -1.367E+01   -1.367E+01   -1.367E+01   -1.367E+01   -1.367E+01
    -1.366E+01   -1.366E+01   -1.366E+01   -1.366E+01   -1.365E+01   -1.365E+01   -1.365E+01   -1.364E+01   -1.364E+01   -1.363E+01
    -1.363E+01   -1.362E+01   -1.362E+01   -1.361E+01   -1.361E+01   -1.360E+01   -1.359E+01   -1.359E+01   -1.358E+01   -1.357E+01
    -1.357E+01   -1.356E+01   -1.355E+01   -1.354E+01   -1.354E+01   -1.353E+01   -1.352E+01   -1.351E+01   -1.350E+01   -1.349E+01
    -1.348E+01   -1.347E+01   -1.346E+01   -1.345E+01   -1.344E+01   -1.343E+01   -1.342E+01   -1.341E+01   -1.340E+01   -1.339E+01
    -1.338E+01   -1.337E+01   -1.336E+01   -1.334E+01   -1.333E+01   -1.332E+01   -1.331E+01   -1.330E+01   -1.328E+01   -1.327E+01
    -1.326E+01   -1.325E+01   -1.323E+01   -1.322E+01   -1.321E+01   -1.319E+01   -1.318E+01   -1.316E+01   -1.315E+01   -1.314E+01
    -1.312E+01   -1.311E+01   -1.309E+01   -1.308E+01   -1.306E+01   -1.305E+01   -1.303E+01   -1.302E+01   -1.300E+01   -1.299E+01
    -1.297E+01   -1.296E+01   -1.294E+01   -1.293E+01   -1.291E+01   -1.290E+01   -1.288E+01   -1.286E+01   -1.285E+01   -1.283E+01
    -1.281E+01   -1.280E+01   -1.278E+01   -1.277E+01   -1.275E+01   -1.273E+01   -1.271E+01   -1.270E+01   -1.268E+01   -1.266E+01
    -1.265E+01   -1.263E+01   -1.261E+01   -1.259E+01   -1.258E+01   -1.256E+01   -1.254E+01   -1.252E+01   -1.251E+01   -1.249E+01
    -1.247E+01   -1.245E+01   -1.244E+01   -1.242E+01   -1.240E+01   -1.238E+01   -1.236E+01   -1.235E+01   -1.233E+01   -1.231E+01
    -1.229E+01   -1.227E+01   -1.226E+01   -1.224E+01   -1.222E+01   -1.220E+01   -1.218E+01   -1.216E+01   -1.214E+01   -1.213E+01
    -1.211E+01   -1.209E+01   -1.207E+01   -1.205E+01   -1.203E+01   -1.202E+01   -1.200E+01   -1.198E+01   -1.196E+01   -1.194E+01
    -1.192E+01   -1.191E+01   -1.189E+01   -1.187E+01   -1.185E+01   -1.183E+01   -1.181E+01   -1.179E+01   -1.178E+01   -1.176E+01
    -1.174E+01   -1.172E+01   -1.170E+01   -1.169E+01   -1.167E+01   -1.165E+01   -1.163E+01   -1.161E+01   -1.160E+01   -1.158E+01
    -1.156E+01   -1.154E+01   -1.152E+01   -1.151E+01   -1.149E+01   -1.147E+01   -1.145E+01   -1.144E+01   -1.142E+01   -1.140E+01
    -1.138E+01   -1.137E+01   -1.135E+01   -1.133E+01   -1.132E+01   -1.130E+01   -1.128E+01   -1.126E+01   -1.125E+01   -1.123E+01
    -1.121E+01   -1.120E+01   -1.118E+01   -1.117E+01   -1.115E+01   -1.113E+01   -1.112E+01   -1.110E+01   -1.108E+01   -1.107E+01
    -1.105E+01   -1.104E+01   -1.102E+01   -1.100E+01   -1.099E+01   -1.097E+01   -1.096E+01   -1.094E+01   -1.092E+01   -1.091E+01
    -1.089E+01   -1.088E+01   -1.086E+01   -1.085E+01   -1.083E+01   -1.081E+01   -1.080E+01   -1.078E+01   -1.077E+01   -1.075E+01
    -1.074E+01   -1.072E+01   -1.070E+01   -1.069E+01   -1.067E+01   -1.066E+01   -1.064E+01   -1.063E+01
 Cr       Conc. = 6.39E+02
