 LCModel (Version 6.3-1L) Copyright: S.W. Provencher.          Ref.: Magn. Reson. Med. 30:672-679 (1993).                
 Slice#3 Row#11 Col#7  PD_24_press_1_raw_act
 36 lines in following concentration table = NCONC+1
    Conc.  %SD /Cr+PCr  Metabolite                                         
   37.020 248% 2.5E-02 Ala                                                 
   82.833 232% 5.6E-02 Asp                                                 
  490.671  37%   0.329 Cr                                                  
  999.961  19%   0.671 PCr                                                 
    0.000 999%   0.000 GABA                                                
   66.529 191% 4.5E-02 Glc                                                 
  441.260  43%   0.296 Gln                                                 
 1.59E+03  13%   1.066 Glu                                                 
  467.226   4%   0.313 GPC                                                 
    0.000 999%   0.000 PCh                                                 
  512.478  12%   0.344 GSH                                                 
  518.411  41%   0.348 Ins                                                 
    7.827 999% 5.3E-03 Lac                                                 
 1.81E+03   6%   1.217 NAA                                                 
   97.910 112% 6.6E-02 NAAG                                                
   48.286  46% 3.2E-02 Scyllo                                              
    0.000 999%   0.000 Tau                                                 
    0.000 999%   0.000 -CrCH2                                              
  467.226   4%   0.313 GPC+PCh                                             
 1.91E+03   4%   1.282 NAA+NAAG                                            
 1.49E+03   3%   1.000 Cr+PCr                                              
 2.03E+03  15%   1.362 Glu+Gln                                             
 2.76E+03  22%   1.852 Lip13a                                              
  222.021 160%   0.149 Lip13b                                              
    0.000 999%   0.000 Lip09                                               
  937.209  18%   0.629 MM09                                                
  540.134  46%   0.362 Lip20                                               
 1.91E+03  17%   1.280 MM20                                                
  295.637  38%   0.198 MM12                                                
 1.04E+03  31%   0.697 MM14                                                
  837.256  24%   0.562 MM17                                                
 2.98E+03  16%   2.000 Lip13a+Lip13b                                       
 4.32E+03  11%   2.896 MM14+Lip13a+Lip13b+MM12                             
  937.209  18%   0.629 MM09+Lip09                                          
 2.45E+03  14%   1.642 MM20+Lip20                                          
   6 lines in following misc. output table
  FWHM = 0.054 ppm    S/N =  12                                            
  Data shift = 0.023 ppm                                                   
  Ph:  10 deg       1.8 deg/ppm                                            
  alphaB,S = 1.4E+00,   5.1E+01                                            
   14 spline knots.   Ns = 6(1)                                            
  (13) 5 infls.   (13) 1 extrs.                                            
  498 points on ppm-axis = NY
      4.000000     3.992357     3.984714     3.977070     3.969427     3.961784     3.954141     3.946497     3.938854     3.931211
      3.923568     3.915925     3.908281     3.900638     3.892995     3.885352     3.877708     3.870065     3.862422     3.854779
      3.847136     3.839492     3.831849     3.824206     3.816563     3.808919     3.801276     3.793633     3.785990     3.778347
      3.770703     3.763060     3.755417     3.747774     3.740130     3.732487     3.724844     3.717201     3.709558     3.701914
      3.694271     3.686628     3.678985     3.671341     3.663698     3.656055     3.648412     3.640769     3.633125     3.625482
      3.617839     3.610196     3.602552     3.594909     3.587266     3.579623     3.571980     3.564336     3.556693     3.549050
      3.541407     3.533763     3.526120     3.518477     3.510834     3.503191     3.495547     3.487904     3.480261     3.472618
      3.464974     3.457331     3.449688     3.442045     3.434402     3.426758     3.419115     3.411472     3.403829     3.396185
      3.388542     3.380899     3.373256     3.365613     3.357969     3.350326     3.342683     3.335040     3.327396     3.319753
      3.312110     3.304467     3.296824     3.289180     3.281537     3.273894     3.266251     3.258607     3.250964     3.243321
      3.235678     3.228034     3.220391     3.212748     3.205105     3.197462     3.189818     3.182175     3.174532     3.166889
      3.159245     3.151602     3.143959     3.136316     3.128673     3.121029     3.113386     3.105743     3.098100     3.090456
      3.082813     3.075170     3.067527     3.059884     3.052240     3.044597     3.036954     3.029311     3.021667     3.014024
      3.006381     2.998738     2.991095     2.983451     2.975808     2.968165     2.960522     2.952878     2.945235     2.937592
      2.929949     2.922306     2.914662     2.907019     2.899376     2.891733     2.884089     2.876446     2.868803     2.861160
      2.853517     2.845873     2.838230     2.830587     2.822944     2.815300     2.807657     2.800014     2.792371     2.784728
      2.777084     2.769441     2.761798     2.754155     2.746511     2.738868     2.731225     2.723582     2.715939     2.708295
      2.700652     2.693009     2.685366     2.677722     2.670079     2.662436     2.654793     2.647150     2.639506     2.631863
      2.624220     2.616577     2.608933     2.601290     2.593647     2.586004     2.578361     2.570717     2.563074     2.555431
      2.547788     2.540144     2.532501     2.524858     2.517215     2.509572     2.501928     2.494285     2.486642     2.478999
      2.471355     2.463712     2.456069     2.448426     2.440783     2.433139     2.425496     2.417853     2.410210     2.402566
      2.394923     2.387280     2.379637     2.371994     2.364350     2.356707     2.349064     2.341421     2.333777     2.326134
      2.318491     2.310848     2.303205     2.295561     2.287918     2.280275     2.272632     2.264988     2.257345     2.249702
      2.242059     2.234416     2.226772     2.219129     2.211486     2.203843     2.196199     2.188556     2.180913     2.173270
      2.165627     2.157983     2.150340     2.142697     2.135054     2.127410     2.119767     2.112124     2.104481     2.096838
      2.089194     2.081551     2.073908     2.066265     2.058621     2.050978     2.043335     2.035692     2.028049     2.020405
      2.012762     2.005119     1.997476     1.989833     1.982190     1.974546     1.966903     1.959260     1.951617     1.943974
      1.936331     1.928688     1.921045     1.913402     1.905759     1.898115     1.890472     1.882829     1.875186     1.867543
      1.859900     1.852257     1.844614     1.836971     1.829327     1.821684     1.814041     1.806398     1.798755     1.791112
      1.783469     1.775826     1.768183     1.760540     1.752896     1.745253     1.737610     1.729967     1.722324     1.714681
      1.707038     1.699395     1.691752     1.684108     1.676465     1.668822     1.661179     1.653536     1.645893     1.638250
      1.630607     1.622964     1.615321     1.607677     1.600034     1.592391     1.584748     1.577105     1.569462     1.561819
      1.554176     1.546533     1.538890     1.531246     1.523603     1.515960     1.508317     1.500674     1.493031     1.485388
      1.477745     1.470102     1.462458     1.454815     1.447172     1.439529     1.431886     1.424243     1.416600     1.408957
      1.401314     1.393671     1.386027     1.378384     1.370741     1.363098     1.355455     1.347812     1.340169     1.332526
      1.324883     1.317240     1.309596     1.301953     1.294310     1.286667     1.279024     1.271381     1.263738     1.256095
      1.248452     1.240808     1.233165     1.225522     1.217879     1.210236     1.202593     1.194950     1.187307     1.179664
      1.172021     1.164377     1.156734     1.149091     1.141448     1.133805     1.126162     1.118519     1.110876     1.103233
      1.095590     1.087946     1.080303     1.072660     1.065017     1.057374     1.049731     1.042088     1.034445     1.026802
      1.019158     1.011515     1.003872     0.996229     0.988586     0.980943     0.973300     0.965657     0.958014     0.950371
      0.942727     0.935084     0.927441     0.919798     0.912155     0.904512     0.896869     0.889226     0.881583     0.873940
      0.866296     0.858653     0.851010     0.843367     0.835724     0.828081     0.820438     0.812795     0.805152     0.797508
      0.789865     0.782222     0.774579     0.766936     0.759293     0.751650     0.744007     0.736364     0.728721     0.721077
      0.713434     0.705791     0.698148     0.690505     0.682862     0.675219     0.667576     0.659933     0.652290     0.644646
      0.637003     0.629360     0.621717     0.614074     0.606431     0.598788     0.591145     0.583502     0.575858     0.568215
      0.560572     0.552929     0.545286     0.537643     0.530000     0.522357     0.514714     0.507071     0.499427     0.491784
      0.484141     0.476498     0.468855     0.461212     0.453569     0.445925     0.438282     0.430639     0.422996     0.415353
      0.407710     0.400067     0.392424     0.384780     0.377137     0.369494     0.361851     0.354208     0.346565     0.338922
      0.331278     0.323635     0.315992     0.308349     0.300706     0.293063     0.285420     0.277777     0.270133     0.262490
      0.254847     0.247204     0.239561     0.231918     0.224275     0.216631     0.208988     0.201345
 NY phased data points follow
   2.65107E+01  2.21197E+01  2.86483E+01  2.74007E+01  3.28243E+01  3.15343E+01  4.26703E+01  4.22990E+01  4.95455E+01  5.57274E+01
   6.29720E+01  6.20814E+01  6.11608E+01  4.84555E+01  5.10346E+01  3.96547E+01  3.82990E+01  2.91766E+01  2.70553E+01  2.33667E+01
   2.44782E+01  2.19271E+01  2.65860E+01  2.50638E+01  2.74720E+01  3.03262E+01  3.19151E+01  2.88224E+01  3.02903E+01  2.95042E+01
   3.31204E+01  2.90367E+01  3.50122E+01  2.86837E+01  2.94208E+01  2.33224E+01  3.04602E+01  2.17405E+01  2.93707E+01  2.25771E+01
   2.16891E+01  2.30427E+01  2.17888E+01  2.19401E+01  2.28290E+01  1.97550E+01  2.67701E+01  2.61752E+01  2.39913E+01  2.10616E+01
   2.48435E+01  1.79428E+01  1.81568E+01  1.57370E+01  1.89206E+01  1.94749E+01  1.55170E+01  1.60113E+01  2.14445E+01  1.42874E+01
   2.08586E+01  1.29627E+01  1.45973E+01  6.53014E+00  8.68798E+00  1.11533E+01  7.90436E+00  2.94781E+00  1.14865E+01  3.92513E+00
   8.71912E+00  7.25546E+00  1.31419E+01  1.07654E+01  1.19991E+01  1.19168E+01  1.37968E+01  9.27843E+00  9.48896E+00  1.04474E+01
   1.18089E+01  6.86768E+00  9.96936E+00  9.11250E+00  1.29896E+01  5.82195E+00  1.25291E+01  9.58625E+00  1.32815E+01  9.27332E+00
   1.27283E+01  7.12335E+00  1.33812E+01  6.47566E+00  1.02168E+01  7.14850E+00  8.60204E+00  7.55607E+00  1.54231E+01  1.65431E+01
   2.86215E+01  3.63837E+01  5.00036E+01  4.73580E+01  4.98649E+01  4.40747E+01  4.35802E+01  2.81401E+01  2.53001E+01  2.02857E+01
   1.68733E+01  1.03249E+01  1.00202E+01  6.84148E+00  1.16559E+01  7.13081E+00  3.75341E+00  5.84712E+00  8.34155E+00  5.04322E+00
   8.79711E+00  8.20042E+00  1.25187E+01  1.71903E+01  2.45626E+01  3.35322E+01  4.52956E+01  5.41486E+01  5.17684E+01  4.81795E+01
   4.42805E+01  3.31384E+01  2.76039E+01  1.96285E+01  1.37306E+01  8.65082E+00  1.06302E+01  3.81095E+00  4.43115E+00  2.52275E+00
   9.04004E+00  2.43444E+00  5.16892E+00  5.04978E+00  7.23675E+00  5.07074E-01  2.75744E+00  9.78726E-01  3.43972E+00  3.01368E+00
   8.21435E-01  3.00243E+00  3.20209E+00 -1.62005E+00  1.44532E-01 -1.60423E-01  8.10667E-01 -1.57089E-01 -3.99042E-01  2.22100E+00
  -3.53386E-01 -2.15371E+00 -4.75968E-01 -2.01773E+00 -1.39516E+00  2.63252E+00  5.43348E-01 -1.91474E+00  1.08794E+00 -1.22863E+00
  -6.01832E+00 -7.18708E+00 -1.88085E+00 -2.87304E+00 -5.74305E+00 -8.17846E+00 -4.82697E+00 -8.88344E+00 -6.04235E+00 -9.18421E+00
  -8.77901E+00 -1.17182E+01 -5.98734E+00 -5.00988E+00 -8.68311E+00 -5.14278E+00 -8.53702E+00 -5.69856E+00 -1.75419E+00 -1.26001E+00
   4.85186E-01  2.75467E+00  7.30172E+00  1.46385E+00  7.86392E+00  8.73779E+00  2.87300E+00 -5.89031E-01 -1.27521E+00 -2.91555E+00
  -9.73359E-01  2.03088E+00  1.44391E+00 -3.37434E-01  7.20850E+00  1.75198E+00  1.94539E+00 -1.26303E+00  4.84528E-01 -3.44978E+00
  -2.23845E+00 -4.11825E+00 -5.91706E-01  7.22458E-01  9.35519E+00  1.03349E+01  1.19815E+01  4.41552E+00  8.73417E+00  4.64630E+00
  -7.19231E-02 -3.86766E+00 -4.37475E-01 -3.57006E+00  2.99747E+00  4.18915E-01  5.87251E+00  4.62174E+00  7.64226E+00  7.92158E+00
   1.40142E+01  6.69181E+00  1.29421E+01  5.80146E+00  1.23215E+01  8.36550E+00  8.78280E+00  6.36003E+00  6.23067E+00  4.77717E-01
   7.52750E+00  3.13534E+00  5.04777E+00  1.13266E+00  4.81597E+00  6.21642E+00  8.80800E+00  7.38279E+00  1.18974E+01  9.21429E+00
   9.76554E+00  4.78137E+00  6.66403E+00  8.94170E+00  2.01665E+01  2.81191E+01  3.01017E+01  3.89604E+01  5.07971E+01  6.30544E+01
   7.38748E+01  6.51884E+01  6.49849E+01  5.13975E+01  3.42884E+01  2.82488E+01  2.16803E+01  1.46561E+01  1.01427E+01  9.01689E+00
   1.38196E+01  4.59057E+00  9.28546E+00  6.22323E+00  1.95736E+00  2.73895E+00  4.08320E+00  7.06195E+00  3.45569E+00 -3.82977E-01
   5.83938E+00  4.54175E+00  6.76858E+00  1.70147E+00  5.95212E-01 -1.64444E+00  2.87597E+00  5.54321E+00  1.28021E+00  3.86681E+00
   6.24406E+00  2.82424E+00  4.29697E+00  1.22388E+00  3.50848E+00  3.00357E+00  1.35596E+00  3.97023E+00  5.59554E+00  1.08484E+00
   5.90043E+00  3.95706E+00  6.07005E+00  5.42569E+00  4.08106E+00  4.08210E+00  8.86593E+00  8.69320E+00  7.88002E+00  4.85828E+00
   9.94027E+00  6.18203E+00  1.16371E+01  5.60452E+00  9.43292E+00  1.07687E+01  7.46825E+00  8.46415E+00  7.61841E+00  8.09717E+00
   1.00875E+01  5.51700E+00  1.00568E+01  8.76057E+00  9.18158E+00  5.85070E+00  9.91863E+00  7.71118E+00  7.34565E+00  6.59049E+00
   1.05393E+01  8.09771E+00  1.02831E+01  8.00681E+00  1.09529E+01  6.70628E+00  8.77916E+00  7.09641E+00  1.01767E+01  1.18550E+01
   7.96621E+00  1.18910E+01  1.20932E+01  1.41031E+01  1.60302E+01  1.21288E+01  1.63775E+01  1.23165E+01  1.63557E+01  1.70253E+01
   1.95749E+01  1.48423E+01  1.79633E+01  1.76062E+01  1.93701E+01  1.55660E+01  2.03969E+01  1.85041E+01  2.03479E+01  1.47903E+01
   1.58190E+01  1.34426E+01  1.56266E+01  1.34127E+01  1.12857E+01  1.27170E+01  8.51448E+00  1.25898E+01  1.43102E+01  9.36303E+00
   8.19912E+00  7.40802E+00  1.33302E+01  7.48698E+00  8.68933E+00  4.60051E+00  1.02694E+01  8.24957E+00  9.06453E+00  6.25699E+00
   3.12702E+00  3.89549E+00  3.86418E+00  3.19740E+00  4.62322E+00  4.40830E+00  5.48767E+00  6.79567E+00  4.32640E+00  1.63149E+00
   6.28748E+00  3.90161E+00  7.55166E+00  3.51839E+00  6.29747E+00  2.64772E+00  6.91504E+00  5.35803E+00  4.27474E+00  6.09850E+00
   7.50650E+00  4.78655E+00  6.91201E+00  5.99690E+00  6.25463E+00  2.06619E+00  8.88258E+00  8.03869E+00  7.60419E+00  8.02447E+00
   1.01889E+01  5.70734E+00  5.17470E+00  4.59958E+00  8.67053E+00  3.03507E+00  9.76812E+00  2.05783E+00  7.24779E+00  2.20573E+00
   2.53690E+00  3.33304E+00  4.67242E+00  3.45676E+00  5.47459E+00  7.71885E+00  4.89416E+00  9.61133E-01  6.22196E+00  3.86085E+00
   4.87334E+00  5.20113E-01  5.87586E+00 -1.96077E-01  2.12299E+00  1.69147E+00  4.30177E+00  5.20192E-01  1.99782E+00 -2.68458E-01
   4.26094E+00  3.00465E-02  3.16503E+00 -1.83144E+00  2.51827E+00  5.76995E-01  3.42902E+00  2.75481E+00  2.54707E+00  3.53569E+00
   3.93970E+00 -1.18000E+00  1.80201E+00  3.41622E+00  7.90596E-02 -1.33318E+00  5.36607E+00 -1.00303E+00 -9.12525E-01  1.74459E+00
   2.03686E+00  3.48927E+00  7.76895E-01 -1.12351E-01  2.19963E+00 -1.37763E+00  6.02093E-01  1.02805E+00  3.28944E+00  3.72677E+00
   2.58008E+00 -4.71545E-01 -9.86955E-01 -2.04739E-01  6.06226E-01 -2.00481E-02 -5.02731E-01  3.23865E-01  8.28594E-02  1.08848E+00
   2.15796E+00 -1.39231E+00  4.44857E-01  2.02487E+00  2.03477E-01  4.71845E-01  1.71632E+00  4.04012E+00  1.89705E+00  2.24874E-01
   5.84108E+00 -1.30799E+00 -7.09687E-01 -1.53756E+00  5.49497E-01  9.17996E-01  2.63508E-01  1.56426E+00
 NY points of the fit to the data follow
   2.66061E+01  2.65019E+01  2.66579E+01  2.73848E+01  2.96646E+01  3.30984E+01  3.70294E+01  4.20716E+01  4.86368E+01  5.50222E+01
   5.86164E+01  5.85236E+01  5.54816E+01  5.02395E+01  4.42952E+01  3.93858E+01  3.53588E+01  3.11327E+01  2.78142E+01  2.61664E+01
   2.55015E+01  2.50444E+01  2.44854E+01  2.42629E+01  2.47762E+01  2.52273E+01  2.57910E+01  2.73797E+01  2.97885E+01  3.18347E+01
   3.29021E+01  3.34316E+01  3.30175E+01  3.11057E+01  2.88090E+01  2.66935E+01  2.39682E+01  2.12269E+01  2.00426E+01  1.97211E+01
   1.96350E+01  2.00495E+01  2.08144E+01  2.14328E+01  2.18758E+01  2.26065E+01  2.31819E+01  2.29690E+01  2.23849E+01  2.16500E+01
   2.05774E+01  1.94003E+01  1.85139E+01  1.77662E+01  1.69861E+01  1.64212E+01  1.61695E+01  1.60448E+01  1.59421E+01  1.58204E+01
   1.55933E+01  1.52402E+01  1.47134E+01  1.40925E+01  1.35413E+01  1.31332E+01  1.28604E+01  1.26885E+01  1.26005E+01  1.25881E+01
   1.26334E+01  1.26479E+01  1.25791E+01  1.24348E+01  1.22245E+01  1.19614E+01  1.16806E+01  1.14265E+01  1.11728E+01  1.09204E+01
   1.08108E+01  1.08283E+01  1.08171E+01  1.08630E+01  1.10660E+01  1.12592E+01  1.11556E+01  1.07232E+01  1.01635E+01  9.56888E+00
   9.03076E+00  8.71853E+00  8.56899E+00  8.38094E+00  8.26357E+00  8.42131E+00  8.99712E+00  1.14438E+01  1.59767E+01  2.06730E+01
   2.68889E+01  3.60288E+01  4.57300E+01  5.13859E+01  5.13325E+01  4.72454E+01  4.01498E+01  3.14582E+01  2.44416E+01  1.92749E+01
   1.34963E+01  8.54970E+00  6.91963E+00  6.41949E+00  6.16937E+00  6.02141E+00  5.93351E+00  5.88084E+00  5.89029E+00  6.05985E+00
   6.75081E+00  9.24628E+00  1.41199E+01  1.96210E+01  2.63551E+01  3.58664E+01  4.64634E+01  5.37022E+01  5.50224E+01  5.14897E+01
   4.46242E+01  3.57813E+01  2.77902E+01  2.13908E+01  1.45330E+01  8.04201E+00  4.84759E+00  3.79056E+00  3.71824E+00  4.15922E+00
   4.65483E+00  5.08833E+00  5.40384E+00  5.46104E+00  5.28276E+00  4.94712E+00  4.50442E+00  4.05450E+00  3.55561E+00  3.08879E+00
   2.74666E+00  2.46247E+00  2.20375E+00  1.99623E+00  1.83997E+00  1.63829E+00  1.43516E+00  1.23971E+00  9.52176E-01  5.69891E-01
   1.59566E-01 -5.05048E-02  8.52832E-03  1.82894E-01  2.96652E-01  1.71537E-01 -1.71477E-01 -5.57244E-01 -9.20907E-01 -1.32065E+00
  -1.75579E+00 -2.22383E+00 -2.65868E+00 -3.02200E+00 -3.43369E+00 -3.80298E+00 -3.87569E+00 -3.71926E+00 -3.61437E+00 -3.66855E+00
  -3.81733E+00 -4.01960E+00 -4.05042E+00 -3.85644E+00 -3.64956E+00 -3.42069E+00 -2.84288E+00 -1.77752E+00 -3.43808E-01  1.02639E+00
   2.07342E+00  2.51153E+00  2.27496E+00  1.73741E+00  1.07428E+00  1.69562E-01 -6.54463E-01 -9.48339E-01 -6.31309E-01  9.35092E-02
   1.24196E+00  2.65971E+00  3.91170E+00  4.74765E+00  4.96325E+00  4.44789E+00  3.20635E+00  1.43383E+00 -4.89061E-01 -2.12827E+00
  -2.77667E+00 -2.30799E+00 -9.77627E-01  1.36152E+00  4.43107E+00  6.86444E+00  7.52602E+00  6.58124E+00  4.48975E+00  1.50674E+00
  -1.83192E+00 -4.58431E+00 -5.90101E+00 -5.70377E+00 -3.98436E+00 -1.28917E+00  1.47672E+00  3.69393E+00  5.02883E+00  5.81761E+00
   6.19246E+00  6.12729E+00  6.01157E+00  6.16429E+00  6.51231E+00  6.96357E+00  7.29947E+00  7.11121E+00  6.59614E+00  6.04606E+00
   5.40626E+00  4.68525E+00  4.35968E+00  4.79573E+00  5.62063E+00  6.43631E+00  7.34126E+00  8.18128E+00  8.55514E+00  8.56163E+00
   8.96214E+00  9.58999E+00  1.03390E+01  1.21840E+01  1.75488E+01  2.47679E+01  3.14143E+01  4.02064E+01  5.26858E+01  6.46127E+01
   7.00761E+01  6.83575E+01  6.18432E+01  5.11891E+01  3.92788E+01  3.03913E+01  2.33262E+01  1.48510E+01  8.65417E+00  6.64295E+00
   5.72029E+00  5.09376E+00  4.76240E+00  4.66708E+00  4.56413E+00  4.44379E+00  4.29938E+00  4.10047E+00  3.85670E+00  3.61287E+00
   3.36927E+00  3.13293E+00  2.93886E+00  2.80349E+00  2.71822E+00  2.65503E+00  2.60088E+00  2.56820E+00  2.56655E+00  2.58115E+00
   2.61819E+00  2.68765E+00  2.79284E+00  2.92723E+00  3.08975E+00  3.28081E+00  3.49796E+00  3.73921E+00  4.00627E+00  4.29722E+00
   4.60967E+00  4.94003E+00  5.28305E+00  5.62948E+00  5.96984E+00  6.29755E+00  6.60598E+00  6.88637E+00  7.13401E+00  7.34586E+00
   7.51842E+00  7.65068E+00  7.74401E+00  7.80047E+00  7.82405E+00  7.82048E+00  7.79664E+00  7.76030E+00  7.72007E+00  7.68572E+00
   7.67024E+00  7.68980E+00  7.72585E+00  7.76652E+00  7.83632E+00  7.92374E+00  7.97770E+00  7.96916E+00  7.92890E+00  7.92269E+00
   7.98212E+00  8.10608E+00  8.32216E+00  8.63625E+00  9.03126E+00  9.49220E+00  9.96278E+00  1.03946E+01  1.07808E+01  1.11223E+01
   1.14650E+01  1.18385E+01  1.22107E+01  1.25866E+01  1.30222E+01  1.35112E+01  1.40362E+01  1.45857E+01  1.51589E+01  1.57573E+01
   1.63608E+01  1.69402E+01  1.74683E+01  1.79074E+01  1.82139E+01  1.83569E+01  1.83150E+01  1.80802E+01  1.76654E+01  1.71013E+01
   1.64318E+01  1.56937E+01  1.49129E+01  1.41229E+01  1.33490E+01  1.26007E+01  1.18831E+01  1.11979E+01  1.05451E+01  9.92400E+00
   9.33407E+00  8.77547E+00  8.24888E+00  7.75533E+00  7.29602E+00  6.87213E+00  6.48469E+00  6.13435E+00  5.82141E+00  5.54581E+00
   5.30731E+00  5.10552E+00  4.93996E+00  4.81002E+00  4.71505E+00  4.65436E+00  4.62731E+00  4.63323E+00  4.67137E+00  4.74075E+00
   4.84015E+00  4.96801E+00  5.12242E+00  5.30099E+00  5.50068E+00  5.71780E+00  5.94799E+00  6.18629E+00  6.42721E+00  6.66477E+00
   6.89266E+00  7.10440E+00  7.29361E+00  7.45434E+00  7.58121E+00  7.66967E+00  7.71617E+00  7.71834E+00  7.67513E+00  7.58689E+00
   7.45528E+00  7.28316E+00  7.07444E+00  6.83388E+00  6.56694E+00  6.27947E+00  5.97745E+00  5.66670E+00  5.35272E+00  5.04052E+00
   4.73455E+00  4.43855E+00  4.15552E+00  3.88766E+00  3.63649E+00  3.40291E+00  3.18729E+00  2.98955E+00  2.80915E+00  2.64530E+00
   2.49699E+00  2.36314E+00  2.24259E+00  2.13418E+00  2.03672E+00  1.94906E+00  1.87016E+00  1.79909E+00  1.73500E+00  1.67710E+00
   1.62466E+00  1.57705E+00  1.53372E+00  1.49422E+00  1.45815E+00  1.42511E+00  1.39476E+00  1.36678E+00  1.34097E+00  1.31712E+00
   1.29504E+00  1.27453E+00  1.25543E+00  1.23761E+00  1.22098E+00  1.20546E+00  1.19094E+00  1.17732E+00  1.16450E+00  1.15244E+00
   1.14110E+00  1.13044E+00  1.12038E+00  1.11087E+00  1.10186E+00  1.09334E+00  1.08530E+00  1.07771E+00  1.07049E+00  1.06363E+00
   1.05711E+00  1.05093E+00  1.04510E+00  1.03957E+00  1.03430E+00  1.02928E+00  1.02451E+00  1.02002E+00  1.01577E+00  1.01173E+00
   1.00788E+00  1.00422E+00  1.00076E+00  9.97522E-01  9.94472E-01  9.91583E-01  9.88844E-01  9.86271E-01  9.83885E-01  9.81681E-01
   9.79633E-01  9.77720E-01  9.75947E-01  9.74341E-01  9.72919E-01  9.71669E-01  9.70566E-01  9.69607E-01
 NY background values follow
     2.428E+01    2.408E+01    2.388E+01    2.368E+01    2.348E+01    2.328E+01    2.308E+01    2.288E+01    2.268E+01    2.248E+01
     2.228E+01    2.208E+01    2.189E+01    2.169E+01    2.149E+01    2.129E+01    2.109E+01    2.089E+01    2.069E+01    2.049E+01
     2.029E+01    2.009E+01    1.989E+01    1.970E+01    1.950E+01    1.930E+01    1.910E+01    1.890E+01    1.871E+01    1.851E+01
     1.831E+01    1.811E+01    1.792E+01    1.772E+01    1.753E+01    1.733E+01    1.714E+01    1.694E+01    1.675E+01    1.655E+01
     1.636E+01    1.616E+01    1.597E+01    1.578E+01    1.559E+01    1.540E+01    1.520E+01    1.501E+01    1.482E+01    1.463E+01
     1.444E+01    1.426E+01    1.407E+01    1.388E+01    1.369E+01    1.351E+01    1.332E+01    1.314E+01    1.295E+01    1.277E+01
     1.259E+01    1.240E+01    1.222E+01    1.204E+01    1.186E+01    1.168E+01    1.150E+01    1.133E+01    1.115E+01    1.097E+01
     1.080E+01    1.063E+01    1.045E+01    1.028E+01    1.011E+01    9.938E+00    9.768E+00    9.600E+00    9.432E+00    9.266E+00
     9.100E+00    8.936E+00    8.772E+00    8.610E+00    8.449E+00    8.289E+00    8.130E+00    7.972E+00    7.815E+00    7.660E+00
     7.506E+00    7.353E+00    7.201E+00    7.050E+00    6.901E+00    6.753E+00    6.606E+00    6.460E+00    6.316E+00    6.172E+00
     6.031E+00    5.890E+00    5.751E+00    5.612E+00    5.476E+00    5.340E+00    5.206E+00    5.073E+00    4.941E+00    4.811E+00
     4.682E+00    4.554E+00    4.428E+00    4.303E+00    4.179E+00    4.057E+00    3.936E+00    3.816E+00    3.698E+00    3.581E+00
     3.465E+00    3.351E+00    3.238E+00    3.126E+00    3.016E+00    2.907E+00    2.800E+00    2.694E+00    2.590E+00    2.486E+00
     2.385E+00    2.284E+00    2.185E+00    2.088E+00    1.992E+00    1.897E+00    1.804E+00    1.712E+00    1.622E+00    1.533E+00
     1.446E+00    1.360E+00    1.276E+00    1.192E+00    1.111E+00    1.031E+00    9.518E-01    8.745E-01    7.985E-01    7.240E-01
     6.509E-01    5.792E-01    5.090E-01    4.401E-01    3.727E-01    3.067E-01    2.421E-01    1.789E-01    1.171E-01    5.669E-02
    -2.293E-03   -5.988E-02   -1.161E-01   -1.709E-01   -2.242E-01   -2.762E-01   -3.269E-01   -3.761E-01   -4.239E-01   -4.704E-01
    -5.154E-01   -5.591E-01   -6.014E-01   -6.423E-01   -6.818E-01   -7.200E-01   -7.568E-01   -7.922E-01   -8.263E-01   -8.590E-01
    -8.903E-01   -9.202E-01   -9.488E-01   -9.761E-01   -1.002E+00   -1.027E+00   -1.050E+00   -1.072E+00   -1.093E+00   -1.113E+00
    -1.132E+00   -1.149E+00   -1.166E+00   -1.181E+00   -1.195E+00   -1.209E+00   -1.221E+00   -1.232E+00   -1.243E+00   -1.252E+00
    -1.261E+00   -1.268E+00   -1.275E+00   -1.281E+00   -1.286E+00   -1.291E+00   -1.294E+00   -1.297E+00   -1.299E+00   -1.301E+00
    -1.302E+00   -1.302E+00   -1.302E+00   -1.301E+00   -1.300E+00   -1.298E+00   -1.295E+00   -1.292E+00   -1.289E+00   -1.285E+00
    -1.281E+00   -1.277E+00   -1.272E+00   -1.267E+00   -1.261E+00   -1.255E+00   -1.249E+00   -1.243E+00   -1.237E+00   -1.230E+00
    -1.223E+00   -1.216E+00   -1.209E+00   -1.202E+00   -1.194E+00   -1.186E+00   -1.178E+00   -1.170E+00   -1.162E+00   -1.154E+00
    -1.145E+00   -1.136E+00   -1.127E+00   -1.118E+00   -1.109E+00   -1.099E+00   -1.090E+00   -1.080E+00   -1.070E+00   -1.060E+00
    -1.050E+00   -1.040E+00   -1.030E+00   -1.020E+00   -1.009E+00   -9.984E-01   -9.877E-01   -9.769E-01   -9.660E-01   -9.551E-01
    -9.440E-01   -9.329E-01   -9.217E-01   -9.104E-01   -8.991E-01   -8.877E-01   -8.763E-01   -8.648E-01   -8.532E-01   -8.416E-01
    -8.300E-01   -8.183E-01   -8.066E-01   -7.949E-01   -7.831E-01   -7.713E-01   -7.595E-01   -7.477E-01   -7.359E-01   -7.240E-01
    -7.122E-01   -7.004E-01   -6.885E-01   -6.767E-01   -6.648E-01   -6.530E-01   -6.412E-01   -6.293E-01   -6.176E-01   -6.058E-01
    -5.940E-01   -5.823E-01   -5.706E-01   -5.590E-01   -5.474E-01   -5.358E-01   -5.243E-01   -5.128E-01   -5.014E-01   -4.900E-01
    -4.786E-01   -4.674E-01   -4.562E-01   -4.450E-01   -4.339E-01   -4.229E-01   -4.120E-01   -4.012E-01   -3.904E-01   -3.797E-01
    -3.691E-01   -3.586E-01   -3.482E-01   -3.378E-01   -3.276E-01   -3.175E-01   -3.075E-01   -2.976E-01   -2.878E-01   -2.781E-01
    -2.685E-01   -2.590E-01   -2.497E-01   -2.404E-01   -2.312E-01   -2.221E-01   -2.132E-01   -2.043E-01   -1.955E-01   -1.868E-01
    -1.783E-01   -1.698E-01   -1.614E-01   -1.531E-01   -1.448E-01   -1.367E-01   -1.287E-01   -1.207E-01   -1.129E-01   -1.051E-01
    -9.737E-02   -8.975E-02   -8.221E-02   -7.475E-02   -6.737E-02   -6.007E-02   -5.284E-02   -4.569E-02   -3.861E-02   -3.161E-02
    -2.467E-02   -1.781E-02   -1.101E-02   -4.287E-03    2.372E-03    8.966E-03    1.550E-02    2.196E-02    2.837E-02    3.471E-02
     4.099E-02    4.722E-02    5.338E-02    5.949E-02    6.555E-02    7.155E-02    7.751E-02    8.341E-02    8.926E-02    9.507E-02
     1.008E-01    1.066E-01    1.122E-01    1.179E-01    1.235E-01    1.291E-01    1.346E-01    1.401E-01    1.456E-01    1.510E-01
     1.564E-01    1.618E-01    1.672E-01    1.725E-01    1.779E-01    1.832E-01    1.885E-01    1.937E-01    1.990E-01    2.042E-01
     2.095E-01    2.147E-01    2.199E-01    2.251E-01    2.304E-01    2.356E-01    2.408E-01    2.460E-01    2.512E-01    2.564E-01
     2.617E-01    2.669E-01    2.721E-01    2.774E-01    2.827E-01    2.880E-01    2.933E-01    2.986E-01    3.039E-01    3.093E-01
     3.147E-01    3.201E-01    3.255E-01    3.309E-01    3.363E-01    3.417E-01    3.471E-01    3.525E-01    3.580E-01    3.634E-01
     3.688E-01    3.742E-01    3.796E-01    3.850E-01    3.904E-01    3.957E-01    4.010E-01    4.064E-01    4.117E-01    4.169E-01
     4.222E-01    4.274E-01    4.326E-01    4.378E-01    4.429E-01    4.480E-01    4.531E-01    4.581E-01    4.630E-01    4.680E-01
     4.729E-01    4.777E-01    4.825E-01    4.872E-01    4.919E-01    4.965E-01    5.011E-01    5.056E-01    5.101E-01    5.145E-01
     5.188E-01    5.230E-01    5.272E-01    5.313E-01    5.354E-01    5.394E-01    5.433E-01    5.471E-01    5.509E-01    5.546E-01
     5.583E-01    5.619E-01    5.655E-01    5.690E-01    5.725E-01    5.759E-01    5.793E-01    5.826E-01    5.859E-01    5.892E-01
     5.924E-01    5.956E-01    5.987E-01    6.018E-01    6.049E-01    6.080E-01    6.110E-01    6.140E-01    6.170E-01    6.200E-01
     6.230E-01    6.259E-01    6.288E-01    6.317E-01    6.347E-01    6.376E-01    6.405E-01    6.434E-01    6.463E-01    6.492E-01
     6.521E-01    6.550E-01    6.579E-01    6.608E-01    6.638E-01    6.667E-01    6.697E-01    6.727E-01
 Ala      Conc. = 3.70E+01
