 LCModel (Version 6.3-1L) Copyright: S.W. Provencher.          Ref.: Magn. Reson. Med. 30:672-679 (1993).                
 Slice#3 Row#9 Col#5  PD_24_press_1_raw_act
 36 lines in following concentration table = NCONC+1
    Conc.  %SD /Cr+PCr  Metabolite                                         
   25.656 366% 1.3E-02 Ala                                                 
    0.000 999%   0.000 Asp                                                 
  919.279  21%   0.460 Cr                                                  
 1.08E+03  19%   0.540 PCr                                                 
    0.000 999%   0.000 GABA                                                
    0.000 999%   0.000 Glc                                                 
  412.213  47%   0.206 Gln                                                 
 1.70E+03  13%   0.851 Glu                                                 
  707.024   3%   0.354 GPC                                                 
    0.000 999%   0.000 PCh                                                 
  451.772  14%   0.226 GSH                                                 
  333.150  66%   0.167 Ins                                                 
    9.848 999% 4.9E-03 Lac                                                 
 2.21E+03   5%   1.106 NAA                                                 
  492.560  20%   0.246 NAAG                                                
    2.706 920% 1.4E-03 Scyllo                                              
    0.000 999%   0.000 Tau                                                 
    0.000 999%   0.000 -CrCH2                                              
  707.024   3%   0.354 GPC+PCh                                             
 2.70E+03   3%   1.353 NAA+NAAG                                            
 2.00E+03   3%   1.000 Cr+PCr                                              
 2.11E+03  14%   1.057 Glu+Gln                                             
 3.74E+03  22%   1.871 Lip13a                                              
  272.471  64%   0.136 Lip13b                                              
  563.055  63%   0.282 Lip09                                               
  915.258  36%   0.458 MM09                                                
  616.118  45%   0.308 Lip20                                               
 1.93E+03  22%   0.966 MM20                                                
  320.495  59%   0.160 MM12                                                
 1.32E+03  32%   0.658 MM14                                                
  581.257  41%   0.291 MM17                                                
 4.01E+03  20%   2.008 Lip13a+Lip13b                                       
 5.65E+03  11%   2.826 MM14+Lip13a+Lip13b+MM12                             
 1.48E+03  16%   0.739 MM09+Lip09                                          
 2.55E+03  16%   1.274 MM20+Lip20                                          
   6 lines in following misc. output table
  FWHM = 0.046 ppm    S/N =  14                                            
  Data shift = 0.031 ppm                                                   
  Ph:   2 deg      -4.0 deg/ppm                                            
  alphaB,S = 8.3E-01,   8.9E+01                                            
   14 spline knots.   Ns = 6(1)                                            
  (11) 2 infls.   ( 3) 1 extrs.                                            
  498 points on ppm-axis = NY
      4.000000     3.992357     3.984714     3.977070     3.969427     3.961784     3.954141     3.946497     3.938854     3.931211
      3.923568     3.915925     3.908281     3.900638     3.892995     3.885352     3.877708     3.870065     3.862422     3.854779
      3.847136     3.839492     3.831849     3.824206     3.816563     3.808919     3.801276     3.793633     3.785990     3.778347
      3.770703     3.763060     3.755417     3.747774     3.740130     3.732487     3.724844     3.717201     3.709558     3.701914
      3.694271     3.686628     3.678985     3.671341     3.663698     3.656055     3.648412     3.640769     3.633125     3.625482
      3.617839     3.610196     3.602552     3.594909     3.587266     3.579623     3.571980     3.564336     3.556693     3.549050
      3.541407     3.533763     3.526120     3.518477     3.510834     3.503191     3.495547     3.487904     3.480261     3.472618
      3.464974     3.457331     3.449688     3.442045     3.434402     3.426758     3.419115     3.411472     3.403829     3.396185
      3.388542     3.380899     3.373256     3.365613     3.357969     3.350326     3.342683     3.335040     3.327396     3.319753
      3.312110     3.304467     3.296824     3.289180     3.281537     3.273894     3.266251     3.258607     3.250964     3.243321
      3.235678     3.228034     3.220391     3.212748     3.205105     3.197462     3.189818     3.182175     3.174532     3.166889
      3.159245     3.151602     3.143959     3.136316     3.128673     3.121029     3.113386     3.105743     3.098100     3.090456
      3.082813     3.075170     3.067527     3.059884     3.052240     3.044597     3.036954     3.029311     3.021667     3.014024
      3.006381     2.998738     2.991095     2.983451     2.975808     2.968165     2.960522     2.952878     2.945235     2.937592
      2.929949     2.922306     2.914662     2.907019     2.899376     2.891733     2.884089     2.876446     2.868803     2.861160
      2.853517     2.845873     2.838230     2.830587     2.822944     2.815300     2.807657     2.800014     2.792371     2.784728
      2.777084     2.769441     2.761798     2.754155     2.746511     2.738868     2.731225     2.723582     2.715939     2.708295
      2.700652     2.693009     2.685366     2.677722     2.670079     2.662436     2.654793     2.647150     2.639506     2.631863
      2.624220     2.616577     2.608933     2.601290     2.593647     2.586004     2.578361     2.570717     2.563074     2.555431
      2.547788     2.540144     2.532501     2.524858     2.517215     2.509572     2.501928     2.494285     2.486642     2.478999
      2.471355     2.463712     2.456069     2.448426     2.440783     2.433139     2.425496     2.417853     2.410210     2.402566
      2.394923     2.387280     2.379637     2.371994     2.364350     2.356707     2.349064     2.341421     2.333777     2.326134
      2.318491     2.310848     2.303205     2.295561     2.287918     2.280275     2.272632     2.264988     2.257345     2.249702
      2.242059     2.234416     2.226772     2.219129     2.211486     2.203843     2.196199     2.188556     2.180913     2.173270
      2.165627     2.157983     2.150340     2.142697     2.135054     2.127410     2.119767     2.112124     2.104481     2.096838
      2.089194     2.081551     2.073908     2.066265     2.058621     2.050978     2.043335     2.035692     2.028049     2.020405
      2.012762     2.005119     1.997476     1.989833     1.982190     1.974546     1.966903     1.959260     1.951617     1.943974
      1.936331     1.928688     1.921045     1.913402     1.905759     1.898115     1.890472     1.882829     1.875186     1.867543
      1.859900     1.852257     1.844614     1.836971     1.829327     1.821684     1.814041     1.806398     1.798755     1.791112
      1.783469     1.775826     1.768183     1.760540     1.752896     1.745253     1.737610     1.729967     1.722324     1.714681
      1.707038     1.699395     1.691752     1.684108     1.676465     1.668822     1.661179     1.653536     1.645893     1.638250
      1.630607     1.622964     1.615321     1.607677     1.600034     1.592391     1.584748     1.577105     1.569462     1.561819
      1.554176     1.546533     1.538890     1.531246     1.523603     1.515960     1.508317     1.500674     1.493031     1.485388
      1.477745     1.470102     1.462458     1.454815     1.447172     1.439529     1.431886     1.424243     1.416600     1.408957
      1.401314     1.393671     1.386027     1.378384     1.370741     1.363098     1.355455     1.347812     1.340169     1.332526
      1.324883     1.317240     1.309596     1.301953     1.294310     1.286667     1.279024     1.271381     1.263738     1.256095
      1.248452     1.240808     1.233165     1.225522     1.217879     1.210236     1.202593     1.194950     1.187307     1.179664
      1.172021     1.164377     1.156734     1.149091     1.141448     1.133805     1.126162     1.118519     1.110876     1.103233
      1.095590     1.087946     1.080303     1.072660     1.065017     1.057374     1.049731     1.042088     1.034445     1.026802
      1.019158     1.011515     1.003872     0.996229     0.988586     0.980943     0.973300     0.965657     0.958014     0.950371
      0.942727     0.935084     0.927441     0.919798     0.912155     0.904512     0.896869     0.889226     0.881583     0.873940
      0.866296     0.858653     0.851010     0.843367     0.835724     0.828081     0.820438     0.812795     0.805152     0.797508
      0.789865     0.782222     0.774579     0.766936     0.759293     0.751650     0.744007     0.736364     0.728721     0.721077
      0.713434     0.705791     0.698148     0.690505     0.682862     0.675219     0.667576     0.659933     0.652290     0.644646
      0.637003     0.629360     0.621717     0.614074     0.606431     0.598788     0.591145     0.583502     0.575858     0.568215
      0.560572     0.552929     0.545286     0.537643     0.530000     0.522357     0.514714     0.507071     0.499427     0.491784
      0.484141     0.476498     0.468855     0.461212     0.453569     0.445925     0.438282     0.430639     0.422996     0.415353
      0.407710     0.400067     0.392424     0.384780     0.377137     0.369494     0.361851     0.354208     0.346565     0.338922
      0.331278     0.323635     0.315992     0.308349     0.300706     0.293063     0.285420     0.277777     0.270133     0.262490
      0.254847     0.247204     0.239561     0.231918     0.224275     0.216631     0.208988     0.201345
 NY phased data points follow
   5.51921E+01  5.64910E+01  6.03094E+01  6.03491E+01  6.08360E+01  6.72192E+01  7.21892E+01  7.99491E+01  9.13219E+01  9.70541E+01
   1.01577E+02  9.85990E+01  9.65764E+01  8.87763E+01  8.08382E+01  7.37597E+01  6.28453E+01  5.95307E+01  5.73973E+01  5.62122E+01
   4.93346E+01  5.22356E+01  5.00704E+01  5.14904E+01  5.14579E+01  4.58511E+01  5.10274E+01  5.02835E+01  5.21618E+01  5.63577E+01
   5.44461E+01  5.46675E+01  5.54838E+01  5.21107E+01  4.81840E+01  4.96617E+01  4.77483E+01  4.25996E+01  4.10689E+01  4.44669E+01
   4.25265E+01  4.46016E+01  4.12793E+01  4.33940E+01  4.84053E+01  4.43837E+01  5.02937E+01  4.78785E+01  4.70284E+01  4.56926E+01
   4.31626E+01  4.23339E+01  4.20413E+01  4.05454E+01  3.32038E+01  3.64799E+01  3.93382E+01  4.10405E+01  3.62890E+01  3.44462E+01
   3.67658E+01  3.48476E+01  2.86026E+01  3.05627E+01  2.64399E+01  2.58075E+01  2.49887E+01  2.22796E+01  2.58383E+01  2.55528E+01
   2.80549E+01  2.47263E+01  2.22040E+01  2.82770E+01  2.33069E+01  2.52124E+01  2.40857E+01  2.34483E+01  2.39847E+01  2.59271E+01
   2.08057E+01  3.07824E+01  2.62816E+01  2.65240E+01  2.43774E+01  2.60287E+01  2.40099E+01  2.37754E+01  2.68776E+01  2.28092E+01
   2.19162E+01  2.62766E+01  2.10999E+01  2.67354E+01  2.24041E+01  2.47997E+01  2.68834E+01  2.60756E+01  3.26271E+01  5.11228E+01
   6.96109E+01  8.12748E+01  8.55975E+01  9.03495E+01  8.57382E+01  7.78172E+01  6.51248E+01  5.27782E+01  4.17158E+01  3.61581E+01
   3.13808E+01  2.74163E+01  2.38493E+01  2.43590E+01  1.90912E+01  1.94121E+01  2.37523E+01  2.17658E+01  2.58115E+01  2.04102E+01
   2.26787E+01  2.00717E+01  3.22914E+01  3.82755E+01  4.65550E+01  6.91350E+01  7.78695E+01  8.65792E+01  8.43013E+01  7.72806E+01
   6.06488E+01  4.84344E+01  4.39228E+01  3.10603E+01  2.83139E+01  2.26816E+01  1.91282E+01  2.00718E+01  2.07124E+01  2.11919E+01
   2.23062E+01  2.21607E+01  1.95158E+01  1.75431E+01  1.25483E+01  1.62922E+01  1.86047E+01  1.56852E+01  1.41010E+01  1.92768E+01
   1.40332E+01  1.73134E+01  1.56394E+01  1.06682E+01  1.03676E+01  1.05864E+01  1.21917E+01  1.68170E+01  1.19645E+01  1.17061E+01
   1.25018E+01  7.07286E+00  8.50002E+00  1.25390E+01  1.11720E+01  1.35393E+01  1.05112E+01  9.29691E+00  2.16805E+00  2.67796E+00
   2.35932E+00  4.79905E+00  2.13342E+00 -2.14141E-01  3.08378E-01 -2.24926E+00  6.66343E-01  3.11422E-01 -1.53647E+00  4.95439E+00
  -1.19347E+00  1.92343E+00 -2.58233E+00  1.04455E+00  2.07482E+00  6.60056E-01  3.36019E+00  3.56188E+00  7.79389E+00  1.39049E+01
   1.39983E+01  1.68717E+01  1.99346E+01  1.86287E+01  2.08176E+01  1.31326E+01  1.87303E+01  1.15219E+01  8.72900E+00  8.93370E+00
   9.67146E+00  8.92194E+00  1.60873E+01  1.45269E+01  1.62025E+01  1.19905E+01  8.73179E+00  1.08117E+01  3.31545E+00  2.31425E+00
   5.37112E+00  6.69497E+00  1.15084E+01  1.15055E+01  1.80225E+01  2.05179E+01  2.06582E+01  2.22278E+01  1.28631E+01  1.12666E+01
   4.67457E+00  1.16818E+01  3.36963E-01  5.07160E+00  7.14672E+00  1.30094E+01  1.58590E+01  1.54816E+01  1.79819E+01  2.07785E+01
   1.75197E+01  1.51153E+01  1.84307E+01  1.65927E+01  1.22702E+01  1.75991E+01  1.58061E+01  1.20416E+01  1.47595E+01  1.21937E+01
   7.20423E+00  8.04782E+00  1.15202E+01  8.26626E+00  1.48893E+01  1.45135E+01  1.66988E+01  2.05525E+01  1.98949E+01  1.75452E+01
   1.75173E+01  2.81601E+01  2.83980E+01  3.53897E+01  3.80191E+01  4.70622E+01  4.83597E+01  6.79035E+01  9.07247E+01  1.02569E+02
   1.01468E+02  9.99052E+01  7.69067E+01  6.15857E+01  4.63428E+01  4.02135E+01  2.76348E+01  2.32405E+01  1.88695E+01  1.72251E+01
   1.66385E+01  1.31271E+01  1.46292E+01  1.20299E+01  1.53267E+01  1.27967E+01  1.16795E+01  1.18235E+01  1.73603E+01  1.00782E+01
   9.88061E+00  8.80083E+00  8.65476E+00  4.31733E+00  8.54128E+00  9.49379E+00  9.91186E+00  1.23802E+01  7.16058E+00  1.39004E+01
   6.15377E+00  1.32829E+01  7.52992E+00  1.04167E+01  1.18771E+01  9.42483E+00  1.15779E+01  1.06223E+01  7.47161E+00  1.18044E+01
   1.69843E+01  1.34385E+01  1.12562E+01  1.50619E+01  1.28340E+01  1.88165E+01  1.00534E+01  1.72342E+01  1.18095E+01  1.25908E+01
   1.38236E+01  1.18573E+01  1.25006E+01  1.38655E+01  1.32308E+01  1.33111E+01  1.41605E+01  1.34525E+01  1.41092E+01  1.39826E+01
   1.39930E+01  1.57308E+01  1.53436E+01  1.15676E+01  1.54752E+01  2.03529E+01  1.58862E+01  1.90233E+01  1.78975E+01  1.51428E+01
   1.52284E+01  2.20991E+01  1.81912E+01  1.96170E+01  1.90441E+01  1.76773E+01  1.88053E+01  2.34473E+01  2.00100E+01  2.27737E+01
   1.82500E+01  2.21876E+01  2.43364E+01  2.09305E+01  2.48662E+01  2.63098E+01  2.49197E+01  2.62500E+01  2.04698E+01  2.53210E+01
   2.50885E+01  2.95045E+01  2.96012E+01  2.81281E+01  2.93052E+01  2.87969E+01  2.72664E+01  2.65311E+01  3.03010E+01  2.96676E+01
   2.45206E+01  2.48144E+01  2.40185E+01  1.96077E+01  2.29883E+01  1.81084E+01  1.99764E+01  1.88378E+01  1.72629E+01  2.20893E+01
   2.08520E+01  2.07311E+01  1.98769E+01  2.05699E+01  1.97969E+01  2.39286E+01  1.64560E+01  1.82551E+01  1.46045E+01  2.22461E+01
   1.47800E+01  1.79919E+01  1.74315E+01  1.76902E+01  1.83980E+01  1.77230E+01  1.27441E+01  1.64647E+01  1.07464E+01  1.67227E+01
   1.77019E+01  1.52214E+01  2.01709E+01  1.77979E+01  1.98931E+01  1.58805E+01  1.85708E+01  2.23442E+01  1.53833E+01  1.33160E+01
   1.76231E+01  1.86209E+01  2.00246E+01  1.60139E+01  1.80601E+01  1.81760E+01  1.89055E+01  1.79974E+01  1.50925E+01  1.30302E+01
   1.80535E+01  2.08040E+01  1.90933E+01  1.65615E+01  1.41428E+01  1.36529E+01  1.23041E+01  1.30748E+01  1.72832E+01  1.55346E+01
   1.43846E+01  1.13521E+01  1.01920E+01  1.18710E+01  1.24661E+01  1.11975E+01  8.02259E+00  1.44166E+01  8.14754E+00  9.54946E+00
   7.69362E+00  1.26280E+01  1.02396E+01  1.11274E+01  1.07757E+01  1.22654E+01  9.72703E+00  1.22500E+01  8.00191E+00  7.26507E+00
   7.23050E+00  1.44592E+01  9.90237E+00  1.16334E+01  1.23148E+01  1.41634E+01  1.07826E+01  1.39754E+01  9.10998E+00  5.95824E+00
   1.09285E+01  1.19493E+01  1.01149E+01  8.55282E+00  3.59828E+00  9.58821E+00  7.22492E+00  7.29413E+00  1.06633E+01  1.05602E+01
   4.50180E+00  7.87424E+00  6.90180E+00  8.79592E+00  1.12407E+01  9.84260E+00  8.31228E+00  1.11867E+01  9.70235E+00  1.04939E+01
   7.79660E+00  6.79949E+00  6.91993E+00  7.99940E+00  6.27780E+00  1.05501E+01  9.03163E+00  7.61751E+00  1.26144E+01  9.15905E+00
   7.83288E+00  9.84175E+00  7.39660E+00  4.33763E-02  3.80358E+00  6.23292E+00  8.58777E+00  6.28035E+00  1.03153E+01  6.69999E+00
   8.95678E+00  5.39893E+00  3.27282E+00  2.96385E+00  3.53256E+00  1.12615E+01  5.62208E+00  7.08146E+00
 NY points of the fit to the data follow
   5.47574E+01  5.47921E+01  5.51681E+01  5.61953E+01  5.86063E+01  6.29450E+01  6.98484E+01  7.87136E+01  8.77956E+01  9.49699E+01
   9.82627E+01  9.68849E+01  9.17116E+01  8.45009E+01  7.70241E+01  7.03243E+01  6.45740E+01  5.97122E+01  5.60750E+01  5.33649E+01
   5.17911E+01  5.08022E+01  4.98806E+01  4.89500E+01  4.82531E+01  4.80465E+01  4.87409E+01  5.05070E+01  5.28239E+01  5.50729E+01
   5.66894E+01  5.70990E+01  5.59952E+01  5.37210E+01  5.09716E+01  4.82353E+01  4.57093E+01  4.37884E+01  4.29858E+01  4.29594E+01
   4.32374E+01  4.36179E+01  4.39551E+01  4.43212E+01  4.46199E+01  4.47073E+01  4.44991E+01  4.40211E+01  4.33697E+01  4.25104E+01
   4.15064E+01  4.05461E+01  3.96462E+01  3.86861E+01  3.77659E+01  3.70609E+01  3.65348E+01  3.60543E+01  3.55998E+01  3.51548E+01
   3.46452E+01  3.40375E+01  3.33545E+01  3.26871E+01  3.21166E+01  3.16607E+01  3.13027E+01  3.10240E+01  3.08124E+01  3.06326E+01
   3.04472E+01  3.02173E+01  2.99318E+01  2.95942E+01  2.92201E+01  2.88411E+01  2.84812E+01  2.81436E+01  2.78185E+01  2.74991E+01
   2.72017E+01  2.69111E+01  2.66033E+01  2.62502E+01  2.58353E+01  2.53751E+01  2.49183E+01  2.45260E+01  2.42484E+01  2.41060E+01
   2.40876E+01  2.41535E+01  2.42610E+01  2.43987E+01  2.45924E+01  2.49322E+01  2.58833E+01  2.91403E+01  3.64011E+01  4.84502E+01
   6.45884E+01  8.04968E+01  9.09893E+01  9.35217E+01  8.79774E+01  7.64874E+01  6.31757E+01  5.15796E+01  4.24926E+01  3.47554E+01
   2.76950E+01  2.31360E+01  2.15777E+01  2.09641E+01  2.06190E+01  2.03933E+01  2.02356E+01  2.01362E+01  2.01310E+01  2.03139E+01
   2.09412E+01  2.31110E+01  2.87698E+01  3.87683E+01  5.33209E+01  6.95601E+01  8.22083E+01  8.78195E+01  8.56146E+01  7.67261E+01
   6.45384E+01  5.28380E+01  4.31947E+01  3.48424E+01  2.67962E+01  2.01608E+01  1.71997E+01  1.63300E+01  1.63645E+01  1.68070E+01
   1.72653E+01  1.75500E+01  1.76383E+01  1.74821E+01  1.71329E+01  1.67116E+01  1.62629E+01  1.57973E+01  1.53263E+01  1.48396E+01
   1.43875E+01  1.39583E+01  1.36016E+01  1.33831E+01  1.33024E+01  1.32538E+01  1.31004E+01  1.27101E+01  1.20591E+01  1.13770E+01
   1.09155E+01  1.07996E+01  1.09584E+01  1.11091E+01  1.09797E+01  1.04922E+01  9.75571E+00  9.02538E+00  8.51008E+00  8.13061E+00
   7.71317E+00  7.13712E+00  6.41395E+00  5.72558E+00  5.26002E+00  5.09788E+00  5.18447E+00  5.34083E+00  5.39049E+00  5.30556E+00
   5.18129E+00  5.10214E+00  5.13768E+00  5.27423E+00  5.45432E+00  5.83915E+00  6.78301E+00  8.30931E+00  1.01633E+01  1.18311E+01
   1.28434E+01  1.31007E+01  1.27283E+01  1.19642E+01  1.10230E+01  1.00580E+01  9.36142E+00  9.17799E+00  9.54226E+00  1.04344E+01
   1.17639E+01  1.32109E+01  1.43304E+01  1.48449E+01  1.45020E+01  1.32703E+01  1.12240E+01  8.75487E+00  6.52974E+00  5.07933E+00
   4.80618E+00  6.01358E+00  8.67008E+00  1.21758E+01  1.54556E+01  1.74624E+01  1.75551E+01  1.56109E+01  1.19251E+01  7.56269E+00
   3.80721E+00  1.53606E+00  1.13758E+00  2.50516E+00  5.33699E+00  8.80114E+00  1.16937E+01  1.35321E+01  1.44198E+01  1.47249E+01
   1.46741E+01  1.44225E+01  1.43459E+01  1.47516E+01  1.54834E+01  1.61656E+01  1.64604E+01  1.61836E+01  1.53973E+01  1.42198E+01
   1.29546E+01  1.21524E+01  1.21985E+01  1.30249E+01  1.42604E+01  1.55858E+01  1.66989E+01  1.73485E+01  1.76523E+01  1.81725E+01
   1.96940E+01  2.24526E+01  2.65772E+01  3.15888E+01  3.76858E+01  4.60939E+01  5.76508E+01  7.29333E+01  8.86111E+01  9.92454E+01
   1.01757E+02  9.53903E+01  8.15747E+01  6.50723E+01  5.09860E+01  4.03165E+01  3.13772E+01  2.28344E+01  1.65956E+01  1.44319E+01
   1.35790E+01  1.31159E+01  1.28789E+01  1.27474E+01  1.25699E+01  1.23311E+01  1.20306E+01  1.16982E+01  1.13842E+01  1.11319E+01
   1.09305E+01  1.07638E+01  1.06467E+01  1.05794E+01  1.05203E+01  1.04437E+01  1.03658E+01  1.03147E+01  1.03094E+01  1.03490E+01
   1.04350E+01  1.05689E+01  1.07319E+01  1.08999E+01  1.10623E+01  1.12182E+01  1.13749E+01  1.15404E+01  1.17155E+01  1.19024E+01
   1.21059E+01  1.23170E+01  1.25227E+01  1.27129E+01  1.28834E+01  1.30326E+01  1.31583E+01  1.32575E+01  1.33354E+01  1.33958E+01
   1.34422E+01  1.34793E+01  1.35131E+01  1.35496E+01  1.35947E+01  1.36540E+01  1.37333E+01  1.38379E+01  1.39728E+01  1.41428E+01
   1.43535E+01  1.46124E+01  1.49172E+01  1.52568E+01  1.56098E+01  1.59439E+01  1.62433E+01  1.65159E+01  1.67782E+01  1.70585E+01
   1.73899E+01  1.77887E+01  1.82567E+01  1.87743E+01  1.93111E+01  1.98461E+01  2.03449E+01  2.07794E+01  2.11590E+01  2.15090E+01
   2.18508E+01  2.21932E+01  2.25363E+01  2.28950E+01  2.32877E+01  2.37085E+01  2.41572E+01  2.46420E+01  2.51687E+01  2.57391E+01
   2.63440E+01  2.69574E+01  2.75357E+01  2.80207E+01  2.83562E+01  2.85025E+01  2.84328E+01  2.81418E+01  2.76573E+01  2.70249E+01
   2.62933E+01  2.55065E+01  2.47018E+01  2.39148E+01  2.31668E+01  2.24638E+01  2.18054E+01  2.11874E+01  2.06045E+01  2.00515E+01
   1.95248E+01  1.90225E+01  1.85446E+01  1.80927E+01  1.76695E+01  1.72779E+01  1.69207E+01  1.66007E+01  1.63205E+01  1.60826E+01
   1.58887E+01  1.57404E+01  1.56384E+01  1.55831E+01  1.55745E+01  1.56122E+01  1.56950E+01  1.58206E+01  1.59863E+01  1.61882E+01
   1.64220E+01  1.66821E+01  1.69623E+01  1.72549E+01  1.75521E+01  1.78453E+01  1.81259E+01  1.83850E+01  1.86141E+01  1.88050E+01
   1.89508E+01  1.90454E+01  1.90847E+01  1.90657E+01  1.89870E+01  1.88492E+01  1.86542E+01  1.84060E+01  1.81095E+01  1.77707E+01
   1.73962E+01  1.69932E+01  1.65692E+01  1.61315E+01  1.56871E+01  1.52423E+01  1.48026E+01  1.43730E+01  1.39577E+01  1.35597E+01
   1.31816E+01  1.28247E+01  1.24899E+01  1.21776E+01  1.18878E+01  1.16198E+01  1.13728E+01  1.11455E+01  1.09367E+01  1.07453E+01
   1.05698E+01  1.04090E+01  1.02615E+01  1.01259E+01  1.00012E+01  9.88634E+00  9.78040E+00  9.68239E+00  9.59139E+00  9.50667E+00
   9.42766E+00  9.35383E+00  9.28464E+00  9.21952E+00  9.15798E+00  9.09969E+00  9.04441E+00  8.99188E+00  8.94177E+00  8.89374E+00
   8.84756E+00  8.80313E+00  8.76034E+00  8.71905E+00  8.67904E+00  8.64012E+00  8.60222E+00  8.56534E+00  8.52944E+00  8.49439E+00
   8.46004E+00  8.42629E+00  8.39316E+00  8.36069E+00  8.32883E+00  8.29747E+00  8.26649E+00  8.23587E+00  8.20568E+00  8.17593E+00
   8.14659E+00  8.11752E+00  8.08869E+00  8.06012E+00  8.03189E+00  8.00399E+00  7.97636E+00  7.94889E+00  7.92159E+00  7.89451E+00
   7.86772E+00  7.84120E+00  7.81484E+00  7.78859E+00  7.76251E+00  7.73667E+00  7.71110E+00  7.68574E+00  7.66051E+00  7.63540E+00
   7.61048E+00  7.58583E+00  7.56145E+00  7.53725E+00  7.51319E+00  7.48930E+00  7.46567E+00  7.44237E+00
 NY background values follow
     5.225E+01    5.190E+01    5.155E+01    5.120E+01    5.085E+01    5.050E+01    5.015E+01    4.980E+01    4.945E+01    4.909E+01
     4.874E+01    4.839E+01    4.804E+01    4.769E+01    4.734E+01    4.699E+01    4.664E+01    4.629E+01    4.594E+01    4.559E+01
     4.524E+01    4.490E+01    4.455E+01    4.420E+01    4.385E+01    4.351E+01    4.316E+01    4.282E+01    4.247E+01    4.213E+01
     4.179E+01    4.145E+01    4.110E+01    4.076E+01    4.042E+01    4.008E+01    3.975E+01    3.941E+01    3.907E+01    3.874E+01
     3.840E+01    3.807E+01    3.774E+01    3.741E+01    3.708E+01    3.675E+01    3.642E+01    3.610E+01    3.577E+01    3.545E+01
     3.513E+01    3.481E+01    3.449E+01    3.417E+01    3.386E+01    3.354E+01    3.323E+01    3.292E+01    3.260E+01    3.230E+01
     3.199E+01    3.168E+01    3.138E+01    3.108E+01    3.077E+01    3.047E+01    3.018E+01    2.988E+01    2.959E+01    2.929E+01
     2.900E+01    2.871E+01    2.843E+01    2.814E+01    2.786E+01    2.758E+01    2.730E+01    2.702E+01    2.674E+01    2.647E+01
     2.619E+01    2.592E+01    2.566E+01    2.539E+01    2.513E+01    2.486E+01    2.460E+01    2.435E+01    2.409E+01    2.384E+01
     2.358E+01    2.333E+01    2.309E+01    2.284E+01    2.260E+01    2.236E+01    2.212E+01    2.188E+01    2.165E+01    2.142E+01
     2.119E+01    2.096E+01    2.074E+01    2.051E+01    2.029E+01    2.007E+01    1.985E+01    1.964E+01    1.943E+01    1.921E+01
     1.901E+01    1.880E+01    1.859E+01    1.839E+01    1.819E+01    1.799E+01    1.779E+01    1.760E+01    1.741E+01    1.722E+01
     1.703E+01    1.684E+01    1.665E+01    1.647E+01    1.629E+01    1.611E+01    1.593E+01    1.576E+01    1.558E+01    1.541E+01
     1.524E+01    1.507E+01    1.491E+01    1.474E+01    1.458E+01    1.442E+01    1.426E+01    1.410E+01    1.395E+01    1.379E+01
     1.364E+01    1.349E+01    1.334E+01    1.320E+01    1.305E+01    1.291E+01    1.277E+01    1.263E+01    1.249E+01    1.236E+01
     1.222E+01    1.209E+01    1.196E+01    1.183E+01    1.171E+01    1.158E+01    1.146E+01    1.134E+01    1.122E+01    1.110E+01
     1.099E+01    1.088E+01    1.076E+01    1.066E+01    1.055E+01    1.044E+01    1.034E+01    1.024E+01    1.013E+01    1.004E+01
     9.940E+00    9.845E+00    9.752E+00    9.661E+00    9.572E+00    9.484E+00    9.399E+00    9.315E+00    9.234E+00    9.154E+00
     9.076E+00    9.000E+00    8.925E+00    8.853E+00    8.782E+00    8.714E+00    8.647E+00    8.581E+00    8.517E+00    8.455E+00
     8.395E+00    8.336E+00    8.279E+00    8.223E+00    8.168E+00    8.116E+00    8.064E+00    8.014E+00    7.965E+00    7.918E+00
     7.872E+00    7.827E+00    7.783E+00    7.741E+00    7.699E+00    7.659E+00    7.620E+00    7.582E+00    7.545E+00    7.509E+00
     7.474E+00    7.440E+00    7.407E+00    7.375E+00    7.343E+00    7.312E+00    7.283E+00    7.253E+00    7.225E+00    7.197E+00
     7.170E+00    7.144E+00    7.118E+00    7.092E+00    7.068E+00    7.043E+00    7.019E+00    6.996E+00    6.973E+00    6.950E+00
     6.928E+00    6.906E+00    6.885E+00    6.864E+00    6.844E+00    6.824E+00    6.804E+00    6.785E+00    6.767E+00    6.749E+00
     6.731E+00    6.714E+00    6.697E+00    6.681E+00    6.665E+00    6.649E+00    6.634E+00    6.620E+00    6.606E+00    6.593E+00
     6.580E+00    6.567E+00    6.555E+00    6.544E+00    6.533E+00    6.522E+00    6.512E+00    6.502E+00    6.493E+00    6.485E+00
     6.477E+00    6.469E+00    6.462E+00    6.456E+00    6.450E+00    6.444E+00    6.439E+00    6.435E+00    6.431E+00    6.427E+00
     6.425E+00    6.422E+00    6.420E+00    6.419E+00    6.418E+00    6.418E+00    6.418E+00    6.419E+00    6.420E+00    6.422E+00
     6.424E+00    6.427E+00    6.430E+00    6.434E+00    6.438E+00    6.442E+00    6.447E+00    6.452E+00    6.458E+00    6.464E+00
     6.470E+00    6.477E+00    6.484E+00    6.491E+00    6.499E+00    6.507E+00    6.516E+00    6.524E+00    6.534E+00    6.543E+00
     6.553E+00    6.563E+00    6.573E+00    6.584E+00    6.594E+00    6.605E+00    6.617E+00    6.628E+00    6.640E+00    6.652E+00
     6.664E+00    6.677E+00    6.689E+00    6.702E+00    6.715E+00    6.728E+00    6.741E+00    6.755E+00    6.768E+00    6.782E+00
     6.796E+00    6.810E+00    6.824E+00    6.838E+00    6.852E+00    6.867E+00    6.881E+00    6.896E+00    6.910E+00    6.925E+00
     6.940E+00    6.954E+00    6.969E+00    6.984E+00    6.999E+00    7.014E+00    7.029E+00    7.044E+00    7.059E+00    7.074E+00
     7.088E+00    7.103E+00    7.118E+00    7.133E+00    7.148E+00    7.163E+00    7.177E+00    7.192E+00    7.207E+00    7.221E+00
     7.235E+00    7.250E+00    7.264E+00    7.278E+00    7.292E+00    7.306E+00    7.320E+00    7.333E+00    7.347E+00    7.360E+00
     7.373E+00    7.386E+00    7.399E+00    7.412E+00    7.424E+00    7.437E+00    7.449E+00    7.461E+00    7.473E+00    7.484E+00
     7.496E+00    7.507E+00    7.518E+00    7.529E+00    7.540E+00    7.550E+00    7.560E+00    7.571E+00    7.580E+00    7.590E+00
     7.600E+00    7.609E+00    7.618E+00    7.627E+00    7.636E+00    7.645E+00    7.653E+00    7.661E+00    7.669E+00    7.677E+00
     7.685E+00    7.692E+00    7.699E+00    7.706E+00    7.713E+00    7.719E+00    7.726E+00    7.732E+00    7.738E+00    7.743E+00
     7.749E+00    7.754E+00    7.759E+00    7.764E+00    7.768E+00    7.773E+00    7.777E+00    7.781E+00    7.784E+00    7.788E+00
     7.791E+00    7.794E+00    7.797E+00    7.799E+00    7.801E+00    7.803E+00    7.805E+00    7.806E+00    7.808E+00    7.809E+00
     7.809E+00    7.810E+00    7.810E+00    7.810E+00    7.809E+00    7.808E+00    7.807E+00    7.806E+00    7.805E+00    7.803E+00
     7.801E+00    7.798E+00    7.795E+00    7.792E+00    7.789E+00    7.785E+00    7.781E+00    7.777E+00    7.772E+00    7.767E+00
     7.762E+00    7.756E+00    7.750E+00    7.744E+00    7.737E+00    7.730E+00    7.723E+00    7.715E+00    7.707E+00    7.699E+00
     7.690E+00    7.681E+00    7.671E+00    7.661E+00    7.651E+00    7.641E+00    7.630E+00    7.618E+00    7.607E+00    7.595E+00
     7.583E+00    7.570E+00    7.557E+00    7.544E+00    7.531E+00    7.517E+00    7.503E+00    7.489E+00    7.475E+00    7.460E+00
     7.446E+00    7.431E+00    7.415E+00    7.400E+00    7.384E+00    7.369E+00    7.353E+00    7.337E+00    7.321E+00    7.304E+00
     7.288E+00    7.271E+00    7.255E+00    7.238E+00    7.221E+00    7.204E+00    7.187E+00    7.170E+00    7.153E+00    7.135E+00
     7.118E+00    7.101E+00    7.084E+00    7.066E+00    7.049E+00    7.032E+00    7.015E+00    6.997E+00
 Ala      Conc. = 2.57E+01
