 LCModel (Version 6.3-1L) Copyright: S.W. Provencher.          Ref.: Magn. Reson. Med. 30:672-679 (1993).                
 Slice#1 Row#13 Col#5  PD_24_press_1_raw_act
 36 lines in following concentration table = NCONC+1
    Conc.  %SD /Cr+PCr  Metabolite                                         
  201.955  59%   1.587 Ala                                                 
   35.954 138%   0.283 Asp                                                 
  127.235  30%   1.000 Cr                                                  
    0.000 999%   0.000 PCr                                                 
   24.602 123%   0.193 GABA                                                
    8.374 360% 6.6E-02 Glc                                                 
 1.24E+03  29%   9.781 Gln                                                 
 1.82E+03  23%  14.280 Glu                                                 
   83.225  18%   0.654 GPC                                                 
    0.000 999%   0.000 PCh                                                 
  113.325  56%   0.891 GSH                                                 
  793.146  30%   6.234 Ins                                                 
    0.000 999%   0.000 Lac                                                 
  479.497  10%   3.769 NAA                                                 
    0.000 999%   0.000 NAAG                                                
   14.243  67%   0.112 Scyllo                                              
   39.307 127%   0.309 Tau                                                 
   63.827  65%   0.502 -CrCH2                                              
   83.225  18%   0.654 GPC+PCh                                             
  479.497  10%   3.769 NAA+NAAG                                            
  127.235  30%   1.000 Cr+PCr                                              
 3.06E+03  24%  24.062 Glu+Gln                                             
  573.999  50%   4.511 Lip13a                                              
    0.000 999%   0.000 Lip13b                                              
   90.177 173%   0.709 Lip09                                               
  556.784  28%   4.376 MM09                                                
   96.127 110%   0.756 Lip20                                               
  837.338  30%   6.581 MM20                                                
  201.578  47%   1.584 MM12                                                
  555.748  35%   4.368 MM14                                                
  210.326  73%   1.653 MM17                                                
  573.999  50%   4.511 Lip13a+Lip13b                                       
 1.33E+03  25%  10.464 MM14+Lip13a+Lip13b+MM12                             
  646.961  20%   5.085 MM09+Lip09                                          
  933.465  27%   7.337 MM20+Lip20                                          
   6 lines in following misc. output table
  FWHM = 0.076 ppm    S/N =   3                                            
  Data shift =-0.046 ppm                                                   
  Ph:-104 deg     -21.0 deg/ppm                                            
  alphaB,S = 3.8E-01,   5.1E+01                                            
   14 spline knots.   Ns = 9(1)                                            
  (15) 7 infls.   (13) 1 extrs.                                            
  498 points on ppm-axis = NY
      4.000000     3.992357     3.984714     3.977070     3.969427     3.961784     3.954141     3.946497     3.938854     3.931211
      3.923568     3.915925     3.908281     3.900638     3.892995     3.885352     3.877708     3.870065     3.862422     3.854779
      3.847136     3.839492     3.831849     3.824206     3.816563     3.808919     3.801276     3.793633     3.785990     3.778347
      3.770703     3.763060     3.755417     3.747774     3.740130     3.732487     3.724844     3.717201     3.709558     3.701914
      3.694271     3.686628     3.678985     3.671341     3.663698     3.656055     3.648412     3.640769     3.633125     3.625482
      3.617839     3.610196     3.602552     3.594909     3.587266     3.579623     3.571980     3.564336     3.556693     3.549050
      3.541407     3.533763     3.526120     3.518477     3.510834     3.503191     3.495547     3.487904     3.480261     3.472618
      3.464974     3.457331     3.449688     3.442045     3.434402     3.426758     3.419115     3.411472     3.403829     3.396185
      3.388542     3.380899     3.373256     3.365613     3.357969     3.350326     3.342683     3.335040     3.327396     3.319753
      3.312110     3.304467     3.296824     3.289180     3.281537     3.273894     3.266251     3.258607     3.250964     3.243321
      3.235678     3.228034     3.220391     3.212748     3.205105     3.197462     3.189818     3.182175     3.174532     3.166889
      3.159245     3.151602     3.143959     3.136316     3.128673     3.121029     3.113386     3.105743     3.098100     3.090456
      3.082813     3.075170     3.067527     3.059884     3.052240     3.044597     3.036954     3.029311     3.021667     3.014024
      3.006381     2.998738     2.991095     2.983451     2.975808     2.968165     2.960522     2.952878     2.945235     2.937592
      2.929949     2.922306     2.914662     2.907019     2.899376     2.891733     2.884089     2.876446     2.868803     2.861160
      2.853517     2.845873     2.838230     2.830587     2.822944     2.815300     2.807657     2.800014     2.792371     2.784728
      2.777084     2.769441     2.761798     2.754155     2.746511     2.738868     2.731225     2.723582     2.715939     2.708295
      2.700652     2.693009     2.685366     2.677722     2.670079     2.662436     2.654793     2.647150     2.639506     2.631863
      2.624220     2.616577     2.608933     2.601290     2.593647     2.586004     2.578361     2.570717     2.563074     2.555431
      2.547788     2.540144     2.532501     2.524858     2.517215     2.509572     2.501928     2.494285     2.486642     2.478999
      2.471355     2.463712     2.456069     2.448426     2.440783     2.433139     2.425496     2.417853     2.410210     2.402566
      2.394923     2.387280     2.379637     2.371994     2.364350     2.356707     2.349064     2.341421     2.333777     2.326134
      2.318491     2.310848     2.303205     2.295561     2.287918     2.280275     2.272632     2.264988     2.257345     2.249702
      2.242059     2.234416     2.226772     2.219129     2.211486     2.203843     2.196199     2.188556     2.180913     2.173270
      2.165627     2.157983     2.150340     2.142697     2.135054     2.127410     2.119767     2.112124     2.104481     2.096838
      2.089194     2.081551     2.073908     2.066265     2.058621     2.050978     2.043335     2.035692     2.028049     2.020405
      2.012762     2.005119     1.997476     1.989833     1.982190     1.974546     1.966903     1.959260     1.951617     1.943974
      1.936331     1.928688     1.921045     1.913402     1.905759     1.898115     1.890472     1.882829     1.875186     1.867543
      1.859900     1.852257     1.844614     1.836971     1.829327     1.821684     1.814041     1.806398     1.798755     1.791112
      1.783469     1.775826     1.768183     1.760540     1.752896     1.745253     1.737610     1.729967     1.722324     1.714681
      1.707038     1.699395     1.691752     1.684108     1.676465     1.668822     1.661179     1.653536     1.645893     1.638250
      1.630607     1.622964     1.615321     1.607677     1.600034     1.592391     1.584748     1.577105     1.569462     1.561819
      1.554176     1.546533     1.538890     1.531246     1.523603     1.515960     1.508317     1.500674     1.493031     1.485388
      1.477745     1.470102     1.462458     1.454815     1.447172     1.439529     1.431886     1.424243     1.416600     1.408957
      1.401314     1.393671     1.386027     1.378384     1.370741     1.363098     1.355455     1.347812     1.340169     1.332526
      1.324883     1.317240     1.309596     1.301953     1.294310     1.286667     1.279024     1.271381     1.263738     1.256095
      1.248452     1.240808     1.233165     1.225522     1.217879     1.210236     1.202593     1.194950     1.187307     1.179664
      1.172021     1.164377     1.156734     1.149091     1.141448     1.133805     1.126162     1.118519     1.110876     1.103233
      1.095590     1.087946     1.080303     1.072660     1.065017     1.057374     1.049731     1.042088     1.034445     1.026802
      1.019158     1.011515     1.003872     0.996229     0.988586     0.980943     0.973300     0.965657     0.958014     0.950371
      0.942727     0.935084     0.927441     0.919798     0.912155     0.904512     0.896869     0.889226     0.881583     0.873940
      0.866296     0.858653     0.851010     0.843367     0.835724     0.828081     0.820438     0.812795     0.805152     0.797508
      0.789865     0.782222     0.774579     0.766936     0.759293     0.751650     0.744007     0.736364     0.728721     0.721077
      0.713434     0.705791     0.698148     0.690505     0.682862     0.675219     0.667576     0.659933     0.652290     0.644646
      0.637003     0.629360     0.621717     0.614074     0.606431     0.598788     0.591145     0.583502     0.575858     0.568215
      0.560572     0.552929     0.545286     0.537643     0.530000     0.522357     0.514714     0.507071     0.499427     0.491784
      0.484141     0.476498     0.468855     0.461212     0.453569     0.445925     0.438282     0.430639     0.422996     0.415353
      0.407710     0.400067     0.392424     0.384780     0.377137     0.369494     0.361851     0.354208     0.346565     0.338922
      0.331278     0.323635     0.315992     0.308349     0.300706     0.293063     0.285420     0.277777     0.270133     0.262490
      0.254847     0.247204     0.239561     0.231918     0.224275     0.216631     0.208988     0.201345
 NY phased data points follow
  -1.46292E+02 -1.43286E+02 -1.40357E+02 -1.37221E+02 -1.38124E+02 -1.30304E+02 -1.32374E+02 -1.29880E+02 -1.27438E+02 -1.26070E+02
  -1.23496E+02 -1.23043E+02 -1.24999E+02 -1.16845E+02 -1.18505E+02 -1.14865E+02 -1.15526E+02 -1.15056E+02 -1.13279E+02 -1.09941E+02
  -1.11349E+02 -1.07716E+02 -1.08866E+02 -1.08379E+02 -1.07065E+02 -1.05296E+02 -1.07698E+02 -1.08694E+02 -1.04593E+02 -1.03773E+02
  -1.00524E+02 -1.01191E+02 -9.80849E+01 -9.83401E+01 -9.99799E+01 -9.62405E+01 -9.52738E+01 -9.43228E+01 -9.56115E+01 -9.11096E+01
  -9.28113E+01 -9.23852E+01 -9.04959E+01 -8.63845E+01 -8.86797E+01 -8.70956E+01 -8.22661E+01 -8.41448E+01 -8.25332E+01 -8.48278E+01
  -8.37932E+01 -8.12176E+01 -8.21607E+01 -8.40558E+01 -8.13872E+01 -8.23522E+01 -8.26181E+01 -7.84948E+01 -7.99455E+01 -7.66543E+01
  -8.01993E+01 -7.53927E+01 -7.53114E+01 -7.54513E+01 -7.76775E+01 -7.56289E+01 -7.51455E+01 -7.58861E+01 -7.37723E+01 -7.09204E+01
  -6.94237E+01 -7.19488E+01 -6.96095E+01 -7.12864E+01 -7.15526E+01 -7.12299E+01 -7.15436E+01 -6.92029E+01 -6.91666E+01 -7.06637E+01
  -6.67465E+01 -7.02423E+01 -6.40731E+01 -6.57241E+01 -6.63229E+01 -6.37406E+01 -6.22755E+01 -6.59373E+01 -6.43364E+01 -6.09508E+01
  -6.33909E+01 -6.00439E+01 -6.06384E+01 -6.14103E+01 -5.80521E+01 -5.79988E+01 -5.60880E+01 -5.82518E+01 -5.96790E+01 -6.05268E+01
  -5.58693E+01 -5.60789E+01 -5.25232E+01 -4.99109E+01 -5.06774E+01 -5.08881E+01 -5.10329E+01 -5.38783E+01 -5.12373E+01 -5.66173E+01
  -5.45318E+01 -5.48217E+01 -5.05150E+01 -5.04715E+01 -5.05418E+01 -4.92983E+01 -5.14878E+01 -4.92678E+01 -5.29508E+01 -5.14058E+01
  -5.08044E+01 -5.11676E+01 -5.13856E+01 -5.13620E+01 -4.89536E+01 -4.82919E+01 -4.69203E+01 -4.41551E+01 -4.58943E+01 -4.61945E+01
  -4.27917E+01 -4.54638E+01 -4.66896E+01 -4.62158E+01 -4.56014E+01 -4.84545E+01 -4.16777E+01 -4.44780E+01 -4.61919E+01 -4.35872E+01
  -4.33569E+01 -4.40109E+01 -4.51770E+01 -4.55961E+01 -4.59450E+01 -4.33734E+01 -4.34916E+01 -4.12898E+01 -4.74535E+01 -4.67972E+01
  -4.37509E+01 -4.51664E+01 -4.04493E+01 -4.26027E+01 -4.05651E+01 -4.28350E+01 -4.36074E+01 -4.17119E+01 -3.99021E+01 -4.29319E+01
  -4.06215E+01 -3.66195E+01 -4.25166E+01 -3.92865E+01 -4.07423E+01 -4.07480E+01 -4.17535E+01 -4.28435E+01 -4.00829E+01 -4.16183E+01
  -3.68255E+01 -4.20505E+01 -3.80806E+01 -3.96236E+01 -4.27563E+01 -4.06133E+01 -4.09228E+01 -3.95478E+01 -4.07007E+01 -3.40112E+01
  -3.51880E+01 -3.53301E+01 -3.76484E+01 -3.62780E+01 -3.62863E+01 -3.63956E+01 -3.71016E+01 -3.57471E+01 -3.70453E+01 -3.84023E+01
  -3.45463E+01 -3.84047E+01 -3.62016E+01 -3.61403E+01 -3.77778E+01 -3.60359E+01 -3.61779E+01 -3.68244E+01 -3.49216E+01 -3.35292E+01
  -3.46656E+01 -3.38538E+01 -3.35065E+01 -3.03777E+01 -3.33494E+01 -3.18339E+01 -2.95356E+01 -2.90142E+01 -2.90773E+01 -2.87638E+01
  -3.22561E+01 -3.22931E+01 -2.88923E+01 -2.68014E+01 -2.66483E+01 -2.90335E+01 -2.67387E+01 -2.70240E+01 -2.72415E+01 -2.87187E+01
  -3.13063E+01 -2.88614E+01 -2.88514E+01 -2.98603E+01 -2.96014E+01 -3.17959E+01 -2.56132E+01 -2.74971E+01 -2.64441E+01 -2.62649E+01
  -2.54793E+01 -2.62646E+01 -2.64637E+01 -2.49967E+01 -2.48484E+01 -2.22627E+01 -2.10302E+01 -2.31158E+01 -2.55747E+01 -2.25057E+01
  -2.41184E+01 -2.46706E+01 -2.21739E+01 -2.38023E+01 -2.64561E+01 -2.55160E+01 -2.51335E+01 -2.52758E+01 -2.31802E+01 -2.11876E+01
  -2.25875E+01 -2.27591E+01 -2.01700E+01 -1.96920E+01 -1.86111E+01 -1.61271E+01 -1.29111E+01 -1.51324E+01 -1.09270E+01 -1.06480E+01
  -1.01084E+01 -6.68504E+00 -8.99214E+00 -1.60678E+01 -1.21686E+01 -1.29142E+01 -1.53264E+01 -2.08180E+01 -2.39990E+01 -2.14524E+01
  -1.87022E+01 -1.81042E+01 -1.87977E+01 -2.02213E+01 -2.22482E+01 -2.18499E+01 -2.07127E+01 -2.18203E+01 -2.24926E+01 -2.39013E+01
  -2.14890E+01 -2.25934E+01 -2.31678E+01 -2.15286E+01 -1.96717E+01 -2.21610E+01 -1.90396E+01 -1.99214E+01 -2.04501E+01 -1.89321E+01
  -2.31733E+01 -2.12001E+01 -2.16604E+01 -1.99695E+01 -2.01783E+01 -2.29312E+01 -2.18439E+01 -1.83864E+01 -2.03013E+01 -1.91151E+01
  -1.93006E+01 -2.03356E+01 -1.81449E+01 -1.36881E+01 -1.87021E+01 -1.60214E+01 -1.92988E+01 -1.85840E+01 -1.68301E+01 -1.71657E+01
  -1.87211E+01 -1.42461E+01 -1.66304E+01 -1.72095E+01 -1.67792E+01 -1.38874E+01 -1.67106E+01 -1.79040E+01 -1.69352E+01 -1.49589E+01
  -1.46977E+01 -1.34632E+01 -1.37180E+01 -1.06340E+01 -1.66674E+01 -1.20287E+01 -1.49187E+01 -1.41937E+01 -1.48138E+01 -1.77886E+01
  -1.34723E+01 -1.50172E+01 -1.33647E+01 -1.24493E+01 -1.10416E+01 -1.56071E+01 -1.43255E+01 -1.29111E+01 -1.10751E+01 -1.42029E+01
  -1.16303E+01 -1.22454E+01 -1.22683E+01 -1.16457E+01 -7.51495E+00 -1.08843E+01 -1.31897E+01 -1.02542E+01 -6.67272E+00 -1.50177E+01
  -1.03547E+01 -8.92028E+00 -1.26222E+01 -1.22024E+01 -1.18936E+01 -1.18106E+01 -1.42096E+01 -1.03033E+01 -1.17318E+01 -1.06266E+01
  -1.10241E+01 -1.34434E+01 -1.10642E+01 -1.25753E+01 -9.12867E+00 -1.18848E+01 -8.81824E+00 -1.07862E+01 -7.31824E+00 -1.16768E+01
  -1.25582E+01 -9.36494E+00 -9.77910E+00 -1.05752E+01 -9.81740E+00 -1.20179E+01 -1.08534E+01 -9.37692E+00 -1.19750E+01 -1.15645E+01
  -1.14445E+01 -1.02096E+01 -1.11442E+01 -1.05077E+01 -8.77638E+00 -1.19373E+01 -1.25277E+01 -1.04080E+01 -1.19673E+01 -1.12643E+01
  -1.02336E+01 -1.09955E+01 -9.92318E+00 -1.11977E+01 -9.97487E+00 -1.09596E+01 -8.04107E+00 -7.54061E+00 -8.86728E+00 -1.14613E+01
  -8.34999E+00 -7.25660E+00 -4.60734E+00 -8.21264E+00 -7.12678E+00 -6.37280E+00 -4.46154E+00 -5.76649E+00 -8.91211E+00 -5.79222E+00
  -4.91117E+00 -1.00265E+01 -6.43919E+00 -8.37783E+00 -8.70488E+00 -9.68687E+00 -9.42070E+00 -8.93393E+00 -7.33179E+00 -9.10781E+00
  -1.02097E+01 -9.45064E+00 -1.01282E+01 -1.16451E+01 -1.11032E+01 -1.41954E+01 -1.00996E+01 -1.43035E+01 -1.00074E+01 -1.02019E+01
  -1.02512E+01 -1.04690E+01 -1.01034E+01 -1.17402E+01 -9.44079E+00 -1.06290E+01 -1.07328E+01 -1.10498E+01 -1.13982E+01 -8.81265E+00
  -7.49440E+00 -1.12718E+01 -1.19418E+01 -1.27157E+01 -8.05186E+00 -5.41913E+00 -1.00735E+01 -9.60843E+00 -6.93875E+00 -8.37363E+00
  -7.97548E+00 -8.92985E+00 -6.38753E+00 -8.99875E+00 -7.65208E+00 -8.31757E+00 -7.79552E+00 -9.49608E+00 -6.51953E+00 -1.07862E+01
  -4.87284E+00 -9.74732E+00 -7.76915E+00 -9.11691E+00 -8.47260E+00 -6.07405E+00 -8.54818E+00 -6.63501E+00 -7.72049E+00 -8.56168E+00
  -7.34745E+00 -5.88834E+00 -1.04132E+01 -7.51678E+00 -5.15841E+00 -7.44278E+00 -6.85928E+00 -7.78029E+00 -8.59821E+00 -8.18646E+00
  -6.74623E+00 -6.15843E+00 -4.01033E+00 -5.83939E+00 -9.59533E+00 -7.77244E+00 -1.05512E+01 -5.45627E+00 -5.33674E+00 -7.39590E+00
  -2.46424E+00 -6.29300E+00 -7.88226E+00 -1.96935E+00 -5.63504E+00 -5.84697E+00 -2.21072E+00 -3.48116E+00
 NY points of the fit to the data follow
  -1.36112E+02 -1.35341E+02 -1.34531E+02 -1.33484E+02 -1.32319E+02 -1.31253E+02 -1.30164E+02 -1.28933E+02 -1.27603E+02 -1.26243E+02
  -1.24858E+02 -1.23444E+02 -1.22053E+02 -1.20779E+02 -1.19617E+02 -1.18458E+02 -1.17211E+02 -1.16000E+02 -1.14998E+02 -1.14208E+02
  -1.13385E+02 -1.12348E+02 -1.11339E+02 -1.10243E+02 -1.08892E+02 -1.07565E+02 -1.06445E+02 -1.05490E+02 -1.04407E+02 -1.03069E+02
  -1.01534E+02 -9.98992E+01 -9.83953E+01 -9.72015E+01 -9.64658E+01 -9.62385E+01 -9.62003E+01 -9.58416E+01 -9.50410E+01 -9.41555E+01
  -9.32730E+01 -9.21552E+01 -9.09775E+01 -8.98136E+01 -8.84665E+01 -8.71372E+01 -8.59746E+01 -8.50913E+01 -8.44578E+01 -8.41273E+01
  -8.40076E+01 -8.37803E+01 -8.34685E+01 -8.31834E+01 -8.28001E+01 -8.21828E+01 -8.14793E+01 -8.08243E+01 -8.00806E+01 -7.92278E+01
  -7.84227E+01 -7.77615E+01 -7.71618E+01 -7.65606E+01 -7.59660E+01 -7.53915E+01 -7.47829E+01 -7.40860E+01 -7.33728E+01 -7.26969E+01
  -7.20258E+01 -7.13691E+01 -7.07272E+01 -7.01390E+01 -6.96068E+01 -6.90966E+01 -6.86143E+01 -6.81875E+01 -6.78143E+01 -6.74840E+01
  -6.71315E+01 -6.67810E+01 -6.64265E+01 -6.60669E+01 -6.57077E+01 -6.53566E+01 -6.49988E+01 -6.46019E+01 -6.41898E+01 -6.37343E+01
  -6.32058E+01 -6.26401E+01 -6.20715E+01 -6.14388E+01 -6.05059E+01 -5.94105E+01 -5.85428E+01 -5.78284E+01 -5.69869E+01 -5.59706E+01
  -5.49004E+01 -5.39217E+01 -5.30720E+01 -5.23375E+01 -5.18708E+01 -5.18321E+01 -5.20424E+01 -5.22005E+01 -5.23490E+01 -5.26228E+01
  -5.29193E+01 -5.30199E+01 -5.29616E+01 -5.30235E+01 -5.30177E+01 -5.27535E+01 -5.24112E+01 -5.20373E+01 -5.15779E+01 -5.09209E+01
  -5.02537E+01 -4.96890E+01 -4.91195E+01 -4.84448E+01 -4.76839E+01 -4.69230E+01 -4.62681E+01 -4.57255E+01 -4.52981E+01 -4.50812E+01
  -4.50759E+01 -4.51414E+01 -4.51999E+01 -4.53015E+01 -4.54881E+01 -4.56580E+01 -4.56901E+01 -4.56516E+01 -4.56448E+01 -4.54946E+01
  -4.52403E+01 -4.49623E+01 -4.46881E+01 -4.44475E+01 -4.42333E+01 -4.40156E+01 -4.38135E+01 -4.36316E+01 -4.34577E+01 -4.32944E+01
  -4.31367E+01 -4.29860E+01 -4.28571E+01 -4.27165E+01 -4.25518E+01 -4.23703E+01 -4.21792E+01 -4.20024E+01 -4.18473E+01 -4.16929E+01
  -4.15229E+01 -4.13424E+01 -4.11528E+01 -4.09536E+01 -4.07535E+01 -4.05684E+01 -4.04125E+01 -4.02849E+01 -4.01607E+01 -4.00123E+01
  -3.98588E+01 -3.97155E+01 -3.96013E+01 -3.94834E+01 -3.93358E+01 -3.91746E+01 -3.90011E+01 -3.88212E+01 -3.86362E+01 -3.84257E+01
  -3.81879E+01 -3.79321E+01 -3.76498E+01 -3.73428E+01 -3.70404E+01 -3.67759E+01 -3.65220E+01 -3.62618E+01 -3.60631E+01 -3.59111E+01
  -3.57795E+01 -3.56628E+01 -3.55451E+01 -3.53458E+01 -3.50676E+01 -3.47491E+01 -3.42995E+01 -3.36269E+01 -3.28806E+01 -3.21514E+01
  -3.14656E+01 -3.11571E+01 -3.11676E+01 -3.10899E+01 -3.10960E+01 -3.14492E+01 -3.20187E+01 -3.23638E+01 -3.25907E+01 -3.28355E+01
  -3.28011E+01 -3.21525E+01 -3.09481E+01 -2.97380E+01 -2.89276E+01 -2.82690E+01 -2.75713E+01 -2.73821E+01 -2.81565E+01 -2.93615E+01
  -3.01003E+01 -3.05958E+01 -3.12059E+01 -3.13582E+01 -3.06423E+01 -2.93916E+01 -2.83614E+01 -2.75156E+01 -2.65619E+01 -2.55486E+01
  -2.47925E+01 -2.44499E+01 -2.41891E+01 -2.38526E+01 -2.39320E+01 -2.42529E+01 -2.43373E+01 -2.41988E+01 -2.39867E+01 -2.38182E+01
  -2.38266E+01 -2.39617E+01 -2.41219E+01 -2.43466E+01 -2.45550E+01 -2.45543E+01 -2.43189E+01 -2.41153E+01 -2.39412E+01 -2.35644E+01
  -2.29379E+01 -2.17293E+01 -1.99450E+01 -1.82638E+01 -1.71020E+01 -1.59846E+01 -1.45617E+01 -1.30734E+01 -1.18596E+01 -1.09314E+01
  -1.01789E+01 -9.97781E+00 -1.07239E+01 -1.21023E+01 -1.34445E+01 -1.46954E+01 -1.61864E+01 -1.77674E+01 -1.89024E+01 -1.96144E+01
  -2.05352E+01 -2.13934E+01 -2.16014E+01 -2.15852E+01 -2.15328E+01 -2.14458E+01 -2.13388E+01 -2.12874E+01 -2.12429E+01 -2.12066E+01
  -2.11948E+01 -2.11892E+01 -2.11546E+01 -2.11120E+01 -2.10771E+01 -2.10287E+01 -2.09538E+01 -2.08580E+01 -2.07507E+01 -2.06370E+01
  -2.05105E+01 -2.03695E+01 -2.02276E+01 -2.00814E+01 -1.99262E+01 -1.97629E+01 -1.95944E+01 -1.94208E+01 -1.92409E+01 -1.90568E+01
  -1.88723E+01 -1.86874E+01 -1.85028E+01 -1.83210E+01 -1.81429E+01 -1.79695E+01 -1.78013E+01 -1.76379E+01 -1.74789E+01 -1.73235E+01
  -1.71702E+01 -1.70166E+01 -1.68601E+01 -1.66978E+01 -1.65252E+01 -1.63355E+01 -1.61179E+01 -1.58471E+01 -1.54918E+01 -1.51882E+01
  -1.50216E+01 -1.48751E+01 -1.46809E+01 -1.45005E+01 -1.44230E+01 -1.44817E+01 -1.45400E+01 -1.45169E+01 -1.45893E+01 -1.47778E+01
  -1.48780E+01 -1.47666E+01 -1.45112E+01 -1.41841E+01 -1.37515E+01 -1.31736E+01 -1.25932E+01 -1.22017E+01 -1.18939E+01 -1.15887E+01
  -1.13550E+01 -1.12398E+01 -1.12424E+01 -1.12612E+01 -1.12314E+01 -1.12630E+01 -1.13537E+01 -1.13743E+01 -1.13537E+01 -1.13150E+01
  -1.12672E+01 -1.12151E+01 -1.11620E+01 -1.11103E+01 -1.10621E+01 -1.10192E+01 -1.09830E+01 -1.09548E+01 -1.09356E+01 -1.09261E+01
  -1.09266E+01 -1.09372E+01 -1.09577E+01 -1.09875E+01 -1.10259E+01 -1.10717E+01 -1.11236E+01 -1.11801E+01 -1.12397E+01 -1.13008E+01
  -1.13617E+01 -1.14207E+01 -1.14761E+01 -1.15265E+01 -1.15701E+01 -1.16056E+01 -1.16316E+01 -1.16468E+01 -1.16499E+01 -1.16396E+01
  -1.16149E+01 -1.15744E+01 -1.15171E+01 -1.14419E+01 -1.13476E+01 -1.12333E+01 -1.10981E+01 -1.09414E+01 -1.07629E+01 -1.05625E+01
  -1.03410E+01 -1.00995E+01 -9.84005E+00 -9.56532E+00 -9.27898E+00 -8.98548E+00 -8.69011E+00 -8.39881E+00 -8.11805E+00 -7.85452E+00
  -7.61492E+00 -7.40558E+00 -7.23222E+00 -7.09957E+00 -7.01115E+00 -6.96902E+00 -6.97367E+00 -7.02399E+00 -7.11738E+00 -7.24985E+00
  -7.41624E+00 -7.61048E+00 -7.82597E+00 -8.05582E+00 -8.29328E+00 -8.53194E+00 -8.76600E+00 -8.99044E+00 -9.20116E+00 -9.39500E+00
  -9.56975E+00 -9.72406E+00 -9.85739E+00 -9.96984E+00 -1.00621E+01 -1.01351E+01 -1.01903E+01 -1.02292E+01 -1.02534E+01 -1.02643E+01
  -1.02636E+01 -1.02527E+01 -1.02329E+01 -1.02054E+01 -1.01711E+01 -1.01310E+01 -1.00859E+01 -1.00365E+01 -9.98329E+00 -9.92679E+00
  -9.86743E+00 -9.80552E+00 -9.74140E+00 -9.67529E+00 -9.60743E+00 -9.53797E+00 -9.46709E+00 -9.39490E+00 -9.32156E+00 -9.24714E+00
  -9.17175E+00 -9.09545E+00 -9.01833E+00 -8.94044E+00 -8.86183E+00 -8.78254E+00 -8.70260E+00 -8.62202E+00 -8.54086E+00 -8.45912E+00
  -8.37684E+00 -8.29403E+00 -8.21069E+00 -8.12684E+00 -8.04251E+00 -7.95770E+00 -7.87243E+00 -7.78669E+00 -7.70051E+00 -7.61387E+00
  -7.52680E+00 -7.43931E+00 -7.35139E+00 -7.26304E+00 -7.17427E+00 -7.08509E+00 -6.99550E+00 -6.90550E+00 -6.81509E+00 -6.72427E+00
  -6.63304E+00 -6.54141E+00 -6.44939E+00 -6.35695E+00 -6.26411E+00 -6.17084E+00 -6.07717E+00 -5.98309E+00 -5.88860E+00 -5.79368E+00
  -5.69833E+00 -5.60254E+00 -5.50631E+00 -5.40964E+00 -5.31251E+00 -5.21489E+00 -5.11678E+00 -5.01815E+00
 NY background values follow
    -1.382E+02   -1.371E+02   -1.359E+02   -1.348E+02   -1.337E+02   -1.326E+02   -1.315E+02   -1.304E+02   -1.293E+02   -1.282E+02
    -1.272E+02   -1.261E+02   -1.250E+02   -1.239E+02   -1.228E+02   -1.218E+02   -1.207E+02   -1.196E+02   -1.186E+02   -1.175E+02
    -1.165E+02   -1.154E+02   -1.144E+02   -1.134E+02   -1.123E+02   -1.113E+02   -1.103E+02   -1.093E+02   -1.083E+02   -1.073E+02
    -1.063E+02   -1.054E+02   -1.044E+02   -1.034E+02   -1.025E+02   -1.015E+02   -1.006E+02   -9.965E+01   -9.873E+01   -9.781E+01
    -9.691E+01   -9.601E+01   -9.512E+01   -9.425E+01   -9.338E+01   -9.252E+01   -9.168E+01   -9.084E+01   -9.001E+01   -8.920E+01
    -8.839E+01   -8.759E+01   -8.680E+01   -8.602E+01   -8.525E+01   -8.449E+01   -8.374E+01   -8.300E+01   -8.227E+01   -8.155E+01
    -8.083E+01   -8.013E+01   -7.943E+01   -7.875E+01   -7.807E+01   -7.740E+01   -7.673E+01   -7.608E+01   -7.544E+01   -7.480E+01
    -7.417E+01   -7.355E+01   -7.294E+01   -7.233E+01   -7.174E+01   -7.115E+01   -7.057E+01   -6.999E+01   -6.943E+01   -6.887E+01
    -6.832E+01   -6.778E+01   -6.724E+01   -6.671E+01   -6.619E+01   -6.567E+01   -6.516E+01   -6.466E+01   -6.417E+01   -6.368E+01
    -6.320E+01   -6.272E+01   -6.225E+01   -6.179E+01   -6.133E+01   -6.088E+01   -6.044E+01   -6.000E+01   -5.957E+01   -5.915E+01
    -5.873E+01   -5.831E+01   -5.790E+01   -5.750E+01   -5.710E+01   -5.671E+01   -5.632E+01   -5.594E+01   -5.556E+01   -5.519E+01
    -5.482E+01   -5.446E+01   -5.411E+01   -5.375E+01   -5.341E+01   -5.306E+01   -5.273E+01   -5.239E+01   -5.206E+01   -5.174E+01
    -5.142E+01   -5.110E+01   -5.079E+01   -5.048E+01   -5.017E+01   -4.987E+01   -4.958E+01   -4.928E+01   -4.899E+01   -4.871E+01
    -4.842E+01   -4.814E+01   -4.787E+01   -4.760E+01   -4.733E+01   -4.706E+01   -4.680E+01   -4.654E+01   -4.628E+01   -4.602E+01
    -4.577E+01   -4.552E+01   -4.527E+01   -4.503E+01   -4.479E+01   -4.455E+01   -4.431E+01   -4.407E+01   -4.384E+01   -4.361E+01
    -4.338E+01   -4.315E+01   -4.293E+01   -4.271E+01   -4.249E+01   -4.227E+01   -4.205E+01   -4.183E+01   -4.162E+01   -4.141E+01
    -4.120E+01   -4.099E+01   -4.078E+01   -4.057E+01   -4.036E+01   -4.016E+01   -3.996E+01   -3.975E+01   -3.955E+01   -3.935E+01
    -3.915E+01   -3.895E+01   -3.875E+01   -3.855E+01   -3.836E+01   -3.816E+01   -3.796E+01   -3.777E+01   -3.757E+01   -3.738E+01
    -3.718E+01   -3.699E+01   -3.679E+01   -3.660E+01   -3.640E+01   -3.621E+01   -3.601E+01   -3.582E+01   -3.563E+01   -3.543E+01
    -3.524E+01   -3.505E+01   -3.486E+01   -3.467E+01   -3.448E+01   -3.429E+01   -3.410E+01   -3.391E+01   -3.373E+01   -3.354E+01
    -3.336E+01   -3.317E+01   -3.299E+01   -3.281E+01   -3.263E+01   -3.245E+01   -3.228E+01   -3.210E+01   -3.192E+01   -3.175E+01
    -3.158E+01   -3.141E+01   -3.124E+01   -3.108E+01   -3.091E+01   -3.075E+01   -3.059E+01   -3.043E+01   -3.027E+01   -3.011E+01
    -2.996E+01   -2.981E+01   -2.966E+01   -2.951E+01   -2.937E+01   -2.922E+01   -2.908E+01   -2.894E+01   -2.881E+01   -2.867E+01
    -2.854E+01   -2.841E+01   -2.829E+01   -2.816E+01   -2.804E+01   -2.791E+01   -2.779E+01   -2.768E+01   -2.756E+01   -2.744E+01
    -2.733E+01   -2.722E+01   -2.711E+01   -2.700E+01   -2.689E+01   -2.678E+01   -2.667E+01   -2.657E+01   -2.646E+01   -2.636E+01
    -2.626E+01   -2.616E+01   -2.605E+01   -2.595E+01   -2.585E+01   -2.575E+01   -2.565E+01   -2.555E+01   -2.545E+01   -2.536E+01
    -2.526E+01   -2.516E+01   -2.506E+01   -2.496E+01   -2.486E+01   -2.476E+01   -2.466E+01   -2.456E+01   -2.446E+01   -2.436E+01
    -2.426E+01   -2.416E+01   -2.405E+01   -2.395E+01   -2.385E+01   -2.374E+01   -2.363E+01   -2.353E+01   -2.342E+01   -2.331E+01
    -2.321E+01   -2.310E+01   -2.299E+01   -2.288E+01   -2.277E+01   -2.266E+01   -2.255E+01   -2.244E+01   -2.233E+01   -2.221E+01
    -2.210E+01   -2.199E+01   -2.188E+01   -2.176E+01   -2.165E+01   -2.153E+01   -2.142E+01   -2.131E+01   -2.119E+01   -2.108E+01
    -2.096E+01   -2.085E+01   -2.073E+01   -2.062E+01   -2.050E+01   -2.039E+01   -2.027E+01   -2.016E+01   -2.004E+01   -1.993E+01
    -1.981E+01   -1.970E+01   -1.959E+01   -1.947E+01   -1.936E+01   -1.924E+01   -1.913E+01   -1.902E+01   -1.890E+01   -1.879E+01
    -1.868E+01   -1.856E+01   -1.845E+01   -1.834E+01   -1.823E+01   -1.812E+01   -1.801E+01   -1.790E+01   -1.779E+01   -1.768E+01
    -1.757E+01   -1.747E+01   -1.736E+01   -1.725E+01   -1.715E+01   -1.705E+01   -1.694E+01   -1.684E+01   -1.674E+01   -1.664E+01
    -1.654E+01   -1.644E+01   -1.634E+01   -1.624E+01   -1.615E+01   -1.605E+01   -1.596E+01   -1.587E+01   -1.578E+01   -1.569E+01
    -1.560E+01   -1.551E+01   -1.543E+01   -1.534E+01   -1.526E+01   -1.518E+01   -1.510E+01   -1.502E+01   -1.494E+01   -1.486E+01
    -1.479E+01   -1.472E+01   -1.465E+01   -1.458E+01   -1.451E+01   -1.444E+01   -1.438E+01   -1.431E+01   -1.425E+01   -1.419E+01
    -1.413E+01   -1.407E+01   -1.401E+01   -1.396E+01   -1.390E+01   -1.385E+01   -1.379E+01   -1.374E+01   -1.369E+01   -1.364E+01
    -1.359E+01   -1.354E+01   -1.349E+01   -1.344E+01   -1.339E+01   -1.334E+01   -1.329E+01   -1.325E+01   -1.320E+01   -1.315E+01
    -1.310E+01   -1.306E+01   -1.301E+01   -1.296E+01   -1.291E+01   -1.287E+01   -1.282E+01   -1.277E+01   -1.272E+01   -1.267E+01
    -1.262E+01   -1.257E+01   -1.252E+01   -1.247E+01   -1.242E+01   -1.236E+01   -1.231E+01   -1.225E+01   -1.220E+01   -1.214E+01
    -1.208E+01   -1.203E+01   -1.197E+01   -1.191E+01   -1.184E+01   -1.178E+01   -1.172E+01   -1.166E+01   -1.159E+01   -1.153E+01
    -1.146E+01   -1.139E+01   -1.133E+01   -1.126E+01   -1.119E+01   -1.112E+01   -1.105E+01   -1.098E+01   -1.091E+01   -1.083E+01
    -1.076E+01   -1.069E+01   -1.061E+01   -1.054E+01   -1.046E+01   -1.039E+01   -1.031E+01   -1.024E+01   -1.016E+01   -1.008E+01
    -1.000E+01   -9.924E+00   -9.844E+00   -9.765E+00   -9.685E+00   -9.604E+00   -9.523E+00   -9.442E+00   -9.360E+00   -9.278E+00
    -9.196E+00   -9.113E+00   -9.030E+00   -8.947E+00   -8.864E+00   -8.780E+00   -8.695E+00   -8.611E+00   -8.526E+00   -8.441E+00
    -8.355E+00   -8.270E+00   -8.184E+00   -8.097E+00   -8.011E+00   -7.924E+00   -7.836E+00   -7.749E+00   -7.661E+00   -7.573E+00
    -7.484E+00   -7.395E+00   -7.306E+00   -7.216E+00   -7.127E+00   -7.036E+00   -6.946E+00   -6.855E+00   -6.764E+00   -6.673E+00
    -6.581E+00   -6.489E+00   -6.396E+00   -6.304E+00   -6.211E+00   -6.117E+00   -6.024E+00   -5.930E+00   -5.835E+00   -5.741E+00
    -5.646E+00   -5.550E+00   -5.455E+00   -5.359E+00   -5.263E+00   -5.166E+00   -5.069E+00   -4.972E+00
 Ala      Conc. = 2.02E+02
