 LCModel (Version 6.3-1L) Copyright: S.W. Provencher.          Ref.: Magn. Reson. Med. 30:672-679 (1993).                
 Slice#2 Row#5 Col#12  PD_24_press_1_raw_act
 36 lines in following concentration table = NCONC+1
    Conc.  %SD /Cr+PCr  Metabolite                                         
 3.11E+04  14%  53.030 Ala                                                 
   89.204 102%   0.152 Asp                                                 
    0.000 999%   0.000 Cr                                                  
  586.483  24%   1.000 PCr                                                 
   67.247  82%   0.115 GABA                                                
   82.586  67%   0.141 Glc                                                 
 1.12E+04  10%  19.072 Gln                                                 
 5.09E+03  27%   8.682 Glu                                                 
    0.000 999%   0.000 GPC                                                 
  470.230  11%   0.802 PCh                                                 
    0.000 999%   0.000 GSH                                                 
 3.09E+03  18%   5.264 Ins                                                 
 1.96E+04  22%  33.496 Lac                                                 
    0.000 999%   0.000 NAA                                                 
    0.000 999%   0.000 NAAG                                                
   49.278  36% 8.4E-02 Scyllo                                              
  195.961  46%   0.334 Tau                                                 
   21.530 912% 3.7E-02 -CrCH2                                              
  470.230  11%   0.802 GPC+PCh                                             
    0.000 999%   0.000 NAA+NAAG                                            
  586.483  24%   1.000 Cr+PCr                                              
 1.63E+04  12%  27.755 Glu+Gln                                             
    0.000 999%   0.000 Lip13a                                              
 1.90E+03 107%   3.248 Lip13b                                              
 9.37E+03  15%  15.970+Lip09                                               
 6.65E+03  13%  11.339 MM09                                                
    0.000 999%   0.000 Lip20                                               
 2.07E+03  26%   3.522-MM20                                                
 2.16E+03  23%   3.681 MM12                                                
 1.22E+04  15%  20.738+MM14                                                
 1.02E+04  11%  17.427+MM17                                                
 1.90E+03 197%   3.248 Lip13a+Lip13b                                       
 1.62E+04  26%  27.667 MM14+Lip13a+Lip13b+MM12                             
 1.60E+04   9%  27.309 MM09+Lip09                                          
 2.07E+03  26%   3.522 MM20+Lip20                                          
   6 lines in following misc. output table
  FWHM = 0.168 ppm    S/N =  16                                            
  Data shift = 0.252 ppm                                                   
  Ph: -47 deg     -43.5 deg/ppm                                            
  alphaB,S = 1.3E+01,   4.2E+02                                            
    6 spline knots.   Ns = 9(2)                                            
  (14) 2 infls.   ( 9) 1 extrs.                                            
  498 points on ppm-axis = NY
      4.000000     3.992357     3.984714     3.977070     3.969427     3.961784     3.954141     3.946497     3.938854     3.931211
      3.923568     3.915925     3.908281     3.900638     3.892995     3.885352     3.877708     3.870065     3.862422     3.854779
      3.847136     3.839492     3.831849     3.824206     3.816563     3.808919     3.801276     3.793633     3.785990     3.778347
      3.770703     3.763060     3.755417     3.747774     3.740130     3.732487     3.724844     3.717201     3.709558     3.701914
      3.694271     3.686628     3.678985     3.671341     3.663698     3.656055     3.648412     3.640769     3.633125     3.625482
      3.617839     3.610196     3.602552     3.594909     3.587266     3.579623     3.571980     3.564336     3.556693     3.549050
      3.541407     3.533763     3.526120     3.518477     3.510834     3.503191     3.495547     3.487904     3.480261     3.472618
      3.464974     3.457331     3.449688     3.442045     3.434402     3.426758     3.419115     3.411472     3.403829     3.396185
      3.388542     3.380899     3.373256     3.365613     3.357969     3.350326     3.342683     3.335040     3.327396     3.319753
      3.312110     3.304467     3.296824     3.289180     3.281537     3.273894     3.266251     3.258607     3.250964     3.243321
      3.235678     3.228034     3.220391     3.212748     3.205105     3.197462     3.189818     3.182175     3.174532     3.166889
      3.159245     3.151602     3.143959     3.136316     3.128673     3.121029     3.113386     3.105743     3.098100     3.090456
      3.082813     3.075170     3.067527     3.059884     3.052240     3.044597     3.036954     3.029311     3.021667     3.014024
      3.006381     2.998738     2.991095     2.983451     2.975808     2.968165     2.960522     2.952878     2.945235     2.937592
      2.929949     2.922306     2.914662     2.907019     2.899376     2.891733     2.884089     2.876446     2.868803     2.861160
      2.853517     2.845873     2.838230     2.830587     2.822944     2.815300     2.807657     2.800014     2.792371     2.784728
      2.777084     2.769441     2.761798     2.754155     2.746511     2.738868     2.731225     2.723582     2.715939     2.708295
      2.700652     2.693009     2.685366     2.677722     2.670079     2.662436     2.654793     2.647150     2.639506     2.631863
      2.624220     2.616577     2.608933     2.601290     2.593647     2.586004     2.578361     2.570717     2.563074     2.555431
      2.547788     2.540144     2.532501     2.524858     2.517215     2.509572     2.501928     2.494285     2.486642     2.478999
      2.471355     2.463712     2.456069     2.448426     2.440783     2.433139     2.425496     2.417853     2.410210     2.402566
      2.394923     2.387280     2.379637     2.371994     2.364350     2.356707     2.349064     2.341421     2.333777     2.326134
      2.318491     2.310848     2.303205     2.295561     2.287918     2.280275     2.272632     2.264988     2.257345     2.249702
      2.242059     2.234416     2.226772     2.219129     2.211486     2.203843     2.196199     2.188556     2.180913     2.173270
      2.165627     2.157983     2.150340     2.142697     2.135054     2.127410     2.119767     2.112124     2.104481     2.096838
      2.089194     2.081551     2.073908     2.066265     2.058621     2.050978     2.043335     2.035692     2.028049     2.020405
      2.012762     2.005119     1.997476     1.989833     1.982190     1.974546     1.966903     1.959260     1.951617     1.943974
      1.936331     1.928688     1.921045     1.913402     1.905759     1.898115     1.890472     1.882829     1.875186     1.867543
      1.859900     1.852257     1.844614     1.836971     1.829327     1.821684     1.814041     1.806398     1.798755     1.791112
      1.783469     1.775826     1.768183     1.760540     1.752896     1.745253     1.737610     1.729967     1.722324     1.714681
      1.707038     1.699395     1.691752     1.684108     1.676465     1.668822     1.661179     1.653536     1.645893     1.638250
      1.630607     1.622964     1.615321     1.607677     1.600034     1.592391     1.584748     1.577105     1.569462     1.561819
      1.554176     1.546533     1.538890     1.531246     1.523603     1.515960     1.508317     1.500674     1.493031     1.485388
      1.477745     1.470102     1.462458     1.454815     1.447172     1.439529     1.431886     1.424243     1.416600     1.408957
      1.401314     1.393671     1.386027     1.378384     1.370741     1.363098     1.355455     1.347812     1.340169     1.332526
      1.324883     1.317240     1.309596     1.301953     1.294310     1.286667     1.279024     1.271381     1.263738     1.256095
      1.248452     1.240808     1.233165     1.225522     1.217879     1.210236     1.202593     1.194950     1.187307     1.179664
      1.172021     1.164377     1.156734     1.149091     1.141448     1.133805     1.126162     1.118519     1.110876     1.103233
      1.095590     1.087946     1.080303     1.072660     1.065017     1.057374     1.049731     1.042088     1.034445     1.026802
      1.019158     1.011515     1.003872     0.996229     0.988586     0.980943     0.973300     0.965657     0.958014     0.950371
      0.942727     0.935084     0.927441     0.919798     0.912155     0.904512     0.896869     0.889226     0.881583     0.873940
      0.866296     0.858653     0.851010     0.843367     0.835724     0.828081     0.820438     0.812795     0.805152     0.797508
      0.789865     0.782222     0.774579     0.766936     0.759293     0.751650     0.744007     0.736364     0.728721     0.721077
      0.713434     0.705791     0.698148     0.690505     0.682862     0.675219     0.667576     0.659933     0.652290     0.644646
      0.637003     0.629360     0.621717     0.614074     0.606431     0.598788     0.591145     0.583502     0.575858     0.568215
      0.560572     0.552929     0.545286     0.537643     0.530000     0.522357     0.514714     0.507071     0.499427     0.491784
      0.484141     0.476498     0.468855     0.461212     0.453569     0.445925     0.438282     0.430639     0.422996     0.415353
      0.407710     0.400067     0.392424     0.384780     0.377137     0.369494     0.361851     0.354208     0.346565     0.338922
      0.331278     0.323635     0.315992     0.308349     0.300706     0.293063     0.285420     0.277777     0.270133     0.262490
      0.254847     0.247204     0.239561     0.231918     0.224275     0.216631     0.208988     0.201345
 NY phased data points follow
   3.53149E-01  2.17775E+00 -1.84006E+00 -3.22976E-01 -8.19133E-01  3.15589E-01 -3.34041E-01 -7.04770E-01  1.55467E+00  2.64260E+00
  -6.94191E-01  2.31442E+00 -1.31246E+00 -9.44912E-01 -4.72533E-01 -1.19089E+00  8.08842E-01 -1.47351E+00 -2.41266E+00 -2.43858E+00
  -1.70945E-01 -4.56954E+00 -6.24759E-01  3.14215E+00  1.55791E+00  7.73499E-01  1.23202E+00  3.10279E+00  5.27129E-02 -6.48524E-01
  -2.24002E+00 -2.68294E+00  2.88135E+00  1.45397E-01 -1.00469E+00  3.38851E-01  3.79109E-01 -3.40788E+00  2.84877E+00 -1.09396E+00
  -3.58522E+00  2.05512E+00 -4.71401E+00 -2.27780E+00  7.60660E-01  7.02368E-01  2.22679E+00 -2.80134E+00 -4.37423E-01 -3.04218E+00
   1.88223E+00  2.08814E+00 -2.86276E+00 -2.02298E+00 -2.59825E+00 -1.51648E+00 -5.09224E-01 -3.15641E+00 -3.51341E+00 -2.01612E+00
  -4.16351E+00  2.30656E-01  9.63572E-04 -4.60519E+00 -2.16756E+00 -2.85408E+00 -4.86451E+00 -6.61134E-01  1.00625E+00  1.52139E+00
   4.77019E+00  7.47467E+00  4.51523E+00  1.18216E+00  1.51122E+00  3.66517E+00  3.22842E+00  2.17276E+00  2.19451E+00 -1.34902E+00
   1.33199E-01  1.75472E+00  3.85375E-01  3.61644E+00  5.03024E+00  1.29061E+00 -2.80891E+00 -3.69607E+00 -1.59510E+00 -1.99952E+00
  -3.83795E+00  5.73606E-01 -7.67410E-01  2.91776E+00  4.23614E+00  9.66488E+00  6.84971E+00  6.04153E+00  5.66692E+00  4.70190E+00
   4.09869E+00  5.86684E+00  7.62703E+00  3.29910E+00  4.92518E+00  4.83932E+00  4.84422E+00  3.61034E+00  4.15429E+00  8.05356E+00
   3.78365E+00 -6.31440E-02  3.16166E+00  1.79522E+00 -1.67057E+00 -5.69144E-02  2.41621E+00  2.19825E-01  2.52700E+00 -1.80890E+00
   1.61387E+00 -1.16912E+00 -2.76419E+00 -1.20329E+00  1.28704E+00 -8.91810E-01  2.39367E+00  1.32780E+00 -6.51677E-01 -3.08406E+00
   1.66489E+00 -6.37474E-01 -7.14945E-01  5.67697E-01 -2.09146E+00 -8.41823E-01 -2.12877E+00 -1.27945E+00 -1.18262E+00 -1.04683E+00
  -4.03957E+00 -3.27765E+00 -6.97441E+00 -6.87341E+00 -4.97625E+00 -9.52721E+00 -7.35107E+00 -8.42093E+00 -8.02624E+00 -1.03854E+01
  -8.02650E+00 -7.05837E+00 -6.08425E+00 -7.83407E+00 -8.52701E+00 -6.82028E+00 -7.16943E+00 -8.22266E+00 -7.63169E+00 -8.60609E+00
  -4.01142E+00 -7.39752E+00 -8.14017E+00 -5.88796E+00 -1.17487E+01 -7.32549E+00 -8.83393E+00 -6.00465E+00 -1.19606E+01 -7.66625E+00
  -7.48096E+00 -7.19509E+00 -8.26194E+00 -9.60586E+00 -7.24634E+00 -6.60572E+00 -9.02669E+00 -7.31176E+00 -8.75985E+00 -8.17928E+00
  -8.12253E+00 -4.44821E+00 -6.17219E+00 -7.12017E+00 -7.47479E+00 -6.52032E+00 -4.90192E+00 -6.12533E+00 -7.23951E+00 -7.34598E+00
  -8.49404E+00 -5.81678E+00 -4.75729E+00 -5.51232E+00 -3.80713E+00 -4.88346E+00 -7.75840E+00 -8.32073E+00 -4.37814E+00 -4.64746E+00
  -5.20361E+00 -2.95167E+00 -2.55276E+00 -6.98100E+00 -2.16750E-01 -2.33522E+00 -6.68860E+00 -1.59452E+00 -1.98415E+00 -2.00654E+00
  -1.70894E+00  3.87869E+00 -1.75216E-01  4.03352E+00  1.72655E+00 -2.94046E+00 -3.04990E+00  9.51193E-01  2.32093E+00  2.84431E+00
   3.44973E+00  4.18041E+00  6.54907E+00  8.31392E+00  8.69803E+00  1.39071E+01  1.56003E+01  2.66656E+01  2.96513E+01  3.03487E+01
   2.91528E+01  2.90031E+01  2.96112E+01  3.20661E+01  3.49977E+01  3.12195E+01  3.62007E+01  3.55977E+01  3.54340E+01  3.28250E+01
   3.46898E+01  3.55326E+01  3.51597E+01  3.37417E+01  3.43135E+01  3.39279E+01  3.05360E+01  3.04156E+01  3.48101E+01  3.03538E+01
   3.28309E+01  3.70562E+01  3.10890E+01  3.49657E+01  3.90996E+01  3.74335E+01  3.79748E+01  3.88399E+01  3.90925E+01  3.97667E+01
   4.21033E+01  4.34214E+01  4.60583E+01  4.82734E+01  5.02583E+01  4.97540E+01  5.15976E+01  5.11594E+01  5.46854E+01  5.53687E+01
   5.78672E+01  5.99686E+01  6.22401E+01  6.18124E+01  6.56516E+01  6.83752E+01  6.98613E+01  7.39669E+01  7.85522E+01  8.24704E+01
   8.31369E+01  8.80713E+01  8.85965E+01  9.20874E+01  9.75356E+01  9.88417E+01  9.48995E+01  1.04261E+02  1.04105E+02  1.08668E+02
   1.12142E+02  1.14848E+02  1.18450E+02  1.19402E+02  1.28253E+02  1.30405E+02  1.37917E+02  1.36585E+02  1.44280E+02  1.45436E+02
   1.50864E+02  1.58890E+02  1.57863E+02  1.67242E+02  1.69254E+02  1.72707E+02  1.76606E+02  1.79902E+02  1.77892E+02  1.87771E+02
   1.86729E+02  1.91046E+02  1.90826E+02  1.97264E+02  1.96888E+02  1.99347E+02  1.98308E+02  1.98334E+02  1.97960E+02  1.98453E+02
   1.96350E+02  1.99442E+02  1.98168E+02  1.94781E+02  1.94466E+02  1.96856E+02  1.93455E+02  1.89264E+02  1.85993E+02  1.85831E+02
   1.86936E+02  1.83248E+02  1.78797E+02  1.76532E+02  1.71184E+02  1.74579E+02  1.70365E+02  1.68099E+02  1.65542E+02  1.67383E+02
   1.63197E+02  1.58638E+02  1.55617E+02  1.55618E+02  1.54275E+02  1.54342E+02  1.52257E+02  1.52851E+02  1.46788E+02  1.46456E+02
   1.40457E+02  1.40146E+02  1.40150E+02  1.37830E+02  1.36558E+02  1.35065E+02  1.30945E+02  1.29401E+02  1.26932E+02  1.22716E+02
   1.24255E+02  1.21046E+02  1.16528E+02  1.21278E+02  1.17220E+02  1.12192E+02  1.09510E+02  1.09359E+02  1.08200E+02  1.09054E+02
   1.04512E+02  1.03022E+02  1.03861E+02  9.83492E+01  9.77458E+01  1.00975E+02  9.54062E+01  9.34067E+01  9.39941E+01  8.86272E+01
   8.78309E+01  8.86325E+01  8.75581E+01  8.49307E+01  8.19832E+01  8.07393E+01  8.08266E+01  7.48158E+01  7.63390E+01  7.69285E+01
   7.24880E+01  7.24151E+01  7.02121E+01  6.77483E+01  6.50255E+01  6.37283E+01  6.17591E+01  6.53475E+01  6.41386E+01  6.09021E+01
   6.39230E+01  6.33236E+01  5.81009E+01  5.63590E+01  5.58349E+01  5.67332E+01  5.29477E+01  5.06165E+01  5.26820E+01  5.49430E+01
   5.35338E+01  5.12815E+01  4.68257E+01  4.97945E+01  4.81940E+01  4.76943E+01  4.70698E+01  4.49241E+01  4.49727E+01  4.27160E+01
   4.19664E+01  4.45549E+01  4.31842E+01  4.25818E+01  4.15533E+01  3.90912E+01  3.86814E+01  3.65064E+01  3.83041E+01  3.93516E+01
   4.18293E+01  3.98219E+01  4.03524E+01  3.57080E+01  3.77104E+01  3.51082E+01  3.34664E+01  3.43948E+01  3.76948E+01  3.19895E+01
   3.70597E+01  3.22052E+01  3.21039E+01  3.44261E+01  2.73810E+01  2.92775E+01  3.03854E+01  2.92593E+01  2.91946E+01  2.96435E+01
   2.82298E+01  3.02113E+01  3.12758E+01  2.95714E+01  2.79571E+01  2.76381E+01  2.62228E+01  2.78507E+01  2.54210E+01  2.87829E+01
   2.49108E+01  2.76698E+01  2.41641E+01  2.51629E+01  2.64574E+01  2.39935E+01  2.48685E+01  2.64910E+01  2.41877E+01  2.51487E+01
   2.24154E+01  2.13432E+01  2.37168E+01  2.26367E+01  2.38436E+01  2.61001E+01  2.40719E+01  2.03194E+01  2.31656E+01  1.78630E+01
   2.14414E+01  2.37950E+01  2.13212E+01  2.03168E+01  2.22137E+01  2.20826E+01  2.10493E+01  2.51354E+01  2.12823E+01  2.01150E+01
   1.99918E+01  2.25812E+01  2.00980E+01  2.02550E+01  2.16075E+01  1.85232E+01  1.84774E+01  1.82549E+01
 NY points of the fit to the data follow
  -4.52889E+00 -7.02146E+00 -4.31411E+00 -6.18277E+00 -4.53232E+00 -5.01259E+00 -3.56655E+00 -2.88223E+00 -1.05230E+00 -2.93762E-02
   1.24839E+00  1.25893E+00  1.02243E+00  1.82115E-01 -4.03703E-01 -2.24049E+00 -1.27186E+00 -2.45372E+00 -5.87962E-01 -1.90226E+00
   2.48268E-02 -2.08499E+00  2.94404E-01 -2.20932E+00  7.69816E-01 -2.04396E+00  7.82524E-01 -2.89407E+00 -4.16414E-01 -4.49872E+00
  -1.96528E+00 -5.32276E+00 -2.04042E+00 -4.18406E+00 -7.15617E-01 -2.48591E+00  6.90688E-02 -1.84923E+00  1.68940E-01 -1.45776E+00
  -9.83808E-02 -1.20298E+00  3.68471E-01  1.21862E-01  1.42935E+00  1.38785E+00  2.47711E+00  3.23394E+00  4.37210E+00  5.00905E+00
   5.83664E+00  5.91866E+00  6.03995E+00  5.25956E+00  4.11293E+00  2.72978E+00  2.71252E+00  2.32652E+00  2.77643E+00  2.72757E+00
   3.22121E+00  3.11680E+00  3.31773E+00  2.79247E+00  2.85142E+00  2.21282E+00  2.29004E+00  1.61532E+00  1.73507E+00  1.04857E+00
   1.17498E+00  6.10096E-01  9.36651E-01  3.77602E-01  6.46474E-01 -1.50909E-02  9.35669E-02 -6.75281E-01 -7.11339E-01 -1.60646E+00
  -1.73906E+00 -2.76048E+00 -3.13500E+00 -4.14992E+00 -3.79272E+00 -4.48770E+00 -3.90086E+00 -4.57320E+00 -3.93136E+00 -4.61467E+00
  -3.57801E+00 -4.09942E+00 -2.69418E+00 -3.09387E+00 -1.50092E+00 -1.84514E+00 -2.93189E-02 -3.47489E-01  1.57748E+00  1.23192E+00
   3.23782E+00  2.84535E+00  4.69420E+00  4.14515E+00  5.48744E+00  4.67734E+00  5.57935E+00  4.59150E+00  5.41685E+00  4.56007E+00
   5.13465E+00  4.24354E+00  4.31537E+00  3.35581E+00  3.12422E+00  2.26659E+00  1.82360E+00  1.17086E+00  7.66002E-01  3.45778E-01
  -9.03445E-02 -3.31027E-01 -9.46181E-01 -9.20307E-01 -8.71570E-01 -5.35637E-01 -5.07535E-01 -1.63444E-01 -3.47848E-01 -1.03671E-01
  -4.19589E-01 -2.84853E-01 -7.35662E-01 -7.19104E-01 -1.23341E+00 -1.31620E+00 -1.95975E+00 -2.16900E+00 -2.90903E+00 -3.22635E+00
  -3.98847E+00 -4.36096E+00 -5.02789E+00 -5.39543E+00 -6.01445E+00 -6.39102E+00 -6.98829E+00 -7.32026E+00 -7.55472E+00 -7.72670E+00
  -7.89080E+00 -8.01204E+00 -8.13622E+00 -8.21824E+00 -8.31378E+00 -8.36594E+00 -8.43744E+00 -8.45834E+00 -8.50436E+00 -8.49728E+00
  -8.52001E+00 -8.48388E+00 -8.48344E+00 -8.42242E+00 -8.39862E+00 -8.31243E+00 -8.25937E+00 -8.14433E+00 -8.05964E+00 -7.91711E+00
  -7.80483E+00 -7.62980E+00 -7.47603E+00 -7.27975E+00 -7.08965E+00 -6.86625E+00 -6.62796E+00 -6.39584E+00 -6.28747E+00 -6.10802E+00
  -6.23849E+00 -6.28979E+00 -6.52840E+00 -6.71839E+00 -7.03048E+00 -7.00591E+00 -6.93183E+00 -6.64334E+00 -6.39772E+00 -5.79638E+00
  -5.39766E+00 -4.68561E+00 -4.45787E+00 -4.09841E+00 -5.15566E+00 -4.69075E+00 -5.41492E+00 -4.46583E+00 -4.54787E+00 -3.57330E+00
  -3.83940E+00 -2.82144E+00 -2.93063E+00 -1.92625E+00 -1.99353E+00 -1.31076E+00 -1.17637E+00 -6.13978E-01 -2.32141E-01  1.78579E-01
   7.45241E-01  1.26508E+00  2.58486E+00  3.34108E+00  5.46205E+00  6.19670E+00  8.41864E+00  8.96158E+00  1.10746E+01  1.13533E+01
   1.26157E+01  1.31356E+01  1.47331E+01  1.59273E+01  1.80235E+01  2.00304E+01  2.19541E+01  2.35677E+01  2.47799E+01  2.62009E+01
   2.71653E+01  2.82938E+01  2.89017E+01  2.89065E+01  2.84279E+01  2.82509E+01  2.83830E+01  2.82709E+01  2.92632E+01  2.88037E+01
   3.03965E+01  2.95460E+01  3.15767E+01  3.00423E+01  3.21223E+01  3.00387E+01  3.25317E+01  3.06472E+01  3.35907E+01  3.20678E+01
   3.54130E+01  3.42876E+01  3.77056E+01  3.66181E+01  3.97164E+01  3.88475E+01  4.16932E+01  4.13080E+01  4.40832E+01  4.39250E+01
   4.60303E+01  4.63622E+01  4.83333E+01  4.91310E+01  5.10990E+01  5.24610E+01  5.41269E+01  5.52450E+01  5.67755E+01  5.77510E+01
   5.91726E+01  6.01887E+01  6.15824E+01  6.26566E+01  6.42382E+01  6.58361E+01  6.77594E+01  6.97729E+01  7.20244E+01  7.44015E+01
   7.68378E+01  7.95872E+01  8.24157E+01  8.55444E+01  8.88341E+01  9.24221E+01  9.61950E+01  1.00126E+02  1.04272E+02  1.08529E+02
   1.12919E+02  1.17327E+02  1.21767E+02  1.26114E+02  1.30381E+02  1.34494E+02  1.38422E+02  1.42114E+02  1.45559E+02  1.48750E+02
   1.51709E+02  1.54480E+02  1.57123E+02  1.59762E+02  1.62525E+02  1.65615E+02  1.69292E+02  1.73973E+02  1.80202E+02  1.87070E+02
   1.90312E+02  1.94460E+02  1.95336E+02  1.98045E+02  1.97389E+02  1.98875E+02  1.95886E+02  1.99910E+02  1.97753E+02  2.01181E+02
   1.97872E+02  1.99844E+02  1.95173E+02  1.97224E+02  1.92729E+02  1.94571E+02  1.89609E+02  1.90234E+02  1.86167E+02  1.88031E+02
   1.83178E+02  1.82557E+02  1.78425E+02  1.77142E+02  1.74966E+02  1.72589E+02  1.69856E+02  1.68099E+02  1.65915E+02  1.63050E+02
   1.61733E+02  1.58561E+02  1.58208E+02  1.57181E+02  1.56806E+02  1.55365E+02  1.53538E+02  1.51042E+02  1.49588E+02  1.47672E+02
   1.43751E+02  1.42331E+02  1.38372E+02  1.38322E+02  1.34201E+02  1.33786E+02  1.28662E+02  1.29741E+02  1.26089E+02  1.26418E+02
   1.22524E+02  1.21822E+02  1.18139E+02  1.17930E+02  1.14144E+02  1.12845E+02  1.09990E+02  1.08669E+02  1.08374E+02  1.08521E+02
   1.06350E+02  1.04783E+02  1.02473E+02  9.95890E+01  9.70885E+01  9.27670E+01  9.13549E+01  9.09130E+01  9.06268E+01  9.02557E+01
   8.97007E+01  8.89181E+01  8.78928E+01  8.66287E+01  8.51429E+01  8.34622E+01  8.16209E+01  7.96581E+01  7.76162E+01  7.55383E+01
   7.34658E+01  7.14368E+01  6.94843E+01  6.76357E+01  6.59120E+01  6.43273E+01  6.28889E+01  6.15975E+01  6.04484E+01  5.94319E+01
   5.85351E+01  5.77421E+01  5.70353E+01  5.63963E+01  5.58069E+01  5.52497E+01  5.47090E+01  5.41706E+01  5.36225E+01  5.30545E+01
   5.24591E+01  5.18309E+01  5.11668E+01  5.04653E+01  4.97269E+01  4.89532E+01  4.81475E+01  4.73140E+01  4.64578E+01  4.55842E+01
   4.46991E+01  4.38082E+01  4.29177E+01  4.20331E+01  4.11602E+01  4.03034E+01  3.94675E+01  3.86560E+01  3.78727E+01  3.71200E+01
   3.64002E+01  3.57145E+01  3.50642E+01  3.44492E+01  3.38703E+01  3.33264E+01  3.28172E+01  3.23412E+01  3.18975E+01  3.14842E+01
   3.11001E+01  3.07430E+01  3.04115E+01  3.01032E+01  2.98167E+01  2.95499E+01  2.93013E+01  2.90688E+01  2.88510E+01  2.86460E+01
   2.84526E+01  2.82690E+01  2.80944E+01  2.79269E+01  2.77659E+01  2.76098E+01  2.74581E+01  2.73094E+01  2.71634E+01  2.70188E+01
   2.68753E+01  2.67319E+01  2.65884E+01  2.64439E+01  2.62984E+01  2.61509E+01  2.60015E+01  2.58495E+01  2.56951E+01  2.55376E+01
   2.53771E+01  2.52130E+01  2.50456E+01  2.48745E+01  2.46999E+01  2.45213E+01  2.43392E+01  2.41531E+01  2.39635E+01  2.37700E+01
   2.35732E+01  2.33727E+01  2.31692E+01  2.29624E+01  2.27531E+01  2.25410E+01  2.23271E+01  2.21111E+01  2.18942E+01  2.16764E+01
   2.14591E+01  2.12423E+01  2.10278E+01  2.08161E+01  2.06093E+01  2.04086E+01  2.02169E+01  2.00367E+01
 NY background values follow
     1.020E+01    1.021E+01    1.022E+01    1.023E+01    1.023E+01    1.023E+01    1.023E+01    1.022E+01    1.022E+01    1.021E+01
     1.019E+01    1.018E+01    1.016E+01    1.014E+01    1.012E+01    1.009E+01    1.007E+01    1.004E+01    1.001E+01    9.971E+00
     9.934E+00    9.894E+00    9.852E+00    9.808E+00    9.762E+00    9.713E+00    9.662E+00    9.609E+00    9.554E+00    9.496E+00
     9.436E+00    9.374E+00    9.310E+00    9.244E+00    9.176E+00    9.106E+00    9.033E+00    8.959E+00    8.883E+00    8.805E+00
     8.725E+00    8.643E+00    8.560E+00    8.475E+00    8.388E+00    8.299E+00    8.208E+00    8.116E+00    8.023E+00    7.927E+00
     7.831E+00    7.733E+00    7.633E+00    7.532E+00    7.430E+00    7.326E+00    7.221E+00    7.115E+00    7.007E+00    6.899E+00
     6.789E+00    6.678E+00    6.567E+00    6.454E+00    6.340E+00    6.226E+00    6.111E+00    5.995E+00    5.878E+00    5.760E+00
     5.642E+00    5.523E+00    5.404E+00    5.284E+00    5.164E+00    5.044E+00    4.923E+00    4.802E+00    4.680E+00    4.559E+00
     4.437E+00    4.315E+00    4.193E+00    4.071E+00    3.950E+00    3.828E+00    3.707E+00    3.586E+00    3.465E+00    3.344E+00
     3.224E+00    3.105E+00    2.985E+00    2.867E+00    2.749E+00    2.632E+00    2.516E+00    2.400E+00    2.285E+00    2.172E+00
     2.059E+00    1.947E+00    1.836E+00    1.727E+00    1.619E+00    1.512E+00    1.406E+00    1.302E+00    1.199E+00    1.098E+00
     9.982E-01    9.002E-01    8.038E-01    7.092E-01    6.165E-01    5.256E-01    4.366E-01    3.497E-01    2.648E-01    1.820E-01
     1.015E-01    2.311E-02   -5.294E-02   -1.266E-01   -1.979E-01   -2.667E-01   -3.329E-01   -3.966E-01   -4.575E-01   -5.158E-01
    -5.713E-01   -6.239E-01   -6.736E-01   -7.204E-01   -7.641E-01   -8.048E-01   -8.423E-01   -8.767E-01   -9.077E-01   -9.355E-01
    -9.598E-01   -9.808E-01   -9.982E-01   -1.012E+00   -1.022E+00   -1.029E+00   -1.032E+00   -1.031E+00   -1.026E+00   -1.018E+00
    -1.005E+00   -9.883E-01   -9.676E-01   -9.428E-01   -9.138E-01   -8.806E-01   -8.431E-01   -8.013E-01   -7.550E-01   -7.043E-01
    -6.491E-01   -5.893E-01   -5.250E-01   -4.559E-01   -3.822E-01   -3.037E-01   -2.203E-01   -1.321E-01   -3.912E-02    5.873E-02
     1.614E-01    2.689E-01    3.812E-01    4.982E-01    6.201E-01    7.467E-01    8.780E-01    1.014E+00    1.155E+00    1.300E+00
     1.450E+00    1.605E+00    1.765E+00    1.929E+00    2.097E+00    2.270E+00    2.448E+00    2.630E+00    2.817E+00    3.008E+00
     3.204E+00    3.404E+00    3.609E+00    3.818E+00    4.031E+00    4.248E+00    4.470E+00    4.696E+00    4.926E+00    5.161E+00
     5.400E+00    5.642E+00    5.889E+00    6.140E+00    6.395E+00    6.654E+00    6.917E+00    7.183E+00    7.454E+00    7.728E+00
     8.006E+00    8.288E+00    8.574E+00    8.863E+00    9.156E+00    9.453E+00    9.753E+00    1.006E+01    1.036E+01    1.067E+01
     1.099E+01    1.131E+01    1.163E+01    1.195E+01    1.228E+01    1.261E+01    1.294E+01    1.328E+01    1.362E+01    1.396E+01
     1.430E+01    1.465E+01    1.500E+01    1.536E+01    1.571E+01    1.607E+01    1.643E+01    1.680E+01    1.716E+01    1.753E+01
     1.790E+01    1.828E+01    1.865E+01    1.903E+01    1.941E+01    1.979E+01    2.018E+01    2.057E+01    2.095E+01    2.135E+01
     2.174E+01    2.213E+01    2.253E+01    2.292E+01    2.332E+01    2.372E+01    2.413E+01    2.453E+01    2.494E+01    2.534E+01
     2.575E+01    2.616E+01    2.657E+01    2.698E+01    2.739E+01    2.780E+01    2.822E+01    2.863E+01    2.905E+01    2.946E+01
     2.988E+01    3.030E+01    3.072E+01    3.113E+01    3.155E+01    3.197E+01    3.239E+01    3.281E+01    3.323E+01    3.365E+01
     3.407E+01    3.449E+01    3.491E+01    3.533E+01    3.575E+01    3.617E+01    3.659E+01    3.701E+01    3.742E+01    3.784E+01
     3.826E+01    3.867E+01    3.909E+01    3.950E+01    3.992E+01    4.033E+01    4.074E+01    4.115E+01    4.156E+01    4.197E+01
     4.238E+01    4.279E+01    4.319E+01    4.359E+01    4.399E+01    4.440E+01    4.479E+01    4.519E+01    4.559E+01    4.598E+01
     4.637E+01    4.676E+01    4.715E+01    4.753E+01    4.792E+01    4.830E+01    4.868E+01    4.905E+01    4.943E+01    4.980E+01
     5.017E+01    5.054E+01    5.090E+01    5.127E+01    5.162E+01    5.198E+01    5.233E+01    5.269E+01    5.303E+01    5.338E+01
     5.372E+01    5.406E+01    5.439E+01    5.473E+01    5.506E+01    5.538E+01    5.570E+01    5.602E+01    5.634E+01    5.665E+01
     5.696E+01    5.727E+01    5.757E+01    5.787E+01    5.816E+01    5.845E+01    5.874E+01    5.902E+01    5.930E+01    5.958E+01
     5.985E+01    6.012E+01    6.038E+01    6.064E+01    6.090E+01    6.115E+01    6.140E+01    6.165E+01    6.189E+01    6.212E+01
     6.235E+01    6.258E+01    6.281E+01    6.302E+01    6.324E+01    6.345E+01    6.366E+01    6.386E+01    6.405E+01    6.425E+01
     6.443E+01    6.462E+01    6.480E+01    6.497E+01    6.514E+01    6.531E+01    6.547E+01    6.562E+01    6.577E+01    6.592E+01
     6.606E+01    6.619E+01    6.633E+01    6.645E+01    6.657E+01    6.669E+01    6.680E+01    6.691E+01    6.701E+01    6.711E+01
     6.720E+01    6.728E+01    6.736E+01    6.744E+01    6.751E+01    6.758E+01    6.764E+01    6.769E+01    6.774E+01    6.778E+01
     6.782E+01    6.786E+01    6.788E+01    6.791E+01    6.792E+01    6.793E+01    6.794E+01    6.794E+01    6.794E+01    6.793E+01
     6.791E+01    6.789E+01    6.786E+01    6.783E+01    6.779E+01    6.774E+01    6.769E+01    6.764E+01    6.758E+01    6.751E+01
     6.744E+01    6.736E+01    6.727E+01    6.718E+01    6.709E+01    6.699E+01    6.688E+01    6.676E+01    6.664E+01    6.652E+01
     6.639E+01    6.625E+01    6.611E+01    6.596E+01    6.580E+01    6.564E+01    6.547E+01    6.530E+01    6.512E+01    6.494E+01
     6.475E+01    6.455E+01    6.434E+01    6.414E+01    6.392E+01    6.370E+01    6.347E+01    6.324E+01    6.300E+01    6.275E+01
     6.250E+01    6.224E+01    6.198E+01    6.171E+01    6.143E+01    6.115E+01    6.086E+01    6.056E+01    6.026E+01    5.996E+01
     5.964E+01    5.932E+01    5.900E+01    5.867E+01    5.833E+01    5.799E+01    5.764E+01    5.728E+01    5.692E+01    5.655E+01
     5.617E+01    5.579E+01    5.541E+01    5.501E+01    5.461E+01    5.421E+01    5.380E+01    5.338E+01    5.296E+01    5.253E+01
     5.209E+01    5.165E+01    5.120E+01    5.075E+01    5.029E+01    4.982E+01    4.935E+01    4.887E+01    4.838E+01    4.789E+01
     4.740E+01    4.690E+01    4.639E+01    4.587E+01    4.535E+01    4.483E+01    4.429E+01    4.376E+01
 Ala      Conc. = 3.11E+04
