 LCModel (Version 6.3-1L) Copyright: S.W. Provencher.          Ref.: Magn. Reson. Med. 30:672-679 (1993).                
 Slice#2 Row#11 Col#10  PD_24_press_1_raw_act
 36 lines in following concentration table = NCONC+1
    Conc.  %SD /Cr+PCr  Metabolite                                         
  188.894  62%   0.108 Ala                                                 
    0.000 999%   0.000 Asp                                                 
  669.584  34%   0.381 Cr                                                  
 1.09E+03  22%   0.619 PCr                                                 
    0.000 999%   0.000 GABA                                                
    0.000 999%   0.000 Glc                                                 
 1.36E+03  19%   0.772 Gln                                                 
 1.57E+03  17%   0.895 Glu                                                 
  775.698   3%   0.441 GPC                                                 
    0.000 999%   0.000 PCh                                                 
  548.299  12%   0.312 GSH                                                 
 2.22E+03  10%   1.264 Ins                                                 
   62.647 210% 3.6E-02 Lac                                                 
 2.72E+03   6%   1.548 NAA                                                 
  246.584  68%   0.140 NAAG                                                
  220.242  12%   0.125 Scyllo                                              
    0.000 999%   0.000 Tau                                                 
  169.755  61% 9.7E-02 -CrCH2                                              
  775.698   3%   0.441 GPC+PCh                                             
 2.97E+03   3%   1.688 NAA+NAAG                                            
 1.76E+03   3%   1.000 Cr+PCr                                              
 2.93E+03  14%   1.667 Glu+Gln                                             
 2.53E+03  23%   1.440 Lip13a                                              
    0.000 999%   0.000 Lip13b                                              
  195.209 164%   0.111 Lip09                                               
 1.63E+03  21%   0.930 MM09                                                
  521.608  44%   0.297 Lip20                                               
 3.54E+03  11%   2.017 MM20                                                
  650.122  34%   0.370 MM12                                                
  978.948  35%   0.557 MM14                                                
  910.592  22%   0.518 MM17                                                
 2.53E+03  23%   1.440 Lip13a+Lip13b                                       
 4.16E+03   8%   2.367 MM14+Lip13a+Lip13b+MM12                             
 1.83E+03   9%   1.041 MM09+Lip09                                          
 4.07E+03   8%   2.314 MM20+Lip20                                          
   6 lines in following misc. output table
  FWHM = 0.061 ppm    S/N =  16                                            
  Data shift = 0.008 ppm                                                   
  Ph: -25 deg      -5.0 deg/ppm                                            
  alphaB,S = 4.3E+01,   1.2E+02                                            
   14 spline knots.   Ns = 8(1)                                            
  ( 5) 3 infls.   ( 1) 1 extrs.                                            
  498 points on ppm-axis = NY
      4.000000     3.992357     3.984714     3.977070     3.969427     3.961784     3.954141     3.946497     3.938854     3.931211
      3.923568     3.915925     3.908281     3.900638     3.892995     3.885352     3.877708     3.870065     3.862422     3.854779
      3.847136     3.839492     3.831849     3.824206     3.816563     3.808919     3.801276     3.793633     3.785990     3.778347
      3.770703     3.763060     3.755417     3.747774     3.740130     3.732487     3.724844     3.717201     3.709558     3.701914
      3.694271     3.686628     3.678985     3.671341     3.663698     3.656055     3.648412     3.640769     3.633125     3.625482
      3.617839     3.610196     3.602552     3.594909     3.587266     3.579623     3.571980     3.564336     3.556693     3.549050
      3.541407     3.533763     3.526120     3.518477     3.510834     3.503191     3.495547     3.487904     3.480261     3.472618
      3.464974     3.457331     3.449688     3.442045     3.434402     3.426758     3.419115     3.411472     3.403829     3.396185
      3.388542     3.380899     3.373256     3.365613     3.357969     3.350326     3.342683     3.335040     3.327396     3.319753
      3.312110     3.304467     3.296824     3.289180     3.281537     3.273894     3.266251     3.258607     3.250964     3.243321
      3.235678     3.228034     3.220391     3.212748     3.205105     3.197462     3.189818     3.182175     3.174532     3.166889
      3.159245     3.151602     3.143959     3.136316     3.128673     3.121029     3.113386     3.105743     3.098100     3.090456
      3.082813     3.075170     3.067527     3.059884     3.052240     3.044597     3.036954     3.029311     3.021667     3.014024
      3.006381     2.998738     2.991095     2.983451     2.975808     2.968165     2.960522     2.952878     2.945235     2.937592
      2.929949     2.922306     2.914662     2.907019     2.899376     2.891733     2.884089     2.876446     2.868803     2.861160
      2.853517     2.845873     2.838230     2.830587     2.822944     2.815300     2.807657     2.800014     2.792371     2.784728
      2.777084     2.769441     2.761798     2.754155     2.746511     2.738868     2.731225     2.723582     2.715939     2.708295
      2.700652     2.693009     2.685366     2.677722     2.670079     2.662436     2.654793     2.647150     2.639506     2.631863
      2.624220     2.616577     2.608933     2.601290     2.593647     2.586004     2.578361     2.570717     2.563074     2.555431
      2.547788     2.540144     2.532501     2.524858     2.517215     2.509572     2.501928     2.494285     2.486642     2.478999
      2.471355     2.463712     2.456069     2.448426     2.440783     2.433139     2.425496     2.417853     2.410210     2.402566
      2.394923     2.387280     2.379637     2.371994     2.364350     2.356707     2.349064     2.341421     2.333777     2.326134
      2.318491     2.310848     2.303205     2.295561     2.287918     2.280275     2.272632     2.264988     2.257345     2.249702
      2.242059     2.234416     2.226772     2.219129     2.211486     2.203843     2.196199     2.188556     2.180913     2.173270
      2.165627     2.157983     2.150340     2.142697     2.135054     2.127410     2.119767     2.112124     2.104481     2.096838
      2.089194     2.081551     2.073908     2.066265     2.058621     2.050978     2.043335     2.035692     2.028049     2.020405
      2.012762     2.005119     1.997476     1.989833     1.982190     1.974546     1.966903     1.959260     1.951617     1.943974
      1.936331     1.928688     1.921045     1.913402     1.905759     1.898115     1.890472     1.882829     1.875186     1.867543
      1.859900     1.852257     1.844614     1.836971     1.829327     1.821684     1.814041     1.806398     1.798755     1.791112
      1.783469     1.775826     1.768183     1.760540     1.752896     1.745253     1.737610     1.729967     1.722324     1.714681
      1.707038     1.699395     1.691752     1.684108     1.676465     1.668822     1.661179     1.653536     1.645893     1.638250
      1.630607     1.622964     1.615321     1.607677     1.600034     1.592391     1.584748     1.577105     1.569462     1.561819
      1.554176     1.546533     1.538890     1.531246     1.523603     1.515960     1.508317     1.500674     1.493031     1.485388
      1.477745     1.470102     1.462458     1.454815     1.447172     1.439529     1.431886     1.424243     1.416600     1.408957
      1.401314     1.393671     1.386027     1.378384     1.370741     1.363098     1.355455     1.347812     1.340169     1.332526
      1.324883     1.317240     1.309596     1.301953     1.294310     1.286667     1.279024     1.271381     1.263738     1.256095
      1.248452     1.240808     1.233165     1.225522     1.217879     1.210236     1.202593     1.194950     1.187307     1.179664
      1.172021     1.164377     1.156734     1.149091     1.141448     1.133805     1.126162     1.118519     1.110876     1.103233
      1.095590     1.087946     1.080303     1.072660     1.065017     1.057374     1.049731     1.042088     1.034445     1.026802
      1.019158     1.011515     1.003872     0.996229     0.988586     0.980943     0.973300     0.965657     0.958014     0.950371
      0.942727     0.935084     0.927441     0.919798     0.912155     0.904512     0.896869     0.889226     0.881583     0.873940
      0.866296     0.858653     0.851010     0.843367     0.835724     0.828081     0.820438     0.812795     0.805152     0.797508
      0.789865     0.782222     0.774579     0.766936     0.759293     0.751650     0.744007     0.736364     0.728721     0.721077
      0.713434     0.705791     0.698148     0.690505     0.682862     0.675219     0.667576     0.659933     0.652290     0.644646
      0.637003     0.629360     0.621717     0.614074     0.606431     0.598788     0.591145     0.583502     0.575858     0.568215
      0.560572     0.552929     0.545286     0.537643     0.530000     0.522357     0.514714     0.507071     0.499427     0.491784
      0.484141     0.476498     0.468855     0.461212     0.453569     0.445925     0.438282     0.430639     0.422996     0.415353
      0.407710     0.400067     0.392424     0.384780     0.377137     0.369494     0.361851     0.354208     0.346565     0.338922
      0.331278     0.323635     0.315992     0.308349     0.300706     0.293063     0.285420     0.277777     0.270133     0.262490
      0.254847     0.247204     0.239561     0.231918     0.224275     0.216631     0.208988     0.201345
 NY phased data points follow
  -2.06867E+00 -2.46902E+00 -1.10044E+00  2.44097E+00  3.56295E+00  4.56744E+00  1.06993E+01  1.87462E+01  2.08086E+01  2.69782E+01
   2.57234E+01  2.91942E+01  2.38248E+01  1.93907E+01  1.34102E+01  1.13447E+01  9.72680E+00  9.82351E-01  4.97763E+00  1.63026E-01
  -2.12545E+00 -1.60042E+00 -7.61232E-01  2.87003E+00  5.29350E-01  3.01635E+00  1.77475E+00  2.01424E+00  3.85568E+00  4.48738E+00
   6.24861E+00  4.17826E+00  5.17997E+00  4.87596E+00  2.31702E+00  1.65454E+00  5.10340E-01  3.55875E+00 -1.11657E-01  3.37908E+00
   3.38987E+00  6.99345E+00  5.87404E+00  4.87590E+00  9.67918E+00  8.69810E+00  6.88128E+00  9.61822E+00  1.20487E+01  8.45372E+00
   4.31983E+00  2.91664E+00 -7.40211E-01  2.07798E+00  1.48886E+00 -2.32234E+00 -3.05423E-01  9.40956E-02  5.39924E+00 -3.25105E+00
  -3.08275E+00 -4.61410E+00 -5.77012E+00 -6.18877E+00 -3.69395E+00 -5.14139E+00 -8.79983E+00 -4.94559E+00 -6.10371E+00 -7.27703E+00
  -6.13326E+00 -5.24584E+00 -3.98071E+00 -4.30781E+00 -2.73284E+00 -2.76380E+00 -2.74219E+00 -4.62165E+00 -2.86110E+00  1.09427E+00
  -2.14936E+00 -2.06974E+00 -5.02248E-01 -1.44662E+00  4.76892E-01  1.21816E+00  1.10496E+00  6.98207E-01  2.74602E+00 -1.37897E+00
   1.92200E+00  2.82194E+00 -1.14202E+00  2.30470E+00 -5.50568E-02  4.57588E+00  8.34363E+00  1.21382E+01  2.40143E+01  3.08885E+01
   4.28754E+01  4.67000E+01  5.19068E+01  4.96320E+01  4.49073E+01  4.35273E+01  3.33760E+01  2.25431E+01  1.55202E+01  8.28964E+00
   3.37047E+00  1.34072E+00 -6.82330E-01 -5.55960E-01 -3.91055E+00 -1.88274E+00 -5.57120E+00 -4.15803E+00 -3.58516E+00  2.09617E+00
   2.38669E+00  4.07634E+00  9.44312E+00  1.97658E+01  2.74575E+01  3.53048E+01  4.36486E+01  4.57764E+01  4.29766E+01  4.16920E+01
   3.23846E+01  2.71805E+01  1.43578E+01  1.21654E+01  1.05373E+01  4.37494E-01 -2.50675E+00 -2.94151E+00 -4.52402E+00 -2.65009E+00
  -5.02943E+00 -5.71529E+00 -2.11294E+00 -1.41791E+00 -3.73257E+00 -5.52152E+00 -3.40205E+00 -2.72705E+00 -2.50228E+00 -2.25820E+00
  -5.19308E+00 -3.23456E+00 -4.97525E+00 -4.19877E-01 -6.79292E+00 -4.66566E+00 -2.35972E+00 -4.75380E+00 -4.69703E+00 -7.09698E+00
  -1.03742E+01 -6.48014E+00 -9.43504E+00 -8.27895E+00 -5.44444E+00 -9.20017E+00 -8.50576E+00 -6.85204E+00 -7.52991E+00 -1.26531E+01
  -1.32155E+01 -1.54016E+01 -1.42397E+01 -1.69203E+01 -1.80358E+01 -1.79132E+01 -1.77581E+01 -1.76900E+01 -1.45841E+01 -1.27909E+01
  -1.41323E+01 -1.46599E+01 -1.32890E+01 -1.28488E+01 -1.38042E+01 -1.53064E+01 -1.18913E+01 -1.35981E+01 -7.53969E+00 -8.15943E+00
  -7.48749E+00 -6.53205E+00 -1.61908E+00 -2.54658E+00 -4.68271E+00 -6.23149E+00 -9.26542E+00 -4.89010E+00 -5.85473E+00 -4.24014E+00
  -7.53814E+00 -3.29940E+00 -4.31749E+00 -3.94562E+00 -2.19149E+00 -1.35858E+00 -4.29360E+00 -4.69932E+00 -8.07938E+00 -5.49466E+00
  -1.71770E+00 -4.44640E+00  2.24839E-01  1.45624E+00  3.45819E+00  8.15538E+00  8.20052E+00  6.13207E+00  4.90145E+00  1.55817E+00
   2.98581E+00 -5.22075E-02 -3.19138E+00 -1.20681E+00 -2.91125E+00  2.98642E+00  2.95678E+00  2.93308E+00  6.47382E+00  7.31197E+00
   6.24516E+00  6.24851E+00  9.85549E+00  6.97060E+00  1.10748E+01  3.49949E-02  8.24551E+00  3.28272E+00  1.50120E+00 -3.98762E-01
   3.70397E+00  1.29961E+00 -2.34240E+00 -2.49167E+00  1.09069E+00  8.03046E+00  7.28218E+00  8.58825E+00  1.22108E+01  1.23178E+01
   1.03936E+01  1.65249E+01  2.28023E+01  3.10774E+01  3.72976E+01  4.77604E+01  5.35963E+01  7.32844E+01  7.83668E+01  8.64851E+01
   8.64302E+01  8.31992E+01  7.63522E+01  6.66891E+01  4.90472E+01  3.32466E+01  2.79486E+01  1.80658E+01  1.32359E+01  9.79581E+00
   4.08392E+00  8.16311E+00  5.82446E+00  6.16151E+00  5.42977E+00  4.97998E+00  2.65918E+00  5.39573E+00  4.12311E+00  3.22021E+00
   2.78240E+00  2.22300E+00  2.97925E+00  2.67434E+00 -3.84429E-01  6.66261E-01  2.44370E+00  2.07472E-01  1.02444E+00 -8.37114E-01
   1.21628E+00  2.29554E+00  4.43799E+00  4.40869E-01  2.05837E+00 -1.11116E+00  2.36038E+00  5.06870E-01 -1.51757E+00 -1.22778E+00
   1.67447E+00  2.32733E+00  2.21919E+00  1.24151E+00  6.95904E+00  1.16611E+00  7.22130E+00  3.98374E+00  1.47648E+00  2.95754E+00
   7.18835E+00  1.01887E+00  4.44329E+00  4.30763E+00  3.61928E+00  3.85607E+00  2.67619E+00  4.79950E+00  3.37913E+00  1.87991E+00
   4.22059E+00  1.43901E+00  2.02207E+00  2.62978E+00  4.93215E+00  6.20865E+00 -6.58151E-01  5.46148E+00  1.40479E+00  4.84651E+00
   4.25454E+00  2.18785E+00  3.77563E+00  1.14816E+00  7.11736E+00  7.20880E+00  7.72815E+00  6.11606E+00  8.91205E+00  7.00857E+00
   9.49922E+00  8.88415E+00  7.59143E+00  9.50201E+00  7.30168E+00  8.27348E+00  1.03024E+01  8.90627E+00  1.24939E+01  8.76685E+00
   9.11641E+00  5.39743E+00  7.61264E+00  1.28184E+01  1.14310E+01  1.29952E+01  9.68752E+00  7.72875E+00  1.23387E+01  9.68523E+00
   9.95224E+00  8.47755E+00  1.16148E+01  1.15499E+01  1.11472E+01  1.03575E+01  1.36242E+01  1.10067E+01  9.97363E+00  1.01007E+01
   1.04730E+01  7.87530E+00  8.60783E+00  5.50675E+00  7.39355E+00  6.58366E+00  5.94330E+00  7.91378E+00  7.20059E+00  7.68443E+00
   1.93330E+00  7.16113E+00  4.22800E+00  2.99644E+00  4.71937E-01  4.82067E+00  2.47296E+00  4.82829E+00  5.49890E+00  9.68857E-01
   3.39126E+00  7.85475E+00  5.06006E+00  6.97669E+00  4.96213E+00  7.68887E+00  7.28906E+00  5.24551E+00  5.84435E+00  7.94933E+00
   9.33660E+00  1.06707E+01  1.10202E+01  1.15485E+01  1.10835E+01  1.26470E+01  1.38372E+01  1.56530E+01  1.38588E+01  1.12304E+01
   1.43915E+01  1.59042E+01  1.42781E+01  1.16824E+01  1.35685E+01  1.25531E+01  1.01696E+01  5.12971E+00  8.70225E+00  7.64316E+00
   2.65579E+00  4.39967E+00  7.00293E+00  6.63235E+00  4.26323E+00  2.67010E+00  2.31575E+00  7.21542E-01  1.58295E+00  7.16307E-01
   5.75815E+00 -1.41851E+00  6.58273E+00 -1.34272E+00  1.65485E+00 -2.27867E+00 -1.64651E-01  4.86006E+00  4.43052E-01  2.43759E+00
   3.49889E-01  3.15226E+00  2.39692E+00  8.43258E-01 -4.02676E-01 -1.26531E+00  5.62005E-01  3.42218E+00 -5.35197E-01  4.09189E-01
  -1.91797E+00  2.49235E+00  2.67561E-01  3.93614E+00 -2.48404E+00 -1.31778E+00 -1.49634E+00  1.55581E+00 -1.24529E+00  7.80516E-01
   1.85000E-01  3.69671E+00 -1.96015E+00  6.94527E-01 -2.95447E+00 -1.43668E+00  3.14489E-01 -4.01329E-01  1.70982E+00 -3.79517E+00
  -4.33723E-01 -3.03274E+00  8.05247E-01 -3.41705E+00 -2.78237E-01  5.93350E-01  8.53378E-02 -2.13334E+00 -2.63457E-01  4.17201E+00
  -7.10452E-01 -4.55476E+00 -3.61923E+00  1.16105E+00 -1.33395E+00  1.12224E+00  2.63400E+00  3.02318E+00  7.92124E-01  3.58228E+00
  -5.04614E-01  7.56549E-01 -1.31027E+00  3.00512E+00 -3.06142E+00  6.87515E-01 -4.79402E-01 -8.35029E-01
 NY points of the fit to the data follow
  -2.63305E+00 -2.57534E+00 -1.05986E+00  1.37205E+00  4.45286E+00  8.08529E+00  1.24380E+01  1.72380E+01  2.16582E+01  2.48492E+01
   2.62433E+01  2.58511E+01  2.38096E+01  2.02937E+01  1.58411E+01  1.14185E+01  7.69059E+00  4.68731E+00  2.18635E+00  2.62640E-02
  -1.57461E+00 -2.43181E+00 -2.31756E+00 -1.89297E+00 -1.32736E+00 -2.33435E-01  1.54773E+00  3.69171E+00  5.64228E+00  7.18467E+00
   8.14186E+00  8.24324E+00  7.48689E+00  5.94563E+00  4.03873E+00  2.32308E+00  8.52309E-01 -4.33994E-01 -1.20470E+00 -9.92069E-01
   4.05490E-02  1.34823E+00  2.98616E+00  5.10684E+00  7.32669E+00  8.97549E+00  9.58805E+00  9.21969E+00  8.09909E+00  6.19443E+00
   3.67111E+00  1.15601E+00 -7.36594E-01 -1.76564E+00 -2.22534E+00 -2.39349E+00 -2.24421E+00 -1.77631E+00 -1.26307E+00 -1.02412E+00
  -1.16193E+00 -1.61612E+00 -2.33756E+00 -3.10616E+00 -3.68440E+00 -3.97801E+00 -3.94300E+00 -3.64494E+00 -3.19807E+00 -2.70495E+00
  -2.30709E+00 -2.07422E+00 -2.01575E+00 -2.11536E+00 -2.35619E+00 -2.71374E+00 -3.09059E+00 -3.34942E+00 -3.38478E+00 -2.90117E+00
  -2.36500E+00 -1.89023E+00 -1.17001E+00 -1.77344E-01  8.29605E-01  1.52458E+00  1.76983E+00  1.57530E+00  1.11137E+00  3.69458E-01
  -6.41153E-01 -1.64353E+00 -2.19123E+00 -2.06173E+00 -4.58778E-01  3.90740E+00  8.94043E+00  1.44942E+01  2.18332E+01  3.09985E+01
   4.03899E+01  4.77677E+01  5.17371E+01  5.19078E+01  4.86573E+01  4.21763E+01  3.29269E+01  2.28140E+01  1.44631E+01  8.46311E+00
   3.68832E+00 -4.80432E-01 -3.70262E+00 -5.00944E+00 -5.29105E+00 -5.29935E+00 -5.16421E+00 -4.86115E+00 -4.12675E+00 -1.63955E+00
   3.04317E+00  7.83697E+00  1.31397E+01  2.00345E+01  2.82058E+01  3.60204E+01  4.16231E+01  4.40955E+01  4.34937E+01  4.02145E+01
   3.42561E+01  2.61600E+01  1.78268E+01  1.12573E+01  6.38296E+00  2.26611E+00 -1.29072E+00 -3.59762E+00 -4.08229E+00 -3.84299E+00
  -3.47132E+00 -3.18381E+00 -3.05811E+00 -3.07300E+00 -3.20909E+00 -3.46182E+00 -3.77532E+00 -4.10004E+00 -4.42300E+00 -4.72053E+00
  -4.99020E+00 -5.19064E+00 -5.36707E+00 -5.61196E+00 -5.82424E+00 -5.98382E+00 -6.13764E+00 -6.29701E+00 -6.56335E+00 -6.84842E+00
  -7.03039E+00 -7.10155E+00 -7.15338E+00 -7.23902E+00 -7.35306E+00 -7.53961E+00 -7.87830E+00 -8.41380E+00 -9.10668E+00 -9.71603E+00
  -1.00929E+01 -1.04527E+01 -1.09034E+01 -1.14031E+01 -1.17187E+01 -1.17531E+01 -1.16824E+01 -1.16391E+01 -1.16102E+01 -1.15690E+01
  -1.14048E+01 -1.11764E+01 -1.09424E+01 -1.05503E+01 -9.86151E+00 -8.92741E+00 -7.88947E+00 -6.86002E+00 -5.82886E+00 -4.93432E+00
  -4.38277E+00 -4.20457E+00 -4.32282E+00 -4.61169E+00 -4.89521E+00 -4.87298E+00 -4.28937E+00 -3.35591E+00 -2.20253E+00 -9.87224E-01
  -5.51929E-02  4.00276E-01  4.28620E-01 -2.10560E-01 -1.69080E+00 -3.78886E+00 -5.86273E+00 -7.48332E+00 -8.36386E+00 -8.29989E+00
  -7.46855E+00 -5.80037E+00 -3.41774E+00 -8.74460E-01  1.12090E+00  2.16932E+00  2.48133E+00  2.19553E+00  1.04619E+00 -9.10907E-01
  -2.95717E+00 -4.33803E+00 -4.71852E+00 -4.35201E+00 -3.43446E+00 -2.04943E+00 -4.50750E-01  9.96184E-01  2.04398E+00  2.72324E+00
   3.15631E+00  3.53600E+00  4.04406E+00  4.56542E+00  5.15309E+00  5.83208E+00  6.35371E+00  6.58390E+00  6.47626E+00  5.92380E+00
   5.00520E+00  4.12625E+00  3.65305E+00  3.66885E+00  4.14894E+00  5.09275E+00  6.43263E+00  7.98828E+00  9.74280E+00  1.14157E+01
   1.30842E+01  1.56965E+01  2.20420E+01  3.03844E+01  3.81464E+01  4.69823E+01  5.80941E+01  7.01450E+01  8.01390E+01  8.58784E+01
   8.66954E+01  8.31764E+01  7.57747E+01  6.43797E+01  5.04737E+01  3.77340E+01  2.84333E+01  2.13522E+01  1.50634E+01  9.50100E+00
   6.24637E+00  5.03061E+00  4.34384E+00  3.83345E+00  3.42277E+00  3.08225E+00  2.75283E+00  2.41512E+00  2.06840E+00  1.73537E+00
   1.44455E+00  1.20196E+00  9.90969E-01  8.07047E-01  6.67889E-01  5.77938E-01  5.21401E-01  4.88642E-01  4.87541E-01  5.26522E-01
   6.03492E-01  7.08064E-01  8.39374E-01  9.97880E-01  1.17770E+00  1.36972E+00  1.56950E+00  1.77570E+00  1.98659E+00  2.19775E+00
   2.40356E+00  2.59883E+00  2.78055E+00  2.94338E+00  3.08100E+00  3.18951E+00  3.26796E+00  3.31671E+00  3.33718E+00  3.33148E+00
   3.30429E+00  3.26134E+00  3.20865E+00  3.15330E+00  3.10320E+00  3.06690E+00  3.05439E+00  3.07974E+00  3.16947E+00  3.36403E+00
   3.57711E+00  3.74108E+00  3.92250E+00  4.11680E+00  4.23583E+00  4.18551E+00  3.93724E+00  3.61373E+00  3.34852E+00  3.10485E+00
   2.91988E+00  2.94299E+00  3.30756E+00  3.97372E+00  4.76673E+00  5.56134E+00  6.31910E+00  7.04599E+00  7.66381E+00  8.08928E+00
   8.35248E+00  8.54875E+00  8.75089E+00  8.94180E+00  9.07195E+00  9.14084E+00  9.19521E+00  9.26244E+00  9.34816E+00  9.43599E+00
   9.54233E+00  9.71050E+00  9.97434E+00  1.03117E+01  1.06589E+01  1.09690E+01  1.12273E+01  1.14302E+01  1.15467E+01  1.15467E+01
   1.14560E+01  1.13100E+01  1.11158E+01  1.08673E+01  1.05622E+01  1.02224E+01  9.86122E+00  9.47558E+00  9.06718E+00  8.64052E+00
   8.20115E+00  7.75516E+00  7.30876E+00  6.86819E+00  6.43940E+00  6.02804E+00  5.63927E+00  5.27784E+00  4.94804E+00  4.65382E+00
   4.39867E+00  4.18580E+00  4.01812E+00  3.89845E+00  3.82944E+00  3.81373E+00  3.85379E+00  3.95199E+00  4.11044E+00  4.33092E+00
   4.61466E+00  4.96209E+00  5.37252E+00  5.84391E+00  6.37253E+00  6.95285E+00  7.57715E+00  8.23559E+00  8.91606E+00  9.60450E+00
   1.02851E+01  1.09409E+01  1.15543E+01  1.21078E+01  1.25845E+01  1.29696E+01  1.32503E+01  1.34173E+01  1.34645E+01  1.33899E+01
   1.31953E+01  1.28865E+01  1.24727E+01  1.19663E+01  1.13816E+01  1.07346E+01  1.00421E+01  9.32082E+00  8.58656E+00  7.85399E+00
   7.13589E+00  6.44301E+00  5.78383E+00  5.16472E+00  4.58986E+00  4.06158E+00  3.58046E+00  3.14581E+00  2.75581E+00  2.40797E+00
   2.09920E+00  1.82619E+00  1.58542E+00  1.37354E+00  1.18724E+00  1.02356E+00  8.79689E-01  7.53147E-01  6.41670E-01  5.43349E-01
   4.56472E-01  3.79623E-01  3.11501E-01  2.51037E-01  1.97256E-01  1.49403E-01  1.06777E-01  6.88275E-02  3.50028E-02  4.88370E-03
  -2.19439E-02 -4.57626E-02 -6.68787E-02 -8.55122E-02 -1.01935E-01 -1.16319E-01 -1.28868E-01 -1.39687E-01 -1.48941E-01 -1.56727E-01
  -1.63207E-01 -1.68452E-01 -1.72573E-01 -1.75605E-01 -1.77654E-01 -1.78770E-01 -1.79063E-01 -1.78552E-01 -1.77307E-01 -1.75333E-01
  -1.72712E-01 -1.69465E-01 -1.65670E-01 -1.61316E-01 -1.56454E-01 -1.51076E-01 -1.45258E-01 -1.39003E-01 -1.32370E-01 -1.25334E-01
  -1.17941E-01 -1.10178E-01 -1.02113E-01 -9.37362E-02 -8.50930E-02 -7.61488E-02 -6.69490E-02 -5.74806E-02 -4.78064E-02 -3.79047E-02
  -2.78135E-02 -1.74963E-02 -7.00093E-03  3.68725E-03  1.45126E-02  2.55065E-02  3.66357E-02  4.79373E-02
 NY background values follow
    -1.050E+01   -1.048E+01   -1.046E+01   -1.044E+01   -1.042E+01   -1.040E+01   -1.038E+01   -1.036E+01   -1.034E+01   -1.032E+01
    -1.030E+01   -1.028E+01   -1.026E+01   -1.024E+01   -1.022E+01   -1.020E+01   -1.018E+01   -1.017E+01   -1.015E+01   -1.013E+01
    -1.011E+01   -1.009E+01   -1.007E+01   -1.005E+01   -1.003E+01   -1.001E+01   -9.989E+00   -9.970E+00   -9.950E+00   -9.931E+00
    -9.911E+00   -9.892E+00   -9.872E+00   -9.852E+00   -9.833E+00   -9.813E+00   -9.794E+00   -9.774E+00   -9.755E+00   -9.735E+00
    -9.715E+00   -9.696E+00   -9.676E+00   -9.657E+00   -9.637E+00   -9.618E+00   -9.598E+00   -9.578E+00   -9.559E+00   -9.539E+00
    -9.520E+00   -9.500E+00   -9.481E+00   -9.461E+00   -9.441E+00   -9.422E+00   -9.402E+00   -9.383E+00   -9.363E+00   -9.343E+00
    -9.324E+00   -9.304E+00   -9.285E+00   -9.265E+00   -9.246E+00   -9.226E+00   -9.206E+00   -9.187E+00   -9.167E+00   -9.148E+00
    -9.128E+00   -9.108E+00   -9.089E+00   -9.069E+00   -9.050E+00   -9.030E+00   -9.010E+00   -8.991E+00   -8.971E+00   -8.952E+00
    -8.932E+00   -8.912E+00   -8.893E+00   -8.873E+00   -8.854E+00   -8.834E+00   -8.814E+00   -8.795E+00   -8.775E+00   -8.756E+00
    -8.736E+00   -8.716E+00   -8.697E+00   -8.677E+00   -8.658E+00   -8.638E+00   -8.618E+00   -8.599E+00   -8.579E+00   -8.559E+00
    -8.540E+00   -8.520E+00   -8.501E+00   -8.481E+00   -8.461E+00   -8.442E+00   -8.422E+00   -8.403E+00   -8.383E+00   -8.363E+00
    -8.344E+00   -8.324E+00   -8.304E+00   -8.285E+00   -8.265E+00   -8.245E+00   -8.226E+00   -8.206E+00   -8.187E+00   -8.167E+00
    -8.147E+00   -8.128E+00   -8.108E+00   -8.088E+00   -8.069E+00   -8.049E+00   -8.029E+00   -8.010E+00   -7.990E+00   -7.971E+00
    -7.951E+00   -7.931E+00   -7.912E+00   -7.892E+00   -7.872E+00   -7.853E+00   -7.833E+00   -7.813E+00   -7.794E+00   -7.774E+00
    -7.754E+00   -7.735E+00   -7.715E+00   -7.695E+00   -7.676E+00   -7.656E+00   -7.637E+00   -7.617E+00   -7.597E+00   -7.578E+00
    -7.558E+00   -7.538E+00   -7.519E+00   -7.499E+00   -7.479E+00   -7.460E+00   -7.440E+00   -7.420E+00   -7.401E+00   -7.381E+00
    -7.361E+00   -7.342E+00   -7.322E+00   -7.302E+00   -7.283E+00   -7.263E+00   -7.243E+00   -7.224E+00   -7.204E+00   -7.184E+00
    -7.165E+00   -7.145E+00   -7.125E+00   -7.105E+00   -7.086E+00   -7.066E+00   -7.046E+00   -7.027E+00   -7.007E+00   -6.987E+00
    -6.968E+00   -6.948E+00   -6.928E+00   -6.909E+00   -6.889E+00   -6.869E+00   -6.850E+00   -6.830E+00   -6.810E+00   -6.790E+00
    -6.771E+00   -6.751E+00   -6.731E+00   -6.712E+00   -6.692E+00   -6.672E+00   -6.653E+00   -6.633E+00   -6.613E+00   -6.594E+00
    -6.574E+00   -6.554E+00   -6.534E+00   -6.515E+00   -6.495E+00   -6.475E+00   -6.456E+00   -6.436E+00   -6.416E+00   -6.396E+00
    -6.377E+00   -6.357E+00   -6.337E+00   -6.318E+00   -6.298E+00   -6.278E+00   -6.258E+00   -6.239E+00   -6.219E+00   -6.199E+00
    -6.180E+00   -6.160E+00   -6.140E+00   -6.120E+00   -6.101E+00   -6.081E+00   -6.061E+00   -6.042E+00   -6.022E+00   -6.002E+00
    -5.982E+00   -5.963E+00   -5.943E+00   -5.923E+00   -5.904E+00   -5.884E+00   -5.864E+00   -5.844E+00   -5.825E+00   -5.805E+00
    -5.785E+00   -5.766E+00   -5.746E+00   -5.726E+00   -5.706E+00   -5.687E+00   -5.667E+00   -5.647E+00   -5.627E+00   -5.608E+00
    -5.588E+00   -5.568E+00   -5.549E+00   -5.529E+00   -5.509E+00   -5.489E+00   -5.470E+00   -5.450E+00   -5.430E+00   -5.410E+00
    -5.391E+00   -5.371E+00   -5.351E+00   -5.332E+00   -5.312E+00   -5.292E+00   -5.272E+00   -5.253E+00   -5.233E+00   -5.213E+00
    -5.193E+00   -5.174E+00   -5.154E+00   -5.134E+00   -5.115E+00   -5.095E+00   -5.075E+00   -5.055E+00   -5.036E+00   -5.016E+00
    -4.996E+00   -4.976E+00   -4.957E+00   -4.937E+00   -4.917E+00   -4.898E+00   -4.878E+00   -4.858E+00   -4.838E+00   -4.819E+00
    -4.799E+00   -4.779E+00   -4.759E+00   -4.740E+00   -4.720E+00   -4.700E+00   -4.680E+00   -4.661E+00   -4.641E+00   -4.621E+00
    -4.602E+00   -4.582E+00   -4.562E+00   -4.542E+00   -4.523E+00   -4.503E+00   -4.483E+00   -4.463E+00   -4.444E+00   -4.424E+00
    -4.404E+00   -4.384E+00   -4.365E+00   -4.345E+00   -4.325E+00   -4.305E+00   -4.286E+00   -4.266E+00   -4.246E+00   -4.227E+00
    -4.207E+00   -4.187E+00   -4.167E+00   -4.148E+00   -4.128E+00   -4.108E+00   -4.088E+00   -4.069E+00   -4.049E+00   -4.029E+00
    -4.009E+00   -3.990E+00   -3.970E+00   -3.950E+00   -3.931E+00   -3.911E+00   -3.891E+00   -3.871E+00   -3.852E+00   -3.832E+00
    -3.812E+00   -3.792E+00   -3.773E+00   -3.753E+00   -3.733E+00   -3.713E+00   -3.694E+00   -3.674E+00   -3.654E+00   -3.634E+00
    -3.615E+00   -3.595E+00   -3.575E+00   -3.556E+00   -3.536E+00   -3.516E+00   -3.496E+00   -3.477E+00   -3.457E+00   -3.437E+00
    -3.417E+00   -3.398E+00   -3.378E+00   -3.358E+00   -3.338E+00   -3.319E+00   -3.299E+00   -3.279E+00   -3.260E+00   -3.240E+00
    -3.220E+00   -3.200E+00   -3.181E+00   -3.161E+00   -3.141E+00   -3.121E+00   -3.102E+00   -3.082E+00   -3.062E+00   -3.042E+00
    -3.023E+00   -3.003E+00   -2.983E+00   -2.964E+00   -2.944E+00   -2.924E+00   -2.904E+00   -2.885E+00   -2.865E+00   -2.845E+00
    -2.825E+00   -2.806E+00   -2.786E+00   -2.766E+00   -2.746E+00   -2.727E+00   -2.707E+00   -2.687E+00   -2.668E+00   -2.648E+00
    -2.628E+00   -2.608E+00   -2.589E+00   -2.569E+00   -2.549E+00   -2.529E+00   -2.510E+00   -2.490E+00   -2.470E+00   -2.451E+00
    -2.431E+00   -2.411E+00   -2.391E+00   -2.372E+00   -2.352E+00   -2.332E+00   -2.312E+00   -2.293E+00   -2.273E+00   -2.253E+00
    -2.234E+00   -2.214E+00   -2.194E+00   -2.174E+00   -2.155E+00   -2.135E+00   -2.115E+00   -2.096E+00   -2.076E+00   -2.056E+00
    -2.036E+00   -2.017E+00   -1.997E+00   -1.977E+00   -1.957E+00   -1.938E+00   -1.918E+00   -1.898E+00   -1.879E+00   -1.859E+00
    -1.839E+00   -1.819E+00   -1.800E+00   -1.780E+00   -1.760E+00   -1.741E+00   -1.721E+00   -1.701E+00   -1.681E+00   -1.662E+00
    -1.642E+00   -1.622E+00   -1.603E+00   -1.583E+00   -1.563E+00   -1.543E+00   -1.524E+00   -1.504E+00   -1.484E+00   -1.465E+00
    -1.445E+00   -1.425E+00   -1.405E+00   -1.386E+00   -1.366E+00   -1.346E+00   -1.327E+00   -1.307E+00   -1.287E+00   -1.268E+00
    -1.248E+00   -1.228E+00   -1.208E+00   -1.189E+00   -1.169E+00   -1.149E+00   -1.130E+00   -1.110E+00   -1.090E+00   -1.070E+00
    -1.051E+00   -1.031E+00   -1.011E+00   -9.916E-01   -9.719E-01   -9.522E-01   -9.325E-01   -9.128E-01   -8.931E-01   -8.734E-01
    -8.537E-01   -8.340E-01   -8.143E-01   -7.947E-01   -7.750E-01   -7.553E-01   -7.356E-01   -7.159E-01
 Ala      Conc. = 1.89E+02
