 LCModel (Version 6.3-1L) Copyright: S.W. Provencher.          Ref.: Magn. Reson. Med. 30:672-679 (1993).                
 Slice#1 Row#7 Col#9  PD_24_press_1_raw_act
 36 lines in following concentration table = NCONC+1
    Conc.  %SD /Cr+PCr  Metabolite                                         
    0.000 999%   0.000 Ala                                                 
   65.885 117%   0.259 Asp                                                 
  253.977  20%   1.000 Cr                                                  
    0.000 999%   0.000 PCr                                                 
   57.689  81%   0.227 GABA                                                
   52.945  88%   0.208 Glc                                                 
   78.301 272%   0.308 Gln                                                 
  381.221  62%   1.501 Glu                                                 
  132.845 114%   0.523 GPC                                                 
   69.835 218%   0.275 PCh                                                 
  138.681  51%   0.546 GSH                                                 
  816.023  29%   3.213 Ins                                                 
   21.504 539% 8.5E-02 Lac                                                 
  681.505  13%   2.683 NAA                                                 
   60.757 166%   0.239 NAAG                                                
   16.397  85% 6.5E-02 Scyllo                                              
   86.828  87%   0.342 Tau                                                 
   50.664 102%   0.199 -CrCH2                                              
  202.680  10%   0.798 GPC+PCh                                             
  742.262  10%   2.923 NAA+NAAG                                            
  253.977  20%   1.000 Cr+PCr                                              
  459.523  70%   1.809 Glu+Gln                                             
 3.40E+03  12%  13.395 Lip13a                                              
    0.000 999%   0.000 Lip13b                                              
  851.857  25%   3.354 Lip09                                               
  125.527 173%   0.494 MM09                                                
  398.711  47%   1.570 Lip20                                               
  307.971  96%   1.213 MM20                                                
   47.114 232%   0.186 MM12                                                
    0.000 999%   0.000 MM14                                                
    0.000 999%   0.000 MM17                                                
 3.40E+03  12%  13.395 Lip13a+Lip13b                                       
 3.45E+03  11%  13.581 MM14+Lip13a+Lip13b+MM12                             
  977.384  18%   3.848 MM09+Lip09                                          
  706.682  39%   2.782 MM20+Lip20                                          
   6 lines in following misc. output table
  FWHM = 0.046 ppm    S/N =   3                                            
  Data shift = 0.000 ppm                                                   
  Ph: -41 deg       2.8 deg/ppm                                            
  alphaB,S = 8.5E+01,   2.6E+01                                            
   14 spline knots.   Ns = 6(1)                                            
   2 inflections.     1 extrema                                            
  498 points on ppm-axis = NY
      4.000000     3.992357     3.984714     3.977070     3.969427     3.961784     3.954141     3.946497     3.938854     3.931211
      3.923568     3.915925     3.908281     3.900638     3.892995     3.885352     3.877708     3.870065     3.862422     3.854779
      3.847136     3.839492     3.831849     3.824206     3.816563     3.808919     3.801276     3.793633     3.785990     3.778347
      3.770703     3.763060     3.755417     3.747774     3.740130     3.732487     3.724844     3.717201     3.709558     3.701914
      3.694271     3.686628     3.678985     3.671341     3.663698     3.656055     3.648412     3.640769     3.633125     3.625482
      3.617839     3.610196     3.602552     3.594909     3.587266     3.579623     3.571980     3.564336     3.556693     3.549050
      3.541407     3.533763     3.526120     3.518477     3.510834     3.503191     3.495547     3.487904     3.480261     3.472618
      3.464974     3.457331     3.449688     3.442045     3.434402     3.426758     3.419115     3.411472     3.403829     3.396185
      3.388542     3.380899     3.373256     3.365613     3.357969     3.350326     3.342683     3.335040     3.327396     3.319753
      3.312110     3.304467     3.296824     3.289180     3.281537     3.273894     3.266251     3.258607     3.250964     3.243321
      3.235678     3.228034     3.220391     3.212748     3.205105     3.197462     3.189818     3.182175     3.174532     3.166889
      3.159245     3.151602     3.143959     3.136316     3.128673     3.121029     3.113386     3.105743     3.098100     3.090456
      3.082813     3.075170     3.067527     3.059884     3.052240     3.044597     3.036954     3.029311     3.021667     3.014024
      3.006381     2.998738     2.991095     2.983451     2.975808     2.968165     2.960522     2.952878     2.945235     2.937592
      2.929949     2.922306     2.914662     2.907019     2.899376     2.891733     2.884089     2.876446     2.868803     2.861160
      2.853517     2.845873     2.838230     2.830587     2.822944     2.815300     2.807657     2.800014     2.792371     2.784728
      2.777084     2.769441     2.761798     2.754155     2.746511     2.738868     2.731225     2.723582     2.715939     2.708295
      2.700652     2.693009     2.685366     2.677722     2.670079     2.662436     2.654793     2.647150     2.639506     2.631863
      2.624220     2.616577     2.608933     2.601290     2.593647     2.586004     2.578361     2.570717     2.563074     2.555431
      2.547788     2.540144     2.532501     2.524858     2.517215     2.509572     2.501928     2.494285     2.486642     2.478999
      2.471355     2.463712     2.456069     2.448426     2.440783     2.433139     2.425496     2.417853     2.410210     2.402566
      2.394923     2.387280     2.379637     2.371994     2.364350     2.356707     2.349064     2.341421     2.333777     2.326134
      2.318491     2.310848     2.303205     2.295561     2.287918     2.280275     2.272632     2.264988     2.257345     2.249702
      2.242059     2.234416     2.226772     2.219129     2.211486     2.203843     2.196199     2.188556     2.180913     2.173270
      2.165627     2.157983     2.150340     2.142697     2.135054     2.127410     2.119767     2.112124     2.104481     2.096838
      2.089194     2.081551     2.073908     2.066265     2.058621     2.050978     2.043335     2.035692     2.028049     2.020405
      2.012762     2.005119     1.997476     1.989833     1.982190     1.974546     1.966903     1.959260     1.951617     1.943974
      1.936331     1.928688     1.921045     1.913402     1.905759     1.898115     1.890472     1.882829     1.875186     1.867543
      1.859900     1.852257     1.844614     1.836971     1.829327     1.821684     1.814041     1.806398     1.798755     1.791112
      1.783469     1.775826     1.768183     1.760540     1.752896     1.745253     1.737610     1.729967     1.722324     1.714681
      1.707038     1.699395     1.691752     1.684108     1.676465     1.668822     1.661179     1.653536     1.645893     1.638250
      1.630607     1.622964     1.615321     1.607677     1.600034     1.592391     1.584748     1.577105     1.569462     1.561819
      1.554176     1.546533     1.538890     1.531246     1.523603     1.515960     1.508317     1.500674     1.493031     1.485388
      1.477745     1.470102     1.462458     1.454815     1.447172     1.439529     1.431886     1.424243     1.416600     1.408957
      1.401314     1.393671     1.386027     1.378384     1.370741     1.363098     1.355455     1.347812     1.340169     1.332526
      1.324883     1.317240     1.309596     1.301953     1.294310     1.286667     1.279024     1.271381     1.263738     1.256095
      1.248452     1.240808     1.233165     1.225522     1.217879     1.210236     1.202593     1.194950     1.187307     1.179664
      1.172021     1.164377     1.156734     1.149091     1.141448     1.133805     1.126162     1.118519     1.110876     1.103233
      1.095590     1.087946     1.080303     1.072660     1.065017     1.057374     1.049731     1.042088     1.034445     1.026802
      1.019158     1.011515     1.003872     0.996229     0.988586     0.980943     0.973300     0.965657     0.958014     0.950371
      0.942727     0.935084     0.927441     0.919798     0.912155     0.904512     0.896869     0.889226     0.881583     0.873940
      0.866296     0.858653     0.851010     0.843367     0.835724     0.828081     0.820438     0.812795     0.805152     0.797508
      0.789865     0.782222     0.774579     0.766936     0.759293     0.751650     0.744007     0.736364     0.728721     0.721077
      0.713434     0.705791     0.698148     0.690505     0.682862     0.675219     0.667576     0.659933     0.652290     0.644646
      0.637003     0.629360     0.621717     0.614074     0.606431     0.598788     0.591145     0.583502     0.575858     0.568215
      0.560572     0.552929     0.545286     0.537643     0.530000     0.522357     0.514714     0.507071     0.499427     0.491784
      0.484141     0.476498     0.468855     0.461212     0.453569     0.445925     0.438282     0.430639     0.422996     0.415353
      0.407710     0.400067     0.392424     0.384780     0.377137     0.369494     0.361851     0.354208     0.346565     0.338922
      0.331278     0.323635     0.315992     0.308349     0.300706     0.293063     0.285420     0.277777     0.270133     0.262490
      0.254847     0.247204     0.239561     0.231918     0.224275     0.216631     0.208988     0.201345
 NY phased data points follow
  -8.80160E+00 -2.86259E+00 -1.53358E+01  6.72013E+00 -1.23187E+01  1.22958E+00 -7.26007E+00  7.23322E-01 -4.80550E+00  4.40733E+00
  -4.89451E+00  7.57163E+00 -5.67347E+00  7.62811E+00 -2.83203E+00  1.86529E+00 -5.63960E+00  9.80733E-01 -5.66052E+00  2.41486E+00
  -7.59811E-01 -3.05677E-01 -7.44177E+00  3.20397E+00  1.86798E+00  2.83795E-01 -6.42758E-02  6.99328E+00 -4.62969E+00  6.65177E+00
  -1.96947E+00 -5.09300E-01 -4.95270E+00  3.05497E+00 -4.56695E+00  4.30037E+00 -2.37936E+00  4.38930E+00 -4.89305E+00  2.46973E+00
  -1.24323E+00  1.79147E-01 -2.29747E+00  4.95833E+00 -4.33279E+00  2.45991E+00  3.52699E+00  5.03010E+00  3.53065E+00 -1.28010E-01
  -4.40603E+00  1.03401E+01 -5.03970E+00  2.47057E+00 -2.35163E+00  2.56302E+00 -8.80306E-01  4.33761E-01 -5.94580E-01  2.78134E+00
  -1.81070E+00 -2.06142E-01  4.79352E+00  9.99942E-01 -7.56136E+00 -3.94557E-01 -4.52729E+00  2.13131E+00 -2.97476E+00 -4.93544E-02
  -2.51245E+00  9.29313E+00 -6.07143E+00 -1.52198E+00 -5.62270E-01 -3.49287E-02 -3.15451E+00  2.53011E+00 -5.14465E+00 -2.21056E+00
  -3.89821E+00  1.04672E+00 -3.13952E+00 -4.43808E-01 -2.38997E+00 -5.04890E+00 -4.84004E+00 -3.64734E+00 -3.21478E+00  1.33544E-01
  -3.70474E+00 -4.84083E+00 -4.36707E+00  8.44847E-02 -2.50851E-01  4.68018E-01 -4.42565E-01  7.07843E+00 -5.03929E+00  9.23720E+00
   5.55352E+00  1.23527E+01  1.64612E+01  1.78155E+01  1.36604E+01  1.59986E+01  6.96869E+00  7.54226E+00  2.34430E+00  7.08348E-01
  -3.67359E+00 -3.72185E+00 -5.26009E-01 -4.47522E+00 -7.71536E+00 -7.45316E+00 -5.46222E+00 -1.90318E+00 -4.00055E+00 -7.51136E+00
  -7.25625E+00 -6.00597E+00 -6.36769E+00 -3.75673E+00 -3.55273E+00  6.88408E+00 -4.73584E+00  7.41377E+00  3.07245E-02  1.20552E+01
   8.71617E+00  1.24920E+01  5.00906E+00  3.47922E+00 -2.58947E+00  5.83882E+00 -9.41011E+00 -3.25731E+00 -6.04678E+00 -2.53292E+00
   3.75112E-01  2.54562E+00 -6.17214E+00 -3.22382E+00 -3.86587E+00 -2.49569E+00 -4.27720E+00  7.48308E-01 -3.02991E+00 -3.64183E+00
  -9.85910E+00 -6.11448E+00 -4.94160E+00 -1.67915E+00 -7.14844E+00 -3.21145E+00 -7.63609E+00 -1.44047E+00  7.17478E-01 -4.04814E+00
  -4.14979E+00  8.49844E-01 -9.03069E+00  1.82254E+00 -2.62093E+00 -3.64884E+00 -4.91813E+00 -1.02451E+01 -9.21583E+00 -5.66366E+00
  -9.98676E+00  5.43144E-01 -6.42467E+00 -6.48402E+00 -7.67231E+00 -1.13402E+01 -7.03249E+00 -1.16885E+01 -3.52162E+00 -5.66850E+00
  -9.31449E+00 -4.25530E+00 -4.72096E+00 -2.64158E+00 -9.18205E+00 -1.59338E+00 -1.55767E+00 -2.93278E+00 -3.98541E+00 -2.56679E+00
  -4.23546E+00 -1.73607E+00 -2.37319E+00 -1.68545E+00 -3.02784E+00 -1.58281E+00 -3.57121E+00 -1.94339E+00 -4.68710E+00 -5.33926E+00
  -1.56461E+01 -1.51957E+00 -8.17952E+00 -1.12158E-01  1.17205E+00 -2.47067E+00 -3.57267E+00 -8.94603E+00 -5.12608E+00 -8.96041E+00
  -1.15675E+01 -4.65906E+00 -2.55705E+00 -2.37475E+00 -3.59527E+00  1.35707E+00 -7.01300E+00  2.02644E+00 -5.47090E+00 -4.38046E+00
  -8.86105E+00  1.21632E+00 -5.21622E+00 -3.70486E+00 -3.21178E+00 -3.87349E+00 -9.23006E+00  1.31906E+00 -4.15661E+00  1.51570E+00
  -2.41818E+00 -9.34757E-01 -7.10007E+00  6.09792E-01  7.15221E+00 -4.66369E-01 -8.04043E+00 -6.63625E-01 -1.14583E+00  1.74867E+00
  -1.05002E+00 -2.26888E+00 -6.36227E+00 -2.92843E+00 -8.63497E-01  2.61585E-01  3.23844E-01  7.40149E-02  2.80029E+00  3.13800E+00
  -8.54183E-01  1.91293E+00 -2.76747E+00  5.71467E+00  1.99917E+00  1.83110E+00  3.07078E+00  1.02971E+01  2.08087E+01  2.95917E+01
   2.51117E+01  1.81315E+01  1.80440E+01  1.44265E+01  3.66380E+00  8.37998E+00  5.51126E+00 -2.07759E-01 -3.00619E+00 -2.31738E+00
   1.89527E+00 -1.38939E+00 -1.24759E+00  4.08123E+00 -2.19118E+00  8.94379E-01  8.49112E-01 -1.84990E+00 -2.33183E+00 -1.91151E+00
  -3.62094E+00 -2.11929E+00 -6.24518E+00 -5.31161E+00 -3.58757E+00 -1.92870E+00 -2.68110E+00 -2.66539E+00 -8.40353E+00 -5.56527E-01
  -7.47076E+00 -2.10067E-01 -2.87368E+00  1.73643E-02 -4.28280E+00 -7.04518E-01 -4.33695E+00 -4.05393E-01  1.62321E+00 -1.77260E+00
  -4.56908E+00 -1.10177E+00 -2.43717E+00  1.81376E+00  2.79786E+00 -1.14031E+00 -1.98048E+00  5.02686E-01 -7.20851E+00 -3.97530E+00
  -6.89697E+00 -5.95245E+00 -5.34439E+00 -2.87209E+00 -1.13146E+01 -1.98414E+00 -8.59826E+00 -3.18078E+00 -6.32735E+00 -4.50747E+00
  -6.90570E+00 -7.31105E+00 -6.54854E+00 -7.58286E+00 -7.72062E+00 -1.97091E+00 -5.61208E+00 -9.36076E+00 -8.93845E+00 -4.44272E+00
  -5.25430E+00  2.47639E+00  9.17041E-02  6.20223E+00 -4.32014E-01  2.97687E+00  6.89939E+00  5.82358E+00  1.02193E+00  6.38875E+00
   3.51766E+00  4.79325E+00  6.87934E+00  8.82350E+00  1.17012E+01  1.84228E+01  1.09798E+01  1.30182E+01  2.54301E+00  8.00040E+00
   1.46875E+01  1.64321E+01  1.18549E+01  1.20454E+01  9.00795E+00  1.74762E+01  7.87468E+00  8.00253E+00  6.33495E+00  6.89196E+00
   9.34502E-01  1.14089E+01  1.28641E+01  8.64090E+00  1.07601E+01  1.27021E+01  1.13814E+01  8.50374E+00  6.41289E+00  9.83114E+00
   3.92918E+00  5.72791E+00  5.03361E+00  5.96483E+00  4.04149E+00  6.93345E+00 -7.79008E-01  1.19496E+00  5.93337E-01 -4.05903E-01
  -3.34012E+00  1.70534E+00  5.73572E+00  5.15993E-01 -4.97807E+00 -2.38807E+00 -4.72029E+00 -1.43041E-01  1.61456E+00 -2.07247E+00
   1.37766E+00  5.12418E+00  1.97503E+00 -1.40135E+00  5.00689E+00  4.33626E+00  5.97726E+00  7.01261E+00  7.46382E+00  7.06767E+00
   2.78649E+00  6.20851E+00  9.31584E+00  7.30122E+00  4.81776E+00  2.96159E-01  7.07128E+00  2.47183E+00 -1.50178E+00  6.61050E+00
   2.82653E+00 -4.37276E-01 -3.91132E+00  3.47439E+00 -1.75004E+00 -3.34901E+00  9.84784E-01  3.32749E+00  2.03238E+00  6.97361E-01
  -1.65977E+00 -5.38315E+00 -4.93392E+00 -7.11432E+00 -1.74050E+00  1.91464E+00 -1.72836E+00 -2.69792E+00 -7.62377E+00 -4.76174E+00
  -2.63683E+00 -4.05161E-01 -2.15505E+00 -2.54258E+00 -6.05262E-01 -3.01152E+00 -3.90765E+00 -3.77068E+00 -4.46515E+00 -8.93971E+00
  -6.99612E+00 -4.18209E-01 -7.97196E+00 -5.14783E+00 -4.59457E+00 -3.84141E+00 -5.82142E+00 -2.18981E+00 -1.49943E+00 -4.32823E+00
  -5.70168E+00 -6.48473E-01 -2.77647E+00 -1.60908E+00 -2.30445E-01 -1.18016E+00 -6.63989E+00  5.89579E-01 -3.60136E+00  1.93016E-01
  -5.27575E+00 -3.70236E+00 -4.68505E-01 -3.18420E+00 -4.02260E+00 -2.31547E+00 -8.85638E+00 -5.36578E+00  6.50722E+00 -5.27371E+00
  -4.41675E+00 -1.67666E+00 -5.22411E+00 -8.52170E-01 -7.77414E+00 -3.28102E+00 -7.42730E+00 -9.96669E+00 -4.80330E+00 -4.96061E+00
  -2.82010E-02  2.32987E-01 -3.05541E+00 -1.55528E+00 -1.61884E+00 -3.99095E+00 -7.86977E+00 -1.85073E+00 -5.54286E+00 -3.43750E+00
   1.62178E+00 -6.22131E-01 -5.79957E+00 -1.42473E+00 -3.52313E+00 -6.57196E+00 -4.94975E+00 -2.67071E+00
 NY points of the fit to the data follow
  -1.67276E+00 -2.00592E+00 -2.22346E+00 -2.36588E+00 -2.43578E+00 -2.53132E+00 -2.60138E+00 -2.47669E+00 -1.75000E+00 -2.56868E-01
   1.46820E+00  2.66670E+00  2.98072E+00  2.70490E+00  2.16121E+00  1.39723E+00  5.27718E-01 -2.96238E-01 -1.06404E+00 -1.68930E+00
  -2.00413E+00 -2.11956E+00 -2.20229E+00 -2.22754E+00 -2.16198E+00 -2.00592E+00 -1.53235E+00 -6.69073E-01  3.26645E-01  1.07532E+00
   1.44244E+00  1.58559E+00  1.47302E+00  1.06393E+00  5.67395E-01  6.44181E-02 -5.51358E-01 -1.21516E+00 -1.74346E+00 -2.09920E+00
  -2.28319E+00 -2.24782E+00 -1.88754E+00 -1.03013E+00  4.43516E-01  2.24050E+00  3.62809E+00  4.00416E+00  3.41113E+00  2.28690E+00
   9.97319E-01 -2.32352E-01 -1.24756E+00 -1.98986E+00 -2.45689E+00 -2.53222E+00 -2.13160E+00 -1.40617E+00 -6.37100E-01 -1.36550E-01
  -3.75400E-02 -2.92102E-01 -7.88619E-01 -1.32134E+00 -1.72875E+00 -1.95636E+00 -2.01738E+00 -1.93974E+00 -1.71358E+00 -1.36182E+00
  -9.68912E-01 -6.65987E-01 -4.99961E-01 -4.34267E-01 -4.73701E-01 -6.56325E-01 -9.37760E-01 -1.22664E+00 -1.50186E+00 -1.72061E+00
  -1.82051E+00 -1.85831E+00 -1.88586E+00 -1.95211E+00 -2.17231E+00 -2.64175E+00 -3.26281E+00 -3.79343E+00 -4.08306E+00 -4.14097E+00
  -4.00897E+00 -3.75892E+00 -3.47220E+00 -3.18227E+00 -2.92207E+00 -2.73574E+00 -2.52322E+00 -1.84194E+00 -2.98180E-01  2.98720E+00
   8.13274E+00  1.34606E+01  1.66917E+01  1.68558E+01  1.50697E+01  1.24318E+01  9.23522E+00  6.03102E+00  3.26787E+00  7.78964E-01
  -1.23390E+00 -2.24268E+00 -2.58002E+00 -2.73403E+00 -2.83786E+00 -2.92686E+00 -3.01678E+00 -3.11893E+00 -3.21545E+00 -3.28141E+00
  -3.29517E+00 -3.18992E+00 -2.77381E+00 -1.92941E+00 -2.86912E-01  2.14962E+00  4.61074E+00  6.10558E+00  6.23850E+00  5.55953E+00
   4.53785E+00  3.18398E+00  1.65904E+00  1.63805E-01 -1.31048E+00 -2.51604E+00 -3.11298E+00 -3.23441E+00 -3.09989E+00 -2.86899E+00
  -2.64860E+00 -2.46533E+00 -2.33231E+00 -2.26124E+00 -2.25133E+00 -2.30242E+00 -2.39831E+00 -2.50683E+00 -2.61520E+00 -2.71102E+00
  -2.78857E+00 -2.85987E+00 -2.92002E+00 -2.95135E+00 -2.94844E+00 -2.94091E+00 -2.96594E+00 -3.07308E+00 -3.26919E+00 -3.47704E+00
  -3.59508E+00 -3.55470E+00 -3.42677E+00 -3.32177E+00 -3.29808E+00 -3.36351E+00 -3.46658E+00 -3.57059E+00 -3.68181E+00 -3.80275E+00
  -3.93338E+00 -4.09565E+00 -4.29509E+00 -4.51130E+00 -4.67914E+00 -4.72951E+00 -4.66288E+00 -4.60502E+00 -4.64304E+00 -4.71744E+00
  -4.74535E+00 -4.71907E+00 -4.67621E+00 -4.67470E+00 -4.70206E+00 -4.62789E+00 -4.33703E+00 -3.84791E+00 -3.30173E+00 -2.85222E+00
  -2.56918E+00 -2.47146E+00 -2.52995E+00 -2.66375E+00 -2.87479E+00 -3.15100E+00 -3.38290E+00 -3.46643E+00 -3.38188E+00 -3.17477E+00
  -2.84641E+00 -2.43987E+00 -2.06734E+00 -1.85287E+00 -1.85791E+00 -2.06461E+00 -2.47835E+00 -3.03084E+00 -3.57876E+00 -4.00540E+00
  -4.18554E+00 -4.06033E+00 -3.54921E+00 -2.72704E+00 -1.94009E+00 -1.52445E+00 -1.56983E+00 -1.97022E+00 -2.65740E+00 -3.52952E+00
  -4.32534E+00 -4.72969E+00 -4.63165E+00 -4.15083E+00 -3.48582E+00 -2.83043E+00 -2.30318E+00 -2.01150E+00 -1.96712E+00 -2.04702E+00
  -2.13665E+00 -2.13516E+00 -2.00147E+00 -1.76335E+00 -1.46258E+00 -1.18907E+00 -1.07277E+00 -1.17853E+00 -1.43887E+00 -1.78827E+00
  -2.14856E+00 -2.38818E+00 -2.38041E+00 -2.13854E+00 -1.80549E+00 -1.47697E+00 -1.19885E+00 -1.03048E+00 -9.97164E-01 -9.91858E-01
  -8.75737E-01 -6.11636E-01 -1.02150E-01  7.40355E-01  2.12279E+00  4.12878E+00  7.46958E+00  1.29867E+01  1.92760E+01  2.35828E+01
   2.41754E+01  2.19720E+01  1.86400E+01  1.46272E+01  1.04687E+01  6.88879E+00  3.72622E+00  8.98067E-01 -8.23054E-01 -1.47167E+00
  -1.77832E+00 -1.93905E+00 -1.99684E+00 -2.00773E+00 -2.02088E+00 -2.05160E+00 -2.10885E+00 -2.19938E+00 -2.31616E+00 -2.44364E+00
  -2.56881E+00 -2.67661E+00 -2.75773E+00 -2.81175E+00 -2.84220E+00 -2.85928E+00 -2.87244E+00 -2.88268E+00 -2.89104E+00 -2.90050E+00
  -2.90978E+00 -2.91806E+00 -2.92861E+00 -2.94111E+00 -2.95143E+00 -2.96047E+00 -2.96961E+00 -2.97637E+00 -2.97888E+00 -2.97709E+00
  -2.97066E+00 -2.95977E+00 -2.94565E+00 -2.92941E+00 -2.91158E+00 -2.89187E+00 -2.87035E+00 -2.84725E+00 -2.82198E+00 -2.79409E+00
  -2.76343E+00 -2.72963E+00 -2.69234E+00 -2.65116E+00 -2.60563E+00 -2.55536E+00 -2.49989E+00 -2.43861E+00 -2.37075E+00 -2.29546E+00
  -2.21182E+00 -2.11880E+00 -2.01521E+00 -1.89959E+00 -1.77027E+00 -1.62539E+00 -1.46298E+00 -1.28081E+00 -1.07640E+00 -8.47009E-01
  -5.89718E-01 -3.01534E-01  2.04916E-02  3.79296E-01  7.77672E-01  1.21815E+00  1.70276E+00  2.23287E+00  2.80904E+00  3.43123E+00
   4.09934E+00  4.81419E+00  5.57015E+00  6.36129E+00  7.16729E+00  7.93979E+00  8.63854E+00  9.25787E+00  9.82345E+00  1.03534E+01
   1.08368E+01  1.12841E+01  1.17126E+01  1.21005E+01  1.24034E+01  1.25816E+01  1.26161E+01  1.25070E+01  1.22609E+01  1.18921E+01
   1.14224E+01  1.08633E+01  1.02288E+01  9.54773E+00  8.83856E+00  8.11017E+00  7.37377E+00  6.64111E+00  5.92311E+00  5.22946E+00
   4.56829E+00  3.94614E+00  3.36801E+00  2.83755E+00  2.35715E+00  1.92822E+00  1.55128E+00  1.22630E+00  9.52831E-01  7.30312E-01
   5.58095E-01  4.35578E-01  3.62188E-01  3.37456E-01  3.60943E-01  4.32183E-01  5.50445E-01  7.14579E-01  9.22758E-01  1.17235E+00
   1.45970E+00  1.77995E+00  2.12689E+00  2.49295E+00  2.86920E+00  3.24562E+00  3.61134E+00  3.95499E+00  4.26512E+00  4.53071E+00
   4.74175E+00  4.88978E+00  4.96830E+00  4.97315E+00  4.90267E+00  4.75785E+00  4.54221E+00  4.26171E+00  3.92424E+00  3.53921E+00
   3.11701E+00  2.66849E+00  2.20445E+00  1.73521E+00  1.27009E+00  8.17187E-01  3.83151E-01 -2.68469E-02 -4.09124E-01 -7.61368E-01
  -1.08257E+00 -1.37278E+00 -1.63293E+00 -1.86457E+00 -2.06967E+00 -2.25048E+00 -2.40942E+00 -2.54890E+00 -2.67126E+00 -2.77863E+00
  -2.87300E+00 -2.95611E+00 -3.02957E+00 -3.09475E+00 -3.15285E+00 -3.20484E+00 -3.25158E+00 -3.29376E+00 -3.33206E+00 -3.36697E+00
  -3.39895E+00 -3.42832E+00 -3.45539E+00 -3.48044E+00 -3.50372E+00 -3.52541E+00 -3.54569E+00 -3.56466E+00 -3.58245E+00 -3.59920E+00
  -3.61501E+00 -3.62997E+00 -3.64412E+00 -3.65752E+00 -3.67025E+00 -3.68236E+00 -3.69392E+00 -3.70495E+00 -3.71549E+00 -3.72554E+00
  -3.73518E+00 -3.74443E+00 -3.75333E+00 -3.76188E+00 -3.77009E+00 -3.77798E+00 -3.78560E+00 -3.79296E+00 -3.80008E+00 -3.80695E+00
  -3.81357E+00 -3.81997E+00 -3.82619E+00 -3.83223E+00 -3.83809E+00 -3.84374E+00 -3.84922E+00 -3.85455E+00 -3.85975E+00 -3.86481E+00
  -3.86972E+00 -3.87448E+00 -3.87911E+00 -3.88363E+00 -3.88805E+00 -3.89235E+00 -3.89653E+00 -3.90058E+00 -3.90454E+00 -3.90840E+00
  -3.91219E+00 -3.91587E+00 -3.91943E+00 -3.92288E+00 -3.92626E+00 -3.92955E+00 -3.93276E+00 -3.93585E+00
 NY background values follow
    -3.501E+00   -3.502E+00   -3.503E+00   -3.504E+00   -3.505E+00   -3.506E+00   -3.507E+00   -3.508E+00   -3.509E+00   -3.511E+00
    -3.512E+00   -3.513E+00   -3.514E+00   -3.515E+00   -3.516E+00   -3.517E+00   -3.518E+00   -3.519E+00   -3.520E+00   -3.521E+00
    -3.523E+00   -3.524E+00   -3.525E+00   -3.526E+00   -3.527E+00   -3.528E+00   -3.529E+00   -3.530E+00   -3.531E+00   -3.532E+00
    -3.533E+00   -3.535E+00   -3.536E+00   -3.537E+00   -3.538E+00   -3.539E+00   -3.540E+00   -3.541E+00   -3.542E+00   -3.543E+00
    -3.544E+00   -3.545E+00   -3.547E+00   -3.548E+00   -3.549E+00   -3.550E+00   -3.551E+00   -3.552E+00   -3.553E+00   -3.554E+00
    -3.555E+00   -3.556E+00   -3.557E+00   -3.559E+00   -3.560E+00   -3.561E+00   -3.562E+00   -3.563E+00   -3.564E+00   -3.565E+00
    -3.566E+00   -3.567E+00   -3.568E+00   -3.569E+00   -3.570E+00   -3.572E+00   -3.573E+00   -3.574E+00   -3.575E+00   -3.576E+00
    -3.577E+00   -3.578E+00   -3.579E+00   -3.580E+00   -3.581E+00   -3.582E+00   -3.583E+00   -3.585E+00   -3.586E+00   -3.587E+00
    -3.588E+00   -3.589E+00   -3.590E+00   -3.591E+00   -3.592E+00   -3.593E+00   -3.594E+00   -3.595E+00   -3.596E+00   -3.598E+00
    -3.599E+00   -3.600E+00   -3.601E+00   -3.602E+00   -3.603E+00   -3.604E+00   -3.605E+00   -3.606E+00   -3.607E+00   -3.608E+00
    -3.609E+00   -3.611E+00   -3.612E+00   -3.613E+00   -3.614E+00   -3.615E+00   -3.616E+00   -3.617E+00   -3.618E+00   -3.619E+00
    -3.620E+00   -3.621E+00   -3.622E+00   -3.624E+00   -3.625E+00   -3.626E+00   -3.627E+00   -3.628E+00   -3.629E+00   -3.630E+00
    -3.631E+00   -3.632E+00   -3.633E+00   -3.634E+00   -3.635E+00   -3.636E+00   -3.638E+00   -3.639E+00   -3.640E+00   -3.641E+00
    -3.642E+00   -3.643E+00   -3.644E+00   -3.645E+00   -3.646E+00   -3.647E+00   -3.648E+00   -3.649E+00   -3.650E+00   -3.652E+00
    -3.653E+00   -3.654E+00   -3.655E+00   -3.656E+00   -3.657E+00   -3.658E+00   -3.659E+00   -3.660E+00   -3.661E+00   -3.662E+00
    -3.663E+00   -3.664E+00   -3.665E+00   -3.667E+00   -3.668E+00   -3.669E+00   -3.670E+00   -3.671E+00   -3.672E+00   -3.673E+00
    -3.674E+00   -3.675E+00   -3.676E+00   -3.677E+00   -3.678E+00   -3.679E+00   -3.680E+00   -3.682E+00   -3.683E+00   -3.684E+00
    -3.685E+00   -3.686E+00   -3.687E+00   -3.688E+00   -3.689E+00   -3.690E+00   -3.691E+00   -3.692E+00   -3.693E+00   -3.694E+00
    -3.695E+00   -3.697E+00   -3.698E+00   -3.699E+00   -3.700E+00   -3.701E+00   -3.702E+00   -3.703E+00   -3.704E+00   -3.705E+00
    -3.706E+00   -3.707E+00   -3.708E+00   -3.709E+00   -3.710E+00   -3.712E+00   -3.713E+00   -3.714E+00   -3.715E+00   -3.716E+00
    -3.717E+00   -3.718E+00   -3.719E+00   -3.720E+00   -3.721E+00   -3.722E+00   -3.723E+00   -3.724E+00   -3.725E+00   -3.726E+00
    -3.727E+00   -3.729E+00   -3.730E+00   -3.731E+00   -3.732E+00   -3.733E+00   -3.734E+00   -3.735E+00   -3.736E+00   -3.737E+00
    -3.738E+00   -3.739E+00   -3.740E+00   -3.741E+00   -3.742E+00   -3.743E+00   -3.745E+00   -3.746E+00   -3.747E+00   -3.748E+00
    -3.749E+00   -3.750E+00   -3.751E+00   -3.752E+00   -3.753E+00   -3.754E+00   -3.755E+00   -3.756E+00   -3.757E+00   -3.758E+00
    -3.759E+00   -3.760E+00   -3.761E+00   -3.763E+00   -3.764E+00   -3.765E+00   -3.766E+00   -3.767E+00   -3.768E+00   -3.769E+00
    -3.770E+00   -3.771E+00   -3.772E+00   -3.773E+00   -3.774E+00   -3.775E+00   -3.776E+00   -3.777E+00   -3.778E+00   -3.779E+00
    -3.781E+00   -3.782E+00   -3.783E+00   -3.784E+00   -3.785E+00   -3.786E+00   -3.787E+00   -3.788E+00   -3.789E+00   -3.790E+00
    -3.791E+00   -3.792E+00   -3.793E+00   -3.794E+00   -3.795E+00   -3.796E+00   -3.797E+00   -3.798E+00   -3.800E+00   -3.801E+00
    -3.802E+00   -3.803E+00   -3.804E+00   -3.805E+00   -3.806E+00   -3.807E+00   -3.808E+00   -3.809E+00   -3.810E+00   -3.811E+00
    -3.812E+00   -3.813E+00   -3.814E+00   -3.815E+00   -3.816E+00   -3.817E+00   -3.818E+00   -3.820E+00   -3.821E+00   -3.822E+00
    -3.823E+00   -3.824E+00   -3.825E+00   -3.826E+00   -3.827E+00   -3.828E+00   -3.829E+00   -3.830E+00   -3.831E+00   -3.832E+00
    -3.833E+00   -3.834E+00   -3.835E+00   -3.836E+00   -3.837E+00   -3.838E+00   -3.839E+00   -3.840E+00   -3.842E+00   -3.843E+00
    -3.844E+00   -3.845E+00   -3.846E+00   -3.847E+00   -3.848E+00   -3.849E+00   -3.850E+00   -3.851E+00   -3.852E+00   -3.853E+00
    -3.854E+00   -3.855E+00   -3.856E+00   -3.857E+00   -3.858E+00   -3.859E+00   -3.860E+00   -3.861E+00   -3.862E+00   -3.863E+00
    -3.865E+00   -3.866E+00   -3.867E+00   -3.868E+00   -3.869E+00   -3.870E+00   -3.871E+00   -3.872E+00   -3.873E+00   -3.874E+00
    -3.875E+00   -3.876E+00   -3.877E+00   -3.878E+00   -3.879E+00   -3.880E+00   -3.881E+00   -3.882E+00   -3.883E+00   -3.884E+00
    -3.885E+00   -3.886E+00   -3.887E+00   -3.888E+00   -3.890E+00   -3.891E+00   -3.892E+00   -3.893E+00   -3.894E+00   -3.895E+00
    -3.896E+00   -3.897E+00   -3.898E+00   -3.899E+00   -3.900E+00   -3.901E+00   -3.902E+00   -3.903E+00   -3.904E+00   -3.905E+00
    -3.906E+00   -3.907E+00   -3.908E+00   -3.909E+00   -3.910E+00   -3.911E+00   -3.912E+00   -3.913E+00   -3.914E+00   -3.915E+00
    -3.916E+00   -3.917E+00   -3.919E+00   -3.920E+00   -3.921E+00   -3.922E+00   -3.923E+00   -3.924E+00   -3.925E+00   -3.926E+00
    -3.927E+00   -3.928E+00   -3.929E+00   -3.930E+00   -3.931E+00   -3.932E+00   -3.933E+00   -3.934E+00   -3.935E+00   -3.936E+00
    -3.937E+00   -3.938E+00   -3.939E+00   -3.940E+00   -3.941E+00   -3.942E+00   -3.943E+00   -3.944E+00   -3.945E+00   -3.946E+00
    -3.947E+00   -3.948E+00   -3.949E+00   -3.951E+00   -3.952E+00   -3.953E+00   -3.954E+00   -3.955E+00   -3.956E+00   -3.957E+00
    -3.958E+00   -3.959E+00   -3.960E+00   -3.961E+00   -3.962E+00   -3.963E+00   -3.964E+00   -3.965E+00   -3.966E+00   -3.967E+00
    -3.968E+00   -3.969E+00   -3.970E+00   -3.971E+00   -3.972E+00   -3.973E+00   -3.974E+00   -3.975E+00   -3.976E+00   -3.977E+00
    -3.978E+00   -3.979E+00   -3.980E+00   -3.981E+00   -3.982E+00   -3.983E+00   -3.984E+00   -3.985E+00   -3.986E+00   -3.987E+00
    -3.988E+00   -3.989E+00   -3.990E+00   -3.992E+00   -3.993E+00   -3.994E+00   -3.995E+00   -3.996E+00   -3.997E+00   -3.998E+00
    -3.999E+00   -4.000E+00   -4.001E+00   -4.002E+00   -4.003E+00   -4.004E+00   -4.005E+00   -4.006E+00   -4.007E+00   -4.008E+00
    -4.009E+00   -4.010E+00   -4.011E+00   -4.012E+00   -4.013E+00   -4.014E+00   -4.015E+00   -4.016E+00   -4.017E+00   -4.018E+00
    -4.019E+00   -4.020E+00   -4.021E+00   -4.022E+00   -4.023E+00   -4.024E+00   -4.025E+00   -4.026E+00
 Asp      Conc. = 6.59E+01
