 LCModel (Version 6.3-1L) Copyright: S.W. Provencher.          Ref.: Magn. Reson. Med. 30:672-679 (1993).                
 Slice#1 Row#3 Col#13  PD_24_press_1_raw_act
 36 lines in following concentration table = NCONC+1
    Conc.  %SD /Cr+PCr  Metabolite                                         
  998.047  85%  71.725 Ala                                                 
    9.855 302%   0.708 Asp                                                 
    0.000 999%   0.000 Cr                                                  
   13.915 414%   1.000 PCr                                                 
    3.533 507%   0.254 GABA                                                
    3.402 529%   0.245 Glc                                                 
    0.000 999%   0.000 Gln                                                 
    0.000 999%   0.000 Glu                                                 
    0.000 999%   0.000 GPC                                                 
    3.032 599%   0.218 PCh                                                 
    0.000 999%   0.000 GSH                                                 
    0.000 999%   0.000 Ins                                                 
 3.14E+03  41% 225.841 Lac                                                 
  100.060  85%   7.191 NAA                                                 
    0.000 999%   0.000 NAAG                                                
    3.193 183%   0.229 Scyllo                                              
    7.631 386%   0.548 Tau                                                 
    0.907 999% 6.5E-02 -CrCH2                                              
    3.032 599%   0.218 GPC+PCh                                             
  100.060  85%   7.191 NAA+NAAG                                            
   13.915 414%   1.000 Cr+PCr                                              
    0.000 999%   0.000 Glu+Gln                                             
 1.10E+05   8% 7.9E+03 Lip13a                                              
   17.571 999%   1.263 Lip13b                                              
 3.03E+04   7% 2.2E+03 Lip09                                               
 4.96E+03  15% 356.653 MM09                                                
  961.437  54%  69.094 Lip20                                               
 1.08E+03  45%  77.668 MM20                                                
 6.85E+03  29% 492.610 MM12                                                
 2.74E+04  11% 2.0E+03 MM14                                                
 2.45E+04   7% 1.8E+03 MM17                                                
 1.10E+05   8% 7.9E+03 Lip13a+Lip13b                                       
 1.44E+05   4% 1.0E+04 MM14+Lip13a+Lip13b+MM12                             
 3.53E+04   7% 2.5E+03 MM09+Lip09                                          
 2.04E+03  21% 146.762 MM20+Lip20                                          
   6 lines in following misc. output table
  FWHM = 0.138 ppm    S/N =  64                                            
  Data shift = 0.183 ppm                                                   
  Ph:-118 deg     -38.7 deg/ppm                                            
  alphaB,S = 3.0E+01,   1.8E+02                                            
    6 spline knots.   Ns = 9(2)                                            
  (11) 3 infls.   ( 8) 1 extrs.                                            
  498 points on ppm-axis = NY
      4.000000     3.992357     3.984714     3.977070     3.969427     3.961784     3.954141     3.946497     3.938854     3.931211
      3.923568     3.915925     3.908281     3.900638     3.892995     3.885352     3.877708     3.870065     3.862422     3.854779
      3.847136     3.839492     3.831849     3.824206     3.816563     3.808919     3.801276     3.793633     3.785990     3.778347
      3.770703     3.763060     3.755417     3.747774     3.740130     3.732487     3.724844     3.717201     3.709558     3.701914
      3.694271     3.686628     3.678985     3.671341     3.663698     3.656055     3.648412     3.640769     3.633125     3.625482
      3.617839     3.610196     3.602552     3.594909     3.587266     3.579623     3.571980     3.564336     3.556693     3.549050
      3.541407     3.533763     3.526120     3.518477     3.510834     3.503191     3.495547     3.487904     3.480261     3.472618
      3.464974     3.457331     3.449688     3.442045     3.434402     3.426758     3.419115     3.411472     3.403829     3.396185
      3.388542     3.380899     3.373256     3.365613     3.357969     3.350326     3.342683     3.335040     3.327396     3.319753
      3.312110     3.304467     3.296824     3.289180     3.281537     3.273894     3.266251     3.258607     3.250964     3.243321
      3.235678     3.228034     3.220391     3.212748     3.205105     3.197462     3.189818     3.182175     3.174532     3.166889
      3.159245     3.151602     3.143959     3.136316     3.128673     3.121029     3.113386     3.105743     3.098100     3.090456
      3.082813     3.075170     3.067527     3.059884     3.052240     3.044597     3.036954     3.029311     3.021667     3.014024
      3.006381     2.998738     2.991095     2.983451     2.975808     2.968165     2.960522     2.952878     2.945235     2.937592
      2.929949     2.922306     2.914662     2.907019     2.899376     2.891733     2.884089     2.876446     2.868803     2.861160
      2.853517     2.845873     2.838230     2.830587     2.822944     2.815300     2.807657     2.800014     2.792371     2.784728
      2.777084     2.769441     2.761798     2.754155     2.746511     2.738868     2.731225     2.723582     2.715939     2.708295
      2.700652     2.693009     2.685366     2.677722     2.670079     2.662436     2.654793     2.647150     2.639506     2.631863
      2.624220     2.616577     2.608933     2.601290     2.593647     2.586004     2.578361     2.570717     2.563074     2.555431
      2.547788     2.540144     2.532501     2.524858     2.517215     2.509572     2.501928     2.494285     2.486642     2.478999
      2.471355     2.463712     2.456069     2.448426     2.440783     2.433139     2.425496     2.417853     2.410210     2.402566
      2.394923     2.387280     2.379637     2.371994     2.364350     2.356707     2.349064     2.341421     2.333777     2.326134
      2.318491     2.310848     2.303205     2.295561     2.287918     2.280275     2.272632     2.264988     2.257345     2.249702
      2.242059     2.234416     2.226772     2.219129     2.211486     2.203843     2.196199     2.188556     2.180913     2.173270
      2.165627     2.157983     2.150340     2.142697     2.135054     2.127410     2.119767     2.112124     2.104481     2.096838
      2.089194     2.081551     2.073908     2.066265     2.058621     2.050978     2.043335     2.035692     2.028049     2.020405
      2.012762     2.005119     1.997476     1.989833     1.982190     1.974546     1.966903     1.959260     1.951617     1.943974
      1.936331     1.928688     1.921045     1.913402     1.905759     1.898115     1.890472     1.882829     1.875186     1.867543
      1.859900     1.852257     1.844614     1.836971     1.829327     1.821684     1.814041     1.806398     1.798755     1.791112
      1.783469     1.775826     1.768183     1.760540     1.752896     1.745253     1.737610     1.729967     1.722324     1.714681
      1.707038     1.699395     1.691752     1.684108     1.676465     1.668822     1.661179     1.653536     1.645893     1.638250
      1.630607     1.622964     1.615321     1.607677     1.600034     1.592391     1.584748     1.577105     1.569462     1.561819
      1.554176     1.546533     1.538890     1.531246     1.523603     1.515960     1.508317     1.500674     1.493031     1.485388
      1.477745     1.470102     1.462458     1.454815     1.447172     1.439529     1.431886     1.424243     1.416600     1.408957
      1.401314     1.393671     1.386027     1.378384     1.370741     1.363098     1.355455     1.347812     1.340169     1.332526
      1.324883     1.317240     1.309596     1.301953     1.294310     1.286667     1.279024     1.271381     1.263738     1.256095
      1.248452     1.240808     1.233165     1.225522     1.217879     1.210236     1.202593     1.194950     1.187307     1.179664
      1.172021     1.164377     1.156734     1.149091     1.141448     1.133805     1.126162     1.118519     1.110876     1.103233
      1.095590     1.087946     1.080303     1.072660     1.065017     1.057374     1.049731     1.042088     1.034445     1.026802
      1.019158     1.011515     1.003872     0.996229     0.988586     0.980943     0.973300     0.965657     0.958014     0.950371
      0.942727     0.935084     0.927441     0.919798     0.912155     0.904512     0.896869     0.889226     0.881583     0.873940
      0.866296     0.858653     0.851010     0.843367     0.835724     0.828081     0.820438     0.812795     0.805152     0.797508
      0.789865     0.782222     0.774579     0.766936     0.759293     0.751650     0.744007     0.736364     0.728721     0.721077
      0.713434     0.705791     0.698148     0.690505     0.682862     0.675219     0.667576     0.659933     0.652290     0.644646
      0.637003     0.629360     0.621717     0.614074     0.606431     0.598788     0.591145     0.583502     0.575858     0.568215
      0.560572     0.552929     0.545286     0.537643     0.530000     0.522357     0.514714     0.507071     0.499427     0.491784
      0.484141     0.476498     0.468855     0.461212     0.453569     0.445925     0.438282     0.430639     0.422996     0.415353
      0.407710     0.400067     0.392424     0.384780     0.377137     0.369494     0.361851     0.354208     0.346565     0.338922
      0.331278     0.323635     0.315992     0.308349     0.300706     0.293063     0.285420     0.277777     0.270133     0.262490
      0.254847     0.247204     0.239561     0.231918     0.224275     0.216631     0.208988     0.201345
 NY phased data points follow
   4.06750E+01  4.01322E+01  4.00416E+01  4.11851E+01  3.91829E+01  4.01313E+01  4.03269E+01  3.82936E+01  4.26556E+01  4.10285E+01
   4.23650E+01  4.30197E+01  3.81225E+01  3.78838E+01  4.18135E+01  3.86311E+01  4.31197E+01  4.11891E+01  4.09571E+01  3.96506E+01
   4.06456E+01  4.05973E+01  4.18259E+01  3.89384E+01  4.16068E+01  4.08370E+01  4.29663E+01  4.38478E+01  4.12269E+01  3.91159E+01
   4.11182E+01  3.95945E+01  4.17689E+01  4.09224E+01  4.04711E+01  4.23825E+01  4.23848E+01  4.47181E+01  4.05729E+01  4.30357E+01
   4.20197E+01  4.19308E+01  4.29762E+01  4.18168E+01  4.27557E+01  4.20513E+01  4.12751E+01  4.33724E+01  4.27693E+01  4.17735E+01
   4.46359E+01  4.25546E+01  4.29347E+01  4.54803E+01  4.42384E+01  4.23219E+01  4.49830E+01  4.26644E+01  4.26378E+01  4.44380E+01
   4.49588E+01  4.40663E+01  4.59582E+01  4.42961E+01  4.46590E+01  4.33427E+01  4.57563E+01  4.34933E+01  4.47623E+01  4.29078E+01
   4.70475E+01  4.58254E+01  4.56852E+01  4.55005E+01  4.17917E+01  4.37439E+01  4.49834E+01  4.49776E+01  4.52911E+01  4.74765E+01
   4.34206E+01  4.73619E+01  4.74482E+01  4.65939E+01  4.85397E+01  4.95706E+01  4.85008E+01  4.97527E+01  4.63017E+01  4.71322E+01
   4.88696E+01  4.77730E+01  4.78415E+01  4.65542E+01  4.80417E+01  4.58680E+01  4.68564E+01  4.49126E+01  4.87551E+01  4.57680E+01
   4.79902E+01  4.74688E+01  4.93200E+01  4.92307E+01  4.86819E+01  4.74481E+01  4.88755E+01  5.11027E+01  5.24831E+01  4.78639E+01
   4.58503E+01  4.85419E+01  5.03537E+01  4.80795E+01  5.02075E+01  4.84245E+01  4.89085E+01  4.64455E+01  5.10863E+01  5.05816E+01
   4.98652E+01  4.95092E+01  5.31127E+01  5.25311E+01  5.05884E+01  4.67198E+01  5.09546E+01  5.28223E+01  5.14694E+01  5.30312E+01
   4.95036E+01  5.28688E+01  5.31553E+01  5.18748E+01  5.33986E+01  5.33979E+01  5.41963E+01  5.29156E+01  5.43282E+01  5.41955E+01
   5.18767E+01  5.10121E+01  5.41391E+01  5.19783E+01  5.59153E+01  5.17715E+01  5.38074E+01  5.45465E+01  5.39300E+01  5.33717E+01
   5.46731E+01  5.17866E+01  5.20985E+01  5.36522E+01  5.46733E+01  5.49873E+01  5.44545E+01  5.40411E+01  5.71080E+01  5.44663E+01
   5.65219E+01  5.72099E+01  5.36790E+01  5.66572E+01  5.65820E+01  5.38374E+01  5.70750E+01  5.63703E+01  5.77424E+01  5.77112E+01
   5.74750E+01  5.52899E+01  5.56487E+01  5.64643E+01  5.92879E+01  6.03013E+01  5.61657E+01  5.77474E+01  5.77870E+01  6.05761E+01
   5.71472E+01  5.97352E+01  5.99548E+01  5.82208E+01  5.86903E+01  5.77977E+01  6.03231E+01  5.71347E+01  5.92961E+01  5.96682E+01
   6.01590E+01  5.81728E+01  5.93607E+01  5.98019E+01  6.07369E+01  6.10733E+01  6.03773E+01  6.35710E+01  6.10176E+01  6.20191E+01
   6.02600E+01  6.18635E+01  6.22467E+01  6.09020E+01  6.21855E+01  6.08549E+01  6.24389E+01  6.50632E+01  6.35666E+01  6.15268E+01
   6.72557E+01  6.39797E+01  6.49090E+01  6.29662E+01  6.75455E+01  6.62691E+01  6.70613E+01  6.55151E+01  6.59923E+01  6.84505E+01
   7.00743E+01  6.74352E+01  6.83012E+01  6.91763E+01  6.78963E+01  7.20441E+01  7.15946E+01  7.01308E+01  6.88243E+01  7.63668E+01
   7.32676E+01  7.32017E+01  7.39281E+01  7.45723E+01  7.39976E+01  7.58506E+01  7.58899E+01  7.57495E+01  7.74214E+01  7.62688E+01
   7.98489E+01  8.25235E+01  8.48322E+01  8.06402E+01  8.43071E+01  8.26344E+01  8.81940E+01  8.68142E+01  8.85578E+01  8.59333E+01
   8.81378E+01  8.76357E+01  9.10238E+01  9.37025E+01  9.46498E+01  9.25870E+01  9.69518E+01  9.63010E+01  9.90474E+01  9.78712E+01
   1.03460E+02  1.03602E+02  1.00816E+02  1.06983E+02  1.07107E+02  1.08708E+02  1.08752E+02  1.14497E+02  1.16081E+02  1.15939E+02
   1.16035E+02  1.19027E+02  1.19754E+02  1.21027E+02  1.25367E+02  1.29501E+02  1.29402E+02  1.31140E+02  1.33700E+02  1.32989E+02
   1.36649E+02  1.40429E+02  1.44373E+02  1.46975E+02  1.47139E+02  1.50377E+02  1.52060E+02  1.53150E+02  1.58751E+02  1.58068E+02
   1.60213E+02  1.64026E+02  1.67671E+02  1.71918E+02  1.68638E+02  1.71686E+02  1.77067E+02  1.76696E+02  1.78185E+02  1.80135E+02
   1.84003E+02  1.86552E+02  1.87881E+02  1.91586E+02  1.91100E+02  1.95481E+02  1.94125E+02  2.02238E+02  2.05816E+02  2.07826E+02
   2.12618E+02  2.14475E+02  2.21129E+02  2.24615E+02  2.28043E+02  2.34649E+02  2.41518E+02  2.47058E+02  2.53940E+02  2.57187E+02
   2.64281E+02  2.71585E+02  2.80353E+02  2.84615E+02  2.92738E+02  2.97916E+02  3.05269E+02  3.13211E+02  3.21428E+02  3.27104E+02
   3.30766E+02  3.36593E+02  3.40629E+02  3.46832E+02  3.46215E+02  3.50564E+02  3.54652E+02  3.56838E+02  3.61290E+02  3.60338E+02
   3.62923E+02  3.61254E+02  3.60611E+02  3.62553E+02  3.61654E+02  3.61560E+02  3.62660E+02  3.58186E+02  3.59610E+02  3.60060E+02
   3.59286E+02  3.59110E+02  3.58879E+02  3.59192E+02  3.59558E+02  3.60045E+02  3.64257E+02  3.59817E+02  3.65980E+02  3.61137E+02
   3.66239E+02  3.66710E+02  3.67597E+02  3.63715E+02  3.62789E+02  3.62861E+02  3.55869E+02  3.55452E+02  3.51414E+02  3.50689E+02
   3.45798E+02  3.45616E+02  3.39956E+02  3.37600E+02  3.34226E+02  3.34653E+02  3.32554E+02  3.28945E+02  3.25606E+02  3.22297E+02
   3.21591E+02  3.14789E+02  3.11761E+02  3.05386E+02  3.04431E+02  3.01354E+02  2.98463E+02  2.93207E+02  2.87853E+02  2.84069E+02
   2.80417E+02  2.74161E+02  2.73490E+02  2.67858E+02  2.67337E+02  2.59522E+02  2.54509E+02  2.52018E+02  2.50498E+02  2.46014E+02
   2.41621E+02  2.37012E+02  2.30645E+02  2.28846E+02  2.22905E+02  2.21353E+02  2.14145E+02  2.11999E+02  2.05608E+02  2.02763E+02
   1.97680E+02  1.96847E+02  1.92091E+02  1.91094E+02  1.83043E+02  1.80163E+02  1.75475E+02  1.74180E+02  1.70917E+02  1.64867E+02
   1.66084E+02  1.57834E+02  1.55078E+02  1.53085E+02  1.52738E+02  1.43592E+02  1.41150E+02  1.38704E+02  1.35122E+02  1.32187E+02
   1.33881E+02  1.28964E+02  1.28607E+02  1.24288E+02  1.25530E+02  1.20140E+02  1.17932E+02  1.15825E+02  1.14047E+02  1.08829E+02
   1.09103E+02  1.04214E+02  1.07405E+02  1.02696E+02  1.01077E+02  1.00284E+02  9.72768E+01  9.72891E+01  9.46649E+01  9.25341E+01
   9.10484E+01  8.99950E+01  8.82938E+01  8.96764E+01  8.66346E+01  8.48389E+01  8.29819E+01  8.29545E+01  7.84927E+01  8.02738E+01
   7.67132E+01  7.49891E+01  7.61440E+01  7.71209E+01  7.30156E+01  7.35771E+01  7.16646E+01  7.25337E+01  6.86947E+01  6.73946E+01
   6.79566E+01  6.68126E+01  6.65214E+01  6.63246E+01  6.36865E+01  6.13218E+01  6.33716E+01  6.31159E+01  6.36307E+01  6.18086E+01
   5.78857E+01  5.88745E+01  5.73865E+01  5.66287E+01  5.66665E+01  5.68895E+01  5.51105E+01  5.64382E+01  5.36755E+01  5.26152E+01
   5.14074E+01  5.41108E+01  5.08458E+01  4.94360E+01  4.99442E+01  5.00423E+01  4.65755E+01  4.70163E+01
 NY points of the fit to the data follow
   3.95605E+01  3.95389E+01  3.94474E+01  3.93766E+01  3.92769E+01  3.93888E+01  3.94571E+01  3.96970E+01  3.98723E+01  4.01050E+01
   4.02853E+01  4.04263E+01  4.04777E+01  4.05875E+01  4.05981E+01  4.06853E+01  4.07505E+01  4.07988E+01  4.09289E+01  4.09294E+01
   4.10800E+01  4.10409E+01  4.12438E+01  4.11442E+01  4.14251E+01  4.12618E+01  4.16060E+01  4.13687E+01  4.17442E+01  4.14373E+01
   4.18343E+01  4.14893E+01  4.19167E+01  4.15772E+01  4.20502E+01  4.17654E+01  4.22685E+01  4.20549E+01  4.25446E+01  4.23829E+01
   4.27922E+01  4.26316E+01  4.29336E+01  4.27752E+01  4.29790E+01  4.28518E+01  4.30087E+01  4.29722E+01  4.31318E+01  4.31570E+01
   4.33161E+01  4.33847E+01  4.35257E+01  4.36034E+01  4.36961E+01  4.37724E+01  4.38622E+01  4.39410E+01  4.40299E+01  4.41142E+01
   4.42046E+01  4.42993E+01  4.43843E+01  4.44731E+01  4.45561E+01  4.46434E+01  4.47259E+01  4.48123E+01  4.48985E+01  4.49866E+01
   4.50739E+01  4.51628E+01  4.52511E+01  4.53409E+01  4.54312E+01  4.55223E+01  4.56136E+01  4.57058E+01  4.57962E+01  4.58889E+01
   4.59777E+01  4.60714E+01  4.61579E+01  4.62519E+01  4.63359E+01  4.64336E+01  4.65209E+01  4.66189E+01  4.67077E+01  4.68042E+01
   4.68952E+01  4.69889E+01  4.70837E+01  4.71737E+01  4.72742E+01  4.73594E+01  4.74662E+01  4.75481E+01  4.76625E+01  4.77433E+01
   4.78651E+01  4.79460E+01  4.80721E+01  4.81524E+01  4.82800E+01  4.83593E+01  4.84851E+01  4.85646E+01  4.86915E+01  4.87861E+01
   4.89128E+01  4.90203E+01  4.91460E+01  4.92696E+01  4.93969E+01  4.95400E+01  4.96719E+01  4.98345E+01  4.99721E+01  5.01467E+01
   5.02873E+01  5.04687E+01  5.06099E+01  5.07949E+01  5.09346E+01  5.11219E+01  5.12609E+01  5.14445E+01  5.15805E+01  5.17550E+01
   5.18867E+01  5.20486E+01  5.21764E+01  5.23255E+01  5.24510E+01  5.25891E+01  5.27152E+01  5.28478E+01  5.29771E+01  5.31110E+01
   5.32457E+01  5.33858E+01  5.35246E+01  5.36660E+01  5.38066E+01  5.39481E+01  5.40905E+01  5.42325E+01  5.43765E+01  5.45212E+01
   5.46651E+01  5.48086E+01  5.49503E+01  5.50920E+01  5.52298E+01  5.53679E+01  5.54998E+01  5.56316E+01  5.57546E+01  5.58778E+01
   5.59944E+01  5.61096E+01  5.62194E+01  5.63248E+01  5.64273E+01  5.65247E+01  5.66226E+01  5.67134E+01  5.68087E+01  5.68924E+01
   5.69876E+01  5.70690E+01  5.71661E+01  5.72478E+01  5.73486E+01  5.74333E+01  5.75405E+01  5.76331E+01  5.77494E+01  5.78556E+01
   5.79803E+01  5.80996E+01  5.82316E+01  5.83632E+01  5.85019E+01  5.86474E+01  5.87957E+01  5.89551E+01  5.91115E+01  5.92820E+01
   5.94471E+01  5.96268E+01  5.98031E+01  5.99909E+01  6.01784E+01  6.03709E+01  6.05689E+01  6.07680E+01  6.09763E+01  6.11827E+01
   6.14044E+01  6.16203E+01  6.18575E+01  6.20857E+01  6.23403E+01  6.25855E+01  6.28598E+01  6.31254E+01  6.34202E+01  6.37082E+01
   6.40249E+01  6.43392E+01  6.46782E+01  6.50199E+01  6.53830E+01  6.57534E+01  6.61421E+01  6.65413E+01  6.69564E+01  6.73829E+01
   6.78219E+01  6.82725E+01  6.87327E+01  6.92043E+01  6.96835E+01  7.01745E+01  7.06733E+01  7.11835E+01  7.17036E+01  7.22367E+01
   7.27825E+01  7.33446E+01  7.39229E+01  7.45216E+01  7.51404E+01  7.57834E+01  7.64516E+01  7.71481E+01  7.78734E+01  7.86296E+01
   7.94172E+01  8.02441E+01  8.11507E+01  8.20890E+01  8.30590E+01  8.40836E+01  8.51022E+01  8.62052E+01  8.72659E+01  8.84438E+01
   8.95296E+01  9.07714E+01  9.18487E+01  9.31318E+01  9.41887E+01  9.55023E+01  9.65501E+01  9.78977E+01  9.89499E+01  1.00337E+02
   1.01406E+02  1.02836E+02  1.03941E+02  1.05421E+02  1.06595E+02  1.08136E+02  1.09423E+02  1.11048E+02  1.12491E+02  1.14227E+02
   1.15870E+02  1.17748E+02  1.19618E+02  1.21664E+02  1.23758E+02  1.25976E+02  1.28240E+02  1.30598E+02  1.32987E+02  1.35445E+02
   1.37921E+02  1.40444E+02  1.42995E+02  1.45556E+02  1.48114E+02  1.50658E+02  1.53176E+02  1.55659E+02  1.58095E+02  1.60479E+02
   1.62804E+02  1.65065E+02  1.67260E+02  1.69392E+02  1.71463E+02  1.73480E+02  1.75454E+02  1.77397E+02  1.79326E+02  1.81260E+02
   1.83222E+02  1.85236E+02  1.87331E+02  1.89536E+02  1.91884E+02  1.94410E+02  1.97153E+02  2.00161E+02  2.03513E+02  2.07286E+02
   2.11110E+02  2.15433E+02  2.19793E+02  2.24728E+02  2.29637E+02  2.35155E+02  2.40477E+02  2.46722E+02  2.52620E+02  2.59286E+02
   2.65573E+02  2.72452E+02  2.78980E+02  2.85932E+02  2.92556E+02  2.99381E+02  3.05968E+02  3.12430E+02  3.18985E+02  3.25394E+02
   3.31292E+02  3.36315E+02  3.41424E+02  3.45085E+02  3.49384E+02  3.51592E+02  3.54897E+02  3.56577E+02  3.59375E+02  3.59910E+02
   3.61935E+02  3.61405E+02  3.62673E+02  3.61494E+02  3.62280E+02  3.60861E+02  3.61507E+02  3.59886E+02  3.60620E+02  3.59011E+02
   3.59932E+02  3.58504E+02  3.59778E+02  3.58868E+02  3.60510E+02  3.60125E+02  3.61973E+02  3.62146E+02  3.63989E+02  3.64278E+02
   3.65565E+02  3.65372E+02  3.65561E+02  3.64090E+02  3.63042E+02  3.60474E+02  3.58469E+02  3.55469E+02  3.53091E+02  3.50559E+02
   3.47986E+02  3.45285E+02  3.42515E+02  3.39536E+02  3.36531E+02  3.33164E+02  3.29905E+02  3.26703E+02  3.23516E+02  3.20331E+02
   3.17138E+02  3.13928E+02  3.10688E+02  3.07404E+02  3.04062E+02  3.00648E+02  2.97149E+02  2.93553E+02  2.89853E+02  2.86046E+02
   2.82133E+02  2.78118E+02  2.74011E+02  2.69824E+02  2.65571E+02  2.61270E+02  2.56937E+02  2.52591E+02  2.48247E+02  2.43921E+02
   2.39623E+02  2.35366E+02  2.31155E+02  2.26996E+02  2.22891E+02  2.18842E+02  2.14847E+02  2.10904E+02  2.07011E+02  2.03165E+02
   1.99362E+02  1.95601E+02  1.91878E+02  1.88193E+02  1.84545E+02  1.80933E+02  1.77359E+02  1.73824E+02  1.70329E+02  1.66877E+02
   1.63471E+02  1.60113E+02  1.56807E+02  1.53556E+02  1.50361E+02  1.47227E+02  1.44155E+02  1.41148E+02  1.38208E+02  1.35336E+02
   1.32533E+02  1.29801E+02  1.27140E+02  1.24550E+02  1.22031E+02  1.19583E+02  1.17205E+02  1.14896E+02  1.12656E+02  1.10483E+02
   1.08376E+02  1.06334E+02  1.04354E+02  1.02436E+02  1.00576E+02  9.87751E+01  9.70296E+01  9.53383E+01  9.36992E+01  9.21106E+01
   9.05706E+01  8.90777E+01  8.76300E+01  8.62257E+01  8.48633E+01  8.35412E+01  8.22577E+01  8.10114E+01  7.98009E+01  7.86246E+01
   7.74812E+01  7.63694E+01  7.52880E+01  7.42357E+01  7.32113E+01  7.22139E+01  7.12421E+01  7.02952E+01  6.93719E+01  6.84716E+01
   6.75931E+01  6.67357E+01  6.58984E+01  6.50807E+01  6.42816E+01  6.35005E+01  6.27367E+01  6.19895E+01  6.12582E+01  6.05424E+01
   5.98414E+01  5.91546E+01  5.84816E+01  5.78218E+01  5.71748E+01  5.65401E+01  5.59173E+01  5.53059E+01  5.47056E+01  5.41160E+01
   5.35368E+01  5.29675E+01  5.24080E+01  5.18578E+01  5.13168E+01  5.07846E+01  5.02611E+01  4.97461E+01
 NY background values follow
     6.897E+01    6.904E+01    6.911E+01    6.918E+01    6.925E+01    6.932E+01    6.939E+01    6.947E+01    6.954E+01    6.961E+01
     6.968E+01    6.975E+01    6.982E+01    6.989E+01    6.995E+01    7.002E+01    7.009E+01    7.016E+01    7.023E+01    7.030E+01
     7.037E+01    7.043E+01    7.050E+01    7.057E+01    7.064E+01    7.070E+01    7.077E+01    7.084E+01    7.090E+01    7.097E+01
     7.104E+01    7.110E+01    7.117E+01    7.123E+01    7.130E+01    7.136E+01    7.143E+01    7.149E+01    7.156E+01    7.162E+01
     7.169E+01    7.175E+01    7.181E+01    7.188E+01    7.194E+01    7.201E+01    7.207E+01    7.213E+01    7.219E+01    7.226E+01
     7.232E+01    7.238E+01    7.244E+01    7.250E+01    7.256E+01    7.263E+01    7.269E+01    7.275E+01    7.281E+01    7.287E+01
     7.293E+01    7.299E+01    7.305E+01    7.311E+01    7.317E+01    7.323E+01    7.328E+01    7.334E+01    7.340E+01    7.346E+01
     7.352E+01    7.358E+01    7.363E+01    7.369E+01    7.375E+01    7.381E+01    7.386E+01    7.392E+01    7.398E+01    7.403E+01
     7.409E+01    7.414E+01    7.420E+01    7.425E+01    7.431E+01    7.436E+01    7.442E+01    7.447E+01    7.453E+01    7.458E+01
     7.464E+01    7.469E+01    7.474E+01    7.480E+01    7.485E+01    7.490E+01    7.495E+01    7.501E+01    7.506E+01    7.511E+01
     7.516E+01    7.521E+01    7.526E+01    7.531E+01    7.537E+01    7.542E+01    7.547E+01    7.552E+01    7.557E+01    7.562E+01
     7.567E+01    7.571E+01    7.576E+01    7.581E+01    7.586E+01    7.591E+01    7.596E+01    7.600E+01    7.605E+01    7.610E+01
     7.615E+01    7.619E+01    7.624E+01    7.629E+01    7.633E+01    7.638E+01    7.642E+01    7.647E+01    7.651E+01    7.656E+01
     7.660E+01    7.665E+01    7.669E+01    7.674E+01    7.678E+01    7.682E+01    7.687E+01    7.691E+01    7.695E+01    7.700E+01
     7.704E+01    7.708E+01    7.712E+01    7.716E+01    7.720E+01    7.725E+01    7.729E+01    7.733E+01    7.737E+01    7.741E+01
     7.745E+01    7.749E+01    7.753E+01    7.757E+01    7.760E+01    7.764E+01    7.768E+01    7.772E+01    7.776E+01    7.779E+01
     7.783E+01    7.787E+01    7.790E+01    7.794E+01    7.798E+01    7.801E+01    7.805E+01    7.808E+01    7.812E+01    7.815E+01
     7.819E+01    7.822E+01    7.826E+01    7.829E+01    7.832E+01    7.836E+01    7.839E+01    7.842E+01    7.845E+01    7.848E+01
     7.852E+01    7.855E+01    7.858E+01    7.861E+01    7.864E+01    7.867E+01    7.870E+01    7.872E+01    7.875E+01    7.878E+01
     7.881E+01    7.884E+01    7.886E+01    7.889E+01    7.892E+01    7.894E+01    7.897E+01    7.899E+01    7.902E+01    7.904E+01
     7.906E+01    7.909E+01    7.911E+01    7.913E+01    7.915E+01    7.917E+01    7.919E+01    7.921E+01    7.923E+01    7.925E+01
     7.927E+01    7.929E+01    7.931E+01    7.932E+01    7.934E+01    7.936E+01    7.937E+01    7.939E+01    7.940E+01    7.942E+01
     7.943E+01    7.944E+01    7.945E+01    7.947E+01    7.948E+01    7.949E+01    7.950E+01    7.951E+01    7.952E+01    7.952E+01
     7.953E+01    7.954E+01    7.955E+01    7.955E+01    7.956E+01    7.956E+01    7.956E+01    7.957E+01    7.957E+01    7.957E+01
     7.957E+01    7.957E+01    7.957E+01    7.957E+01    7.957E+01    7.957E+01    7.956E+01    7.956E+01    7.956E+01    7.955E+01
     7.955E+01    7.954E+01    7.953E+01    7.952E+01    7.951E+01    7.951E+01    7.949E+01    7.948E+01    7.947E+01    7.946E+01
     7.945E+01    7.943E+01    7.942E+01    7.940E+01    7.938E+01    7.937E+01    7.935E+01    7.933E+01    7.931E+01    7.929E+01
     7.927E+01    7.924E+01    7.922E+01    7.920E+01    7.917E+01    7.915E+01    7.912E+01    7.909E+01    7.906E+01    7.903E+01
     7.900E+01    7.897E+01    7.894E+01    7.891E+01    7.887E+01    7.884E+01    7.880E+01    7.877E+01    7.873E+01    7.869E+01
     7.865E+01    7.861E+01    7.857E+01    7.852E+01    7.848E+01    7.844E+01    7.839E+01    7.835E+01    7.830E+01    7.825E+01
     7.820E+01    7.815E+01    7.810E+01    7.805E+01    7.799E+01    7.794E+01    7.788E+01    7.783E+01    7.777E+01    7.771E+01
     7.765E+01    7.759E+01    7.753E+01    7.746E+01    7.740E+01    7.733E+01    7.727E+01    7.720E+01    7.713E+01    7.706E+01
     7.699E+01    7.692E+01    7.685E+01    7.677E+01    7.670E+01    7.662E+01    7.654E+01    7.647E+01    7.639E+01    7.630E+01
     7.622E+01    7.614E+01    7.606E+01    7.597E+01    7.588E+01    7.579E+01    7.571E+01    7.562E+01    7.552E+01    7.543E+01
     7.534E+01    7.524E+01    7.515E+01    7.505E+01    7.495E+01    7.485E+01    7.475E+01    7.465E+01    7.455E+01    7.444E+01
     7.434E+01    7.423E+01    7.412E+01    7.402E+01    7.391E+01    7.380E+01    7.368E+01    7.357E+01    7.346E+01    7.334E+01
     7.323E+01    7.311E+01    7.299E+01    7.287E+01    7.275E+01    7.263E+01    7.251E+01    7.238E+01    7.226E+01    7.213E+01
     7.201E+01    7.188E+01    7.175E+01    7.162E+01    7.149E+01    7.136E+01    7.122E+01    7.109E+01    7.096E+01    7.082E+01
     7.068E+01    7.054E+01    7.041E+01    7.027E+01    7.012E+01    6.998E+01    6.984E+01    6.970E+01    6.955E+01    6.941E+01
     6.926E+01    6.911E+01    6.896E+01    6.881E+01    6.866E+01    6.851E+01    6.836E+01    6.820E+01    6.805E+01    6.790E+01
     6.774E+01    6.758E+01    6.742E+01    6.727E+01    6.711E+01    6.694E+01    6.678E+01    6.662E+01    6.646E+01    6.629E+01
     6.613E+01    6.596E+01    6.579E+01    6.563E+01    6.546E+01    6.529E+01    6.512E+01    6.495E+01    6.478E+01    6.460E+01
     6.443E+01    6.425E+01    6.408E+01    6.390E+01    6.373E+01    6.355E+01    6.337E+01    6.319E+01    6.301E+01    6.283E+01
     6.265E+01    6.247E+01    6.228E+01    6.210E+01    6.191E+01    6.173E+01    6.154E+01    6.135E+01    6.117E+01    6.098E+01
     6.079E+01    6.060E+01    6.041E+01    6.022E+01    6.002E+01    5.983E+01    5.964E+01    5.944E+01    5.925E+01    5.905E+01
     5.886E+01    5.866E+01    5.846E+01    5.826E+01    5.806E+01    5.786E+01    5.766E+01    5.746E+01    5.726E+01    5.706E+01
     5.686E+01    5.665E+01    5.645E+01    5.624E+01    5.604E+01    5.583E+01    5.562E+01    5.542E+01    5.521E+01    5.500E+01
     5.479E+01    5.458E+01    5.437E+01    5.416E+01    5.395E+01    5.374E+01    5.353E+01    5.331E+01    5.310E+01    5.288E+01
     5.267E+01    5.246E+01    5.224E+01    5.202E+01    5.181E+01    5.159E+01    5.137E+01    5.115E+01    5.093E+01    5.072E+01
     5.050E+01    5.028E+01    5.006E+01    4.983E+01    4.961E+01    4.939E+01    4.917E+01    4.895E+01
 Ala      Conc. = 9.98E+02
