 LCModel (Version 6.3-1L) Copyright: S.W. Provencher.          Ref.: Magn. Reson. Med. 30:672-679 (1993).                
 Slice#3 Row#3 Col#9  PD_24_press_1_raw_act
 36 lines in following concentration table = NCONC+1
    Conc.  %SD /Cr+PCr  Metabolite                                         
   90.406 116% 7.2E-02 Ala                                                 
   38.752 431% 3.1E-02 Asp                                                 
  499.635  41%   0.400 Cr                                                  
  749.429  27%   0.600 PCr                                                 
  105.295 108% 8.4E-02 GABA                                                
    0.000 999%   0.000 Glc                                                 
  659.848  35%   0.528 Gln                                                 
 1.16E+03  23%   0.925 Glu                                                 
  368.066   5%   0.295 GPC                                                 
    0.000 999%   0.000 PCh                                                 
  458.729  14%   0.367 GSH                                                 
  266.474  78%   0.213 Ins                                                 
    0.000 999%   0.000 Lac                                                 
 1.35E+03   7%   1.079 NAA                                                 
  139.579  76%   0.112 NAAG                                                
    0.000 999%   0.000 Scyllo                                              
    0.000 999%   0.000 Tau                                                 
    0.000 999%   0.000 -CrCH2                                              
  368.066   5%   0.295 GPC+PCh                                             
 1.49E+03   4%   1.191 NAA+NAAG                                            
 1.25E+03   4%   1.000 Cr+PCr                                              
 1.82E+03  23%   1.453 Glu+Gln                                             
 4.90E+03  12%   3.919 Lip13a                                              
    0.000 999%   0.000 Lip13b                                              
    0.000 999%   0.000 Lip09                                               
  863.432  18%   0.691 MM09                                                
  743.593  35%   0.595 Lip20                                               
 1.82E+03  16%   1.458 MM20                                                
  292.619  36%   0.234 MM12                                                
 1.26E+03  26%   1.010 MM14                                                
  659.980  29%   0.528 MM17                                                
 4.90E+03  12%   3.919 Lip13a+Lip13b                                       
 6.45E+03   8%   5.163 MM14+Lip13a+Lip13b+MM12                             
  863.432  18%   0.691 MM09+Lip09                                          
 2.57E+03  13%   2.054 MM20+Lip20                                          
   6 lines in following misc. output table
  FWHM = 0.061 ppm    S/N =   9                                            
  Data shift =-0.008 ppm                                                   
  Ph:   5 deg      -6.2 deg/ppm                                            
  alphaB,S = 1.6E+00,   1.7E+02                                            
   14 spline knots.   Ns = 8(1)                                            
  (14) 2 infls.   (11) 1 extrs.                                            
  498 points on ppm-axis = NY
      4.000000     3.992357     3.984714     3.977070     3.969427     3.961784     3.954141     3.946497     3.938854     3.931211
      3.923568     3.915925     3.908281     3.900638     3.892995     3.885352     3.877708     3.870065     3.862422     3.854779
      3.847136     3.839492     3.831849     3.824206     3.816563     3.808919     3.801276     3.793633     3.785990     3.778347
      3.770703     3.763060     3.755417     3.747774     3.740130     3.732487     3.724844     3.717201     3.709558     3.701914
      3.694271     3.686628     3.678985     3.671341     3.663698     3.656055     3.648412     3.640769     3.633125     3.625482
      3.617839     3.610196     3.602552     3.594909     3.587266     3.579623     3.571980     3.564336     3.556693     3.549050
      3.541407     3.533763     3.526120     3.518477     3.510834     3.503191     3.495547     3.487904     3.480261     3.472618
      3.464974     3.457331     3.449688     3.442045     3.434402     3.426758     3.419115     3.411472     3.403829     3.396185
      3.388542     3.380899     3.373256     3.365613     3.357969     3.350326     3.342683     3.335040     3.327396     3.319753
      3.312110     3.304467     3.296824     3.289180     3.281537     3.273894     3.266251     3.258607     3.250964     3.243321
      3.235678     3.228034     3.220391     3.212748     3.205105     3.197462     3.189818     3.182175     3.174532     3.166889
      3.159245     3.151602     3.143959     3.136316     3.128673     3.121029     3.113386     3.105743     3.098100     3.090456
      3.082813     3.075170     3.067527     3.059884     3.052240     3.044597     3.036954     3.029311     3.021667     3.014024
      3.006381     2.998738     2.991095     2.983451     2.975808     2.968165     2.960522     2.952878     2.945235     2.937592
      2.929949     2.922306     2.914662     2.907019     2.899376     2.891733     2.884089     2.876446     2.868803     2.861160
      2.853517     2.845873     2.838230     2.830587     2.822944     2.815300     2.807657     2.800014     2.792371     2.784728
      2.777084     2.769441     2.761798     2.754155     2.746511     2.738868     2.731225     2.723582     2.715939     2.708295
      2.700652     2.693009     2.685366     2.677722     2.670079     2.662436     2.654793     2.647150     2.639506     2.631863
      2.624220     2.616577     2.608933     2.601290     2.593647     2.586004     2.578361     2.570717     2.563074     2.555431
      2.547788     2.540144     2.532501     2.524858     2.517215     2.509572     2.501928     2.494285     2.486642     2.478999
      2.471355     2.463712     2.456069     2.448426     2.440783     2.433139     2.425496     2.417853     2.410210     2.402566
      2.394923     2.387280     2.379637     2.371994     2.364350     2.356707     2.349064     2.341421     2.333777     2.326134
      2.318491     2.310848     2.303205     2.295561     2.287918     2.280275     2.272632     2.264988     2.257345     2.249702
      2.242059     2.234416     2.226772     2.219129     2.211486     2.203843     2.196199     2.188556     2.180913     2.173270
      2.165627     2.157983     2.150340     2.142697     2.135054     2.127410     2.119767     2.112124     2.104481     2.096838
      2.089194     2.081551     2.073908     2.066265     2.058621     2.050978     2.043335     2.035692     2.028049     2.020405
      2.012762     2.005119     1.997476     1.989833     1.982190     1.974546     1.966903     1.959260     1.951617     1.943974
      1.936331     1.928688     1.921045     1.913402     1.905759     1.898115     1.890472     1.882829     1.875186     1.867543
      1.859900     1.852257     1.844614     1.836971     1.829327     1.821684     1.814041     1.806398     1.798755     1.791112
      1.783469     1.775826     1.768183     1.760540     1.752896     1.745253     1.737610     1.729967     1.722324     1.714681
      1.707038     1.699395     1.691752     1.684108     1.676465     1.668822     1.661179     1.653536     1.645893     1.638250
      1.630607     1.622964     1.615321     1.607677     1.600034     1.592391     1.584748     1.577105     1.569462     1.561819
      1.554176     1.546533     1.538890     1.531246     1.523603     1.515960     1.508317     1.500674     1.493031     1.485388
      1.477745     1.470102     1.462458     1.454815     1.447172     1.439529     1.431886     1.424243     1.416600     1.408957
      1.401314     1.393671     1.386027     1.378384     1.370741     1.363098     1.355455     1.347812     1.340169     1.332526
      1.324883     1.317240     1.309596     1.301953     1.294310     1.286667     1.279024     1.271381     1.263738     1.256095
      1.248452     1.240808     1.233165     1.225522     1.217879     1.210236     1.202593     1.194950     1.187307     1.179664
      1.172021     1.164377     1.156734     1.149091     1.141448     1.133805     1.126162     1.118519     1.110876     1.103233
      1.095590     1.087946     1.080303     1.072660     1.065017     1.057374     1.049731     1.042088     1.034445     1.026802
      1.019158     1.011515     1.003872     0.996229     0.988586     0.980943     0.973300     0.965657     0.958014     0.950371
      0.942727     0.935084     0.927441     0.919798     0.912155     0.904512     0.896869     0.889226     0.881583     0.873940
      0.866296     0.858653     0.851010     0.843367     0.835724     0.828081     0.820438     0.812795     0.805152     0.797508
      0.789865     0.782222     0.774579     0.766936     0.759293     0.751650     0.744007     0.736364     0.728721     0.721077
      0.713434     0.705791     0.698148     0.690505     0.682862     0.675219     0.667576     0.659933     0.652290     0.644646
      0.637003     0.629360     0.621717     0.614074     0.606431     0.598788     0.591145     0.583502     0.575858     0.568215
      0.560572     0.552929     0.545286     0.537643     0.530000     0.522357     0.514714     0.507071     0.499427     0.491784
      0.484141     0.476498     0.468855     0.461212     0.453569     0.445925     0.438282     0.430639     0.422996     0.415353
      0.407710     0.400067     0.392424     0.384780     0.377137     0.369494     0.361851     0.354208     0.346565     0.338922
      0.331278     0.323635     0.315992     0.308349     0.300706     0.293063     0.285420     0.277777     0.270133     0.262490
      0.254847     0.247204     0.239561     0.231918     0.224275     0.216631     0.208988     0.201345
 NY phased data points follow
   3.58385E+01  4.25303E+01  3.82586E+01  3.94755E+01  4.25135E+01  4.20743E+01  4.46258E+01  5.38032E+01  5.16423E+01  5.61684E+01
   5.47526E+01  5.60873E+01  4.61239E+01  5.05651E+01  4.69671E+01  4.74680E+01  3.92589E+01  3.42824E+01  3.44235E+01  3.47919E+01
   3.31844E+01  2.92176E+01  3.06397E+01  3.32618E+01  2.91810E+01  3.39182E+01  2.66053E+01  3.13346E+01  3.37775E+01  3.94925E+01
   3.63705E+01  3.65077E+01  3.13221E+01  3.04265E+01  2.93787E+01  3.00779E+01  2.66789E+01  2.82830E+01  2.72047E+01  2.79354E+01
   2.38251E+01  2.60877E+01  2.70932E+01  2.88441E+01  2.88110E+01  2.68315E+01  2.70878E+01  2.95038E+01  2.42035E+01  2.47290E+01
   2.74170E+01  2.31099E+01  2.23385E+01  2.16150E+01  2.05377E+01  2.43019E+01  2.21701E+01  1.69545E+01  2.17089E+01  1.60756E+01
   1.48875E+01  1.71750E+01  1.46385E+01  1.24119E+01  1.56235E+01  1.31133E+01  1.11090E+01  1.13128E+01  1.06126E+01  1.11629E+01
   9.71048E+00  1.19800E+01  9.15650E+00  1.41983E+01  1.07959E+01  1.50078E+01  1.04139E+01  1.25350E+01  1.25425E+01  1.17117E+01
   1.02162E+01  9.37577E+00  1.26622E+01  9.23594E+00  7.08293E+00  1.26163E+01  1.08276E+01  9.85821E+00  9.88579E+00  1.24914E+01
   1.13592E+01  1.24606E+01  7.52270E+00  1.17226E+01  1.33396E+01  7.80708E+00  1.28908E+01  1.49441E+01  1.90849E+01  2.53070E+01
   3.07664E+01  3.47599E+01  4.15635E+01  4.01576E+01  3.43362E+01  3.00431E+01  2.75963E+01  2.53707E+01  2.28439E+01  2.04154E+01
   1.52759E+01  1.38281E+01  1.04444E+01  9.06357E+00  1.47015E+01  1.31301E+01  9.15347E+00  1.10671E+01  8.38041E+00  9.74266E+00
   1.05116E+01  1.55639E+01  2.07687E+01  2.62687E+01  3.21596E+01  3.89945E+01  3.89271E+01  3.86246E+01  3.92013E+01  3.60064E+01
   2.72465E+01  3.14181E+01  2.26869E+01  1.80165E+01  1.37253E+01  1.16578E+01  8.72812E+00  8.70670E+00  6.15024E+00  7.58171E+00
   6.44746E+00  9.02605E+00  9.75334E+00  5.54679E+00  7.80977E+00  7.82427E+00  5.58755E+00  5.01504E+00  6.65840E+00  3.88183E+00
   3.55319E+00  4.37194E+00  3.54913E+00  6.13810E+00  7.69477E+00  2.01461E+00 -3.58224E+00  1.84515E+00  3.88058E+00  4.51379E-01
   1.66061E+00  7.78678E-01  4.78961E+00  3.89881E-01  1.61965E+00 -8.76258E-01 -1.89196E+00 -3.95677E+00 -4.14251E+00 -4.49614E+00
   9.20706E-01 -1.20559E+00 -5.97755E+00 -3.98927E+00 -2.65658E+00 -5.07938E+00 -5.90976E+00  2.21718E-01 -2.77162E+00 -5.44868E+00
  -5.58417E+00 -2.24394E+00 -2.25840E+00 -1.75984E+00 -2.46526E+00 -4.96858E+00 -5.06177E+00 -1.70681E+00 -4.66939E-01  4.13030E+00
   1.54994E+00  3.52074E+00  6.33628E+00  1.52029E+00  1.89497E+00 -1.26110E+00  2.69492E+00  3.97316E+00  1.76485E+00  4.28887E+00
  -3.88939E-01 -1.07188E+00  4.05565E+00  6.44232E-01 -1.68536E+00  1.27856E+00  2.54894E-02 -2.91734E+00 -4.45400E-01 -5.32731E-01
  -7.37038E-01  1.15554E+00  3.00791E+00  4.86719E+00  2.43713E+00  5.59711E+00  4.50456E+00  1.45403E+00  3.19076E+00  1.70288E+00
  -4.40587E-01 -3.31325E+00  1.81948E+00  3.05824E+00  6.57372E-01  6.94971E+00  3.38808E+00  2.76799E+00  3.59529E+00  6.14600E+00
   1.23620E+00  3.11950E+00  3.94719E+00  1.32352E+00  6.35470E+00  6.22150E+00  6.36570E+00  5.45347E+00  4.28521E+00  5.08764E+00
   5.77984E+00  1.35405E+00  8.24955E+00  3.76838E+00  5.51077E+00  7.00175E+00  5.77267E+00  7.85462E+00  5.56578E+00  9.17644E+00
   1.24759E+01  1.30998E+01  1.32490E+01  1.48831E+01  1.97180E+01  2.40564E+01  2.78452E+01  3.60670E+01  4.60502E+01  4.91756E+01
   4.58145E+01  4.15011E+01  3.80325E+01  3.29426E+01  2.52672E+01  2.12907E+01  1.27318E+01  1.19373E+01  1.01453E+01  4.19145E+00
   1.03209E+01  2.61519E+00  5.42578E+00  3.61823E+00  4.68749E+00  5.35397E-01  1.31918E+00 -5.36414E-02  2.59742E+00  4.71746E+00
   1.67715E+00 -3.84030E-01  9.19080E-01 -1.69480E+00  2.42351E+00  2.61252E+00 -3.10319E+00  2.03518E+00  8.44683E-01  2.17356E+00
  -5.21896E-01  4.56582E+00  6.74332E-01 -3.22667E-01  5.10855E-01 -2.71860E-01  2.24893E+00  1.47998E+00  2.64803E+00  2.78599E+00
   2.28796E+00 -2.10873E+00  5.75593E-01  3.33004E+00  4.77419E+00  4.88596E-01  5.41880E+00  7.90541E-01  2.98261E+00  8.28013E-01
   1.73269E+00  5.33488E+00  1.99444E+00  6.42931E+00  1.66985E+00  2.94184E+00  5.09913E+00  2.65306E+00  3.84407E+00  3.30564E+00
   2.22603E-01  2.10341E+00  3.22525E+00  4.32557E+00  6.17550E+00  2.91677E+00  3.93150E+00  5.38266E+00  4.66488E+00  2.92578E+00
   4.15786E+00  5.01620E+00  1.02690E+01  9.71171E+00  1.39167E+01  1.06321E+01  1.22898E+01  8.19399E+00  1.28988E+01  1.18861E+01
   1.28570E+01  1.56086E+01  9.76047E+00  1.46307E+01  1.16795E+01  1.33923E+01  1.13621E+01  1.48423E+01  1.42115E+01  1.42707E+01
   1.65656E+01  2.07471E+01  1.71168E+01  2.01336E+01  2.34928E+01  1.53505E+01  1.54131E+01  1.91468E+01  1.41162E+01  1.69953E+01
   1.33754E+01  1.29794E+01  1.45210E+01  1.21490E+01  1.33547E+01  1.40690E+01  1.19487E+01  8.97007E+00  1.05671E+01  1.23467E+01
   1.16982E+01  1.01556E+01  8.21255E+00  7.54967E+00  7.65783E+00  5.46298E+00  3.79376E+00  2.22259E+00  3.86054E+00  3.52575E+00
  -3.31613E+00  1.51006E+00  2.56917E+00  1.54576E+00  1.62477E+00 -4.20789E-01 -1.86893E+00 -3.43873E+00 -3.13082E+00 -3.02460E+00
  -3.77087E+00 -4.06143E+00 -4.17169E+00 -2.13963E+00 -3.08672E+00 -1.55273E+00 -1.14885E+00  2.35965E+00  2.77446E+00 -9.99855E-01
   7.03067E-01 -4.46781E-01  5.52012E-01 -3.80870E+00  1.39913E+00  4.47749E+00 -1.11505E-01  2.35514E+00 -1.32695E+00  7.90084E-01
  -5.75231E-01 -1.64207E+00 -2.53024E+00  1.93400E-01 -4.81400E-01 -2.06816E+00 -2.96037E+00 -5.86056E+00 -1.22847E+00 -2.27830E+00
  -3.88346E+00  2.06765E-01 -6.74619E+00 -4.59427E+00 -7.23130E+00 -1.95563E+00 -4.65492E+00 -5.82506E+00 -5.39509E+00 -7.07075E+00
  -4.18759E+00 -7.12249E+00 -6.77673E+00 -1.79793E+00 -9.51476E+00 -4.42877E+00 -4.02783E+00 -5.45542E+00 -7.97184E+00 -8.41873E+00
  -4.96762E+00 -6.40743E+00 -6.92049E+00 -6.15618E+00 -8.80415E+00 -7.66934E+00 -7.72534E+00 -7.46907E+00 -6.85968E+00 -6.10428E+00
  -6.17470E+00 -4.12395E+00 -8.03719E+00 -1.06652E+01 -6.13422E+00 -8.68623E+00 -4.97768E+00 -8.03036E+00 -2.08792E+00 -6.60670E+00
  -9.46755E+00 -8.53697E+00 -9.31723E+00 -6.01138E+00 -7.09514E+00 -5.99217E+00 -8.14874E+00 -1.29404E+01 -8.54330E+00 -5.95307E+00
  -5.58880E+00 -6.88011E+00 -6.88300E+00 -1.09300E+01 -9.56441E+00 -9.71702E+00 -6.96576E+00 -8.71214E+00 -4.37837E+00 -7.10743E+00
  -7.86936E+00 -1.04834E+01 -3.31384E+00 -1.00827E+01 -3.48051E+00 -5.13219E+00 -8.58021E+00 -5.87739E+00 -7.70885E+00 -6.11393E+00
  -4.62532E+00 -5.95139E+00 -1.04779E+01 -8.68871E+00 -5.67258E+00 -4.83470E+00 -9.50956E+00 -9.57288E+00
 NY points of the fit to the data follow
   3.39963E+01  3.44035E+01  3.54262E+01  3.71341E+01  3.96821E+01  4.29716E+01  4.66701E+01  5.01574E+01  5.27418E+01  5.39968E+01
   5.38349E+01  5.24493E+01  5.02435E+01  4.76396E+01  4.49112E+01  4.22247E+01  3.96374E+01  3.71591E+01  3.49271E+01  3.31849E+01
   3.17906E+01  3.05862E+01  2.97775E+01  2.93472E+01  2.93067E+01  2.98237E+01  3.10620E+01  3.29174E+01  3.48898E+01  3.62853E+01
   3.66372E+01  3.59364E+01  3.45068E+01  3.27322E+01  3.09440E+01  2.93867E+01  2.81624E+01  2.71858E+01  2.62915E+01  2.54838E+01
   2.49732E+01  2.48094E+01  2.48388E+01  2.49725E+01  2.51358E+01  2.51884E+01  2.50158E+01  2.46067E+01  2.40374E+01  2.34165E+01
   2.28167E+01  2.22145E+01  2.16138E+01  2.10644E+01  2.05804E+01  2.01184E+01  1.96944E+01  1.93442E+01  1.90230E+01  1.86678E+01
   1.82729E+01  1.78636E+01  1.74577E+01  1.70770E+01  1.67373E+01  1.64451E+01  1.61950E+01  1.59692E+01  1.57556E+01  1.55529E+01
   1.53552E+01  1.51498E+01  1.49309E+01  1.46968E+01  1.44528E+01  1.42035E+01  1.39513E+01  1.36994E+01  1.34479E+01  1.31912E+01
   1.29223E+01  1.26378E+01  1.23412E+01  1.20295E+01  1.17067E+01  1.13918E+01  1.11132E+01  1.08929E+01  1.07392E+01  1.06444E+01
   1.05911E+01  1.05657E+01  1.05638E+01  1.06001E+01  1.07746E+01  1.15808E+01  1.35148E+01  1.65007E+01  2.05645E+01  2.56319E+01
   3.11871E+01  3.60293E+01  3.87184E+01  3.86301E+01  3.63385E+01  3.29404E+01  2.92878E+01  2.57352E+01  2.22664E+01  1.88878E+01
   1.57266E+01  1.28198E+01  1.03040E+01  8.75075E+00  8.25654E+00  8.08706E+00  8.01500E+00  8.04719E+00  8.37247E+00  9.60393E+00
   1.21383E+01  1.59159E+01  2.09368E+01  2.70157E+01  3.34167E+01  3.87281E+01  4.15153E+01  4.13183E+01  3.88613E+01  3.52720E+01
   3.13217E+01  2.72529E+01  2.30119E+01  1.86620E+01  1.44855E+01  1.07281E+01  7.78293E+00  6.28404E+00  6.00874E+00  6.12247E+00
   6.27319E+00  6.34186E+00  6.30664E+00  6.22178E+00  6.13781E+00  6.01647E+00  5.81575E+00  5.52654E+00  5.15526E+00  4.74345E+00
   4.34917E+00  4.00164E+00  3.73507E+00  3.51395E+00  3.30782E+00  3.09653E+00  2.85812E+00  2.59197E+00  2.30947E+00  2.05943E+00
   1.89778E+00  1.82432E+00  1.77610E+00  1.66825E+00  1.45148E+00  1.14694E+00  8.20865E-01  5.14688E-01  2.22372E-01 -7.16323E-02
  -3.77267E-01 -7.25408E-01 -1.10322E+00 -1.47285E+00 -1.76494E+00 -1.91567E+00 -1.97115E+00 -2.02889E+00 -2.14342E+00 -2.30547E+00
  -2.45201E+00 -2.52587E+00 -2.52134E+00 -2.42759E+00 -2.18734E+00 -1.74530E+00 -1.11448E+00 -3.62031E-01  3.90503E-01  9.79053E-01
   1.24165E+00  1.13552E+00  7.71277E-01  3.19163E-01 -7.14527E-02 -2.90592E-01 -2.30051E-01  1.63461E-01  8.48044E-01  1.66888E+00
   2.44243E+00  2.97579E+00  3.10286E+00  2.77297E+00  1.98253E+00  8.40046E-01 -4.01142E-01 -1.38009E+00 -1.79168E+00 -1.54558E+00
  -7.14930E-01  5.10942E-01  1.86441E+00  2.99218E+00  3.55553E+00  3.40719E+00  2.66009E+00  1.56489E+00  4.03155E-01 -6.04245E-01
  -1.21136E+00 -1.15939E+00 -5.21301E-01  3.64932E-01  1.22947E+00  2.00407E+00  2.69087E+00  3.16374E+00  3.41470E+00  3.57811E+00
   3.81523E+00  4.15105E+00  4.50291E+00  4.90800E+00  5.39612E+00  5.85257E+00  6.10562E+00  6.05008E+00  5.70494E+00  5.21297E+00
   4.76930E+00  4.51043E+00  4.50393E+00  4.75919E+00  5.19331E+00  5.66842E+00  6.11539E+00  6.63469E+00  7.36919E+00  8.31384E+00
   9.42212E+00  1.07843E+01  1.28725E+01  1.61375E+01  2.03520E+01  2.54759E+01  3.15107E+01  3.79728E+01  4.34981E+01  4.63348E+01
   4.56952E+01  4.22711E+01  3.74273E+01  3.22393E+01  2.71606E+01  2.22424E+01  1.75755E+01  1.32563E+01  9.27161E+00  5.83702E+00
   3.69190E+00  2.92263E+00  2.57859E+00  2.33623E+00  2.12398E+00  1.89571E+00  1.65037E+00  1.40314E+00  1.16312E+00  9.38001E-01
   7.33267E-01  5.52969E-01  4.01250E-01  2.87262E-01  2.15933E-01  1.82527E-01  1.83121E-01  2.14896E-01  2.74132E-01  3.57620E-01
   4.59967E-01  5.75480E-01  7.02303E-01  8.39520E-01  9.84786E-01  1.13676E+00  1.29518E+00  1.45682E+00  1.61742E+00  1.77380E+00
   1.92138E+00  2.05480E+00  2.17128E+00  2.26865E+00  2.34468E+00  2.39904E+00  2.43280E+00  2.44820E+00  2.44810E+00  2.43606E+00
   2.41745E+00  2.39832E+00  2.38507E+00  2.38455E+00  2.40339E+00  2.44829E+00  2.52621E+00  2.64527E+00  2.81784E+00  3.05840E+00
   3.35230E+00  3.68117E+00  4.02985E+00  4.37121E+00  4.66469E+00  4.87169E+00  4.99199E+00  5.09494E+00  5.26057E+00  5.52973E+00
   5.91983E+00  6.43614E+00  7.07284E+00  7.79590E+00  8.53794E+00  9.24021E+00  9.89375E+00  1.05160E+01  1.10958E+01  1.16329E+01
   1.21364E+01  1.26128E+01  1.30684E+01  1.35019E+01  1.39167E+01  1.43440E+01  1.47925E+01  1.52421E+01  1.56783E+01  1.60897E+01
   1.64651E+01  1.67938E+01  1.70648E+01  1.72680E+01  1.73937E+01  1.74339E+01  1.73819E+01  1.72334E+01  1.69859E+01  1.66396E+01
   1.61969E+01  1.56626E+01  1.50437E+01  1.43489E+01  1.35887E+01  1.27744E+01  1.19181E+01  1.10324E+01  1.01295E+01  9.22148E+00
   8.31929E+00  7.43306E+00  6.57169E+00  5.74284E+00  4.95285E+00  4.20675E+00  3.50833E+00  2.86025E+00  2.26421E+00  1.72110E+00
   1.23113E+00  7.93961E-01  4.08850E-01  7.47963E-02 -2.09359E-01 -4.44876E-01 -6.33114E-01 -7.75525E-01 -8.73688E-01 -9.29332E-01
  -9.44423E-01 -9.21267E-01 -8.62652E-01 -7.71933E-01 -6.53101E-01 -5.10831E-01 -3.50507E-01 -1.78220E-01 -7.03030E-04  1.74828E-01
   3.40876E-01  4.89913E-01  6.14643E-01  7.08275E-01  7.64820E-01  7.79381E-01  7.48399E-01  6.69820E-01  5.43164E-01  3.69525E-01
   1.51503E-01 -1.06919E-01 -4.00603E-01 -7.23532E-01 -1.06914E+00 -1.43062E+00 -1.80122E+00 -2.17450E+00 -2.54456E+00 -2.90619E+00
  -3.25509E+00 -3.58780E+00 -3.90181E+00 -4.19540E+00 -4.46765E+00 -4.71832E+00 -4.94774E+00 -5.15671E+00 -5.34631E+00 -5.51785E+00
  -5.67277E+00 -5.81256E+00 -5.93873E+00 -6.05274E+00 -6.15591E+00 -6.24949E+00 -6.33458E+00 -6.41222E+00 -6.48331E+00 -6.54863E+00
  -6.60888E+00 -6.66462E+00 -6.71637E+00 -6.76460E+00 -6.80970E+00 -6.85199E+00 -6.89177E+00 -6.92926E+00 -6.96469E+00 -6.99827E+00
  -7.03016E+00 -7.06050E+00 -7.08940E+00 -7.11698E+00 -7.14334E+00 -7.16859E+00 -7.19282E+00 -7.21607E+00 -7.23842E+00 -7.25991E+00
  -7.28062E+00 -7.30061E+00 -7.31991E+00 -7.33855E+00 -7.35657E+00 -7.37401E+00 -7.39091E+00 -7.40731E+00 -7.42323E+00 -7.43867E+00
  -7.45366E+00 -7.46824E+00 -7.48244E+00 -7.49627E+00 -7.50974E+00 -7.52286E+00 -7.53565E+00 -7.54814E+00 -7.56035E+00 -7.57229E+00
  -7.58394E+00 -7.59534E+00 -7.60649E+00 -7.61743E+00 -7.62815E+00 -7.63865E+00 -7.64893E+00 -7.65901E+00 -7.66891E+00 -7.67864E+00
  -7.68819E+00 -7.69755E+00 -7.70673E+00 -7.71575E+00 -7.72460E+00 -7.73330E+00 -7.74181E+00 -7.75014E+00
 NY background values follow
     3.202E+01    3.176E+01    3.149E+01    3.122E+01    3.095E+01    3.069E+01    3.042E+01    3.015E+01    2.988E+01    2.962E+01
     2.935E+01    2.908E+01    2.882E+01    2.855E+01    2.828E+01    2.801E+01    2.775E+01    2.748E+01    2.722E+01    2.695E+01
     2.668E+01    2.642E+01    2.616E+01    2.589E+01    2.563E+01    2.536E+01    2.510E+01    2.484E+01    2.458E+01    2.431E+01
     2.405E+01    2.379E+01    2.353E+01    2.327E+01    2.302E+01    2.276E+01    2.250E+01    2.224E+01    2.199E+01    2.173E+01
     2.148E+01    2.123E+01    2.097E+01    2.072E+01    2.047E+01    2.022E+01    1.997E+01    1.972E+01    1.948E+01    1.923E+01
     1.899E+01    1.874E+01    1.850E+01    1.826E+01    1.802E+01    1.778E+01    1.754E+01    1.730E+01    1.707E+01    1.683E+01
     1.660E+01    1.637E+01    1.614E+01    1.591E+01    1.568E+01    1.545E+01    1.522E+01    1.500E+01    1.478E+01    1.456E+01
     1.433E+01    1.412E+01    1.390E+01    1.368E+01    1.347E+01    1.326E+01    1.304E+01    1.283E+01    1.263E+01    1.242E+01
     1.221E+01    1.201E+01    1.181E+01    1.161E+01    1.141E+01    1.121E+01    1.102E+01    1.082E+01    1.063E+01    1.044E+01
     1.026E+01    1.007E+01    9.885E+00    9.702E+00    9.522E+00    9.343E+00    9.166E+00    8.990E+00    8.817E+00    8.645E+00
     8.475E+00    8.306E+00    8.140E+00    7.974E+00    7.811E+00    7.649E+00    7.489E+00    7.331E+00    7.174E+00    7.019E+00
     6.866E+00    6.714E+00    6.564E+00    6.415E+00    6.268E+00    6.122E+00    5.978E+00    5.836E+00    5.695E+00    5.555E+00
     5.418E+00    5.281E+00    5.146E+00    5.013E+00    4.881E+00    4.750E+00    4.621E+00    4.493E+00    4.367E+00    4.242E+00
     4.118E+00    3.996E+00    3.876E+00    3.756E+00    3.638E+00    3.521E+00    3.406E+00    3.292E+00    3.179E+00    3.068E+00
     2.957E+00    2.848E+00    2.741E+00    2.635E+00    2.530E+00    2.426E+00    2.324E+00    2.223E+00    2.123E+00    2.024E+00
     1.927E+00    1.831E+00    1.736E+00    1.643E+00    1.551E+00    1.460E+00    1.370E+00    1.282E+00    1.195E+00    1.109E+00
     1.025E+00    9.415E-01    8.595E-01    7.788E-01    6.993E-01    6.211E-01    5.441E-01    4.684E-01    3.939E-01    3.206E-01
     2.486E-01    1.778E-01    1.083E-01    3.995E-02   -2.714E-02   -9.299E-02   -1.576E-01   -2.210E-01   -2.832E-01   -3.442E-01
    -4.039E-01   -4.625E-01   -5.198E-01   -5.759E-01   -6.309E-01   -6.848E-01   -7.375E-01   -7.891E-01   -8.396E-01   -8.891E-01
    -9.375E-01   -9.850E-01   -1.031E+00   -1.077E+00   -1.121E+00   -1.165E+00   -1.208E+00   -1.249E+00   -1.290E+00   -1.330E+00
    -1.370E+00   -1.408E+00   -1.446E+00   -1.483E+00   -1.519E+00   -1.554E+00   -1.589E+00   -1.623E+00   -1.656E+00   -1.689E+00
    -1.721E+00   -1.753E+00   -1.784E+00   -1.815E+00   -1.844E+00   -1.874E+00   -1.903E+00   -1.931E+00   -1.959E+00   -1.987E+00
    -2.014E+00   -2.041E+00   -2.068E+00   -2.094E+00   -2.120E+00   -2.145E+00   -2.171E+00   -2.196E+00   -2.220E+00   -2.245E+00
    -2.269E+00   -2.294E+00   -2.317E+00   -2.341E+00   -2.365E+00   -2.388E+00   -2.411E+00   -2.434E+00   -2.457E+00   -2.479E+00
    -2.502E+00   -2.524E+00   -2.546E+00   -2.568E+00   -2.590E+00   -2.612E+00   -2.634E+00   -2.655E+00   -2.677E+00   -2.698E+00
    -2.720E+00   -2.741E+00   -2.762E+00   -2.783E+00   -2.804E+00   -2.825E+00   -2.846E+00   -2.867E+00   -2.888E+00   -2.909E+00
    -2.930E+00   -2.951E+00   -2.972E+00   -2.993E+00   -3.014E+00   -3.035E+00   -3.056E+00   -3.077E+00   -3.098E+00   -3.120E+00
    -3.141E+00   -3.162E+00   -3.184E+00   -3.205E+00   -3.227E+00   -3.248E+00   -3.270E+00   -3.292E+00   -3.314E+00   -3.336E+00
    -3.358E+00   -3.381E+00   -3.403E+00   -3.425E+00   -3.448E+00   -3.471E+00   -3.493E+00   -3.516E+00   -3.539E+00   -3.562E+00
    -3.586E+00   -3.609E+00   -3.632E+00   -3.656E+00   -3.680E+00   -3.703E+00   -3.727E+00   -3.751E+00   -3.776E+00   -3.800E+00
    -3.825E+00   -3.849E+00   -3.874E+00   -3.899E+00   -3.924E+00   -3.949E+00   -3.974E+00   -4.000E+00   -4.025E+00   -4.051E+00
    -4.077E+00   -4.103E+00   -4.129E+00   -4.156E+00   -4.182E+00   -4.209E+00   -4.236E+00   -4.263E+00   -4.290E+00   -4.317E+00
    -4.345E+00   -4.372E+00   -4.400E+00   -4.428E+00   -4.456E+00   -4.484E+00   -4.513E+00   -4.541E+00   -4.570E+00   -4.598E+00
    -4.627E+00   -4.656E+00   -4.685E+00   -4.714E+00   -4.743E+00   -4.773E+00   -4.802E+00   -4.831E+00   -4.861E+00   -4.890E+00
    -4.920E+00   -4.950E+00   -4.979E+00   -5.009E+00   -5.039E+00   -5.069E+00   -5.099E+00   -5.129E+00   -5.159E+00   -5.189E+00
    -5.219E+00   -5.249E+00   -5.279E+00   -5.309E+00   -5.340E+00   -5.370E+00   -5.400E+00   -5.430E+00   -5.460E+00   -5.490E+00
    -5.520E+00   -5.550E+00   -5.580E+00   -5.610E+00   -5.640E+00   -5.670E+00   -5.700E+00   -5.730E+00   -5.759E+00   -5.789E+00
    -5.818E+00   -5.848E+00   -5.877E+00   -5.906E+00   -5.936E+00   -5.965E+00   -5.994E+00   -6.022E+00   -6.051E+00   -6.079E+00
    -6.108E+00   -6.136E+00   -6.164E+00   -6.192E+00   -6.219E+00   -6.247E+00   -6.274E+00   -6.301E+00   -6.328E+00   -6.355E+00
    -6.381E+00   -6.408E+00   -6.434E+00   -6.459E+00   -6.485E+00   -6.510E+00   -6.535E+00   -6.560E+00   -6.584E+00   -6.608E+00
    -6.632E+00   -6.656E+00   -6.679E+00   -6.702E+00   -6.725E+00   -6.747E+00   -6.769E+00   -6.791E+00   -6.812E+00   -6.833E+00
    -6.854E+00   -6.874E+00   -6.894E+00   -6.914E+00   -6.933E+00   -6.952E+00   -6.971E+00   -6.989E+00   -7.007E+00   -7.025E+00
    -7.043E+00   -7.060E+00   -7.077E+00   -7.094E+00   -7.110E+00   -7.126E+00   -7.142E+00   -7.157E+00   -7.173E+00   -7.188E+00
    -7.202E+00   -7.217E+00   -7.231E+00   -7.245E+00   -7.259E+00   -7.273E+00   -7.286E+00   -7.299E+00   -7.312E+00   -7.324E+00
    -7.337E+00   -7.349E+00   -7.361E+00   -7.372E+00   -7.384E+00   -7.395E+00   -7.406E+00   -7.417E+00   -7.428E+00   -7.438E+00
    -7.449E+00   -7.459E+00   -7.469E+00   -7.478E+00   -7.488E+00   -7.497E+00   -7.507E+00   -7.516E+00   -7.525E+00   -7.534E+00
    -7.542E+00   -7.551E+00   -7.559E+00   -7.567E+00   -7.575E+00   -7.583E+00   -7.591E+00   -7.599E+00   -7.607E+00   -7.614E+00
    -7.622E+00   -7.629E+00   -7.636E+00   -7.643E+00   -7.650E+00   -7.657E+00   -7.664E+00   -7.671E+00   -7.678E+00   -7.685E+00
    -7.691E+00   -7.698E+00   -7.705E+00   -7.711E+00   -7.718E+00   -7.724E+00   -7.730E+00   -7.737E+00   -7.743E+00   -7.750E+00
    -7.756E+00   -7.762E+00   -7.769E+00   -7.775E+00   -7.781E+00   -7.788E+00   -7.794E+00   -7.800E+00
 Ala      Conc. = 9.04E+01
