 LCModel (Version 6.3-1L) Copyright: S.W. Provencher.          Ref.: Magn. Reson. Med. 30:672-679 (1993).                
 Slice#3 Row#7 Col#11  PD_24_press_1_raw_act
 36 lines in following concentration table = NCONC+1
    Conc.  %SD /Cr+PCr  Metabolite                                         
    0.000 999%   0.000 Ala                                                 
    6.527 999% 6.1E-03 Asp                                                 
  660.353  32%   0.615 Cr                                                  
  414.244  53%   0.385 PCr                                                 
    0.000 999%   0.000 GABA                                                
    0.000 999%   0.000 Glc                                                 
  497.926  43%   0.463 Gln                                                 
 1.15E+03  20%   1.074 Glu                                                 
  406.046   5%   0.378 GPC                                                 
    0.000 999%   0.000 PCh                                                 
  294.021  22%   0.274 GSH                                                 
 1.03E+03  24%   0.955 Ins                                                 
    0.000 999%   0.000 Lac                                                 
 1.59E+03   6%   1.483 NAA                                                 
  303.098  35%   0.282 NAAG                                                
   87.666  28% 8.2E-02 Scyllo                                              
    0.000 999%   0.000 Tau                                                 
  416.531  26%   0.388 -CrCH2                                              
  406.046   5%   0.378 GPC+PCh                                             
 1.90E+03   4%   1.765 NAA+NAAG                                            
 1.07E+03   5%   1.000 Cr+PCr                                              
 1.65E+03  21%   1.538 Glu+Gln                                             
    0.000 999%   0.000 Lip13a                                              
    0.000 999%   0.000 Lip13b                                              
    0.000 999%   0.000 Lip09                                               
 1.82E+03  12%   1.689 MM09                                                
   10.583 303% 9.8E-03 Lip20                                               
 4.26E+03   8%   3.962+MM20                                                
  583.091  19%   0.543 MM12                                                
    0.000 999%   0.000 MM14                                                
  733.491  27%   0.683 MM17                                                
    0.000 999%   0.000 Lip13a+Lip13b                                       
  583.091  19%   0.543 MM14+Lip13a+Lip13b+MM12                             
 1.82E+03  12%   1.689 MM09+Lip09                                          
 4.27E+03   8%   3.972 MM20+Lip20                                          
   6 lines in following misc. output table
  FWHM = 0.054 ppm    S/N =  11                                            
  Data shift = 0.008 ppm                                                   
  Ph: -15 deg      -8.2 deg/ppm                                            
  alphaB,S = 2.6E-01,   1.7E+02                                            
   14 spline knots.   Ns = 7(1)                                            
  (13) 4 infls.   (10) 1 extrs.                                            
  498 points on ppm-axis = NY
      4.000000     3.992357     3.984714     3.977070     3.969427     3.961784     3.954141     3.946497     3.938854     3.931211
      3.923568     3.915925     3.908281     3.900638     3.892995     3.885352     3.877708     3.870065     3.862422     3.854779
      3.847136     3.839492     3.831849     3.824206     3.816563     3.808919     3.801276     3.793633     3.785990     3.778347
      3.770703     3.763060     3.755417     3.747774     3.740130     3.732487     3.724844     3.717201     3.709558     3.701914
      3.694271     3.686628     3.678985     3.671341     3.663698     3.656055     3.648412     3.640769     3.633125     3.625482
      3.617839     3.610196     3.602552     3.594909     3.587266     3.579623     3.571980     3.564336     3.556693     3.549050
      3.541407     3.533763     3.526120     3.518477     3.510834     3.503191     3.495547     3.487904     3.480261     3.472618
      3.464974     3.457331     3.449688     3.442045     3.434402     3.426758     3.419115     3.411472     3.403829     3.396185
      3.388542     3.380899     3.373256     3.365613     3.357969     3.350326     3.342683     3.335040     3.327396     3.319753
      3.312110     3.304467     3.296824     3.289180     3.281537     3.273894     3.266251     3.258607     3.250964     3.243321
      3.235678     3.228034     3.220391     3.212748     3.205105     3.197462     3.189818     3.182175     3.174532     3.166889
      3.159245     3.151602     3.143959     3.136316     3.128673     3.121029     3.113386     3.105743     3.098100     3.090456
      3.082813     3.075170     3.067527     3.059884     3.052240     3.044597     3.036954     3.029311     3.021667     3.014024
      3.006381     2.998738     2.991095     2.983451     2.975808     2.968165     2.960522     2.952878     2.945235     2.937592
      2.929949     2.922306     2.914662     2.907019     2.899376     2.891733     2.884089     2.876446     2.868803     2.861160
      2.853517     2.845873     2.838230     2.830587     2.822944     2.815300     2.807657     2.800014     2.792371     2.784728
      2.777084     2.769441     2.761798     2.754155     2.746511     2.738868     2.731225     2.723582     2.715939     2.708295
      2.700652     2.693009     2.685366     2.677722     2.670079     2.662436     2.654793     2.647150     2.639506     2.631863
      2.624220     2.616577     2.608933     2.601290     2.593647     2.586004     2.578361     2.570717     2.563074     2.555431
      2.547788     2.540144     2.532501     2.524858     2.517215     2.509572     2.501928     2.494285     2.486642     2.478999
      2.471355     2.463712     2.456069     2.448426     2.440783     2.433139     2.425496     2.417853     2.410210     2.402566
      2.394923     2.387280     2.379637     2.371994     2.364350     2.356707     2.349064     2.341421     2.333777     2.326134
      2.318491     2.310848     2.303205     2.295561     2.287918     2.280275     2.272632     2.264988     2.257345     2.249702
      2.242059     2.234416     2.226772     2.219129     2.211486     2.203843     2.196199     2.188556     2.180913     2.173270
      2.165627     2.157983     2.150340     2.142697     2.135054     2.127410     2.119767     2.112124     2.104481     2.096838
      2.089194     2.081551     2.073908     2.066265     2.058621     2.050978     2.043335     2.035692     2.028049     2.020405
      2.012762     2.005119     1.997476     1.989833     1.982190     1.974546     1.966903     1.959260     1.951617     1.943974
      1.936331     1.928688     1.921045     1.913402     1.905759     1.898115     1.890472     1.882829     1.875186     1.867543
      1.859900     1.852257     1.844614     1.836971     1.829327     1.821684     1.814041     1.806398     1.798755     1.791112
      1.783469     1.775826     1.768183     1.760540     1.752896     1.745253     1.737610     1.729967     1.722324     1.714681
      1.707038     1.699395     1.691752     1.684108     1.676465     1.668822     1.661179     1.653536     1.645893     1.638250
      1.630607     1.622964     1.615321     1.607677     1.600034     1.592391     1.584748     1.577105     1.569462     1.561819
      1.554176     1.546533     1.538890     1.531246     1.523603     1.515960     1.508317     1.500674     1.493031     1.485388
      1.477745     1.470102     1.462458     1.454815     1.447172     1.439529     1.431886     1.424243     1.416600     1.408957
      1.401314     1.393671     1.386027     1.378384     1.370741     1.363098     1.355455     1.347812     1.340169     1.332526
      1.324883     1.317240     1.309596     1.301953     1.294310     1.286667     1.279024     1.271381     1.263738     1.256095
      1.248452     1.240808     1.233165     1.225522     1.217879     1.210236     1.202593     1.194950     1.187307     1.179664
      1.172021     1.164377     1.156734     1.149091     1.141448     1.133805     1.126162     1.118519     1.110876     1.103233
      1.095590     1.087946     1.080303     1.072660     1.065017     1.057374     1.049731     1.042088     1.034445     1.026802
      1.019158     1.011515     1.003872     0.996229     0.988586     0.980943     0.973300     0.965657     0.958014     0.950371
      0.942727     0.935084     0.927441     0.919798     0.912155     0.904512     0.896869     0.889226     0.881583     0.873940
      0.866296     0.858653     0.851010     0.843367     0.835724     0.828081     0.820438     0.812795     0.805152     0.797508
      0.789865     0.782222     0.774579     0.766936     0.759293     0.751650     0.744007     0.736364     0.728721     0.721077
      0.713434     0.705791     0.698148     0.690505     0.682862     0.675219     0.667576     0.659933     0.652290     0.644646
      0.637003     0.629360     0.621717     0.614074     0.606431     0.598788     0.591145     0.583502     0.575858     0.568215
      0.560572     0.552929     0.545286     0.537643     0.530000     0.522357     0.514714     0.507071     0.499427     0.491784
      0.484141     0.476498     0.468855     0.461212     0.453569     0.445925     0.438282     0.430639     0.422996     0.415353
      0.407710     0.400067     0.392424     0.384780     0.377137     0.369494     0.361851     0.354208     0.346565     0.338922
      0.331278     0.323635     0.315992     0.308349     0.300706     0.293063     0.285420     0.277777     0.270133     0.262490
      0.254847     0.247204     0.239561     0.231918     0.224275     0.216631     0.208988     0.201345
 NY phased data points follow
   9.91654E+00  5.32963E+00  1.15434E+01  6.54867E+00  7.15482E+00  5.03024E+00  8.86127E+00  9.35901E+00  1.53933E+01  1.45399E+01
   2.23215E+01  2.12175E+01  2.41245E+01  2.28045E+01  2.06216E+01  1.83429E+01  1.78669E+01  1.38252E+01  1.54203E+01  7.93273E+00
   1.15685E+01  9.89886E+00  1.15031E+01  9.53233E+00  1.06531E+01  8.12532E+00  9.72653E+00  6.60259E+00  1.17259E+01  1.14333E+01
   1.36194E+01  1.38304E+01  1.17751E+01  1.20697E+01  1.64977E+01  1.11389E+01  1.36232E+01  8.86164E+00  1.39884E+01  7.49480E+00
   1.15736E+01  8.71458E+00  1.16141E+01  7.05135E+00  1.50599E+01  1.31023E+01  1.46906E+01  1.33105E+01  1.78536E+01  1.47606E+01
   1.61619E+01  1.30537E+01  1.23063E+01  1.20219E+01  1.34546E+01  9.73388E+00  1.25952E+01  9.39371E+00  9.90174E+00  1.07129E+01
   1.14785E+01  7.29629E+00  4.15769E+00  4.23481E+00  5.45641E+00  1.58402E+00  1.11332E+00  1.71114E+00  2.23999E+00  3.75407E+00
   4.16520E+00  9.85905E-01  4.34693E+00  3.71445E+00  3.72763E+00  3.27781E+00  8.91132E+00  3.42189E+00  5.16972E+00  1.30851E+00
   4.36967E+00  4.79718E+00  7.03312E+00  6.96180E+00  8.77400E+00  3.89421E+00  7.25915E+00  4.88644E+00  4.98299E+00  4.20560E+00
   1.09900E+01  5.85041E+00  7.08206E+00  9.74832E+00  5.70320E+00  4.40217E+00  9.17710E+00  3.55366E+00  9.79747E+00  7.78196E+00
   1.81751E+01  2.75711E+01  3.97568E+01  3.99418E+01  4.02000E+01  3.07148E+01  3.07968E+01  2.77012E+01  2.33152E+01  2.15173E+01
   1.71888E+01  9.93521E+00  8.87922E+00  5.84507E+00  8.09233E+00  8.05685E+00  6.34351E+00  7.35924E+00  8.73985E+00  5.88248E+00
   4.48271E+00  5.12525E+00  9.13439E+00  1.18580E+01  2.26407E+01  3.08986E+01  3.58153E+01  4.16054E+01  4.56839E+01  3.69704E+01
   3.38240E+01  2.64510E+01  2.72460E+01  2.45637E+01  2.38419E+01  1.17982E+01  1.55410E+01  8.74572E+00  1.31579E+01  6.06628E+00
   1.05476E+01  1.20143E+01  7.95949E+00  1.00715E+01  1.22985E+01  6.53264E+00  1.10685E+01  7.48061E+00  8.64948E+00  7.24195E+00
   7.67740E+00  4.23344E+00  8.68486E+00  8.59856E+00  7.15566E+00  9.90131E+00  7.85166E+00  9.47712E+00  1.18287E+01  6.67173E+00
   8.67807E+00  5.52826E+00  5.73146E+00  4.22456E+00  7.47160E+00  4.40102E+00  3.62550E+00  4.35242E+00  4.16147E+00  1.22110E+00
   3.73207E+00  3.73179E+00  4.61525E+00  3.88967E-01  6.63690E-01  6.96971E-01  2.50764E+00  7.25309E-01  3.90878E+00  3.62690E+00
   3.68274E+00  3.04946E-02  2.96442E+00  4.51813E+00  2.10476E+00  4.99625E+00  3.78296E+00  4.14968E+00  8.06234E+00  2.73389E+00
   1.07187E+01  1.10747E+01  1.00146E+01  9.45939E+00  1.18783E+01  1.22408E+01  1.02124E+01  9.13365E+00  1.18353E+01  1.07440E+01
   1.15677E+01  1.28181E+01  1.47998E+01  1.50597E+01  1.53049E+01  1.64188E+01  1.50389E+01  1.02160E+01  1.50316E+01  1.41603E+01
   1.61832E+01  1.69373E+01  1.91877E+01  2.06870E+01  2.27318E+01  2.53437E+01  2.59309E+01  2.52381E+01  2.15712E+01  2.41841E+01
   2.16568E+01  1.46505E+01  1.86852E+01  2.02502E+01  1.82804E+01  1.71592E+01  2.29240E+01  2.40563E+01  2.76117E+01  2.36727E+01
   2.41088E+01  2.80117E+01  2.34612E+01  2.62205E+01  2.57417E+01  2.11900E+01  2.56477E+01  2.44475E+01  2.42608E+01  2.17472E+01
   2.08150E+01  2.40668E+01  2.56731E+01  2.25262E+01  2.68091E+01  2.65471E+01  3.22577E+01  2.57824E+01  2.90356E+01  3.41596E+01
   3.07887E+01  3.21576E+01  3.43379E+01  3.85062E+01  3.98469E+01  4.32346E+01  5.20099E+01  5.81016E+01  7.11203E+01  7.67345E+01
   8.41726E+01  8.07798E+01  7.25930E+01  6.73245E+01  5.82672E+01  5.00830E+01  4.68785E+01  4.04518E+01  3.68327E+01  3.11876E+01
   2.86512E+01  2.45840E+01  2.73491E+01  2.62924E+01  2.58597E+01  2.42508E+01  2.24086E+01  1.68374E+01  1.92421E+01  1.92011E+01
   2.27680E+01  1.78235E+01  1.80391E+01  1.79330E+01  1.69309E+01  1.64364E+01  1.85878E+01  1.34227E+01  1.40985E+01  1.73263E+01
   1.35730E+01  1.52467E+01  1.41880E+01  1.34636E+01  1.20616E+01  1.45265E+01  1.60241E+01  1.17750E+01  1.19858E+01  1.12298E+01
   1.13233E+01  1.11657E+01  1.41424E+01  1.12509E+01  6.86805E+00  1.17302E+01  1.26008E+01  9.35286E+00  9.36924E+00  1.07216E+01
   8.00903E+00  6.07548E+00  9.27989E+00  7.18973E+00  5.60147E+00  4.98800E+00  6.98961E+00  5.46768E+00  3.20251E+00  1.93588E+00
  -2.40278E+00 -2.27602E+00 -2.60719E+00 -2.50399E+00 -6.70809E-01 -4.99653E+00 -2.85387E-01  2.24634E+00  3.47883E+00  2.81747E+00
   2.51042E+00 -3.55293E+00 -5.28158E-01 -2.42652E+00 -1.11675E+00 -1.27280E+00 -6.16500E-01 -3.26651E+00  2.09716E-01 -3.73720E+00
  -5.91072E-01 -2.39327E-01 -2.08587E+00 -1.00457E+00  1.99910E+00  1.70958E+00 -2.03596E+00 -6.80551E+00 -2.33746E+00 -2.99184E+00
  -1.16296E+00 -2.51665E+00  1.62815E+00 -4.90089E-02  1.69922E+00 -2.10831E+00  2.00037E+00  4.44880E-01 -4.58960E+00 -3.74434E+00
  -3.67538E-01  2.18781E+00 -9.46800E-01  2.65236E+00 -1.63718E+00 -1.65584E+00  3.43494E+00 -1.37004E-01  1.71699E+00 -1.49866E+00
   1.05031E+00 -2.02494E+00  1.69084E-01 -1.07726E+00  8.55650E-01  1.72679E+00  4.00709E+00  1.84641E+00  2.22566E+00  1.15901E+00
  -4.88645E+00  3.14921E+00 -1.13555E+00 -4.12741E+00  2.87903E+00 -2.76750E+00  3.67128E-01  1.09749E+00 -4.50505E-01 -1.32757E+00
   5.07615E-01  3.93003E+00  6.26135E-01 -2.78891E+00  3.65272E+00  2.29361E+00  2.91468E+00 -1.40886E+00 -1.43542E+00 -8.80275E-01
   5.20054E+00  3.12031E+00  3.93237E+00  3.86637E+00  5.29339E+00  7.19992E+00  5.12934E+00  6.86420E+00  3.13427E+00  6.16655E+00
   5.87811E+00  7.50415E+00  7.33837E+00  5.76090E+00  6.67764E+00  3.58075E+00  2.78002E+00  2.48679E+00  2.65108E+00  3.07117E+00
   2.22263E+00  4.11994E+00  4.94549E-01  1.09026E+00  1.84873E-01 -1.62838E+00  1.46763E-01  3.01632E+00  6.60567E-01  4.72710E+00
   1.30544E+00  2.17915E+00  2.34393E+00 -1.94641E+00  2.39134E-01  3.51612E+00  3.40038E-01  1.11624E+00  1.21298E+00  1.75035E-01
   1.89091E-01  1.29999E+00  4.63058E+00  3.10155E+00  1.50081E+00 -2.30389E-02  9.06261E-02 -8.71958E-01 -7.75280E-01  1.26731E+00
   9.70530E-01 -2.95534E-01  1.11781E+00  1.89147E+00  1.50810E+00  5.30654E-01 -1.04734E+00  1.33476E+00  1.83843E+00 -7.37868E-01
   1.18613E+00  2.60649E-01 -2.13683E+00  2.85699E+00 -2.35976E-01 -5.18190E-01  1.28835E+00  2.83783E+00  3.84661E-02  1.99353E-01
   1.40532E-01  2.44437E+00  1.51465E-01  1.96415E+00  1.34132E+00  2.15848E+00 -1.00549E-01  3.66398E-01 -8.28079E-01 -2.24370E+00
   4.94552E-01 -1.67460E-01  1.93534E+00  6.59204E-02  3.88081E+00  1.27577E-01  3.79236E-01 -4.10248E-01  1.20969E+00  6.95983E-02
  -1.17593E-01  3.57671E+00  1.28471E-01 -1.41359E+00 -1.70861E+00 -8.48370E-01  6.52485E-01  3.37760E+00
 NY points of the fit to the data follow
   8.74615E+00  8.14646E+00  7.71745E+00  7.35999E+00  7.11009E+00  7.30759E+00  8.31142E+00  1.04092E+01  1.35782E+01  1.72722E+01
   2.05599E+01  2.25782E+01  2.30050E+01  2.21502E+01  2.07065E+01  1.92420E+01  1.78903E+01  1.63565E+01  1.43925E+01  1.23958E+01
   1.07693E+01  9.92887E+00  9.39557E+00  8.84982E+00  8.33667E+00  8.08669E+00  8.39992E+00  9.43371E+00  1.10636E+01  1.29042E+01
   1.44462E+01  1.52841E+01  1.52968E+01  1.46325E+01  1.35952E+01  1.24621E+01  1.13688E+01  1.02463E+01  9.16825E+00  8.42882E+00
   8.11105E+00  8.17466E+00  8.72455E+00  9.83531E+00  1.13871E+01  1.29871E+01  1.42108E+01  1.47117E+01  1.43643E+01  1.34080E+01
   1.21693E+01  1.09193E+01  9.85665E+00  8.97367E+00  8.12779E+00  7.41940E+00  7.16033E+00  7.40515E+00  7.84989E+00  8.18051E+00
   8.24292E+00  7.98904E+00  7.49539E+00  6.91171E+00  6.40574E+00  6.07891E+00  5.91071E+00  5.83756E+00  5.86801E+00  6.01303E+00
   6.21677E+00  6.41622E+00  6.52145E+00  6.49752E+00  6.36125E+00  6.15361E+00  5.92851E+00  5.71311E+00  5.50915E+00  5.33551E+00
   5.27897E+00  5.46796E+00  5.92495E+00  6.55676E+00  7.15396E+00  7.46832E+00  7.34649E+00  6.81816E+00  6.09552E+00  5.44484E+00
   5.01373E+00  4.77600E+00  4.58943E+00  4.30256E+00  3.89670E+00  3.59159E+00  3.78916E+00  4.97826E+00  7.86894E+00  1.30927E+01
   2.04562E+01  2.85689E+01  3.53339E+01  3.89652E+01  3.88601E+01  3.59109E+01  3.17717E+01  2.76483E+01  2.38887E+01  2.01108E+01
   1.57770E+01  1.11661E+01  7.88876E+00  6.74431E+00  6.35912E+00  6.17788E+00  6.07804E+00  6.02366E+00  6.01231E+00  6.08963E+00
   6.50737E+00  7.84605E+00  1.07552E+01  1.57361E+01  2.26170E+01  3.01967E+01  3.66255E+01  4.02905E+01  4.06024E+01  3.82733E+01
   3.47486E+01  3.11044E+01  2.76034E+01  2.38726E+01  1.94548E+01  1.46719E+01  1.10986E+01  9.73078E+00  9.36066E+00  9.32827E+00
   9.38043E+00  9.38994E+00  9.35777E+00  9.33191E+00  9.28828E+00  9.19769E+00  9.05900E+00  8.85255E+00  8.57806E+00  8.27252E+00
   7.96182E+00  7.70433E+00  7.50974E+00  7.38787E+00  7.33678E+00  7.31923E+00  7.26840E+00  7.12165E+00  6.87882E+00  6.61077E+00
   6.42763E+00  6.41731E+00  6.56495E+00  6.73813E+00  6.78780E+00  6.65649E+00  6.39494E+00  6.13206E+00  5.98251E+00  5.93133E+00
   5.84344E+00  5.62358E+00  5.28891E+00  4.93735E+00  4.72630E+00  4.71211E+00  4.84275E+00  5.04555E+00  5.21850E+00  5.30536E+00
   5.35406E+00  5.44878E+00  5.63998E+00  5.92504E+00  6.27095E+00  6.68615E+00  7.27685E+00  8.18521E+00  9.35437E+00  1.05457E+01
   1.14712E+01  1.19821E+01  1.21420E+01  1.20982E+01  1.19742E+01  1.18533E+01  1.17962E+01  1.19145E+01  1.23406E+01  1.30841E+01
   1.40750E+01  1.51658E+01  1.61238E+01  1.66820E+01  1.66843E+01  1.60847E+01  1.49992E+01  1.36493E+01  1.24184E+01  1.17174E+01
   1.17884E+01  1.26653E+01  1.42082E+01  1.61710E+01  1.81387E+01  1.96090E+01  2.01984E+01  1.97856E+01  1.85208E+01  1.67387E+01
   1.50865E+01  1.40379E+01  1.37280E+01  1.41529E+01  1.52169E+01  1.67446E+01  1.83343E+01  1.96422E+01  2.06559E+01  2.14724E+01
   2.21381E+01  2.25828E+01  2.28455E+01  2.31810E+01  2.37515E+01  2.44515E+01  2.51243E+01  2.56162E+01  2.58302E+01  2.57815E+01
   2.55603E+01  2.53577E+01  2.54236E+01  2.58486E+01  2.64964E+01  2.71593E+01  2.77746E+01  2.83289E+01  2.88608E+01  2.95562E+01
   3.06526E+01  3.22571E+01  3.43189E+01  3.69167E+01  4.03840E+01  4.51906E+01  5.18626E+01  6.04314E+01  6.97104E+01  7.74250E+01
   8.12817E+01  8.01878E+01  7.49003E+01  6.74844E+01  5.99844E+01  5.34648E+01  4.73671E+01  4.06999E+01  3.35894E+01  2.79516E+01
   2.52199E+01  2.38179E+01  2.28347E+01  2.20594E+01  2.13711E+01  2.06871E+01  2.00219E+01  1.93873E+01  1.87955E+01  1.82538E+01
   1.77588E+01  1.72970E+01  1.68716E+01  1.64957E+01  1.61672E+01  1.58694E+01  1.55907E+01  1.53362E+01  1.51129E+01  1.49162E+01
   1.47340E+01  1.45609E+01  1.43906E+01  1.42113E+01  1.40099E+01  1.37816E+01  1.35251E+01  1.32403E+01  1.29270E+01  1.25845E+01
   1.22141E+01  1.18212E+01  1.14072E+01  1.09728E+01  1.05207E+01  1.00560E+01  9.58398E+00  9.10793E+00  8.62922E+00  8.15278E+00
   7.68347E+00  7.22456E+00  6.77943E+00  6.35043E+00  5.93885E+00  5.54527E+00  5.16994E+00  4.81272E+00  4.47323E+00  4.15060E+00
   3.84383E+00  3.55179E+00  3.27349E+00  3.00787E+00  2.75408E+00  2.51112E+00  2.27814E+00  2.05429E+00  1.83910E+00  1.63213E+00
   1.43313E+00  1.24166E+00  1.05751E+00  8.80498E-01  7.10763E-01  5.48407E-01  3.93647E-01  2.46551E-01  1.07422E-01 -2.33983E-02
  -1.45292E-01 -2.57765E-01 -3.60245E-01 -4.52312E-01 -5.33326E-01 -6.02702E-01 -6.59737E-01 -7.04034E-01 -7.35268E-01 -7.53416E-01
  -7.58443E-01 -7.50640E-01 -7.30484E-01 -6.99015E-01 -6.57529E-01 -6.07763E-01 -5.51552E-01 -4.91133E-01 -4.28905E-01 -3.67643E-01
  -3.10052E-01 -2.58848E-01 -2.16368E-01 -1.84829E-01 -1.66012E-01 -1.61396E-01 -1.71718E-01 -1.97140E-01 -2.36999E-01 -2.90177E-01
  -3.54894E-01 -4.28982E-01 -5.09610E-01 -5.93647E-01 -6.77573E-01 -7.57923E-01 -8.31113E-01 -8.93723E-01 -9.42245E-01 -9.73451E-01
  -9.84253E-01 -9.72046E-01 -9.34418E-01 -8.69345E-01 -7.74923E-01 -6.49714E-01 -4.92563E-01 -3.02904E-01 -8.04510E-02  1.74532E-01
   4.61435E-01  7.78886E-01  1.12491E+00  1.49664E+00  1.89061E+00  2.30251E+00  2.72739E+00  3.15937E+00  3.59199E+00  4.01811E+00
   4.43043E+00  4.82139E+00  5.18363E+00  5.50991E+00  5.79367E+00  6.02907E+00  6.21153E+00  6.33763E+00  6.40538E+00  6.41404E+00
   6.36448E+00  6.25889E+00  6.10097E+00  5.89543E+00  5.64798E+00  5.36483E+00  5.05277E+00  4.71872E+00  4.36968E+00  4.01219E+00
   3.65244E+00  3.29582E+00  2.94722E+00  2.61068E+00  2.28960E+00  1.98644E+00  1.70301E+00  1.44033E+00  1.19906E+00  9.79260E-01
   7.80691E-01  6.02603E-01  4.44115E-01  3.04074E-01  1.81412E-01  7.48796E-02 -1.66995E-02 -9.46695E-02 -1.60200E-01 -2.14489E-01
  -2.58490E-01 -2.93236E-01 -3.19605E-01 -3.38569E-01 -3.50866E-01 -3.57248E-01 -3.58249E-01 -3.54521E-01 -3.46575E-01 -3.35018E-01
  -3.20231E-01 -3.02650E-01 -2.82541E-01 -2.60306E-01 -2.36158E-01 -2.10399E-01 -1.83118E-01 -1.54498E-01 -1.24596E-01 -9.36445E-02
  -6.17336E-02 -2.90413E-02  4.45040E-03  3.86318E-02  7.34927E-02  1.08853E-01  1.44692E-01  1.80903E-01  2.17559E-01  2.54574E-01
   2.91956E-01  3.29560E-01  3.67415E-01  4.05464E-01  4.43799E-01  4.82336E-01  5.21089E-01  5.59938E-01  5.98952E-01  6.38099E-01
   6.77471E-01  7.16976E-01  7.56635E-01  7.96359E-01  8.36246E-01  8.76275E-01  9.16526E-01  9.56899E-01  9.97426E-01  1.03805E+00
   1.07888E+00  1.11990E+00  1.16118E+00  1.20259E+00  1.24421E+00  1.28599E+00  1.32807E+00  1.37040E+00
 NY background values follow
     6.458E+00    6.425E+00    6.392E+00    6.358E+00    6.325E+00    6.292E+00    6.259E+00    6.226E+00    6.192E+00    6.159E+00
     6.126E+00    6.092E+00    6.059E+00    6.026E+00    5.992E+00    5.959E+00    5.925E+00    5.891E+00    5.858E+00    5.824E+00
     5.790E+00    5.756E+00    5.722E+00    5.688E+00    5.654E+00    5.619E+00    5.585E+00    5.550E+00    5.516E+00    5.481E+00
     5.446E+00    5.411E+00    5.376E+00    5.340E+00    5.305E+00    5.269E+00    5.234E+00    5.198E+00    5.161E+00    5.125E+00
     5.089E+00    5.052E+00    5.015E+00    4.978E+00    4.941E+00    4.903E+00    4.866E+00    4.828E+00    4.790E+00    4.752E+00
     4.714E+00    4.675E+00    4.637E+00    4.599E+00    4.561E+00    4.523E+00    4.485E+00    4.447E+00    4.409E+00    4.372E+00
     4.335E+00    4.298E+00    4.262E+00    4.226E+00    4.190E+00    4.155E+00    4.120E+00    4.086E+00    4.053E+00    4.020E+00
     3.987E+00    3.955E+00    3.924E+00    3.894E+00    3.864E+00    3.835E+00    3.807E+00    3.780E+00    3.754E+00    3.729E+00
     3.704E+00    3.681E+00    3.659E+00    3.637E+00    3.617E+00    3.598E+00    3.581E+00    3.564E+00    3.549E+00    3.534E+00
     3.522E+00    3.510E+00    3.500E+00    3.492E+00    3.484E+00    3.478E+00    3.474E+00    3.470E+00    3.469E+00    3.468E+00
     3.469E+00    3.471E+00    3.475E+00    3.480E+00    3.487E+00    3.495E+00    3.504E+00    3.514E+00    3.526E+00    3.540E+00
     3.555E+00    3.571E+00    3.589E+00    3.608E+00    3.628E+00    3.650E+00    3.673E+00    3.698E+00    3.724E+00    3.752E+00
     3.781E+00    3.811E+00    3.843E+00    3.876E+00    3.911E+00    3.947E+00    3.985E+00    4.024E+00    4.064E+00    4.106E+00
     4.149E+00    4.194E+00    4.240E+00    4.288E+00    4.337E+00    4.388E+00    4.440E+00    4.493E+00    4.548E+00    4.605E+00
     4.663E+00    4.723E+00    4.784E+00    4.847E+00    4.911E+00    4.977E+00    5.045E+00    5.114E+00    5.186E+00    5.259E+00
     5.333E+00    5.410E+00    5.488E+00    5.568E+00    5.650E+00    5.734E+00    5.820E+00    5.908E+00    5.998E+00    6.089E+00
     6.183E+00    6.279E+00    6.377E+00    6.476E+00    6.578E+00    6.682E+00    6.789E+00    6.897E+00    7.008E+00    7.120E+00
     7.235E+00    7.353E+00    7.472E+00    7.594E+00    7.718E+00    7.845E+00    7.974E+00    8.105E+00    8.239E+00    8.375E+00
     8.514E+00    8.655E+00    8.798E+00    8.944E+00    9.092E+00    9.242E+00    9.394E+00    9.547E+00    9.701E+00    9.856E+00
     1.001E+01    1.017E+01    1.033E+01    1.049E+01    1.064E+01    1.080E+01    1.096E+01    1.112E+01    1.128E+01    1.143E+01
     1.159E+01    1.174E+01    1.189E+01    1.205E+01    1.219E+01    1.234E+01    1.249E+01    1.263E+01    1.277E+01    1.291E+01
     1.305E+01    1.318E+01    1.331E+01    1.343E+01    1.355E+01    1.367E+01    1.379E+01    1.390E+01    1.400E+01    1.410E+01
     1.420E+01    1.429E+01    1.438E+01    1.446E+01    1.453E+01    1.460E+01    1.467E+01    1.472E+01    1.478E+01    1.482E+01
     1.486E+01    1.490E+01    1.492E+01    1.495E+01    1.496E+01    1.497E+01    1.498E+01    1.498E+01    1.497E+01    1.496E+01
     1.494E+01    1.492E+01    1.489E+01    1.486E+01    1.482E+01    1.477E+01    1.472E+01    1.467E+01    1.461E+01    1.454E+01
     1.447E+01    1.440E+01    1.432E+01    1.423E+01    1.414E+01    1.405E+01    1.395E+01    1.384E+01    1.373E+01    1.362E+01
     1.350E+01    1.338E+01    1.325E+01    1.312E+01    1.298E+01    1.284E+01    1.269E+01    1.254E+01    1.239E+01    1.223E+01
     1.207E+01    1.190E+01    1.173E+01    1.155E+01    1.137E+01    1.119E+01    1.100E+01    1.081E+01    1.062E+01    1.042E+01
     1.022E+01    1.002E+01    9.815E+00    9.607E+00    9.397E+00    9.185E+00    8.971E+00    8.754E+00    8.536E+00    8.317E+00
     8.095E+00    7.873E+00    7.649E+00    7.424E+00    7.198E+00    6.972E+00    6.745E+00    6.517E+00    6.290E+00    6.062E+00
     5.834E+00    5.606E+00    5.378E+00    5.151E+00    4.925E+00    4.699E+00    4.474E+00    4.250E+00    4.027E+00    3.806E+00
     3.586E+00    3.368E+00    3.151E+00    2.937E+00    2.724E+00    2.514E+00    2.306E+00    2.101E+00    1.898E+00    1.698E+00
     1.500E+00    1.305E+00    1.113E+00    9.233E-01    7.362E-01    5.518E-01    3.700E-01    1.909E-01    1.455E-02   -1.591E-01
    -3.301E-01   -4.983E-01   -6.638E-01   -8.266E-01   -9.865E-01   -1.144E+00   -1.298E+00   -1.450E+00   -1.599E+00   -1.744E+00
    -1.888E+00   -2.028E+00   -2.165E+00   -2.300E+00   -2.431E+00   -2.560E+00   -2.686E+00   -2.809E+00   -2.929E+00   -3.046E+00
    -3.160E+00   -3.271E+00   -3.379E+00   -3.484E+00   -3.586E+00   -3.685E+00   -3.781E+00   -3.874E+00   -3.964E+00   -4.051E+00
    -4.135E+00   -4.215E+00   -4.293E+00   -4.367E+00   -4.439E+00   -4.507E+00   -4.572E+00   -4.634E+00   -4.693E+00   -4.750E+00
    -4.803E+00   -4.853E+00   -4.901E+00   -4.945E+00   -4.987E+00   -5.026E+00   -5.062E+00   -5.095E+00   -5.125E+00   -5.153E+00
    -5.177E+00   -5.199E+00   -5.219E+00   -5.235E+00   -5.249E+00   -5.260E+00   -5.269E+00   -5.275E+00   -5.278E+00   -5.279E+00
    -5.278E+00   -5.273E+00   -5.267E+00   -5.257E+00   -5.245E+00   -5.231E+00   -5.215E+00   -5.196E+00   -5.174E+00   -5.150E+00
    -5.124E+00   -5.095E+00   -5.065E+00   -5.031E+00   -4.996E+00   -4.958E+00   -4.918E+00   -4.876E+00   -4.832E+00   -4.786E+00
    -4.737E+00   -4.687E+00   -4.634E+00   -4.580E+00   -4.524E+00   -4.467E+00   -4.407E+00   -4.347E+00   -4.284E+00   -4.221E+00
    -4.156E+00   -4.089E+00   -4.022E+00   -3.953E+00   -3.883E+00   -3.813E+00   -3.741E+00   -3.669E+00   -3.595E+00   -3.521E+00
    -3.447E+00   -3.371E+00   -3.296E+00   -3.219E+00   -3.143E+00   -3.066E+00   -2.989E+00   -2.911E+00   -2.834E+00   -2.757E+00
    -2.679E+00   -2.602E+00   -2.525E+00   -2.448E+00   -2.372E+00   -2.295E+00   -2.220E+00   -2.145E+00   -2.070E+00   -1.996E+00
    -1.923E+00   -1.851E+00   -1.779E+00   -1.709E+00   -1.639E+00   -1.570E+00   -1.502E+00   -1.435E+00   -1.369E+00   -1.304E+00
    -1.239E+00   -1.175E+00   -1.112E+00   -1.049E+00   -9.875E-01   -9.264E-01   -8.659E-01   -8.060E-01   -7.468E-01   -6.881E-01
    -6.300E-01   -5.724E-01   -5.153E-01   -4.587E-01   -4.026E-01   -3.470E-01   -2.918E-01   -2.369E-01   -1.825E-01   -1.284E-01
    -7.470E-02   -2.129E-02    3.182E-02    8.466E-02    1.372E-01    1.896E-01    2.417E-01    2.937E-01    3.455E-01    3.971E-01
     4.486E-01    5.000E-01    5.513E-01    6.026E-01    6.539E-01    7.051E-01    7.563E-01    8.075E-01
 Asp      Conc. = 6.53E+00
