 LCModel (Version 6.3-1L) Copyright: S.W. Provencher.          Ref.: Magn. Reson. Med. 30:672-679 (1993).                
 Slice#1 Row#9 Col#13  PD_24_press_1_raw_act
 36 lines in following concentration table = NCONC+1
    Conc.  %SD /Cr+PCr  Metabolite                                         
    0.361 999%   0.000 Ala                                                 
    3.551  51%   0.000 Asp                                                 
    0.000 999%   0.000 Cr                                                  
    0.000 999%   0.000 PCr                                                 
    2.116  51%   0.000 GABA                                                
    2.119  51%   0.000 Glc                                                 
    0.000 999%   0.000 Gln                                                 
   76.707  76%   0.000 Glu                                                 
    0.000 999%   0.000 GPC                                                 
    0.000 999%   0.000 PCh                                                 
    0.000 999%   0.000 GSH                                                 
    0.000 999%   0.000 Ins                                                 
    0.000 999%   0.000 Lac                                                 
   65.067  38%   0.000 NAA                                                 
    5.714 359%   0.000 NAAG                                                
    0.708  51%   0.000 Scyllo                                              
    3.533  51%   0.000 Tau                                                 
    1.659 268%   0.000 -CrCH2                                              
    0.000 999%   0.000 GPC+PCh                                             
   70.781  45%   0.000 NAA+NAAG                                            
    0.000 999%   0.000 Cr+PCr                                              
   76.707  76%   0.000 Glu+Gln                                             
 5.83E+03  19%   0.000 Lip13a                                              
    0.000 999%   0.000 Lip13b                                              
 2.17E+03  16%   0.000 Lip09                                               
 2.79E+03  16%   0.000 MM09                                                
 1.11E+03  22%   0.000 Lip20                                               
  503.954  42%   0.000 MM20                                                
 2.33E+03  22%   0.000 MM12                                                
 1.06E+03  34%   0.000 MM14                                                
 1.19E+03  26%   0.000 MM17                                                
 5.83E+03  19%   0.000 Lip13a+Lip13b                                       
 9.23E+03  10%   0.000 MM14+Lip13a+Lip13b+MM12                             
 4.96E+03   8%   0.000 MM09+Lip09                                          
 1.61E+03  14%   0.000 MM20+Lip20                                          
   6 lines in following misc. output table
  FWHM = 0.054 ppm    S/N =  11                                            
  Data shift =-0.031 ppm                                                   
  Ph: -43 deg      -4.0 deg/ppm                                            
  alphaB,S = 1.7E+00,   2.7E+01                                            
   14 spline knots.   Ns = 7(1)                                            
  ( 7) 3 infls.   ( 7) 2 extrs.                                            
  498 points on ppm-axis = NY
      4.000000     3.992357     3.984714     3.977070     3.969427     3.961784     3.954141     3.946497     3.938854     3.931211
      3.923568     3.915925     3.908281     3.900638     3.892995     3.885352     3.877708     3.870065     3.862422     3.854779
      3.847136     3.839492     3.831849     3.824206     3.816563     3.808919     3.801276     3.793633     3.785990     3.778347
      3.770703     3.763060     3.755417     3.747774     3.740130     3.732487     3.724844     3.717201     3.709558     3.701914
      3.694271     3.686628     3.678985     3.671341     3.663698     3.656055     3.648412     3.640769     3.633125     3.625482
      3.617839     3.610196     3.602552     3.594909     3.587266     3.579623     3.571980     3.564336     3.556693     3.549050
      3.541407     3.533763     3.526120     3.518477     3.510834     3.503191     3.495547     3.487904     3.480261     3.472618
      3.464974     3.457331     3.449688     3.442045     3.434402     3.426758     3.419115     3.411472     3.403829     3.396185
      3.388542     3.380899     3.373256     3.365613     3.357969     3.350326     3.342683     3.335040     3.327396     3.319753
      3.312110     3.304467     3.296824     3.289180     3.281537     3.273894     3.266251     3.258607     3.250964     3.243321
      3.235678     3.228034     3.220391     3.212748     3.205105     3.197462     3.189818     3.182175     3.174532     3.166889
      3.159245     3.151602     3.143959     3.136316     3.128673     3.121029     3.113386     3.105743     3.098100     3.090456
      3.082813     3.075170     3.067527     3.059884     3.052240     3.044597     3.036954     3.029311     3.021667     3.014024
      3.006381     2.998738     2.991095     2.983451     2.975808     2.968165     2.960522     2.952878     2.945235     2.937592
      2.929949     2.922306     2.914662     2.907019     2.899376     2.891733     2.884089     2.876446     2.868803     2.861160
      2.853517     2.845873     2.838230     2.830587     2.822944     2.815300     2.807657     2.800014     2.792371     2.784728
      2.777084     2.769441     2.761798     2.754155     2.746511     2.738868     2.731225     2.723582     2.715939     2.708295
      2.700652     2.693009     2.685366     2.677722     2.670079     2.662436     2.654793     2.647150     2.639506     2.631863
      2.624220     2.616577     2.608933     2.601290     2.593647     2.586004     2.578361     2.570717     2.563074     2.555431
      2.547788     2.540144     2.532501     2.524858     2.517215     2.509572     2.501928     2.494285     2.486642     2.478999
      2.471355     2.463712     2.456069     2.448426     2.440783     2.433139     2.425496     2.417853     2.410210     2.402566
      2.394923     2.387280     2.379637     2.371994     2.364350     2.356707     2.349064     2.341421     2.333777     2.326134
      2.318491     2.310848     2.303205     2.295561     2.287918     2.280275     2.272632     2.264988     2.257345     2.249702
      2.242059     2.234416     2.226772     2.219129     2.211486     2.203843     2.196199     2.188556     2.180913     2.173270
      2.165627     2.157983     2.150340     2.142697     2.135054     2.127410     2.119767     2.112124     2.104481     2.096838
      2.089194     2.081551     2.073908     2.066265     2.058621     2.050978     2.043335     2.035692     2.028049     2.020405
      2.012762     2.005119     1.997476     1.989833     1.982190     1.974546     1.966903     1.959260     1.951617     1.943974
      1.936331     1.928688     1.921045     1.913402     1.905759     1.898115     1.890472     1.882829     1.875186     1.867543
      1.859900     1.852257     1.844614     1.836971     1.829327     1.821684     1.814041     1.806398     1.798755     1.791112
      1.783469     1.775826     1.768183     1.760540     1.752896     1.745253     1.737610     1.729967     1.722324     1.714681
      1.707038     1.699395     1.691752     1.684108     1.676465     1.668822     1.661179     1.653536     1.645893     1.638250
      1.630607     1.622964     1.615321     1.607677     1.600034     1.592391     1.584748     1.577105     1.569462     1.561819
      1.554176     1.546533     1.538890     1.531246     1.523603     1.515960     1.508317     1.500674     1.493031     1.485388
      1.477745     1.470102     1.462458     1.454815     1.447172     1.439529     1.431886     1.424243     1.416600     1.408957
      1.401314     1.393671     1.386027     1.378384     1.370741     1.363098     1.355455     1.347812     1.340169     1.332526
      1.324883     1.317240     1.309596     1.301953     1.294310     1.286667     1.279024     1.271381     1.263738     1.256095
      1.248452     1.240808     1.233165     1.225522     1.217879     1.210236     1.202593     1.194950     1.187307     1.179664
      1.172021     1.164377     1.156734     1.149091     1.141448     1.133805     1.126162     1.118519     1.110876     1.103233
      1.095590     1.087946     1.080303     1.072660     1.065017     1.057374     1.049731     1.042088     1.034445     1.026802
      1.019158     1.011515     1.003872     0.996229     0.988586     0.980943     0.973300     0.965657     0.958014     0.950371
      0.942727     0.935084     0.927441     0.919798     0.912155     0.904512     0.896869     0.889226     0.881583     0.873940
      0.866296     0.858653     0.851010     0.843367     0.835724     0.828081     0.820438     0.812795     0.805152     0.797508
      0.789865     0.782222     0.774579     0.766936     0.759293     0.751650     0.744007     0.736364     0.728721     0.721077
      0.713434     0.705791     0.698148     0.690505     0.682862     0.675219     0.667576     0.659933     0.652290     0.644646
      0.637003     0.629360     0.621717     0.614074     0.606431     0.598788     0.591145     0.583502     0.575858     0.568215
      0.560572     0.552929     0.545286     0.537643     0.530000     0.522357     0.514714     0.507071     0.499427     0.491784
      0.484141     0.476498     0.468855     0.461212     0.453569     0.445925     0.438282     0.430639     0.422996     0.415353
      0.407710     0.400067     0.392424     0.384780     0.377137     0.369494     0.361851     0.354208     0.346565     0.338922
      0.331278     0.323635     0.315992     0.308349     0.300706     0.293063     0.285420     0.277777     0.270133     0.262490
      0.254847     0.247204     0.239561     0.231918     0.224275     0.216631     0.208988     0.201345
 NY phased data points follow
   3.17373E+00  1.80871E+00  7.01684E-01  8.24725E-02  3.32512E+00  1.54247E+00  6.06119E-01  7.09149E-01  1.52832E+00  8.89502E-01
   1.24230E+00  1.50913E+00  2.94847E+00 -5.87989E-01  3.88458E+00  3.71890E+00  4.02086E+00  4.73904E+00  2.47061E+00  1.97565E+00
   3.96060E+00  3.45037E+00  2.01716E+00  8.22647E-01  3.09341E+00  1.09285E+00  2.22299E+00 -5.47383E-01  1.64155E+00  9.69317E-01
   2.01005E+00  1.95617E+00  1.00305E+00  2.71825E+00  2.93415E+00  2.68151E+00  3.96821E+00  2.55716E+00  2.36085E+00  3.78554E+00
   2.51849E+00  2.04852E+00  2.65899E+00  1.24191E+00  3.19307E+00  1.97691E+00  2.74868E+00  8.31312E-02  3.45551E+00  1.63405E+00
   1.25136E+00  2.45812E+00  3.55532E+00  2.59660E+00  2.52553E+00  4.84725E-01  5.27828E-01  3.17337E+00  3.74354E+00  2.63930E+00
   2.29220E+00  3.71393E+00  1.70414E+00  2.68307E+00  2.26288E+00  4.11821E+00  1.74956E+00  3.80044E+00  2.25287E+00  6.09995E-01
   2.98155E+00  3.34515E+00  2.62372E+00  2.75540E+00  2.32714E+00  3.40886E+00  6.94077E-01  2.49210E+00  3.43384E+00  1.38517E+00
   4.66107E+00  5.04711E+00  4.18076E+00  2.29014E+00  2.44316E+00  1.32163E+00  1.26619E+00  2.65547E+00  2.43669E+00  1.91992E+00
   3.55381E+00  4.05097E+00  1.98453E+00  2.37360E+00  2.70200E+00  1.66179E+00  4.38194E+00  2.77672E+00  2.24210E+00  3.37602E+00
   1.85120E+00  6.03368E-01  2.92666E-01  2.22144E+00  2.70458E+00  3.97871E+00  4.46380E+00  4.72221E+00  3.03609E+00  2.69151E+00
   4.73049E+00  5.03919E+00  3.49854E+00  4.37331E+00  3.40738E+00  2.26187E+00  4.46900E+00  3.36547E+00  5.03243E+00  2.34453E+00
   2.29374E+00  2.55425E+00  1.74123E+00  2.25384E+00  2.92910E+00  2.66075E+00  2.70139E+00  3.53312E+00  1.22498E+00  3.30848E+00
   3.85701E+00  3.97879E+00  3.81130E+00  5.90503E+00  4.39524E+00  1.78679E+00  3.84413E+00  4.62066E+00  4.20236E+00  3.26883E+00
   3.48496E+00  4.99512E+00  3.51655E+00  4.16440E+00  4.82588E+00  3.78864E+00  4.38455E+00  5.53548E+00  4.14192E+00  4.84235E+00
   2.93839E+00  4.26894E+00  3.83089E+00  3.89654E+00  2.16386E+00  2.56717E+00  3.08383E+00  4.99567E+00  4.21410E+00  3.77232E+00
   3.07478E+00  4.29066E+00  3.98217E+00  4.50444E+00  4.96335E+00  5.07067E+00  4.74468E+00  4.76093E+00  3.00651E+00  6.10129E+00
   5.29793E+00  3.33103E+00  5.98412E+00  5.38058E+00  5.90286E+00  4.56097E+00  5.43159E+00  5.28417E+00  2.88997E+00  3.12155E+00
   4.16564E+00  4.64958E+00  2.52522E+00  3.38282E+00  5.64537E+00  3.85557E+00  5.79054E+00  2.65271E+00  3.04349E+00  5.17671E+00
   6.86535E+00  3.50957E+00  3.03861E+00  2.94108E+00  3.36850E+00  4.19543E+00  3.90164E+00  3.43767E+00  5.12140E+00  3.70659E+00
   4.62314E+00  3.75147E+00  5.45507E+00  5.41202E+00  6.24636E+00  4.13952E+00  4.57803E+00  7.16039E+00  4.85883E+00  5.88827E+00
   4.20914E+00  6.12514E+00  5.46210E+00  4.95440E+00  5.68205E+00  4.25204E+00  5.26419E+00  5.26649E+00  4.23665E+00  4.29587E+00
   4.56531E+00  5.81020E+00  4.27290E+00  4.42349E+00  7.41113E+00  5.47411E+00  7.53451E+00  6.06491E+00  6.13473E+00  5.47840E+00
   5.89876E+00  4.84334E+00  5.28555E+00  5.83411E+00  5.87135E+00  4.25685E+00  6.64928E+00  6.79088E+00  3.50100E+00  6.47427E+00
   7.54849E+00  6.63412E+00  7.22834E+00  7.39335E+00  8.26460E+00  6.04258E+00  9.11834E+00  6.63666E+00  7.22893E+00  7.53991E+00
   8.05651E+00  7.88412E+00  8.06151E+00  7.50442E+00  8.03455E+00  1.02290E+01  1.24838E+01  9.91202E+00  8.74942E+00  9.42754E+00
   8.86405E+00  8.78293E+00  9.03281E+00  7.15954E+00  4.32762E+00  4.03361E+00  3.86262E+00  5.81737E+00  7.15309E+00  6.15026E+00
   7.07857E+00  3.87380E+00  6.30574E+00  6.49249E+00  5.74607E+00  5.94095E+00  6.07862E+00  5.19165E+00  5.89182E+00  5.97142E+00
   4.57613E+00  4.61230E+00  5.39390E+00  7.06273E+00  5.79567E+00  7.90867E+00  5.43449E+00  6.34776E+00  5.82482E+00  5.79940E+00
   5.61248E+00  8.11495E+00  7.01971E+00  6.11830E+00  6.93144E+00  7.10271E+00  8.22939E+00  5.86437E+00  6.79910E+00  6.07137E+00
   7.30979E+00  5.99147E+00  7.44318E+00  8.78032E+00  8.99173E+00  8.23841E+00  8.20107E+00  9.59893E+00  8.21264E+00  1.01883E+01
   9.73189E+00  1.15819E+01  9.40911E+00  9.90475E+00  9.59583E+00  8.92194E+00  9.54060E+00  8.86353E+00  1.03969E+01  1.07480E+01
   1.22751E+01  9.85692E+00  1.10472E+01  1.26209E+01  1.07914E+01  1.06469E+01  1.11124E+01  1.17061E+01  1.16356E+01  1.46386E+01
   1.25618E+01  1.40694E+01  1.20231E+01  1.45095E+01  1.47937E+01  1.20682E+01  1.58571E+01  1.30470E+01  1.36691E+01  1.37093E+01
   1.50638E+01  1.30096E+01  1.55894E+01  1.65388E+01  1.50722E+01  1.60513E+01  1.70388E+01  1.76106E+01  1.80994E+01  1.65805E+01
   1.87796E+01  1.65200E+01  1.71517E+01  1.59752E+01  1.84238E+01  1.75176E+01  1.71378E+01  1.83988E+01  1.89050E+01  2.07956E+01
   1.90289E+01  2.15221E+01  2.16354E+01  2.13564E+01  2.38272E+01  2.37259E+01  2.43648E+01  2.57653E+01  2.64124E+01  2.74354E+01
   2.54154E+01  2.81689E+01  2.75018E+01  2.64935E+01  2.57669E+01  2.70624E+01  2.45923E+01  2.62192E+01  2.63998E+01  2.66396E+01
   2.58626E+01  2.53019E+01  2.74299E+01  2.61588E+01  2.58624E+01  2.46310E+01  2.54536E+01  2.55576E+01  2.32062E+01  2.22573E+01
   2.58562E+01  2.45744E+01  2.41914E+01  2.19355E+01  2.25045E+01  1.92429E+01  2.31104E+01  2.13904E+01  2.00119E+01  2.07236E+01
   2.06749E+01  2.31781E+01  2.07661E+01  1.80906E+01  1.85959E+01  1.78936E+01  1.62559E+01  1.64468E+01  1.81137E+01  1.65253E+01
   1.71596E+01  1.41489E+01  1.28831E+01  1.33100E+01  1.26994E+01  1.13853E+01  1.08049E+01  1.04040E+01  9.74134E+00  8.82884E+00
   9.20233E+00  7.18453E+00  8.41171E+00  8.18250E+00  8.59448E+00  5.00111E+00  4.04384E+00  5.74798E+00  4.34795E+00  4.92457E+00
   3.44641E+00  4.25738E+00  2.65756E+00  1.89435E+00  7.93461E-01  2.52959E+00  1.17054E+00  1.13000E+00  1.51516E+00 -1.13020E+00
   4.64947E-01 -1.17098E+00 -1.33744E+00 -3.89351E+00 -2.09279E+00 -1.88542E+00  8.42936E-02 -1.21002E+00 -4.33058E+00 -3.96409E+00
  -2.76676E+00 -5.54630E+00 -4.87305E+00 -2.48440E+00 -5.95883E+00 -4.98326E+00 -4.93857E+00 -5.71792E+00 -5.90401E+00 -6.86231E+00
  -5.35627E+00 -6.50297E+00 -6.41748E+00 -7.73351E+00 -6.20402E+00 -6.84933E+00 -8.89068E+00 -8.47004E+00 -7.58283E+00 -9.75251E+00
  -7.72711E+00 -8.40033E+00 -8.01497E+00 -8.54675E+00 -9.22412E+00 -7.22183E+00 -7.46370E+00 -7.55392E+00 -1.02162E+01 -9.69029E+00
  -1.25980E+01 -8.67989E+00 -7.23451E+00 -9.96340E+00 -1.21886E+01 -1.15277E+01 -1.13406E+01 -1.03479E+01 -1.03848E+01 -1.10851E+01
  -1.12274E+01 -1.07713E+01 -1.00135E+01 -9.91899E+00 -1.12359E+01 -1.12670E+01 -8.60979E+00 -1.06102E+01
 NY points of the fit to the data follow
   1.97500E+00  1.98187E+00  1.98085E+00  1.97362E+00  1.96674E+00  1.96591E+00  1.97176E+00  1.98191E+00  1.99508E+00  2.01255E+00
   2.03551E+00  2.06219E+00  2.08796E+00  2.10758E+00  2.11987E+00  2.12845E+00  2.13889E+00  2.15600E+00  2.18251E+00  2.22022E+00
   2.25897E+00  2.26991E+00  2.24411E+00  2.19353E+00  2.14097E+00  2.11364E+00  2.13018E+00  2.19256E+00  2.27872E+00  2.35879E+00
   2.41574E+00  2.43925E+00  2.42450E+00  2.38258E+00  2.32110E+00  2.24893E+00  2.18608E+00  2.15824E+00  2.18109E+00  2.25292E+00
   2.34824E+00  2.42872E+00  2.46621E+00  2.45730E+00  2.42169E+00  2.38502E+00  2.36480E+00  2.36516E+00  2.37706E+00  2.38957E+00
   2.40045E+00  2.40986E+00  2.41804E+00  2.42565E+00  2.43356E+00  2.44217E+00  2.45142E+00  2.46103E+00  2.47095E+00  2.48170E+00
   2.49352E+00  2.50521E+00  2.51632E+00  2.52591E+00  2.53354E+00  2.54000E+00  2.54637E+00  2.55325E+00  2.56276E+00  2.57693E+00
   2.59388E+00  2.61027E+00  2.62357E+00  2.63293E+00  2.63901E+00  2.64352E+00  2.64764E+00  2.65166E+00  2.65699E+00  2.67011E+00
   2.69381E+00  2.72298E+00  2.75051E+00  2.77106E+00  2.78309E+00  2.78849E+00  2.78877E+00  2.78363E+00  2.77405E+00  2.76388E+00
   2.75862E+00  2.76366E+00  2.78117E+00  2.80605E+00  2.83107E+00  2.85280E+00  2.87226E+00  2.89087E+00  2.90851E+00  2.92399E+00
   2.93645E+00  2.94748E+00  2.95979E+00  2.97579E+00  2.99624E+00  3.02024E+00  3.04587E+00  3.07121E+00  3.09570E+00  3.12017E+00
   3.14519E+00  3.17144E+00  3.19965E+00  3.22953E+00  3.26076E+00  3.29350E+00  3.32723E+00  3.36153E+00  3.39679E+00  3.43369E+00
   3.47287E+00  3.51433E+00  3.55738E+00  3.60147E+00  3.64615E+00  3.69054E+00  3.73351E+00  3.77405E+00  3.81183E+00  3.84781E+00
   3.88280E+00  3.91750E+00  3.95314E+00  3.99040E+00  4.02941E+00  4.06926E+00  4.10911E+00  4.14902E+00  4.18916E+00  4.22969E+00
   4.26998E+00  4.30889E+00  4.34597E+00  4.38161E+00  4.41645E+00  4.45060E+00  4.48350E+00  4.51367E+00  4.54022E+00  4.56424E+00
   4.58755E+00  4.61127E+00  4.63464E+00  4.65282E+00  4.65586E+00  4.64301E+00  4.62379E+00  4.60956E+00  4.60855E+00  4.61327E+00
   4.61165E+00  4.59953E+00  4.58036E+00  4.55870E+00  4.53393E+00  4.50010E+00  4.45152E+00  4.38866E+00  4.31887E+00  4.24943E+00
   4.18774E+00  4.14278E+00  4.11367E+00  4.09082E+00  4.05983E+00  4.01961E+00  3.98057E+00  3.95265E+00  3.93709E+00  3.92286E+00
   3.89413E+00  3.85372E+00  3.82096E+00  3.81017E+00  3.82184E+00  3.84384E+00  3.86072E+00  3.86697E+00  3.86937E+00  3.87664E+00
   3.89177E+00  3.90144E+00  3.89397E+00  3.87159E+00  3.84581E+00  3.82801E+00  3.82490E+00  3.83986E+00  3.86865E+00  3.90595E+00
   3.93996E+00  3.96683E+00  3.98614E+00  3.98719E+00  3.96624E+00  3.92644E+00  3.87882E+00  3.85698E+00  3.90239E+00  4.05920E+00
   4.29408E+00  4.53120E+00  4.71022E+00  4.80686E+00  4.81471E+00  4.71404E+00  4.51100E+00  4.27318E+00  4.09379E+00  4.03607E+00
   4.12720E+00  4.35813E+00  4.68927E+00  5.05838E+00  5.39700E+00  5.65515E+00  5.81429E+00  5.86945E+00  5.84439E+00  5.79152E+00
   5.76566E+00  5.79347E+00  5.86501E+00  5.95131E+00  6.03442E+00  6.10847E+00  6.16573E+00  6.21961E+00  6.29047E+00  6.38901E+00
   6.51245E+00  6.65594E+00  6.81135E+00  6.96231E+00  7.08994E+00  7.18703E+00  7.26166E+00  7.32479E+00  7.39184E+00  7.48941E+00
   7.61859E+00  7.75570E+00  7.91891E+00  8.29155E+00  8.98170E+00  9.73971E+00  1.02737E+01  1.04452E+01  1.02995E+01  9.94233E+00
   9.42790E+00  8.74981E+00  7.90979E+00  6.99442E+00  6.18852E+00  5.68143E+00  5.54144E+00  5.66147E+00  5.82787E+00  5.87663E+00
   5.81515E+00  5.72799E+00  5.63769E+00  5.54843E+00  5.46207E+00  5.37802E+00  5.29641E+00  5.22195E+00  5.16101E+00  5.11963E+00
   5.10129E+00  5.10565E+00  5.12979E+00  5.17146E+00  5.22969E+00  5.30410E+00  5.39462E+00  5.50155E+00  5.62549E+00  5.76691E+00
   5.92534E+00  6.09933E+00  6.28698E+00  6.48620E+00  6.69472E+00  6.91006E+00  7.12988E+00  7.35166E+00  7.57257E+00  7.78963E+00
   7.99986E+00  8.20040E+00  8.38877E+00  8.56301E+00  8.72165E+00  8.86394E+00  8.98995E+00  9.10050E+00  9.19714E+00  9.28193E+00
   9.35753E+00  9.42700E+00  9.49376E+00  9.56149E+00  9.63397E+00  9.71487E+00  9.80759E+00  9.91512E+00  1.00399E+01  1.01839E+01
   1.03483E+01  1.05330E+01  1.07366E+01  1.09575E+01  1.11942E+01  1.14447E+01  1.17062E+01  1.19756E+01  1.22498E+01  1.25266E+01
   1.28028E+01  1.30750E+01  1.33399E+01  1.35944E+01  1.38362E+01  1.40636E+01  1.42761E+01  1.44741E+01  1.46584E+01  1.48307E+01
   1.49935E+01  1.51495E+01  1.53016E+01  1.54525E+01  1.56047E+01  1.57616E+01  1.59266E+01  1.61035E+01  1.62961E+01  1.65082E+01
   1.67436E+01  1.70062E+01  1.72996E+01  1.76270E+01  1.79914E+01  1.83949E+01  1.88388E+01  1.93232E+01  1.98467E+01  2.04062E+01
   2.09969E+01  2.16119E+01  2.22426E+01  2.28783E+01  2.35072E+01  2.41161E+01  2.46914E+01  2.52199E+01  2.56889E+01  2.60876E+01
   2.64074E+01  2.66427E+01  2.67909E+01  2.68534E+01  2.68348E+01  2.67430E+01  2.65888E+01  2.63852E+01  2.61463E+01  2.58867E+01
   2.56204E+01  2.53601E+01  2.51159E+01  2.48955E+01  2.47032E+01  2.45398E+01  2.44031E+01  2.42877E+01  2.41859E+01  2.40881E+01
   2.39837E+01  2.38618E+01  2.37120E+01  2.35251E+01  2.32937E+01  2.30124E+01  2.26784E+01  2.22913E+01  2.18531E+01  2.13676E+01
   2.08408E+01  2.02796E+01  1.96916E+01  1.90849E+01  1.84672E+01  1.78455E+01  1.72257E+01  1.66126E+01  1.60097E+01  1.54188E+01
   1.48406E+01  1.42746E+01  1.37192E+01  1.31722E+01  1.26308E+01  1.20920E+01  1.15531E+01  1.10114E+01  1.04647E+01  9.91136E+00
   9.35050E+00  8.78183E+00  8.20573E+00  7.62321E+00  7.03583E+00  6.44556E+00  5.85472E+00  5.26580E+00  4.68141E+00  4.10411E+00
   3.53635E+00  2.98040E+00  2.43828E+00  1.91170E+00  1.40206E+00  9.10442E-01  4.37588E-01 -1.60327E-02 -4.50240E-01 -8.65100E-01
  -1.26089E+00 -1.63808E+00 -1.99725E+00 -2.33911E+00 -2.66443E+00 -2.97406E+00 -3.26886E+00 -3.54970E+00 -3.81744E+00 -4.07293E+00
  -4.31699E+00 -4.55039E+00 -4.77390E+00 -4.98820E+00 -5.19396E+00 -5.39177E+00 -5.58222E+00 -5.76583E+00 -5.94310E+00 -6.11447E+00
  -6.28036E+00 -6.44115E+00 -6.59720E+00 -6.74883E+00 -6.89635E+00 -7.04002E+00 -7.18009E+00 -7.31680E+00 -7.45038E+00 -7.58101E+00
  -7.70888E+00 -7.83415E+00 -7.95699E+00 -8.07753E+00 -8.19591E+00 -8.31226E+00 -8.42669E+00 -8.53930E+00 -8.65019E+00 -8.75945E+00
  -8.86718E+00 -8.97346E+00 -9.07834E+00 -9.18191E+00 -9.28422E+00 -9.38534E+00 -9.48533E+00 -9.58424E+00 -9.68211E+00 -9.77898E+00
  -9.87492E+00 -9.96995E+00 -1.00641E+01 -1.01575E+01 -1.02500E+01 -1.03417E+01 -1.04328E+01 -1.05231E+01
 NY background values follow
     1.809E+00    1.816E+00    1.824E+00    1.831E+00    1.838E+00    1.846E+00    1.853E+00    1.861E+00    1.868E+00    1.875E+00
     1.883E+00    1.890E+00    1.897E+00    1.905E+00    1.912E+00    1.919E+00    1.927E+00    1.934E+00    1.941E+00    1.948E+00
     1.956E+00    1.963E+00    1.970E+00    1.978E+00    1.985E+00    1.992E+00    1.999E+00    2.006E+00    2.014E+00    2.021E+00
     2.028E+00    2.035E+00    2.042E+00    2.050E+00    2.057E+00    2.064E+00    2.071E+00    2.078E+00    2.085E+00    2.092E+00
     2.099E+00    2.106E+00    2.113E+00    2.120E+00    2.127E+00    2.134E+00    2.141E+00    2.148E+00    2.155E+00    2.162E+00
     2.169E+00    2.176E+00    2.183E+00    2.189E+00    2.196E+00    2.203E+00    2.210E+00    2.216E+00    2.223E+00    2.230E+00
     2.236E+00    2.243E+00    2.250E+00    2.256E+00    2.263E+00    2.269E+00    2.276E+00    2.282E+00    2.288E+00    2.295E+00
     2.301E+00    2.307E+00    2.314E+00    2.320E+00    2.326E+00    2.332E+00    2.338E+00    2.344E+00    2.350E+00    2.356E+00
     2.362E+00    2.368E+00    2.374E+00    2.380E+00    2.386E+00    2.392E+00    2.397E+00    2.403E+00    2.408E+00    2.414E+00
     2.420E+00    2.425E+00    2.430E+00    2.436E+00    2.441E+00    2.446E+00    2.452E+00    2.457E+00    2.462E+00    2.467E+00
     2.472E+00    2.477E+00    2.482E+00    2.487E+00    2.491E+00    2.496E+00    2.501E+00    2.505E+00    2.510E+00    2.514E+00
     2.519E+00    2.523E+00    2.527E+00    2.531E+00    2.536E+00    2.540E+00    2.544E+00    2.547E+00    2.551E+00    2.555E+00
     2.559E+00    2.562E+00    2.566E+00    2.569E+00    2.573E+00    2.576E+00    2.579E+00    2.582E+00    2.586E+00    2.589E+00
     2.591E+00    2.594E+00    2.597E+00    2.600E+00    2.602E+00    2.605E+00    2.607E+00    2.609E+00    2.611E+00    2.614E+00
     2.616E+00    2.617E+00    2.619E+00    2.621E+00    2.622E+00    2.624E+00    2.625E+00    2.626E+00    2.627E+00    2.628E+00
     2.629E+00    2.630E+00    2.630E+00    2.630E+00    2.631E+00    2.631E+00    2.631E+00    2.630E+00    2.630E+00    2.629E+00
     2.628E+00    2.627E+00    2.626E+00    2.625E+00    2.623E+00    2.621E+00    2.619E+00    2.617E+00    2.615E+00    2.612E+00
     2.609E+00    2.606E+00    2.603E+00    2.600E+00    2.596E+00    2.592E+00    2.588E+00    2.583E+00    2.579E+00    2.574E+00
     2.569E+00    2.563E+00    2.558E+00    2.552E+00    2.546E+00    2.539E+00    2.533E+00    2.526E+00    2.518E+00    2.511E+00
     2.503E+00    2.495E+00    2.487E+00    2.478E+00    2.469E+00    2.460E+00    2.451E+00    2.441E+00    2.431E+00    2.421E+00
     2.410E+00    2.399E+00    2.388E+00    2.377E+00    2.365E+00    2.353E+00    2.341E+00    2.328E+00    2.316E+00    2.302E+00
     2.289E+00    2.275E+00    2.261E+00    2.247E+00    2.232E+00    2.217E+00    2.202E+00    2.186E+00    2.170E+00    2.154E+00
     2.138E+00    2.121E+00    2.104E+00    2.086E+00    2.069E+00    2.050E+00    2.032E+00    2.013E+00    1.994E+00    1.975E+00
     1.955E+00    1.935E+00    1.915E+00    1.894E+00    1.873E+00    1.852E+00    1.830E+00    1.808E+00    1.786E+00    1.764E+00
     1.741E+00    1.718E+00    1.694E+00    1.670E+00    1.646E+00    1.622E+00    1.597E+00    1.572E+00    1.547E+00    1.521E+00
     1.495E+00    1.469E+00    1.442E+00    1.416E+00    1.388E+00    1.361E+00    1.333E+00    1.305E+00    1.277E+00    1.248E+00
     1.219E+00    1.190E+00    1.160E+00    1.131E+00    1.101E+00    1.070E+00    1.039E+00    1.008E+00    9.771E-01    9.455E-01
     9.137E-01    8.815E-01    8.491E-01    8.163E-01    7.833E-01    7.500E-01    7.164E-01    6.826E-01    6.484E-01    6.140E-01
     5.793E-01    5.443E-01    5.090E-01    4.734E-01    4.376E-01    4.015E-01    3.651E-01    3.285E-01    2.916E-01    2.544E-01
     2.169E-01    1.792E-01    1.412E-01    1.030E-01    6.444E-02    2.564E-02   -1.341E-02   -5.273E-02   -9.231E-02   -1.321E-01
    -1.722E-01   -2.126E-01   -2.532E-01   -2.941E-01   -3.352E-01   -3.766E-01   -4.182E-01   -4.601E-01   -5.023E-01   -5.447E-01
    -5.873E-01   -6.302E-01   -6.733E-01   -7.167E-01   -7.604E-01   -8.042E-01   -8.483E-01   -8.927E-01   -9.373E-01   -9.821E-01
    -1.027E+00   -1.073E+00   -1.118E+00   -1.164E+00   -1.210E+00   -1.256E+00   -1.303E+00   -1.349E+00   -1.396E+00   -1.443E+00
    -1.491E+00   -1.538E+00   -1.586E+00   -1.634E+00   -1.683E+00   -1.731E+00   -1.780E+00   -1.829E+00   -1.878E+00   -1.927E+00
    -1.977E+00   -2.027E+00   -2.077E+00   -2.127E+00   -2.177E+00   -2.228E+00   -2.279E+00   -2.330E+00   -2.381E+00   -2.433E+00
    -2.484E+00   -2.536E+00   -2.588E+00   -2.640E+00   -2.693E+00   -2.745E+00   -2.798E+00   -2.851E+00   -2.904E+00   -2.958E+00
    -3.011E+00   -3.065E+00   -3.119E+00   -3.173E+00   -3.227E+00   -3.282E+00   -3.336E+00   -3.391E+00   -3.446E+00   -3.501E+00
    -3.557E+00   -3.612E+00   -3.668E+00   -3.724E+00   -3.780E+00   -3.836E+00   -3.892E+00   -3.949E+00   -4.006E+00   -4.063E+00
    -4.120E+00   -4.177E+00   -4.234E+00   -4.292E+00   -4.350E+00   -4.408E+00   -4.466E+00   -4.524E+00   -4.583E+00   -4.641E+00
    -4.700E+00   -4.759E+00   -4.818E+00   -4.877E+00   -4.936E+00   -4.996E+00   -5.056E+00   -5.115E+00   -5.176E+00   -5.236E+00
    -5.296E+00   -5.356E+00   -5.417E+00   -5.478E+00   -5.539E+00   -5.600E+00   -5.661E+00   -5.722E+00   -5.784E+00   -5.846E+00
    -5.907E+00   -5.969E+00   -6.032E+00   -6.094E+00   -6.156E+00   -6.219E+00   -6.281E+00   -6.344E+00   -6.407E+00   -6.470E+00
    -6.533E+00   -6.597E+00   -6.660E+00   -6.724E+00   -6.787E+00   -6.851E+00   -6.915E+00   -6.979E+00   -7.044E+00   -7.108E+00
    -7.172E+00   -7.237E+00   -7.302E+00   -7.366E+00   -7.431E+00   -7.496E+00   -7.562E+00   -7.627E+00   -7.692E+00   -7.758E+00
    -7.823E+00   -7.889E+00   -7.955E+00   -8.021E+00   -8.087E+00   -8.153E+00   -8.219E+00   -8.285E+00   -8.352E+00   -8.418E+00
    -8.485E+00   -8.551E+00   -8.618E+00   -8.685E+00   -8.752E+00   -8.819E+00   -8.886E+00   -8.953E+00   -9.020E+00   -9.088E+00
    -9.155E+00   -9.223E+00   -9.290E+00   -9.358E+00   -9.426E+00   -9.493E+00   -9.561E+00   -9.629E+00   -9.697E+00   -9.765E+00
    -9.833E+00   -9.901E+00   -9.969E+00   -1.004E+01   -1.011E+01   -1.017E+01   -1.024E+01   -1.031E+01   -1.038E+01   -1.045E+01
    -1.051E+01   -1.058E+01   -1.065E+01   -1.072E+01   -1.079E+01   -1.086E+01   -1.093E+01   -1.099E+01   -1.106E+01   -1.113E+01
    -1.120E+01   -1.127E+01   -1.134E+01   -1.140E+01   -1.147E+01   -1.154E+01   -1.161E+01   -1.168E+01
 Ala      Conc. = 3.61E-01
