 LCModel (Version 6.3-1L) Copyright: S.W. Provencher.          Ref.: Magn. Reson. Med. 30:672-679 (1993).                
 Slice#1 Row#4 Col#5  PD_24_press_1_raw_act
 36 lines in following concentration table = NCONC+1
    Conc.  %SD /Cr+PCr  Metabolite                                         
    0.000 999%   0.000 Ala                                                 
    0.000 999%   0.000 Asp                                                 
    0.000 999%   0.000 Cr                                                  
 1.09E+03   6%   1.000 PCr                                                 
    0.000 999%   0.000 GABA                                                
  114.515 130%   0.105 Glc                                                 
  684.112  51%   0.627 Gln                                                 
 1.02E+03  38%   0.939 Glu                                                 
  536.928   5%   0.492 GPC                                                 
    0.000 999%   0.000 PCh                                                 
  279.598  32%   0.256 GSH                                                 
 1.20E+03  25%   1.102 Ins                                                 
    0.000 999%   0.000 Lac                                                 
 2.00E+03   4%   1.835 NAA                                                 
    0.000 999%   0.000 NAAG                                                
  168.525  18%   0.154 Scyllo                                              
  500.137  40%   0.458 Tau                                                 
  204.512  55%   0.187 -CrCH2                                              
  536.928   5%   0.492 GPC+PCh                                             
 2.00E+03   4%   1.835 NAA+NAAG                                            
 1.09E+03   6%   1.000 Cr+PCr                                              
 1.71E+03  36%   1.566 Glu+Gln                                             
 5.00E+03  14%   4.577 Lip13a                                              
    0.000 999%   0.000 Lip13b                                              
 1.31E+03  38%   1.198 Lip09                                               
  954.595  50%   0.874 MM09                                                
 1.24E+03  32%   1.132 Lip20                                               
 3.18E+03  15%   2.914 MM20                                                
   99.360 312% 9.1E-02 MM12                                                
    0.000 999%   0.000 MM14                                                
  688.060  33%   0.630 MM17                                                
 5.00E+03  14%   4.577 Lip13a+Lip13b                                       
 5.10E+03  11%   4.668 MM14+Lip13a+Lip13b+MM12                             
 2.26E+03  10%   2.073 MM09+Lip09                                          
 4.42E+03  10%   4.046 MM20+Lip20                                          
   6 lines in following misc. output table
  FWHM = 0.076 ppm    S/N =   9                                            
  Data shift = 0.031 ppm                                                   
  Ph: -78 deg     -22.0 deg/ppm                                            
  alphaB,S = 2.4E+00,   2.0E+02                                            
   14 spline knots.   Ns = 9(1)                                            
  (14) 4 infls.   (11) 1 extrs.                                            
  498 points on ppm-axis = NY
      4.000000     3.992357     3.984714     3.977070     3.969427     3.961784     3.954141     3.946497     3.938854     3.931211
      3.923568     3.915925     3.908281     3.900638     3.892995     3.885352     3.877708     3.870065     3.862422     3.854779
      3.847136     3.839492     3.831849     3.824206     3.816563     3.808919     3.801276     3.793633     3.785990     3.778347
      3.770703     3.763060     3.755417     3.747774     3.740130     3.732487     3.724844     3.717201     3.709558     3.701914
      3.694271     3.686628     3.678985     3.671341     3.663698     3.656055     3.648412     3.640769     3.633125     3.625482
      3.617839     3.610196     3.602552     3.594909     3.587266     3.579623     3.571980     3.564336     3.556693     3.549050
      3.541407     3.533763     3.526120     3.518477     3.510834     3.503191     3.495547     3.487904     3.480261     3.472618
      3.464974     3.457331     3.449688     3.442045     3.434402     3.426758     3.419115     3.411472     3.403829     3.396185
      3.388542     3.380899     3.373256     3.365613     3.357969     3.350326     3.342683     3.335040     3.327396     3.319753
      3.312110     3.304467     3.296824     3.289180     3.281537     3.273894     3.266251     3.258607     3.250964     3.243321
      3.235678     3.228034     3.220391     3.212748     3.205105     3.197462     3.189818     3.182175     3.174532     3.166889
      3.159245     3.151602     3.143959     3.136316     3.128673     3.121029     3.113386     3.105743     3.098100     3.090456
      3.082813     3.075170     3.067527     3.059884     3.052240     3.044597     3.036954     3.029311     3.021667     3.014024
      3.006381     2.998738     2.991095     2.983451     2.975808     2.968165     2.960522     2.952878     2.945235     2.937592
      2.929949     2.922306     2.914662     2.907019     2.899376     2.891733     2.884089     2.876446     2.868803     2.861160
      2.853517     2.845873     2.838230     2.830587     2.822944     2.815300     2.807657     2.800014     2.792371     2.784728
      2.777084     2.769441     2.761798     2.754155     2.746511     2.738868     2.731225     2.723582     2.715939     2.708295
      2.700652     2.693009     2.685366     2.677722     2.670079     2.662436     2.654793     2.647150     2.639506     2.631863
      2.624220     2.616577     2.608933     2.601290     2.593647     2.586004     2.578361     2.570717     2.563074     2.555431
      2.547788     2.540144     2.532501     2.524858     2.517215     2.509572     2.501928     2.494285     2.486642     2.478999
      2.471355     2.463712     2.456069     2.448426     2.440783     2.433139     2.425496     2.417853     2.410210     2.402566
      2.394923     2.387280     2.379637     2.371994     2.364350     2.356707     2.349064     2.341421     2.333777     2.326134
      2.318491     2.310848     2.303205     2.295561     2.287918     2.280275     2.272632     2.264988     2.257345     2.249702
      2.242059     2.234416     2.226772     2.219129     2.211486     2.203843     2.196199     2.188556     2.180913     2.173270
      2.165627     2.157983     2.150340     2.142697     2.135054     2.127410     2.119767     2.112124     2.104481     2.096838
      2.089194     2.081551     2.073908     2.066265     2.058621     2.050978     2.043335     2.035692     2.028049     2.020405
      2.012762     2.005119     1.997476     1.989833     1.982190     1.974546     1.966903     1.959260     1.951617     1.943974
      1.936331     1.928688     1.921045     1.913402     1.905759     1.898115     1.890472     1.882829     1.875186     1.867543
      1.859900     1.852257     1.844614     1.836971     1.829327     1.821684     1.814041     1.806398     1.798755     1.791112
      1.783469     1.775826     1.768183     1.760540     1.752896     1.745253     1.737610     1.729967     1.722324     1.714681
      1.707038     1.699395     1.691752     1.684108     1.676465     1.668822     1.661179     1.653536     1.645893     1.638250
      1.630607     1.622964     1.615321     1.607677     1.600034     1.592391     1.584748     1.577105     1.569462     1.561819
      1.554176     1.546533     1.538890     1.531246     1.523603     1.515960     1.508317     1.500674     1.493031     1.485388
      1.477745     1.470102     1.462458     1.454815     1.447172     1.439529     1.431886     1.424243     1.416600     1.408957
      1.401314     1.393671     1.386027     1.378384     1.370741     1.363098     1.355455     1.347812     1.340169     1.332526
      1.324883     1.317240     1.309596     1.301953     1.294310     1.286667     1.279024     1.271381     1.263738     1.256095
      1.248452     1.240808     1.233165     1.225522     1.217879     1.210236     1.202593     1.194950     1.187307     1.179664
      1.172021     1.164377     1.156734     1.149091     1.141448     1.133805     1.126162     1.118519     1.110876     1.103233
      1.095590     1.087946     1.080303     1.072660     1.065017     1.057374     1.049731     1.042088     1.034445     1.026802
      1.019158     1.011515     1.003872     0.996229     0.988586     0.980943     0.973300     0.965657     0.958014     0.950371
      0.942727     0.935084     0.927441     0.919798     0.912155     0.904512     0.896869     0.889226     0.881583     0.873940
      0.866296     0.858653     0.851010     0.843367     0.835724     0.828081     0.820438     0.812795     0.805152     0.797508
      0.789865     0.782222     0.774579     0.766936     0.759293     0.751650     0.744007     0.736364     0.728721     0.721077
      0.713434     0.705791     0.698148     0.690505     0.682862     0.675219     0.667576     0.659933     0.652290     0.644646
      0.637003     0.629360     0.621717     0.614074     0.606431     0.598788     0.591145     0.583502     0.575858     0.568215
      0.560572     0.552929     0.545286     0.537643     0.530000     0.522357     0.514714     0.507071     0.499427     0.491784
      0.484141     0.476498     0.468855     0.461212     0.453569     0.445925     0.438282     0.430639     0.422996     0.415353
      0.407710     0.400067     0.392424     0.384780     0.377137     0.369494     0.361851     0.354208     0.346565     0.338922
      0.331278     0.323635     0.315992     0.308349     0.300706     0.293063     0.285420     0.277777     0.270133     0.262490
      0.254847     0.247204     0.239561     0.231918     0.224275     0.216631     0.208988     0.201345
 NY phased data points follow
  -2.11813E+01 -2.26641E+01 -1.91943E+01 -1.59211E+01 -1.47387E+01 -9.25274E+00 -6.35050E+00 -5.49892E+00  1.16754E+00  3.14410E+00
   5.01115E-01  1.13623E+00 -1.37510E+00 -1.48356E+00 -6.97817E+00 -1.23664E+01 -1.36115E+01 -1.27976E+01 -1.78609E+01 -1.69270E+01
  -1.60229E+01 -1.50508E+01 -1.76258E+01 -1.80614E+01 -1.44349E+01 -1.28238E+01 -1.59182E+01 -1.06857E+01 -1.17047E+01 -6.28561E+00
  -9.89676E+00 -9.79077E+00 -8.33325E+00 -8.30256E+00 -9.12084E+00 -1.01523E+01 -1.45154E+01 -1.20943E+01 -1.18953E+01 -1.27197E+01
  -7.90161E+00 -8.73249E+00 -8.17251E+00 -8.11678E+00 -2.43089E+00 -5.32478E+00 -4.75478E+00  5.60256E-01 -5.95077E+00 -5.91753E+00
  -8.57880E+00 -1.06804E+01 -1.04599E+01 -9.01360E+00 -9.58571E+00 -6.16642E+00 -8.95794E+00 -1.08750E+01 -5.42978E+00 -1.06408E+01
  -1.48503E+01 -1.43816E+01 -1.25495E+01 -1.40811E+01 -1.33933E+01 -9.44995E+00 -1.14539E+01 -1.26371E+01 -1.18388E+01 -1.04411E+01
  -1.52267E+01 -1.03476E+01 -9.22707E+00 -1.22950E+01 -5.12138E+00 -7.38487E+00 -9.14056E+00 -1.38598E+01 -8.16266E+00 -7.45443E+00
  -9.11894E+00 -1.37953E+00 -9.81875E+00 -4.88115E+00 -4.02236E+00 -4.47754E+00 -5.76618E+00 -6.50006E+00 -5.65174E+00 -9.11770E+00
  -4.65402E+00 -6.27613E+00 -5.16870E+00 -6.15176E+00 -8.01209E+00 -3.20893E+00  5.32974E+00  8.42032E+00  1.84915E+01  2.20839E+01
   2.04833E+01  2.46222E+01  2.82881E+01  2.54054E+01  2.44782E+01  2.34818E+01  1.62980E+01  1.00894E+01  4.34661E+00  5.57835E+00
  -1.51756E+00  1.79942E+00 -5.54334E-01 -1.40659E+00 -3.47626E+00 -5.28811E+00 -5.84472E+00 -3.49361E+00 -9.96360E+00 -7.09013E+00
  -3.66224E+00  1.63058E+00  7.94537E+00  1.32881E+01  2.04144E+01  1.62721E+01  2.28806E+01  1.63047E+01  2.34890E+01  1.91508E+01
   7.72139E+00  1.27000E+01  5.43817E+00  9.77853E-01  2.63741E+00  5.77349E-01 -1.36788E+00 -2.27583E+00 -8.81934E+00 -2.21144E+00
  -5.25752E+00 -8.67298E+00 -3.79841E+00 -5.92441E+00 -6.98528E+00 -9.45930E+00 -9.12956E+00 -5.34332E+00 -9.63792E+00 -7.20715E+00
  -1.00375E+01 -6.94434E+00 -1.02326E+01 -2.47552E+00 -6.94024E+00 -1.00687E+01 -3.57696E+00  1.56495E-02 -8.16600E+00 -5.44525E+00
  -2.73710E+00 -4.57472E+00 -7.52541E-01 -4.50620E+00 -5.57841E+00 -1.35697E+00 -5.39923E+00 -3.83767E+00 -5.78756E+00 -5.25958E+00
  -1.20396E+01 -8.10064E+00 -9.11594E+00 -1.04988E+01 -1.33049E+01 -1.55689E+01 -1.21469E+01 -1.08725E+01 -1.16862E+01 -1.07794E+01
  -1.13709E+01 -1.46455E+01 -1.17979E+01 -1.02751E+01 -1.16014E+01 -7.04299E+00 -7.84018E+00 -7.48071E+00 -6.78347E+00 -3.83539E+00
  -3.56242E+00 -7.75157E-01 -2.61008E+00  1.75489E+00 -5.66787E+00 -1.17160E+00 -3.80002E+00 -3.91049E+00 -4.70840E+00 -8.53720E+00
  -5.97069E+00  1.62085E-01  1.36193E+00 -7.21011E-01 -1.99783E+00 -7.17793E-01 -3.43590E+00 -2.39857E+00 -3.83206E+00  9.86316E-01
  -3.47135E+00  3.64374E+00  2.27106E+00  3.06844E+00  5.98598E+00  8.42041E+00  4.91705E+00  1.14097E+00  5.26152E+00  5.43552E+00
   3.32982E+00  9.66711E-01  6.65244E-01  5.59129E+00  3.48459E+00  8.21135E-02  1.42373E+00  2.63214E+00  4.08512E+00  6.04496E+00
   5.03205E+00  5.49138E+00  3.99829E+00  6.89063E+00  7.79519E+00  5.47139E+00  5.82761E+00  6.21754E+00  7.37906E+00  7.66783E+00
   7.82948E+00  1.18590E+01  6.65772E+00  6.75034E+00  5.51247E+00  1.19545E+01  9.31176E+00  6.29673E+00  2.68560E+00  8.57380E+00
   1.27607E+01  1.19551E+01  1.18598E+01  1.35221E+01  1.70304E+01  2.80075E+01  3.77881E+01  4.56905E+01  5.34065E+01  5.68356E+01
   5.66153E+01  6.02318E+01  5.53445E+01  4.96031E+01  4.35563E+01  4.35520E+01  3.48621E+01  2.91063E+01  2.49419E+01  2.18013E+01
   1.74086E+01  1.17726E+01  1.43624E+01  1.44059E+01  5.75397E+00  1.01366E+01  9.44538E+00 -3.07716E-01  4.57789E+00  4.01983E+00
   4.72103E+00  1.01313E+00 -5.62687E-01  3.40151E+00  8.37265E-01 -3.35194E-02  2.03052E+00  5.08403E+00  3.64128E-01  3.93955E+00
   5.82865E+00  2.97645E+00  4.28752E+00  1.81693E+00  1.12902E+00  3.20583E+00  5.56080E+00  3.70999E+00  3.00671E+00  2.53155E+00
   1.42389E+00  1.84128E+00  1.29267E+00  2.01112E+00  3.48936E+00  7.27483E+00  3.58060E+00  6.94683E+00  4.60511E+00  8.41356E+00
   3.41622E+00  5.46065E+00  7.12276E+00  3.33078E+00  3.67248E-01  8.38836E+00  3.21865E+00  4.12523E+00  3.19382E+00  9.34630E+00
   4.87288E+00  8.17236E+00  5.34563E+00  7.47237E+00  6.58043E+00  7.86698E+00  1.15346E+01  9.12853E+00  8.02794E+00  8.53049E+00
   6.13419E+00  1.01368E+01  5.92111E+00  6.12487E+00  3.16420E+00  6.22163E+00  6.05752E+00  6.54354E+00  1.99087E-01  4.96183E+00
   7.84383E+00  4.47854E+00  1.11016E+01  1.40084E+01  1.66602E+01  1.57702E+01  1.78969E+01  2.05996E+01  1.75940E+01  2.32129E+01
   2.00267E+01  1.98115E+01  1.78306E+01  1.76650E+01  1.40935E+01  1.79196E+01  1.55672E+01  1.66688E+01  8.09500E+00  1.03840E+01
   1.29956E+01  1.70105E+01  1.14916E+01  1.20494E+01  1.14574E+01  9.96313E+00  1.30455E+01  9.29864E+00  1.06899E+01  9.49042E+00
   9.10037E+00  1.42869E+01  1.00517E+01  1.52302E+01  9.19990E+00  1.05854E+01  1.24669E+01  1.27424E+01  5.90786E+00  1.17333E+01
   1.05138E+01  7.84127E+00  1.25272E+01  1.73596E+01  1.25880E+01  1.26610E+01  1.06482E+01  1.08429E+01  1.20677E+01  8.35803E+00
   9.21505E+00  6.82242E+00  8.86982E+00  1.36711E+01  8.99780E+00  6.07816E+00  1.20509E+01  1.56262E+01  1.49854E+01  1.27708E+01
   1.34111E+01  1.10769E+01  1.15080E+01  1.53666E+01  1.68667E+01  1.46414E+01  1.74452E+01  1.93293E+01  1.48825E+01  1.51371E+01
   1.38510E+01  1.35014E+01  1.56630E+01  1.65411E+01  1.10718E+01  1.28368E+01  9.92269E+00  1.18599E+01  1.19552E+01  8.96187E+00
   7.61346E+00  9.31553E+00  6.24473E+00  7.08952E+00  1.00955E+01  9.96097E+00  9.44280E+00  7.25523E+00  3.61481E+00 -1.14630E+00
   3.99315E+00 -2.27258E+00  2.73289E+00  2.54864E+00  1.38888E+00  4.54815E+00 -1.25374E+00  2.21824E+00 -3.35103E+00  1.11711E+00
   7.28154E-01  2.29416E+00  1.51214E+00 -2.52752E+00  1.03314E-01  1.23707E+00  1.20834E+00  3.86773E+00 -1.25781E+00  2.17952E+00
   3.50193E-01 -2.37711E-01  2.18086E+00 -4.21110E+00  1.71723E+00 -1.53998E+00 -1.15570E+00 -1.18400E+00  6.17970E+00 -2.26973E+00
  -1.75832E+00 -1.48355E+00  2.20678E+00  5.18137E+00 -2.67279E-02 -2.02457E+00 -1.34758E-01 -2.37898E-01  1.47544E+00  4.18145E+00
   4.22814E+00  2.86179E+00  3.14007E+00  1.90946E+00  7.16760E-01  2.63783E+00  1.38054E-01  2.75170E+00  1.62442E-01  1.98664E-01
  -4.97533E-02 -3.36897E+00 -1.09679E+00  7.09823E-01  2.26830E+00 -6.19812E-01  2.25260E+00  1.94402E+00  1.43538E+00 -1.04612E+00
  -1.64964E+00 -2.38697E-01  5.20668E+00  2.83143E+00 -8.11839E-01 -1.48522E+00 -3.26014E+00  5.73980E-01
 NY points of the fit to the data follow
  -1.71439E+01 -1.66911E+01 -1.52828E+01 -1.29086E+01 -9.98785E+00 -7.11751E+00 -4.68863E+00 -2.87042E+00 -1.69138E+00 -1.16762E+00
  -1.29738E+00 -2.01015E+00 -3.17838E+00 -4.64339E+00 -6.21831E+00 -7.70148E+00 -9.03198E+00 -1.03425E+01 -1.17350E+01 -1.30090E+01
  -1.37390E+01 -1.42047E+01 -1.45615E+01 -1.46799E+01 -1.44552E+01 -1.38379E+01 -1.28777E+01 -1.17046E+01 -1.05084E+01 -9.44791E+00
  -8.64247E+00 -8.17790E+00 -8.10011E+00 -8.38281E+00 -8.92133E+00 -9.58894E+00 -1.02454E+01 -1.08087E+01 -1.12399E+01 -1.14766E+01
  -1.13456E+01 -1.06575E+01 -9.59274E+00 -8.43904E+00 -7.41042E+00 -6.67919E+00 -6.31075E+00 -6.32413E+00 -6.63943E+00 -7.19084E+00
  -7.96155E+00 -8.84100E+00 -9.61525E+00 -1.01168E+01 -1.03606E+01 -1.04836E+01 -1.05956E+01 -1.07268E+01 -1.08113E+01 -1.08196E+01
  -1.07956E+01 -1.07887E+01 -1.08023E+01 -1.08353E+01 -1.08670E+01 -1.08513E+01 -1.07734E+01 -1.06387E+01 -1.04423E+01 -1.01707E+01
  -9.81629E+00 -9.44461E+00 -9.14455E+00 -9.00536E+00 -9.05195E+00 -9.23318E+00 -9.48953E+00 -9.73918E+00 -9.78519E+00 -9.43372E+00
  -8.66217E+00 -7.68231E+00 -6.72505E+00 -5.96179E+00 -5.49955E+00 -5.33639E+00 -5.39806E+00 -5.64844E+00 -6.11570E+00 -6.77663E+00
  -7.56306E+00 -8.35727E+00 -8.99418E+00 -9.14442E+00 -7.87735E+00 -4.39179E+00  1.20509E+00  8.09888E+00  1.50235E+01  2.07265E+01
   2.46858E+01  2.69011E+01  2.74169E+01  2.63200E+01  2.38567E+01  2.03842E+01  1.63161E+01  1.21055E+01  8.18606E+00  4.71519E+00
   1.40832E+00 -2.03580E+00 -5.11532E+00 -6.72185E+00 -7.33697E+00 -7.69420E+00 -7.92688E+00 -8.04133E+00 -7.77207E+00 -6.25171E+00
  -2.97281E+00  1.73603E+00  6.99648E+00  1.18756E+01  1.57141E+01  1.83109E+01  1.97334E+01  1.99811E+01  1.90806E+01  1.71865E+01
   1.45425E+01  1.14488E+01  8.28485E+00  5.42707E+00  2.92315E+00  4.99519E-01 -1.94174E+00 -3.82707E+00 -4.48310E+00 -4.60682E+00
  -4.60599E+00 -4.57367E+00 -4.55708E+00 -4.56920E+00 -4.58492E+00 -4.58499E+00 -4.59971E+00 -4.64777E+00 -4.72466E+00 -4.82813E+00
  -4.94110E+00 -5.03698E+00 -5.09983E+00 -5.12181E+00 -5.16517E+00 -5.28162E+00 -5.47403E+00 -5.69391E+00 -5.85963E+00 -5.92786E+00
  -5.92308E+00 -5.90673E+00 -5.92264E+00 -5.98542E+00 -6.09035E+00 -6.23060E+00 -6.40991E+00 -6.63247E+00 -6.91023E+00 -7.26424E+00
  -7.67831E+00 -8.08019E+00 -8.41321E+00 -8.68770E+00 -8.91871E+00 -9.12258E+00 -9.27213E+00 -9.32658E+00 -9.32195E+00 -9.29418E+00
  -9.28968E+00 -9.31698E+00 -9.30802E+00 -9.16680E+00 -8.82070E+00 -8.24988E+00 -7.52279E+00 -6.77124E+00 -6.12569E+00 -5.60700E+00
  -5.17775E+00 -4.84445E+00 -4.63038E+00 -4.53644E+00 -4.46244E+00 -4.30143E+00 -3.99246E+00 -3.49359E+00 -2.83595E+00 -2.12232E+00
  -1.42991E+00 -8.70200E-01 -6.22985E-01 -7.94470E-01 -1.33092E+00 -2.09411E+00 -2.92879E+00 -3.68287E+00 -4.15179E+00 -4.16101E+00
  -3.68810E+00 -2.83733E+00 -1.80441E+00 -8.20855E-01 -1.06192E-01  2.09922E-01  1.22549E-01 -2.72720E-01 -7.56740E-01 -1.11940E+00
  -1.26581E+00 -1.24327E+00 -9.63242E-01 -3.80822E-01  3.37181E-01  1.01652E+00  1.66349E+00  2.36569E+00  3.06392E+00  3.64070E+00
   4.15567E+00  4.71686E+00  5.35541E+00  5.98449E+00  6.51412E+00  6.92815E+00  7.23522E+00  7.40938E+00  7.48371E+00  7.53258E+00
   7.63285E+00  7.82197E+00  8.06173E+00  8.32810E+00  8.66476E+00  9.09118E+00  9.56877E+00  1.00588E+01  1.06139E+01  1.12426E+01
   1.18888E+01  1.25633E+01  1.35486E+01  1.59933E+01  2.10413E+01  2.86359E+01  3.75115E+01  4.59989E+01  5.27197E+01  5.70559E+01
   5.90291E+01  5.87281E+01  5.62618E+01  5.19781E+01  4.64183E+01  4.01719E+01  3.38465E+01  2.80611E+01  2.30366E+01  1.83497E+01
   1.35909E+01  9.30865E+00  6.90981E+00  5.98537E+00  5.43396E+00  5.00790E+00  4.64484E+00  4.30466E+00  3.99238E+00  3.70925E+00
   3.45504E+00  3.23047E+00  3.03236E+00  2.85316E+00  2.69632E+00  2.57223E+00  2.48329E+00  2.42541E+00  2.39618E+00  2.39585E+00
   2.42444E+00  2.47924E+00  2.55565E+00  2.65364E+00  2.77286E+00  2.91168E+00  3.06810E+00  3.23974E+00  3.42351E+00  3.61539E+00
   3.81106E+00  4.00691E+00  4.19889E+00  4.38267E+00  4.55445E+00  4.71095E+00  4.84940E+00  4.96779E+00  5.06487E+00  5.14022E+00
   5.19428E+00  5.22841E+00  5.24476E+00  5.24627E+00  5.23656E+00  5.21970E+00  5.19983E+00  5.18142E+00  5.16888E+00  5.16652E+00
   5.17828E+00  5.20773E+00  5.25805E+00  5.33204E+00  5.43202E+00  5.55985E+00  5.71686E+00  5.90400E+00  6.12189E+00  6.37086E+00
   6.65091E+00  6.96169E+00  7.30250E+00  7.67238E+00  8.07010E+00  8.49407E+00  8.94229E+00  9.41231E+00  9.90116E+00  1.04055E+01
   1.09214E+01  1.14445E+01  1.19700E+01  1.24924E+01  1.30060E+01  1.35047E+01  1.39824E+01  1.44326E+01  1.48492E+01  1.52261E+01
   1.55576E+01  1.58387E+01  1.60651E+01  1.62331E+01  1.63404E+01  1.63852E+01  1.63673E+01  1.62874E+01  1.61474E+01  1.59502E+01
   1.56997E+01  1.54006E+01  1.50583E+01  1.46792E+01  1.42695E+01  1.38360E+01  1.33856E+01  1.29251E+01  1.24610E+01  1.19996E+01
   1.15470E+01  1.11086E+01  1.06894E+01  1.02939E+01  9.92620E+00  9.58986E+00  9.28799E+00  9.02337E+00  8.79843E+00  8.61539E+00
   8.47624E+00  8.38276E+00  8.33656E+00  8.33909E+00  8.39165E+00  8.49534E+00  8.65092E+00  8.85868E+00  9.11836E+00  9.42901E+00
   9.78877E+00  1.01948E+01  1.06428E+01  1.11274E+01  1.16415E+01  1.21767E+01  1.27231E+01  1.32696E+01  1.38039E+01  1.43129E+01
   1.47833E+01  1.52019E+01  1.55561E+01  1.58344E+01  1.60270E+01  1.61263E+01  1.61270E+01  1.60266E+01  1.58256E+01  1.55269E+01
   1.51364E+01  1.46623E+01  1.41148E+01  1.35054E+01  1.28468E+01  1.21521E+01  1.14342E+01  1.07057E+01  9.97807E+00  9.26170E+00
   8.56548E+00  7.89671E+00  7.26113E+00  6.66290E+00  6.10478E+00  5.58819E+00  5.11339E+00  4.67974E+00  4.28584E+00  3.92976E+00
   3.60918E+00  3.32155E+00  3.06417E+00  2.83433E+00  2.62940E+00  2.44691E+00  2.28450E+00  2.14001E+00  2.01143E+00  1.89697E+00
   1.79504E+00  1.70425E+00  1.62332E+00  1.55113E+00  1.48669E+00  1.42915E+00  1.37777E+00  1.33190E+00  1.29095E+00  1.25441E+00
   1.22182E+00  1.19281E+00  1.16704E+00  1.14421E+00  1.12404E+00  1.10627E+00  1.09070E+00  1.07715E+00  1.06546E+00  1.05547E+00
   1.04703E+00  1.04003E+00  1.03433E+00  1.02988E+00  1.02658E+00  1.02434E+00  1.02307E+00  1.02271E+00  1.02320E+00  1.02450E+00
   1.02657E+00  1.02935E+00  1.03278E+00  1.03682E+00  1.04147E+00  1.04669E+00  1.05245E+00  1.05871E+00  1.06545E+00  1.07264E+00
   1.08029E+00  1.08839E+00  1.09689E+00  1.10579E+00  1.11507E+00  1.12474E+00  1.13479E+00  1.14523E+00  1.15603E+00  1.16718E+00
   1.17870E+00  1.19061E+00  1.20292E+00  1.21562E+00  1.22871E+00  1.24223E+00  1.25620E+00  1.27067E+00
 NY background values follow
    -1.903E+01   -1.896E+01   -1.889E+01   -1.882E+01   -1.875E+01   -1.868E+01   -1.861E+01   -1.854E+01   -1.847E+01   -1.840E+01
    -1.833E+01   -1.826E+01   -1.819E+01   -1.812E+01   -1.805E+01   -1.798E+01   -1.791E+01   -1.784E+01   -1.777E+01   -1.770E+01
    -1.763E+01   -1.756E+01   -1.749E+01   -1.742E+01   -1.735E+01   -1.728E+01   -1.721E+01   -1.714E+01   -1.707E+01   -1.700E+01
    -1.693E+01   -1.686E+01   -1.679E+01   -1.672E+01   -1.665E+01   -1.658E+01   -1.651E+01   -1.644E+01   -1.637E+01   -1.630E+01
    -1.623E+01   -1.616E+01   -1.609E+01   -1.602E+01   -1.595E+01   -1.588E+01   -1.581E+01   -1.574E+01   -1.567E+01   -1.560E+01
    -1.553E+01   -1.546E+01   -1.539E+01   -1.532E+01   -1.525E+01   -1.518E+01   -1.511E+01   -1.504E+01   -1.497E+01   -1.490E+01
    -1.483E+01   -1.476E+01   -1.469E+01   -1.462E+01   -1.455E+01   -1.449E+01   -1.442E+01   -1.435E+01   -1.428E+01   -1.421E+01
    -1.414E+01   -1.407E+01   -1.400E+01   -1.393E+01   -1.386E+01   -1.380E+01   -1.373E+01   -1.366E+01   -1.359E+01   -1.352E+01
    -1.345E+01   -1.338E+01   -1.332E+01   -1.325E+01   -1.318E+01   -1.311E+01   -1.304E+01   -1.298E+01   -1.291E+01   -1.284E+01
    -1.277E+01   -1.271E+01   -1.264E+01   -1.257E+01   -1.250E+01   -1.244E+01   -1.237E+01   -1.230E+01   -1.224E+01   -1.217E+01
    -1.210E+01   -1.204E+01   -1.197E+01   -1.190E+01   -1.184E+01   -1.177E+01   -1.170E+01   -1.164E+01   -1.157E+01   -1.151E+01
    -1.144E+01   -1.138E+01   -1.131E+01   -1.124E+01   -1.118E+01   -1.111E+01   -1.105E+01   -1.098E+01   -1.092E+01   -1.086E+01
    -1.079E+01   -1.073E+01   -1.066E+01   -1.060E+01   -1.053E+01   -1.047E+01   -1.041E+01   -1.034E+01   -1.028E+01   -1.021E+01
    -1.015E+01   -1.009E+01   -1.002E+01   -9.961E+00   -9.898E+00   -9.835E+00   -9.772E+00   -9.709E+00   -9.647E+00   -9.584E+00
    -9.522E+00   -9.459E+00   -9.397E+00   -9.335E+00   -9.274E+00   -9.212E+00   -9.150E+00   -9.089E+00   -9.027E+00   -8.966E+00
    -8.905E+00   -8.844E+00   -8.783E+00   -8.723E+00   -8.662E+00   -8.602E+00   -8.541E+00   -8.481E+00   -8.421E+00   -8.361E+00
    -8.302E+00   -8.242E+00   -8.183E+00   -8.124E+00   -8.065E+00   -8.006E+00   -7.947E+00   -7.888E+00   -7.830E+00   -7.771E+00
    -7.713E+00   -7.655E+00   -7.597E+00   -7.540E+00   -7.482E+00   -7.425E+00   -7.368E+00   -7.311E+00   -7.254E+00   -7.197E+00
    -7.140E+00   -7.084E+00   -7.028E+00   -6.972E+00   -6.916E+00   -6.860E+00   -6.805E+00   -6.750E+00   -6.695E+00   -6.640E+00
    -6.585E+00   -6.530E+00   -6.476E+00   -6.422E+00   -6.368E+00   -6.314E+00   -6.260E+00   -6.207E+00   -6.154E+00   -6.101E+00
    -6.048E+00   -5.995E+00   -5.943E+00   -5.891E+00   -5.839E+00   -5.787E+00   -5.735E+00   -5.684E+00   -5.633E+00   -5.582E+00
    -5.531E+00   -5.481E+00   -5.430E+00   -5.380E+00   -5.330E+00   -5.281E+00   -5.231E+00   -5.182E+00   -5.133E+00   -5.084E+00
    -5.036E+00   -4.988E+00   -4.939E+00   -4.892E+00   -4.844E+00   -4.797E+00   -4.750E+00   -4.703E+00   -4.656E+00   -4.610E+00
    -4.563E+00   -4.517E+00   -4.472E+00   -4.426E+00   -4.381E+00   -4.336E+00   -4.291E+00   -4.247E+00   -4.202E+00   -4.158E+00
    -4.115E+00   -4.071E+00   -4.028E+00   -3.984E+00   -3.941E+00   -3.899E+00   -3.856E+00   -3.814E+00   -3.772E+00   -3.730E+00
    -3.689E+00   -3.647E+00   -3.606E+00   -3.565E+00   -3.525E+00   -3.484E+00   -3.444E+00   -3.404E+00   -3.364E+00   -3.324E+00
    -3.285E+00   -3.246E+00   -3.207E+00   -3.168E+00   -3.130E+00   -3.091E+00   -3.053E+00   -3.015E+00   -2.978E+00   -2.940E+00
    -2.903E+00   -2.866E+00   -2.829E+00   -2.793E+00   -2.756E+00   -2.720E+00   -2.684E+00   -2.648E+00   -2.613E+00   -2.577E+00
    -2.542E+00   -2.507E+00   -2.472E+00   -2.438E+00   -2.403E+00   -2.369E+00   -2.335E+00   -2.302E+00   -2.268E+00   -2.235E+00
    -2.201E+00   -2.168E+00   -2.136E+00   -2.103E+00   -2.071E+00   -2.038E+00   -2.006E+00   -1.975E+00   -1.943E+00   -1.911E+00
    -1.880E+00   -1.849E+00   -1.818E+00   -1.787E+00   -1.757E+00   -1.726E+00   -1.696E+00   -1.666E+00   -1.636E+00   -1.607E+00
    -1.577E+00   -1.548E+00   -1.519E+00   -1.490E+00   -1.461E+00   -1.433E+00   -1.404E+00   -1.376E+00   -1.348E+00   -1.320E+00
    -1.292E+00   -1.265E+00   -1.237E+00   -1.210E+00   -1.183E+00   -1.156E+00   -1.129E+00   -1.103E+00   -1.076E+00   -1.050E+00
    -1.024E+00   -9.979E-01   -9.721E-01   -9.465E-01   -9.210E-01   -8.957E-01   -8.705E-01   -8.455E-01   -8.206E-01   -7.959E-01
    -7.713E-01   -7.469E-01   -7.226E-01   -6.985E-01   -6.745E-01   -6.506E-01   -6.269E-01   -6.034E-01   -5.800E-01   -5.567E-01
    -5.335E-01   -5.105E-01   -4.877E-01   -4.649E-01   -4.423E-01   -4.199E-01   -3.975E-01   -3.753E-01   -3.533E-01   -3.313E-01
    -3.095E-01   -2.878E-01   -2.663E-01   -2.448E-01   -2.235E-01   -2.024E-01   -1.813E-01   -1.604E-01   -1.395E-01   -1.188E-01
    -9.826E-02   -7.779E-02   -5.744E-02   -3.721E-02   -1.709E-02    2.917E-03    2.281E-02    4.260E-02    6.227E-02    8.184E-02
     1.013E-01    1.207E-01    1.399E-01    1.590E-01    1.781E-01    1.970E-01    2.159E-01    2.346E-01    2.532E-01    2.718E-01
     2.902E-01    3.086E-01    3.268E-01    3.450E-01    3.630E-01    3.810E-01    3.989E-01    4.167E-01    4.344E-01    4.520E-01
     4.695E-01    4.870E-01    5.044E-01    5.216E-01    5.388E-01    5.560E-01    5.730E-01    5.899E-01    6.068E-01    6.236E-01
     6.404E-01    6.570E-01    6.736E-01    6.901E-01    7.066E-01    7.229E-01    7.392E-01    7.555E-01    7.716E-01    7.877E-01
     8.038E-01    8.198E-01    8.357E-01    8.516E-01    8.674E-01    8.831E-01    8.988E-01    9.145E-01    9.301E-01    9.456E-01
     9.611E-01    9.765E-01    9.919E-01    1.007E+00    1.023E+00    1.038E+00    1.053E+00    1.068E+00    1.083E+00    1.098E+00
     1.114E+00    1.129E+00    1.144E+00    1.159E+00    1.173E+00    1.188E+00    1.203E+00    1.218E+00    1.233E+00    1.248E+00
     1.262E+00    1.277E+00    1.292E+00    1.307E+00    1.321E+00    1.336E+00    1.350E+00    1.365E+00    1.380E+00    1.394E+00
     1.409E+00    1.423E+00    1.438E+00    1.452E+00    1.467E+00    1.481E+00    1.496E+00    1.510E+00    1.525E+00    1.539E+00
     1.553E+00    1.568E+00    1.582E+00    1.596E+00    1.611E+00    1.625E+00    1.639E+00    1.654E+00    1.668E+00    1.682E+00
     1.696E+00    1.711E+00    1.725E+00    1.739E+00    1.753E+00    1.767E+00    1.782E+00    1.796E+00    1.810E+00    1.824E+00
     1.838E+00    1.852E+00    1.866E+00    1.881E+00    1.895E+00    1.909E+00    1.923E+00    1.937E+00
 PCr      Conc. = 1.09E+03
