 LCModel (Version 6.3-1L) Copyright: S.W. Provencher.          Ref.: Magn. Reson. Med. 30:672-679 (1993).                
 Slice#1 Row#2 Col#13  PD_24_press_1_raw_act
 36 lines in following concentration table = NCONC+1
    Conc.  %SD /Cr+PCr  Metabolite                                         
  233.664  44%   0.000 Ala                                                 
 1.97E-03 999%   0.000 Asp                                                 
    0.000 999%   0.000 Cr                                                  
    0.000 999%   0.000 PCr                                                 
    0.000 999%   0.000 GABA                                                
    0.000 999%   0.000 Glc                                                 
  178.529  95%   0.000 Gln                                                 
  241.390  79%   0.000 Glu                                                 
    0.000 999%   0.000 GPC                                                 
    0.000 999%   0.000 PCh                                                 
   16.892 281%   0.000 GSH                                                 
  157.831 124%   0.000 Ins                                                 
  459.674  43%   0.000 Lac                                                 
    0.000 999%   0.000 NAA                                                 
    0.000 999%   0.000 NAAG                                                
 6.34E-03 999%   0.000 Scyllo                                              
    0.000 999%   0.000 Tau                                                 
    0.345 999%   0.000 -CrCH2                                              
    0.000 999%   0.000 GPC+PCh                                             
    0.000 999%   0.000 NAA+NAAG                                            
    0.000 999%   0.000 Cr+PCr                                              
  419.919  70%   0.000 Glu+Gln                                             
    0.000 999%   0.000 Lip13a                                              
 3.42E+04  25%   0.000 Lip13b                                              
 1.64E+04  21%   0.000 Lip09                                               
 3.39E+04  16%   0.000 MM09                                                
    0.000 999%   0.000 Lip20                                               
    0.000 999%   0.000 MM20                                                
 2.62E+04  21%   0.000 MM12                                                
 3.08E+04  26%   0.000 MM14                                                
 2.32E+04  25%   0.000 MM17                                                
 3.42E+04  25%   0.000 Lip13a+Lip13b                                       
 9.12E+04   9%   0.000 MM14+Lip13a+Lip13b+MM12                             
 5.02E+04  10%   0.000 MM09+Lip09                                          
    0.000 999%   0.000 MM20+Lip20                                          
   6 lines in following misc. output table
  FWHM = 0.069 ppm    S/N =  78                                            
  Data shift = 0.046 ppm                                                   
  Ph:-177 deg      53.3 deg/ppm                                            
  alphaB,S = 3.2E-01,   1.3E+01                                            
   14 spline knots.   Ns = 6(1)                                            
  (10) 2 infls.   ( 9) 1 extrs.                                            
  498 points on ppm-axis = NY
      4.000000     3.992357     3.984714     3.977070     3.969427     3.961784     3.954141     3.946497     3.938854     3.931211
      3.923568     3.915925     3.908281     3.900638     3.892995     3.885352     3.877708     3.870065     3.862422     3.854779
      3.847136     3.839492     3.831849     3.824206     3.816563     3.808919     3.801276     3.793633     3.785990     3.778347
      3.770703     3.763060     3.755417     3.747774     3.740130     3.732487     3.724844     3.717201     3.709558     3.701914
      3.694271     3.686628     3.678985     3.671341     3.663698     3.656055     3.648412     3.640769     3.633125     3.625482
      3.617839     3.610196     3.602552     3.594909     3.587266     3.579623     3.571980     3.564336     3.556693     3.549050
      3.541407     3.533763     3.526120     3.518477     3.510834     3.503191     3.495547     3.487904     3.480261     3.472618
      3.464974     3.457331     3.449688     3.442045     3.434402     3.426758     3.419115     3.411472     3.403829     3.396185
      3.388542     3.380899     3.373256     3.365613     3.357969     3.350326     3.342683     3.335040     3.327396     3.319753
      3.312110     3.304467     3.296824     3.289180     3.281537     3.273894     3.266251     3.258607     3.250964     3.243321
      3.235678     3.228034     3.220391     3.212748     3.205105     3.197462     3.189818     3.182175     3.174532     3.166889
      3.159245     3.151602     3.143959     3.136316     3.128673     3.121029     3.113386     3.105743     3.098100     3.090456
      3.082813     3.075170     3.067527     3.059884     3.052240     3.044597     3.036954     3.029311     3.021667     3.014024
      3.006381     2.998738     2.991095     2.983451     2.975808     2.968165     2.960522     2.952878     2.945235     2.937592
      2.929949     2.922306     2.914662     2.907019     2.899376     2.891733     2.884089     2.876446     2.868803     2.861160
      2.853517     2.845873     2.838230     2.830587     2.822944     2.815300     2.807657     2.800014     2.792371     2.784728
      2.777084     2.769441     2.761798     2.754155     2.746511     2.738868     2.731225     2.723582     2.715939     2.708295
      2.700652     2.693009     2.685366     2.677722     2.670079     2.662436     2.654793     2.647150     2.639506     2.631863
      2.624220     2.616577     2.608933     2.601290     2.593647     2.586004     2.578361     2.570717     2.563074     2.555431
      2.547788     2.540144     2.532501     2.524858     2.517215     2.509572     2.501928     2.494285     2.486642     2.478999
      2.471355     2.463712     2.456069     2.448426     2.440783     2.433139     2.425496     2.417853     2.410210     2.402566
      2.394923     2.387280     2.379637     2.371994     2.364350     2.356707     2.349064     2.341421     2.333777     2.326134
      2.318491     2.310848     2.303205     2.295561     2.287918     2.280275     2.272632     2.264988     2.257345     2.249702
      2.242059     2.234416     2.226772     2.219129     2.211486     2.203843     2.196199     2.188556     2.180913     2.173270
      2.165627     2.157983     2.150340     2.142697     2.135054     2.127410     2.119767     2.112124     2.104481     2.096838
      2.089194     2.081551     2.073908     2.066265     2.058621     2.050978     2.043335     2.035692     2.028049     2.020405
      2.012762     2.005119     1.997476     1.989833     1.982190     1.974546     1.966903     1.959260     1.951617     1.943974
      1.936331     1.928688     1.921045     1.913402     1.905759     1.898115     1.890472     1.882829     1.875186     1.867543
      1.859900     1.852257     1.844614     1.836971     1.829327     1.821684     1.814041     1.806398     1.798755     1.791112
      1.783469     1.775826     1.768183     1.760540     1.752896     1.745253     1.737610     1.729967     1.722324     1.714681
      1.707038     1.699395     1.691752     1.684108     1.676465     1.668822     1.661179     1.653536     1.645893     1.638250
      1.630607     1.622964     1.615321     1.607677     1.600034     1.592391     1.584748     1.577105     1.569462     1.561819
      1.554176     1.546533     1.538890     1.531246     1.523603     1.515960     1.508317     1.500674     1.493031     1.485388
      1.477745     1.470102     1.462458     1.454815     1.447172     1.439529     1.431886     1.424243     1.416600     1.408957
      1.401314     1.393671     1.386027     1.378384     1.370741     1.363098     1.355455     1.347812     1.340169     1.332526
      1.324883     1.317240     1.309596     1.301953     1.294310     1.286667     1.279024     1.271381     1.263738     1.256095
      1.248452     1.240808     1.233165     1.225522     1.217879     1.210236     1.202593     1.194950     1.187307     1.179664
      1.172021     1.164377     1.156734     1.149091     1.141448     1.133805     1.126162     1.118519     1.110876     1.103233
      1.095590     1.087946     1.080303     1.072660     1.065017     1.057374     1.049731     1.042088     1.034445     1.026802
      1.019158     1.011515     1.003872     0.996229     0.988586     0.980943     0.973300     0.965657     0.958014     0.950371
      0.942727     0.935084     0.927441     0.919798     0.912155     0.904512     0.896869     0.889226     0.881583     0.873940
      0.866296     0.858653     0.851010     0.843367     0.835724     0.828081     0.820438     0.812795     0.805152     0.797508
      0.789865     0.782222     0.774579     0.766936     0.759293     0.751650     0.744007     0.736364     0.728721     0.721077
      0.713434     0.705791     0.698148     0.690505     0.682862     0.675219     0.667576     0.659933     0.652290     0.644646
      0.637003     0.629360     0.621717     0.614074     0.606431     0.598788     0.591145     0.583502     0.575858     0.568215
      0.560572     0.552929     0.545286     0.537643     0.530000     0.522357     0.514714     0.507071     0.499427     0.491784
      0.484141     0.476498     0.468855     0.461212     0.453569     0.445925     0.438282     0.430639     0.422996     0.415353
      0.407710     0.400067     0.392424     0.384780     0.377137     0.369494     0.361851     0.354208     0.346565     0.338922
      0.331278     0.323635     0.315992     0.308349     0.300706     0.293063     0.285420     0.277777     0.270133     0.262490
      0.254847     0.247204     0.239561     0.231918     0.224275     0.216631     0.208988     0.201345
 NY phased data points follow
  -2.68319E+01 -2.59786E+01 -2.55162E+01 -2.86703E+01 -2.89655E+01 -2.79545E+01 -2.65742E+01 -2.87101E+01 -2.66628E+01 -2.52601E+01
  -3.03080E+01 -2.78863E+01 -2.63168E+01 -2.53921E+01 -2.74138E+01 -2.68854E+01 -2.54446E+01 -2.63972E+01 -2.61604E+01 -2.61106E+01
  -2.73986E+01 -2.68605E+01 -2.40978E+01 -2.65026E+01 -2.44338E+01 -2.65690E+01 -2.63932E+01 -2.55325E+01 -2.86593E+01 -2.93192E+01
  -2.45930E+01 -2.36122E+01 -2.61009E+01 -2.49364E+01 -2.82699E+01 -2.55318E+01 -2.28576E+01 -2.47916E+01 -2.74722E+01 -2.54612E+01
  -2.57675E+01 -2.57771E+01 -2.64476E+01 -2.62517E+01 -2.64796E+01 -2.64233E+01 -2.41490E+01 -2.20896E+01 -2.61585E+01 -2.42493E+01
  -2.61209E+01 -2.47988E+01 -2.69266E+01 -2.40987E+01 -2.42312E+01 -2.65504E+01 -2.42581E+01 -2.41132E+01 -2.38700E+01 -2.61735E+01
  -2.43339E+01 -2.37123E+01 -2.79091E+01 -2.69769E+01 -2.66162E+01 -2.40702E+01 -2.47120E+01 -2.29325E+01 -2.54783E+01 -2.36039E+01
  -2.59617E+01 -2.53599E+01 -2.52562E+01 -2.40440E+01 -2.18200E+01 -2.58373E+01 -2.46580E+01 -2.70096E+01 -2.46653E+01 -2.65918E+01
  -2.53591E+01 -2.51054E+01 -2.45633E+01 -2.42233E+01 -2.50021E+01 -2.14084E+01 -2.19437E+01 -2.35694E+01 -2.59128E+01 -2.59134E+01
  -2.46393E+01 -2.38706E+01 -2.34951E+01 -2.58691E+01 -2.59485E+01 -2.45501E+01 -2.83398E+01 -2.48835E+01 -2.15802E+01 -2.57003E+01
  -2.64963E+01 -2.76471E+01 -2.64614E+01 -2.77843E+01 -2.51782E+01 -2.68095E+01 -2.45627E+01 -2.66564E+01 -2.40528E+01 -2.55154E+01
  -2.38226E+01 -2.40338E+01 -2.09407E+01 -2.31194E+01 -2.25205E+01 -2.57483E+01 -2.28767E+01 -2.43674E+01 -2.54340E+01 -2.38171E+01
  -2.55860E+01 -2.40196E+01 -2.41850E+01 -2.30910E+01 -2.55428E+01 -2.49958E+01 -2.32817E+01 -2.36397E+01 -2.24600E+01 -2.78800E+01
  -2.44315E+01 -2.40563E+01 -2.48785E+01 -2.31502E+01 -2.30003E+01 -2.33831E+01 -2.30776E+01 -2.12816E+01 -2.48998E+01 -2.27081E+01
  -2.32564E+01 -2.16630E+01 -2.17507E+01 -2.19624E+01 -2.46334E+01 -2.38936E+01 -2.45181E+01 -2.20864E+01 -2.38075E+01 -2.63777E+01
  -2.24133E+01 -2.33653E+01 -2.46649E+01 -2.35907E+01 -2.35275E+01 -2.24272E+01 -2.04050E+01 -2.29247E+01 -2.15913E+01 -2.42948E+01
  -2.32304E+01 -2.36265E+01 -2.25454E+01 -2.20557E+01 -2.45426E+01 -2.26303E+01 -2.28437E+01 -2.15775E+01 -2.04016E+01 -2.00770E+01
  -2.33771E+01 -2.04723E+01 -2.37557E+01 -2.34771E+01 -2.34242E+01 -2.26551E+01 -2.25676E+01 -2.14519E+01 -2.06642E+01 -2.11966E+01
  -1.79236E+01 -2.19029E+01 -1.85614E+01 -1.96817E+01 -2.07053E+01 -2.10799E+01 -1.97668E+01 -2.11723E+01 -2.11407E+01 -2.13322E+01
  -2.05024E+01 -2.07242E+01 -2.09045E+01 -1.81604E+01 -2.14552E+01 -2.36177E+01 -2.28246E+01 -1.88201E+01 -2.01858E+01 -2.14107E+01
  -1.82405E+01 -2.03763E+01 -1.64916E+01 -2.04075E+01 -1.90759E+01 -1.82675E+01 -1.87371E+01 -2.05670E+01 -1.78738E+01 -1.84376E+01
  -1.91719E+01 -1.81101E+01 -1.89803E+01 -1.62841E+01 -1.90506E+01 -1.68594E+01 -1.58643E+01 -1.79781E+01 -1.96766E+01 -1.85489E+01
  -1.80004E+01 -1.90932E+01 -1.77870E+01 -1.83580E+01 -1.87942E+01 -1.77385E+01 -1.43399E+01 -1.95040E+01 -1.77435E+01 -1.77465E+01
  -1.66082E+01 -1.86810E+01 -1.55986E+01 -1.71638E+01 -1.35894E+01 -1.82481E+01 -1.85094E+01 -1.71195E+01 -1.59669E+01 -1.32549E+01
  -1.53089E+01 -1.45707E+01 -1.49880E+01 -1.41908E+01 -1.29392E+01 -1.39285E+01 -1.44129E+01 -1.32387E+01 -1.30306E+01 -1.18229E+01
  -1.25450E+01 -1.10338E+01 -1.26144E+01 -1.27054E+01 -1.04836E+01 -7.10460E+00 -8.02956E+00 -9.17696E+00 -1.03580E+01 -7.33258E+00
  -3.81199E+00 -6.23775E+00 -3.31964E+00 -4.24431E+00 -1.27246E+00  9.16957E-01  2.79851E+00  3.22243E+00  3.21412E+00  1.65152E+00
   1.69851E+00  6.64149E+00  6.99745E+00  6.70598E+00  9.85404E+00  1.16913E+01  1.26148E+01  1.25708E+01  1.44173E+01  1.71819E+01
   1.57790E+01  2.01635E+01  1.98105E+01  2.38433E+01  2.54460E+01  2.85533E+01  2.78680E+01  3.46731E+01  3.41076E+01  3.58702E+01
   3.61519E+01  4.08652E+01  4.03741E+01  4.41134E+01  4.78635E+01  4.90539E+01  5.18636E+01  5.36305E+01  5.61550E+01  5.80349E+01
   6.48980E+01  6.90602E+01  7.11138E+01  7.34006E+01  7.54708E+01  7.82310E+01  8.52501E+01  8.48902E+01  8.74649E+01  9.11536E+01
   9.57911E+01  9.81622E+01  1.00774E+02  1.03451E+02  1.09583E+02  1.07655E+02  1.12790E+02  1.14863E+02  1.17433E+02  1.23522E+02
   1.26130E+02  1.29462E+02  1.31444E+02  1.37320E+02  1.38802E+02  1.47718E+02  1.51550E+02  1.53257E+02  1.58520E+02  1.63996E+02
   1.68632E+02  1.74074E+02  1.80169E+02  1.85838E+02  1.91353E+02  1.97693E+02  2.05827E+02  2.10158E+02  2.17886E+02  2.22965E+02
   2.32743E+02  2.37311E+02  2.44270E+02  2.47030E+02  2.55652E+02  2.61166E+02  2.65837E+02  2.70400E+02  2.74877E+02  2.78285E+02
   2.78780E+02  2.80853E+02  2.78525E+02  2.79553E+02  2.78016E+02  2.75567E+02  2.74521E+02  2.74253E+02  2.68511E+02  2.65587E+02
   2.59013E+02  2.61686E+02  2.60324E+02  2.56483E+02  2.59314E+02  2.52825E+02  2.54886E+02  2.54109E+02  2.56565E+02  2.58746E+02
   2.59533E+02  2.60411E+02  2.64879E+02  2.69264E+02  2.74217E+02  2.74336E+02  2.80329E+02  2.83492E+02  2.89390E+02  2.87242E+02
   2.91005E+02  2.91094E+02  2.92663E+02  2.92962E+02  2.90486E+02  2.88919E+02  2.83422E+02  2.84194E+02  2.81204E+02  2.78845E+02
   2.73545E+02  2.72013E+02  2.64348E+02  2.64382E+02  2.59283E+02  2.55313E+02  2.48669E+02  2.43908E+02  2.37082E+02  2.31351E+02
   2.25152E+02  2.17071E+02  2.12434E+02  2.04152E+02  2.00238E+02  1.93278E+02  1.86492E+02  1.80251E+02  1.76840E+02  1.68173E+02
   1.59956E+02  1.54084E+02  1.49087E+02  1.41570E+02  1.33213E+02  1.28954E+02  1.22947E+02  1.17671E+02  1.11921E+02  1.04712E+02
   9.96871E+01  9.03186E+01  8.75670E+01  8.20951E+01  7.77523E+01  7.17891E+01  6.71062E+01  6.32410E+01  5.60301E+01  5.40916E+01
   4.83469E+01  4.53807E+01  4.12167E+01  3.62160E+01  3.27237E+01  3.11194E+01  2.76703E+01  1.97742E+01  1.81085E+01  1.13897E+01
   1.10527E+01  6.86131E+00  6.49753E+00  1.56311E+00 -2.30870E+00 -2.41242E+00 -6.07675E+00 -8.46831E+00 -6.99772E+00 -1.20416E+01
  -1.46882E+01 -1.44944E+01 -1.69901E+01 -2.18985E+01 -2.19446E+01 -2.52809E+01 -2.61801E+01 -2.98413E+01 -3.14500E+01 -3.20237E+01
  -3.24430E+01 -3.67557E+01 -3.71416E+01 -3.62275E+01 -4.02751E+01 -4.09667E+01 -4.21075E+01 -4.35753E+01 -4.39130E+01 -4.74049E+01
  -4.60436E+01 -4.99516E+01 -4.76333E+01 -5.17907E+01 -5.22847E+01 -5.31964E+01 -5.31332E+01 -5.46801E+01 -5.49336E+01 -5.47431E+01
  -5.49518E+01 -5.71667E+01 -5.98127E+01 -5.85955E+01 -6.03576E+01 -6.09062E+01 -6.40306E+01 -6.19496E+01 -6.31221E+01 -6.13847E+01
  -6.18996E+01 -6.44015E+01 -6.42939E+01 -6.48477E+01 -6.35096E+01 -6.56160E+01 -6.59935E+01 -6.90669E+01
 NY points of the fit to the data follow
  -2.73942E+01 -2.73606E+01 -2.74388E+01 -2.75479E+01 -2.74499E+01 -2.71700E+01 -2.69816E+01 -2.69589E+01 -2.69535E+01 -2.69404E+01
  -2.69244E+01 -2.69134E+01 -2.68843E+01 -2.68336E+01 -2.68044E+01 -2.67781E+01 -2.67140E+01 -2.65928E+01 -2.64180E+01 -2.62766E+01
  -2.62367E+01 -2.61762E+01 -2.61209E+01 -2.60930E+01 -2.61662E+01 -2.64260E+01 -2.66384E+01 -2.66132E+01 -2.63892E+01 -2.60584E+01
  -2.58105E+01 -2.57308E+01 -2.56134E+01 -2.54281E+01 -2.54144E+01 -2.54771E+01 -2.55360E+01 -2.54840E+01 -2.54850E+01 -2.57865E+01
  -2.60913E+01 -2.60931E+01 -2.58895E+01 -2.56408E+01 -2.53438E+01 -2.50114E+01 -2.47645E+01 -2.47034E+01 -2.48726E+01 -2.51534E+01
  -2.53476E+01 -2.53522E+01 -2.52535E+01 -2.52809E+01 -2.55311E+01 -2.57267E+01 -2.56425E+01 -2.54133E+01 -2.52009E+01 -2.50486E+01
  -2.49707E+01 -2.49669E+01 -2.50154E+01 -2.50489E+01 -2.50187E+01 -2.49699E+01 -2.49663E+01 -2.49918E+01 -2.49994E+01 -2.49631E+01
  -2.48792E+01 -2.47948E+01 -2.47334E+01 -2.47171E+01 -2.47426E+01 -2.47673E+01 -2.47723E+01 -2.47697E+01 -2.48076E+01 -2.48696E+01
  -2.49000E+01 -2.49199E+01 -2.49316E+01 -2.49487E+01 -2.49817E+01 -2.50368E+01 -2.50983E+01 -2.51297E+01 -2.51071E+01 -2.50422E+01
  -2.49628E+01 -2.49153E+01 -2.48961E+01 -2.48428E+01 -2.47500E+01 -2.46826E+01 -2.46726E+01 -2.47136E+01 -2.47605E+01 -2.47896E+01
  -2.48086E+01 -2.48304E+01 -2.48560E+01 -2.48814E+01 -2.48595E+01 -2.47961E+01 -2.47388E+01 -2.47030E+01 -2.46768E+01 -2.46459E+01
  -2.46101E+01 -2.45821E+01 -2.45727E+01 -2.45706E+01 -2.45633E+01 -2.45551E+01 -2.45460E+01 -2.45377E+01 -2.45290E+01 -2.45189E+01
  -2.45067E+01 -2.44898E+01 -2.44672E+01 -2.44422E+01 -2.44168E+01 -2.43889E+01 -2.43562E+01 -2.43174E+01 -2.42798E+01 -2.42475E+01
  -2.42081E+01 -2.41629E+01 -2.41241E+01 -2.40940E+01 -2.40762E+01 -2.40622E+01 -2.40299E+01 -2.39715E+01 -2.38936E+01 -2.38227E+01
  -2.37752E+01 -2.37253E+01 -2.36525E+01 -2.35746E+01 -2.34953E+01 -2.34140E+01 -2.33429E+01 -2.32833E+01 -2.32338E+01 -2.31846E+01
  -2.31198E+01 -2.30489E+01 -2.29754E+01 -2.28988E+01 -2.28201E+01 -2.27413E+01 -2.26621E+01 -2.25809E+01 -2.25003E+01 -2.24208E+01
  -2.23402E+01 -2.22571E+01 -2.21745E+01 -2.20961E+01 -2.20197E+01 -2.19430E+01 -2.18657E+01 -2.17882E+01 -2.17117E+01 -2.16373E+01
  -2.15646E+01 -2.14928E+01 -2.14220E+01 -2.13534E+01 -2.12885E+01 -2.12276E+01 -2.11684E+01 -2.11096E+01 -2.10519E+01 -2.09999E+01
  -2.09503E+01 -2.08999E+01 -2.08516E+01 -2.08069E+01 -2.07621E+01 -2.07170E+01 -2.06722E+01 -2.06302E+01 -2.05948E+01 -2.05531E+01
  -2.05370E+01 -2.05390E+01 -2.05471E+01 -2.05716E+01 -2.06003E+01 -2.05850E+01 -2.05268E+01 -2.04502E+01 -2.03342E+01 -2.01397E+01
  -1.99257E+01 -1.97695E+01 -1.96648E+01 -1.96007E+01 -1.96466E+01 -1.96472E+01 -1.97089E+01 -1.99883E+01 -2.03518E+01 -2.05280E+01
  -2.03382E+01 -2.00192E+01 -1.97052E+01 -1.93492E+01 -1.90507E+01 -1.88395E+01 -1.85410E+01 -1.82512E+01 -1.83356E+01 -1.85816E+01
  -1.87749E+01 -1.89270E+01 -1.91362E+01 -1.92545E+01 -1.89383E+01 -1.84960E+01 -1.82119E+01 -1.79849E+01 -1.75803E+01 -1.69801E+01
  -1.65292E+01 -1.63392E+01 -1.62428E+01 -1.61354E+01 -1.60430E+01 -1.58966E+01 -1.56921E+01 -1.54004E+01 -1.49340E+01 -1.45261E+01
  -1.43528E+01 -1.42496E+01 -1.39710E+01 -1.35749E+01 -1.32514E+01 -1.29146E+01 -1.25649E+01 -1.22830E+01 -1.20169E+01 -1.15280E+01
  -1.08523E+01 -1.02506E+01 -9.65578E+00 -9.02234E+00 -8.42044E+00 -7.90541E+00 -7.38359E+00 -6.79308E+00 -6.13224E+00 -5.43515E+00
  -4.73109E+00 -4.00741E+00 -3.29744E+00 -2.58236E+00 -1.79455E+00 -8.94033E-01  2.96426E-02  9.20288E-01  1.82198E+00  2.75648E+00
   3.70971E+00  4.71332E+00  5.83573E+00  7.03916E+00  8.26233E+00  9.52990E+00  1.08472E+01  1.22250E+01  1.36820E+01  1.52125E+01
   1.67851E+01  1.84073E+01  2.01093E+01  2.18985E+01  2.37694E+01  2.57201E+01  2.77577E+01  2.98926E+01  3.21209E+01  3.44336E+01
   3.68339E+01  3.93220E+01  4.18956E+01  4.45515E+01  4.72866E+01  5.00962E+01  5.29717E+01  5.59039E+01  5.88848E+01  6.19041E+01
   6.49503E+01  6.80123E+01  7.10784E+01  7.41373E+01  7.71786E+01  8.01932E+01  8.31744E+01  8.61174E+01  8.90204E+01  9.18845E+01
   9.47145E+01  9.75198E+01  1.00313E+02  1.03112E+02  1.05935E+02  1.08808E+02  1.11758E+02  1.14815E+02  1.18015E+02  1.21404E+02
   1.25064E+02  1.28954E+02  1.32750E+02  1.36914E+02  1.41608E+02  1.46405E+02  1.50950E+02  1.55124E+02  1.59169E+02  1.63836E+02
   1.69083E+02  1.74567E+02  1.80034E+02  1.85248E+02  1.90987E+02  1.97987E+02  2.04970E+02  2.11260E+02  2.17244E+02  2.23632E+02
   2.30738E+02  2.37741E+02  2.43794E+02  2.49095E+02  2.54549E+02  2.60698E+02  2.66758E+02  2.71710E+02  2.74979E+02  2.76689E+02
   2.78067E+02  2.79190E+02  2.79890E+02  2.79898E+02  2.78240E+02  2.75606E+02  2.74207E+02  2.72866E+02  2.69867E+02  2.66077E+02
   2.63072E+02  2.61565E+02  2.59963E+02  2.56800E+02  2.54096E+02  2.52885E+02  2.52820E+02  2.53710E+02  2.55418E+02  2.57807E+02
   2.60726E+02  2.64019E+02  2.67530E+02  2.71108E+02  2.74615E+02  2.77932E+02  2.80955E+02  2.83606E+02  2.85825E+02  2.87576E+02
   2.88837E+02  2.89603E+02  2.89877E+02  2.89669E+02  2.88996E+02  2.87872E+02  2.86312E+02  2.84328E+02  2.81929E+02  2.79123E+02
   2.75917E+02  2.72317E+02  2.68333E+02  2.63975E+02  2.59261E+02  2.54211E+02  2.48853E+02  2.43217E+02  2.37339E+02  2.31256E+02
   2.25009E+02  2.18635E+02  2.12172E+02  2.05655E+02  1.99112E+02  1.92570E+02  1.86048E+02  1.79560E+02  1.73117E+02  1.66725E+02
   1.60387E+02  1.54103E+02  1.47873E+02  1.41694E+02  1.35567E+02  1.29490E+02  1.23465E+02  1.17493E+02  1.11581E+02  1.05734E+02
   9.99606E+01  9.42682E+01  8.86668E+01  8.31662E+01  7.77765E+01  7.25068E+01  6.73658E+01  6.23607E+01  5.74977E+01  5.27820E+01
   4.82170E+01  4.38048E+01  3.95459E+01  3.54397E+01  3.14845E+01  2.76778E+01  2.40162E+01  2.04953E+01  1.71104E+01  1.38563E+01
   1.07279E+01  7.71968E+00  4.82626E+00  2.04201E+00 -6.38442E-01 -3.22025E+00 -5.70829E+00 -8.10724E+00 -1.04217E+01 -1.26560E+01
  -1.48142E+01 -1.68999E+01 -1.89165E+01 -2.08673E+01 -2.27556E+01 -2.45846E+01 -2.63569E+01 -2.80751E+01 -2.97415E+01 -3.13585E+01
  -3.29281E+01 -3.44524E+01 -3.59330E+01 -3.73715E+01 -3.87695E+01 -4.01284E+01 -4.14496E+01 -4.27344E+01 -4.39837E+01 -4.51985E+01
  -4.63798E+01 -4.75287E+01 -4.86460E+01 -4.97325E+01 -5.07886E+01 -5.18152E+01 -5.28129E+01 -5.37823E+01 -5.47240E+01 -5.56384E+01
  -5.65258E+01 -5.73868E+01 -5.82219E+01 -5.90313E+01 -5.98155E+01 -6.05746E+01 -6.13090E+01 -6.20190E+01 -6.27048E+01 -6.33668E+01
  -6.40051E+01 -6.46198E+01 -6.52112E+01 -6.57794E+01 -6.63248E+01 -6.68473E+01 -6.73472E+01 -6.78244E+01
 NY background values follow
    -6.031E+01   -6.033E+01   -6.035E+01   -6.037E+01   -6.038E+01   -6.039E+01   -6.040E+01   -6.040E+01   -6.041E+01   -6.040E+01
    -6.040E+01   -6.040E+01   -6.039E+01   -6.038E+01   -6.036E+01   -6.035E+01   -6.033E+01   -6.031E+01   -6.029E+01   -6.027E+01
    -6.024E+01   -6.021E+01   -6.018E+01   -6.015E+01   -6.012E+01   -6.009E+01   -6.005E+01   -6.002E+01   -5.998E+01   -5.994E+01
    -5.990E+01   -5.986E+01   -5.982E+01   -5.978E+01   -5.974E+01   -5.970E+01   -5.966E+01   -5.961E+01   -5.957E+01   -5.953E+01
    -5.948E+01   -5.944E+01   -5.940E+01   -5.935E+01   -5.931E+01   -5.927E+01   -5.923E+01   -5.919E+01   -5.915E+01   -5.911E+01
    -5.907E+01   -5.903E+01   -5.900E+01   -5.896E+01   -5.893E+01   -5.889E+01   -5.886E+01   -5.882E+01   -5.879E+01   -5.876E+01
    -5.873E+01   -5.870E+01   -5.867E+01   -5.864E+01   -5.861E+01   -5.858E+01   -5.856E+01   -5.853E+01   -5.851E+01   -5.848E+01
    -5.846E+01   -5.844E+01   -5.841E+01   -5.839E+01   -5.837E+01   -5.835E+01   -5.833E+01   -5.831E+01   -5.830E+01   -5.828E+01
    -5.826E+01   -5.825E+01   -5.823E+01   -5.822E+01   -5.821E+01   -5.819E+01   -5.818E+01   -5.817E+01   -5.816E+01   -5.815E+01
    -5.814E+01   -5.813E+01   -5.813E+01   -5.812E+01   -5.811E+01   -5.811E+01   -5.810E+01   -5.810E+01   -5.809E+01   -5.809E+01
    -5.808E+01   -5.808E+01   -5.807E+01   -5.807E+01   -5.806E+01   -5.806E+01   -5.805E+01   -5.805E+01   -5.804E+01   -5.803E+01
    -5.803E+01   -5.802E+01   -5.801E+01   -5.800E+01   -5.799E+01   -5.798E+01   -5.797E+01   -5.796E+01   -5.794E+01   -5.793E+01
    -5.791E+01   -5.789E+01   -5.787E+01   -5.785E+01   -5.783E+01   -5.780E+01   -5.778E+01   -5.775E+01   -5.772E+01   -5.768E+01
    -5.765E+01   -5.761E+01   -5.757E+01   -5.753E+01   -5.749E+01   -5.744E+01   -5.739E+01   -5.734E+01   -5.729E+01   -5.723E+01
    -5.717E+01   -5.711E+01   -5.705E+01   -5.698E+01   -5.691E+01   -5.684E+01   -5.677E+01   -5.670E+01   -5.663E+01   -5.655E+01
    -5.648E+01   -5.640E+01   -5.633E+01   -5.625E+01   -5.617E+01   -5.609E+01   -5.601E+01   -5.593E+01   -5.585E+01   -5.577E+01
    -5.569E+01   -5.562E+01   -5.554E+01   -5.546E+01   -5.538E+01   -5.531E+01   -5.523E+01   -5.516E+01   -5.509E+01   -5.502E+01
    -5.495E+01   -5.488E+01   -5.481E+01   -5.475E+01   -5.469E+01   -5.463E+01   -5.457E+01   -5.452E+01   -5.447E+01   -5.442E+01
    -5.438E+01   -5.433E+01   -5.430E+01   -5.426E+01   -5.423E+01   -5.420E+01   -5.417E+01   -5.415E+01   -5.412E+01   -5.410E+01
    -5.408E+01   -5.407E+01   -5.405E+01   -5.404E+01   -5.402E+01   -5.401E+01   -5.400E+01   -5.399E+01   -5.397E+01   -5.396E+01
    -5.395E+01   -5.394E+01   -5.392E+01   -5.391E+01   -5.390E+01   -5.388E+01   -5.386E+01   -5.384E+01   -5.382E+01   -5.380E+01
    -5.377E+01   -5.375E+01   -5.372E+01   -5.368E+01   -5.365E+01   -5.361E+01   -5.356E+01   -5.352E+01   -5.346E+01   -5.341E+01
    -5.335E+01   -5.329E+01   -5.322E+01   -5.314E+01   -5.306E+01   -5.298E+01   -5.289E+01   -5.279E+01   -5.269E+01   -5.258E+01
    -5.246E+01   -5.234E+01   -5.222E+01   -5.208E+01   -5.194E+01   -5.180E+01   -5.164E+01   -5.148E+01   -5.132E+01   -5.115E+01
    -5.097E+01   -5.078E+01   -5.059E+01   -5.039E+01   -5.019E+01   -4.997E+01   -4.975E+01   -4.953E+01   -4.929E+01   -4.905E+01
    -4.881E+01   -4.855E+01   -4.829E+01   -4.802E+01   -4.774E+01   -4.746E+01   -4.717E+01   -4.687E+01   -4.657E+01   -4.625E+01
    -4.593E+01   -4.560E+01   -4.526E+01   -4.492E+01   -4.457E+01   -4.421E+01   -4.384E+01   -4.346E+01   -4.308E+01   -4.269E+01
    -4.229E+01   -4.188E+01   -4.147E+01   -4.104E+01   -4.061E+01   -4.017E+01   -3.973E+01   -3.928E+01   -3.883E+01   -3.837E+01
    -3.791E+01   -3.745E+01   -3.698E+01   -3.651E+01   -3.604E+01   -3.557E+01   -3.510E+01   -3.463E+01   -3.416E+01   -3.369E+01
    -3.323E+01   -3.276E+01   -3.230E+01   -3.185E+01   -3.139E+01   -3.095E+01   -3.051E+01   -3.007E+01   -2.964E+01   -2.922E+01
    -2.881E+01   -2.840E+01   -2.801E+01   -2.762E+01   -2.725E+01   -2.688E+01   -2.653E+01   -2.619E+01   -2.586E+01   -2.554E+01
    -2.524E+01   -2.495E+01   -2.468E+01   -2.442E+01   -2.418E+01   -2.396E+01   -2.375E+01   -2.356E+01   -2.339E+01   -2.324E+01
    -2.310E+01   -2.298E+01   -2.288E+01   -2.279E+01   -2.272E+01   -2.266E+01   -2.263E+01   -2.260E+01   -2.259E+01   -2.260E+01
    -2.262E+01   -2.265E+01   -2.270E+01   -2.276E+01   -2.284E+01   -2.292E+01   -2.303E+01   -2.314E+01   -2.326E+01   -2.340E+01
    -2.355E+01   -2.371E+01   -2.388E+01   -2.406E+01   -2.425E+01   -2.445E+01   -2.466E+01   -2.489E+01   -2.512E+01   -2.535E+01
    -2.560E+01   -2.586E+01   -2.612E+01   -2.639E+01   -2.667E+01   -2.696E+01   -2.725E+01   -2.755E+01   -2.785E+01   -2.817E+01
    -2.848E+01   -2.880E+01   -2.913E+01   -2.946E+01   -2.980E+01   -3.014E+01   -3.049E+01   -3.085E+01   -3.121E+01   -3.157E+01
    -3.194E+01   -3.232E+01   -3.270E+01   -3.309E+01   -3.349E+01   -3.390E+01   -3.431E+01   -3.472E+01   -3.515E+01   -3.558E+01
    -3.602E+01   -3.647E+01   -3.693E+01   -3.739E+01   -3.786E+01   -3.834E+01   -3.883E+01   -3.933E+01   -3.983E+01   -4.035E+01
    -4.087E+01   -4.141E+01   -4.195E+01   -4.250E+01   -4.306E+01   -4.363E+01   -4.421E+01   -4.480E+01   -4.540E+01   -4.602E+01
    -4.664E+01   -4.727E+01   -4.791E+01   -4.857E+01   -4.923E+01   -4.991E+01   -5.059E+01   -5.129E+01   -5.200E+01   -5.272E+01
    -5.345E+01   -5.419E+01   -5.494E+01   -5.569E+01   -5.646E+01   -5.723E+01   -5.802E+01   -5.880E+01   -5.960E+01   -6.040E+01
    -6.120E+01   -6.202E+01   -6.283E+01   -6.365E+01   -6.448E+01   -6.530E+01   -6.613E+01   -6.696E+01   -6.780E+01   -6.863E+01
    -6.947E+01   -7.030E+01   -7.114E+01   -7.197E+01   -7.281E+01   -7.364E+01   -7.447E+01   -7.530E+01   -7.613E+01   -7.695E+01
    -7.777E+01   -7.858E+01   -7.940E+01   -8.020E+01   -8.100E+01   -8.180E+01   -8.258E+01   -8.337E+01   -8.414E+01   -8.491E+01
    -8.567E+01   -8.642E+01   -8.716E+01   -8.789E+01   -8.861E+01   -8.933E+01   -9.003E+01   -9.072E+01   -9.141E+01   -9.208E+01
    -9.274E+01   -9.339E+01   -9.403E+01   -9.466E+01   -9.528E+01   -9.589E+01   -9.649E+01   -9.707E+01   -9.764E+01   -9.820E+01
    -9.875E+01   -9.929E+01   -9.981E+01   -1.003E+02   -1.008E+02   -1.013E+02   -1.018E+02   -1.022E+02   -1.027E+02   -1.031E+02
    -1.035E+02   -1.039E+02   -1.043E+02   -1.047E+02   -1.051E+02   -1.054E+02   -1.057E+02   -1.061E+02   -1.064E+02   -1.066E+02
    -1.069E+02   -1.072E+02   -1.074E+02   -1.076E+02   -1.079E+02   -1.080E+02   -1.082E+02   -1.084E+02
 Ala      Conc. = 2.34E+02
