 LCModel (Version 6.3-1L) Copyright: S.W. Provencher.          Ref.: Magn. Reson. Med. 30:672-679 (1993).                
 Slice#1 Row#12 Col#1  PD_24_press_1_raw_act
 36 lines in following concentration table = NCONC+1
    Conc.  %SD /Cr+PCr  Metabolite                                         
    0.000 999%   0.000 Ala                                                 
   15.547  86%   0.260 Asp                                                 
    0.000 999%   0.000 Cr                                                  
   59.737  39%   1.000 PCr                                                 
    9.740  82%   0.163 GABA                                                
   11.853  68%   0.198 Glc                                                 
   10.439 915%   0.175 Gln                                                 
  141.386  84%   2.367 Glu                                                 
   21.358  52%   0.358 GPC                                                 
   25.286  44%   0.423 PCh                                                 
   33.175  94%   0.555 GSH                                                 
  139.504  74%   2.335 Ins                                                 
   77.575  72%   1.299 Lac                                                 
  102.857  32%   1.722 NAA                                                 
   33.739  95%   0.565 NAAG                                                
    5.014  53% 8.4E-02 Scyllo                                              
   25.414  52%   0.425 Tau                                                 
   38.161  57%   0.639 -CrCH2                                              
   46.643  23%   0.781 GPC+PCh                                             
  136.595  21%   2.287 NAA+NAAG                                            
   59.737  39%   1.000 Cr+PCr                                              
  151.825 105%   2.542 Glu+Gln                                             
  216.238  47%   3.620 Lip13a                                              
    0.000 999%   0.000 Lip13b                                              
   55.216  56%   0.924 Lip09                                               
 4.36E-04 999% 7.3E-06 MM09                                                
   32.639  59%   0.546 Lip20                                               
    0.000 999%   0.000 MM20                                                
 3.68E-04 999% 6.2E-06 MM12                                                
 1.32E-02 999% 2.2E-04 MM14                                                
    0.000 999%   0.000 MM17                                                
  216.238  47%   3.620 Lip13a+Lip13b                                       
  216.252  47%   3.620 MM14+Lip13a+Lip13b+MM12                             
   55.216  56%   0.924 MM09+Lip09                                          
   32.639  59%   0.546 MM20+Lip20                                          
   6 lines in following misc. output table
  FWHM = 0.061 ppm    S/N =   1                                            
  Data shift =-0.031 ppm                                                   
  Ph:-114 deg     -26.6 deg/ppm                                            
  alphaB,S = 1.7E+00,   2.3E+00                                            
   14 spline knots.   Ns =10(1)                                            
  (11)11 infls.   (14)10 extrs.                                            
  498 points on ppm-axis = NY
      4.000000     3.992357     3.984714     3.977070     3.969427     3.961784     3.954141     3.946497     3.938854     3.931211
      3.923568     3.915925     3.908281     3.900638     3.892995     3.885352     3.877708     3.870065     3.862422     3.854779
      3.847136     3.839492     3.831849     3.824206     3.816563     3.808919     3.801276     3.793633     3.785990     3.778347
      3.770703     3.763060     3.755417     3.747774     3.740130     3.732487     3.724844     3.717201     3.709558     3.701914
      3.694271     3.686628     3.678985     3.671341     3.663698     3.656055     3.648412     3.640769     3.633125     3.625482
      3.617839     3.610196     3.602552     3.594909     3.587266     3.579623     3.571980     3.564336     3.556693     3.549050
      3.541407     3.533763     3.526120     3.518477     3.510834     3.503191     3.495547     3.487904     3.480261     3.472618
      3.464974     3.457331     3.449688     3.442045     3.434402     3.426758     3.419115     3.411472     3.403829     3.396185
      3.388542     3.380899     3.373256     3.365613     3.357969     3.350326     3.342683     3.335040     3.327396     3.319753
      3.312110     3.304467     3.296824     3.289180     3.281537     3.273894     3.266251     3.258607     3.250964     3.243321
      3.235678     3.228034     3.220391     3.212748     3.205105     3.197462     3.189818     3.182175     3.174532     3.166889
      3.159245     3.151602     3.143959     3.136316     3.128673     3.121029     3.113386     3.105743     3.098100     3.090456
      3.082813     3.075170     3.067527     3.059884     3.052240     3.044597     3.036954     3.029311     3.021667     3.014024
      3.006381     2.998738     2.991095     2.983451     2.975808     2.968165     2.960522     2.952878     2.945235     2.937592
      2.929949     2.922306     2.914662     2.907019     2.899376     2.891733     2.884089     2.876446     2.868803     2.861160
      2.853517     2.845873     2.838230     2.830587     2.822944     2.815300     2.807657     2.800014     2.792371     2.784728
      2.777084     2.769441     2.761798     2.754155     2.746511     2.738868     2.731225     2.723582     2.715939     2.708295
      2.700652     2.693009     2.685366     2.677722     2.670079     2.662436     2.654793     2.647150     2.639506     2.631863
      2.624220     2.616577     2.608933     2.601290     2.593647     2.586004     2.578361     2.570717     2.563074     2.555431
      2.547788     2.540144     2.532501     2.524858     2.517215     2.509572     2.501928     2.494285     2.486642     2.478999
      2.471355     2.463712     2.456069     2.448426     2.440783     2.433139     2.425496     2.417853     2.410210     2.402566
      2.394923     2.387280     2.379637     2.371994     2.364350     2.356707     2.349064     2.341421     2.333777     2.326134
      2.318491     2.310848     2.303205     2.295561     2.287918     2.280275     2.272632     2.264988     2.257345     2.249702
      2.242059     2.234416     2.226772     2.219129     2.211486     2.203843     2.196199     2.188556     2.180913     2.173270
      2.165627     2.157983     2.150340     2.142697     2.135054     2.127410     2.119767     2.112124     2.104481     2.096838
      2.089194     2.081551     2.073908     2.066265     2.058621     2.050978     2.043335     2.035692     2.028049     2.020405
      2.012762     2.005119     1.997476     1.989833     1.982190     1.974546     1.966903     1.959260     1.951617     1.943974
      1.936331     1.928688     1.921045     1.913402     1.905759     1.898115     1.890472     1.882829     1.875186     1.867543
      1.859900     1.852257     1.844614     1.836971     1.829327     1.821684     1.814041     1.806398     1.798755     1.791112
      1.783469     1.775826     1.768183     1.760540     1.752896     1.745253     1.737610     1.729967     1.722324     1.714681
      1.707038     1.699395     1.691752     1.684108     1.676465     1.668822     1.661179     1.653536     1.645893     1.638250
      1.630607     1.622964     1.615321     1.607677     1.600034     1.592391     1.584748     1.577105     1.569462     1.561819
      1.554176     1.546533     1.538890     1.531246     1.523603     1.515960     1.508317     1.500674     1.493031     1.485388
      1.477745     1.470102     1.462458     1.454815     1.447172     1.439529     1.431886     1.424243     1.416600     1.408957
      1.401314     1.393671     1.386027     1.378384     1.370741     1.363098     1.355455     1.347812     1.340169     1.332526
      1.324883     1.317240     1.309596     1.301953     1.294310     1.286667     1.279024     1.271381     1.263738     1.256095
      1.248452     1.240808     1.233165     1.225522     1.217879     1.210236     1.202593     1.194950     1.187307     1.179664
      1.172021     1.164377     1.156734     1.149091     1.141448     1.133805     1.126162     1.118519     1.110876     1.103233
      1.095590     1.087946     1.080303     1.072660     1.065017     1.057374     1.049731     1.042088     1.034445     1.026802
      1.019158     1.011515     1.003872     0.996229     0.988586     0.980943     0.973300     0.965657     0.958014     0.950371
      0.942727     0.935084     0.927441     0.919798     0.912155     0.904512     0.896869     0.889226     0.881583     0.873940
      0.866296     0.858653     0.851010     0.843367     0.835724     0.828081     0.820438     0.812795     0.805152     0.797508
      0.789865     0.782222     0.774579     0.766936     0.759293     0.751650     0.744007     0.736364     0.728721     0.721077
      0.713434     0.705791     0.698148     0.690505     0.682862     0.675219     0.667576     0.659933     0.652290     0.644646
      0.637003     0.629360     0.621717     0.614074     0.606431     0.598788     0.591145     0.583502     0.575858     0.568215
      0.560572     0.552929     0.545286     0.537643     0.530000     0.522357     0.514714     0.507071     0.499427     0.491784
      0.484141     0.476498     0.468855     0.461212     0.453569     0.445925     0.438282     0.430639     0.422996     0.415353
      0.407710     0.400067     0.392424     0.384780     0.377137     0.369494     0.361851     0.354208     0.346565     0.338922
      0.331278     0.323635     0.315992     0.308349     0.300706     0.293063     0.285420     0.277777     0.270133     0.262490
      0.254847     0.247204     0.239561     0.231918     0.224275     0.216631     0.208988     0.201345
 NY phased data points follow
  -2.61193E+01 -2.51758E+01 -2.56789E+01 -2.81187E+01 -2.59560E+01 -2.51512E+01 -2.60121E+01 -2.48020E+01 -2.34115E+01 -2.44825E+01
  -2.48862E+01 -2.63410E+01 -1.96254E+01 -2.50507E+01 -2.35858E+01 -2.18481E+01 -2.19353E+01 -2.36858E+01 -2.02249E+01 -2.11173E+01
  -2.26670E+01 -2.36329E+01 -2.33999E+01 -2.22433E+01 -2.10742E+01 -2.21768E+01 -2.11651E+01 -2.49095E+01 -2.28503E+01 -2.18143E+01
  -2.17229E+01 -1.93769E+01 -2.23424E+01 -2.04804E+01 -1.91301E+01 -2.16814E+01 -1.97178E+01 -1.80068E+01 -2.06440E+01 -2.15319E+01
  -1.92397E+01 -2.05348E+01 -2.15660E+01 -2.07506E+01 -2.06781E+01 -2.17292E+01 -2.02271E+01 -2.07777E+01 -2.09680E+01 -1.86956E+01
  -1.63931E+01 -1.88549E+01 -1.81415E+01 -1.86627E+01 -1.91913E+01 -1.69220E+01 -1.54061E+01 -2.01592E+01 -1.82879E+01 -1.82612E+01
  -1.85339E+01 -1.91125E+01 -1.70884E+01 -1.85347E+01 -1.69997E+01 -1.73937E+01 -1.66677E+01 -1.92412E+01 -1.51157E+01 -1.69801E+01
  -1.61262E+01 -1.95738E+01 -1.86296E+01 -1.90592E+01 -1.79579E+01 -1.62848E+01 -1.85934E+01 -1.72279E+01 -1.83239E+01 -1.58557E+01
  -1.51275E+01 -1.63743E+01 -1.72871E+01 -1.41858E+01 -1.48707E+01 -1.72202E+01 -1.48049E+01 -1.63964E+01 -1.67589E+01 -1.63825E+01
  -1.52479E+01 -1.61939E+01 -1.47733E+01 -1.24157E+01 -1.73998E+01 -1.35299E+01 -1.48988E+01 -1.46210E+01 -1.61970E+01 -1.64000E+01
  -1.43100E+01 -1.50051E+01 -1.41682E+01 -1.64415E+01 -1.40401E+01 -1.60091E+01 -1.40425E+01 -1.54512E+01 -1.37557E+01 -1.20339E+01
  -1.32030E+01 -1.44970E+01 -1.27133E+01 -1.35671E+01 -1.35290E+01 -1.28978E+01 -1.52981E+01 -1.51000E+01 -1.54064E+01 -1.26405E+01
  -1.58901E+01 -1.56116E+01 -1.27482E+01 -1.49413E+01 -1.52439E+01 -1.47253E+01 -1.36435E+01 -1.72067E+01 -1.22571E+01 -1.45434E+01
  -1.40552E+01 -1.05981E+01 -1.41934E+01 -1.42887E+01 -1.19405E+01 -1.30131E+01 -1.20176E+01 -1.32755E+01 -1.25424E+01 -1.38654E+01
  -1.40906E+01 -1.47565E+01 -1.51080E+01 -1.30510E+01 -1.35471E+01 -1.42208E+01 -1.21958E+01 -1.32110E+01 -1.29569E+01 -1.47197E+01
  -1.27131E+01 -1.35269E+01 -1.26489E+01 -1.13776E+01 -1.42550E+01 -1.34987E+01 -1.40650E+01 -1.57881E+01 -1.38602E+01 -1.23943E+01
  -1.40531E+01 -1.41394E+01 -1.28850E+01 -1.14007E+01 -1.25629E+01 -1.26332E+01 -1.26810E+01 -1.05294E+01 -1.26604E+01 -1.16727E+01
  -1.57397E+01 -1.36744E+01 -1.39057E+01 -1.08574E+01 -1.14830E+01 -1.22032E+01 -1.23048E+01 -9.41610E+00 -1.31058E+01 -1.30517E+01
  -1.39736E+01 -1.23214E+01 -1.30670E+01 -1.26569E+01 -1.35744E+01 -1.29111E+01 -1.09903E+01 -1.17171E+01 -1.01307E+01 -1.34870E+01
  -1.24290E+01 -1.14633E+01 -1.21459E+01 -9.98626E+00 -1.21828E+01 -1.18838E+01 -1.19695E+01 -1.18385E+01 -1.12414E+01 -1.00585E+01
  -1.12197E+01 -1.02736E+01 -1.02064E+01 -1.02403E+01 -1.13608E+01 -1.12417E+01 -1.26025E+01 -1.03179E+01 -1.06019E+01 -9.79527E+00
  -1.17866E+01 -1.01363E+01 -1.20843E+01 -1.22025E+01 -1.29922E+01 -1.18445E+01 -1.10742E+01 -9.83506E+00 -9.22841E+00 -9.17826E+00
  -1.04013E+01 -1.04634E+01 -9.54963E+00 -1.11060E+01 -7.87584E+00 -1.36011E+01 -8.54397E+00 -1.17968E+01 -1.00204E+01 -8.42791E+00
  -1.01503E+01 -1.02841E+01 -9.45427E+00 -8.94066E+00 -7.73731E+00 -8.99008E+00 -1.05247E+01 -9.99274E+00 -8.72979E+00 -8.22318E+00
  -9.24620E+00 -9.98104E+00 -9.63099E+00 -8.15019E+00 -8.66751E+00 -1.06930E+01 -8.39806E+00 -8.45503E+00 -9.17177E+00 -1.00635E+01
  -9.10146E+00 -1.02653E+01 -9.93591E+00 -9.93122E+00 -8.68080E+00 -9.22381E+00 -1.02937E+01 -7.90450E+00 -1.01583E+01 -6.56021E+00
  -8.17976E+00 -7.84697E+00 -6.84806E+00 -5.13197E+00 -2.57988E+00 -9.25510E+00 -5.96554E+00 -6.00399E+00 -7.57730E+00 -7.45702E+00
  -5.54217E+00 -7.25718E+00 -6.58455E+00 -7.23960E+00 -4.84415E+00 -8.80069E+00 -7.42316E+00 -9.75744E+00 -7.73823E+00 -7.42212E+00
  -9.79573E+00 -7.85980E+00 -6.04400E+00 -6.01615E+00 -7.87533E+00 -6.49244E+00 -7.86739E+00 -8.79288E+00 -9.41033E+00 -6.95733E+00
  -8.06238E+00 -8.36880E+00 -8.21933E+00 -1.11106E+01 -8.84482E+00 -9.22513E+00 -6.81808E+00 -9.35471E+00 -9.45967E+00 -9.65588E+00
  -5.96056E+00 -1.04620E+01 -9.31097E+00 -7.27509E+00 -5.16423E+00 -7.50775E+00 -6.44763E+00 -9.73375E+00 -8.99325E+00 -8.22127E+00
  -7.69672E+00 -8.80804E+00 -1.03175E+01 -1.06641E+01 -8.15229E+00 -8.77053E+00 -4.94932E+00 -7.56921E+00 -7.63762E+00 -8.33762E+00
  -6.86444E+00 -7.82438E+00 -8.78153E+00 -7.65032E+00 -5.11766E+00 -5.35785E+00 -7.36244E+00 -6.70635E+00 -4.62061E+00 -7.08657E+00
  -5.81446E+00 -8.54240E+00 -4.75652E+00 -6.24089E+00 -4.63121E+00 -4.84891E+00 -3.31961E+00 -3.99684E+00 -5.44016E+00 -7.61116E+00
  -5.11045E+00 -5.97592E+00 -5.93852E+00 -6.11605E+00 -5.57244E+00 -4.59677E+00 -6.23439E+00 -5.24013E+00 -5.66750E+00 -5.63387E+00
  -5.60366E+00 -4.70586E+00 -5.82334E+00 -6.07145E+00 -4.99312E+00 -5.16620E+00 -6.85538E+00 -4.52758E+00 -5.51962E+00 -4.65202E+00
  -6.04152E+00 -3.13630E+00 -7.71145E+00 -5.07311E+00 -3.09145E+00 -6.50002E+00 -1.97862E+00 -4.64604E+00 -3.58140E+00 -6.58372E+00
  -3.58195E+00 -3.50424E+00 -4.01145E+00 -5.27411E+00 -4.18413E+00 -3.65297E+00 -5.22803E+00 -4.80225E+00 -6.41925E+00 -3.69212E+00
  -4.91614E+00 -9.46968E+00 -5.17326E+00 -5.52703E+00 -6.10410E+00 -6.90921E+00 -3.78670E+00 -5.87581E+00 -4.99212E+00 -1.65721E+00
  -3.65242E+00 -4.12373E+00 -4.39005E+00 -4.60546E+00 -4.06469E+00 -3.41251E+00 -4.25487E+00 -4.53675E+00 -5.51506E+00 -4.72016E+00
  -3.93007E+00 -3.45564E+00 -3.65921E+00 -3.81636E+00 -5.28117E+00 -4.76626E+00 -4.30778E+00 -4.68847E+00 -2.01051E+00 -6.52177E+00
  -4.32834E+00 -5.32960E+00 -4.78304E+00 -6.35412E+00 -4.44677E+00 -2.87385E+00 -2.56563E+00 -4.32473E+00 -4.97402E+00 -4.04800E+00
  -3.88505E+00 -5.13544E+00 -1.98596E+00 -3.39853E+00 -4.04380E+00 -3.67133E+00 -6.13983E+00 -4.16781E+00 -4.51884E+00 -5.49768E+00
  -2.90419E+00 -2.84116E+00 -2.82860E+00 -1.94283E+00 -3.83090E+00 -2.36706E+00 -4.85168E+00 -2.19534E+00 -5.95959E+00 -3.74294E+00
  -3.52335E+00 -1.78989E+00 -4.46940E+00 -3.47475E+00 -4.75236E-01 -2.89673E+00 -3.39950E+00 -4.30463E+00 -1.74050E+00 -3.73812E+00
  -4.53989E+00 -2.05589E+00 -2.98535E+00 -6.54539E+00 -3.91888E+00 -5.80478E+00 -4.34634E+00 -2.95727E+00 -2.46645E+00 -3.96591E+00
  -3.11166E+00 -2.94636E+00 -2.97342E+00 -3.83875E+00 -3.27995E+00 -3.49828E+00 -2.17849E+00 -2.84317E+00 -2.67674E+00 -3.82699E+00
  -3.41534E+00 -1.81416E+00 -2.98685E+00 -3.68597E+00 -3.65709E+00 -1.90132E+00 -1.80360E+00 -4.69537E+00 -1.36043E+00 -1.90203E+00
   1.02594E-01 -1.17091E+00 -3.49064E+00 -1.99399E+00 -2.12497E+00 -1.16999E+00 -7.99578E-01  7.80580E-01 -2.65739E+00 -1.75495E+00
  -1.37195E+00 -3.78829E+00 -8.10182E-01 -1.65993E-01 -2.79319E+00 -2.49408E+00 -1.41047E+00 -3.09440E+00
 NY points of the fit to the data follow
  -2.33854E+01 -2.33196E+01 -2.30906E+01 -2.31883E+01 -2.33649E+01 -2.32429E+01 -2.32427E+01 -2.32147E+01 -2.31298E+01 -2.32445E+01
  -2.28821E+01 -2.26903E+01 -2.21814E+01 -2.24950E+01 -2.28463E+01 -2.22418E+01 -2.20529E+01 -2.23738E+01 -2.21526E+01 -2.18422E+01
  -2.19052E+01 -2.21236E+01 -2.19224E+01 -2.17183E+01 -2.17251E+01 -2.16915E+01 -2.16063E+01 -2.16191E+01 -2.15701E+01 -2.13323E+01
  -2.13243E+01 -2.13450E+01 -2.11751E+01 -2.03752E+01 -2.03150E+01 -2.07893E+01 -2.01706E+01 -1.96725E+01 -2.00712E+01 -2.00658E+01
  -1.98088E+01 -1.99646E+01 -2.03576E+01 -2.03504E+01 -2.00221E+01 -2.00833E+01 -2.00595E+01 -1.99993E+01 -1.99932E+01 -1.95544E+01
  -1.89266E+01 -1.87532E+01 -1.90707E+01 -1.92597E+01 -1.91254E+01 -1.90183E+01 -1.89899E+01 -1.88146E+01 -1.88406E+01 -1.90594E+01
  -1.91608E+01 -1.90706E+01 -1.87763E+01 -1.85822E+01 -1.85543E+01 -1.84488E+01 -1.83767E+01 -1.84729E+01 -1.83097E+01 -1.82345E+01
  -1.81388E+01 -1.81236E+01 -1.81291E+01 -1.80816E+01 -1.79938E+01 -1.77725E+01 -1.76555E+01 -1.77203E+01 -1.76490E+01 -1.73889E+01
  -1.74368E+01 -1.74793E+01 -1.73305E+01 -1.72783E+01 -1.73142E+01 -1.71682E+01 -1.70689E+01 -1.71734E+01 -1.70779E+01 -1.68858E+01
  -1.68930E+01 -1.69833E+01 -1.64725E+01 -1.58880E+01 -1.59983E+01 -1.53900E+01 -1.60444E+01 -1.61807E+01 -1.62269E+01 -1.63603E+01
  -1.63094E+01 -1.60397E+01 -1.56592E+01 -1.58886E+01 -1.52613E+01 -1.51471E+01 -1.33393E+01 -1.32491E+01 -1.29963E+01 -1.28377E+01
  -1.38852E+01 -1.35568E+01 -1.26797E+01 -1.31554E+01 -1.35881E+01 -1.36621E+01 -1.43542E+01 -1.43686E+01 -1.49983E+01 -1.48944E+01
  -1.47960E+01 -1.50474E+01 -1.50761E+01 -1.49037E+01 -1.48566E+01 -1.48133E+01 -1.44557E+01 -1.48930E+01 -1.44574E+01 -1.38931E+01
  -1.26530E+01 -1.28660E+01 -1.40261E+01 -1.34858E+01 -1.29220E+01 -1.33072E+01 -1.30176E+01 -1.27428E+01 -1.35972E+01 -1.40738E+01
  -1.40422E+01 -1.40251E+01 -1.40244E+01 -1.38553E+01 -1.38384E+01 -1.38611E+01 -1.38087E+01 -1.37647E+01 -1.36432E+01 -1.35108E+01
  -1.34834E+01 -1.34679E+01 -1.33913E+01 -1.33870E+01 -1.33661E+01 -1.32885E+01 -1.32824E+01 -1.32566E+01 -1.32415E+01 -1.32045E+01
  -1.31438E+01 -1.30712E+01 -1.30321E+01 -1.30242E+01 -1.30643E+01 -1.30489E+01 -1.29071E+01 -1.28417E+01 -1.27702E+01 -1.27824E+01
  -1.28160E+01 -1.27617E+01 -1.26714E+01 -1.26675E+01 -1.25760E+01 -1.25203E+01 -1.25072E+01 -1.25049E+01 -1.24541E+01 -1.24627E+01
  -1.24067E+01 -1.21632E+01 -1.21400E+01 -1.22148E+01 -1.22456E+01 -1.21992E+01 -1.21575E+01 -1.20337E+01 -1.20050E+01 -1.19342E+01
  -1.19471E+01 -1.18409E+01 -1.16302E+01 -1.15029E+01 -1.14048E+01 -1.13251E+01 -1.13127E+01 -1.14052E+01 -1.12472E+01 -1.11918E+01
  -1.13031E+01 -1.13320E+01 -1.12390E+01 -1.11119E+01 -1.10471E+01 -1.09597E+01 -1.06525E+01 -1.06942E+01 -1.07507E+01 -1.06832E+01
  -1.07060E+01 -1.09128E+01 -1.10099E+01 -1.09602E+01 -1.09339E+01 -1.06178E+01 -1.07795E+01 -1.05916E+01 -1.02634E+01 -9.99639E+00
  -1.00196E+01 -1.05025E+01 -1.04467E+01 -1.00783E+01 -1.02487E+01 -1.05630E+01 -1.05185E+01 -1.03962E+01 -1.02161E+01 -1.04233E+01
  -1.05693E+01 -1.03273E+01 -1.02684E+01 -1.02602E+01 -9.88540E+00 -9.73205E+00 -9.59572E+00 -9.48997E+00 -9.50641E+00 -9.51394E+00
  -9.50418E+00 -9.50060E+00 -9.60105E+00 -9.52379E+00 -9.48227E+00 -9.28132E+00 -9.08475E+00 -9.26431E+00 -9.14530E+00 -8.72444E+00
  -8.01875E+00 -8.55798E+00 -8.77502E+00 -8.43344E+00 -8.77507E+00 -8.81118E+00 -8.78667E+00 -8.54246E+00 -8.45864E+00 -7.26369E+00
  -7.56304E+00 -8.28266E+00 -7.63202E+00 -5.30567E+00 -4.44789E+00 -6.63938E+00 -6.87095E+00 -5.75249E+00 -6.45128E+00 -6.89710E+00
  -6.10336E+00 -6.82467E+00 -8.01895E+00 -8.30981E+00 -8.33744E+00 -8.39097E+00 -8.40609E+00 -8.32748E+00 -8.29454E+00 -8.30017E+00
  -8.28824E+00 -8.24559E+00 -8.20584E+00 -8.16311E+00 -8.13941E+00 -8.11408E+00 -8.08695E+00 -8.07390E+00 -8.06393E+00 -8.03420E+00
  -8.00106E+00 -7.98026E+00 -7.95114E+00 -7.90931E+00 -7.88031E+00 -7.84981E+00 -7.80687E+00 -7.78219E+00 -7.76122E+00 -7.72413E+00
  -7.69300E+00 -7.66535E+00 -7.63375E+00 -7.60375E+00 -7.57003E+00 -7.53993E+00 -7.51121E+00 -7.47750E+00 -7.44607E+00 -7.41650E+00
  -7.38125E+00 -7.34620E+00 -7.31232E+00 -7.27807E+00 -7.24388E+00 -7.20995E+00 -7.17525E+00 -7.14047E+00 -7.10497E+00 -7.06887E+00
  -7.03201E+00 -6.99474E+00 -6.95636E+00 -6.91728E+00 -6.87706E+00 -6.83581E+00 -6.79298E+00 -6.74876E+00 -6.70248E+00 -6.65414E+00
  -6.60301E+00 -6.54885E+00 -6.49020E+00 -6.42576E+00 -6.35178E+00 -6.26055E+00 -6.12509E+00 -5.89023E+00 -5.95555E+00 -6.28859E+00
  -6.05222E+00 -6.08697E+00 -6.18160E+00 -6.06568E+00 -5.93213E+00 -5.53531E+00 -5.17200E+00 -5.28374E+00 -5.22809E+00 -4.76342E+00
  -4.60689E+00 -4.44926E+00 -5.25366E+00 -5.75259E+00 -5.00992E+00 -5.05967E+00 -5.67843E+00 -5.53108E+00 -5.42741E+00 -5.04367E+00
  -5.11190E+00 -5.51971E+00 -5.08303E+00 -4.81325E+00 -4.92146E+00 -4.55622E+00 -4.34097E+00 -4.62164E+00 -4.79488E+00 -4.88207E+00
  -4.93548E+00 -4.97195E+00 -4.99776E+00 -5.01639E+00 -5.02904E+00 -5.03688E+00 -5.04015E+00 -5.03973E+00 -5.03573E+00 -5.02872E+00
  -5.01849E+00 -5.00545E+00 -4.98944E+00 -4.97103E+00 -4.95008E+00 -4.92698E+00 -4.90141E+00 -4.87375E+00 -4.84383E+00 -4.81214E+00
  -4.77849E+00 -4.74328E+00 -4.70626E+00 -4.66793E+00 -4.62824E+00 -4.58780E+00 -4.54658E+00 -4.50512E+00 -4.46340E+00 -4.42211E+00
  -4.38136E+00 -4.34187E+00 -4.30362E+00 -4.26719E+00 -4.23253E+00 -4.20022E+00 -4.17016E+00 -4.14276E+00 -4.11767E+00 -4.09512E+00
  -4.07468E+00 -4.05652E+00 -4.04013E+00 -4.02552E+00 -4.01202E+00 -3.99960E+00 -3.98767E+00 -3.97625E+00 -3.96478E+00 -3.95325E+00
  -3.94110E+00 -3.92844E+00 -3.91488E+00 -3.90064E+00 -3.88534E+00 -3.86918E+00 -3.85185E+00 -3.83366E+00 -3.81440E+00 -3.79442E+00
  -3.77346E+00 -3.75181E+00 -3.72926E+00 -3.70618E+00 -3.68239E+00 -3.65821E+00 -3.63338E+00 -3.60822E+00 -3.58249E+00 -3.55656E+00
  -3.53020E+00 -3.50370E+00 -3.47677E+00 -3.44971E+00 -3.42230E+00 -3.39486E+00 -3.36712E+00 -3.33936E+00 -3.31128E+00 -3.28318E+00
  -3.25482E+00 -3.22652E+00 -3.19799E+00 -3.16947E+00 -3.14069E+00 -3.11195E+00 -3.08301E+00 -3.05416E+00 -3.02511E+00 -2.99609E+00
  -2.96685E+00 -2.93770E+00 -2.90838E+00 -2.87916E+00 -2.84974E+00 -2.82038E+00 -2.79084E+00 -2.76140E+00 -2.73181E+00 -2.70233E+00
  -2.67266E+00 -2.64305E+00 -2.61329E+00 -2.58366E+00 -2.55388E+00 -2.52420E+00 -2.49434E+00 -2.46457E+00 -2.43466E+00 -2.40488E+00
  -2.37496E+00 -2.34513E+00 -2.31514E+00 -2.28525E+00 -2.25524E+00 -2.22536E+00 -2.19534E+00 -2.16541E+00 -2.13533E+00 -2.10536E+00
  -2.07529E+00 -2.04535E+00 -2.01525E+00 -1.98525E+00 -1.95512E+00 -1.92512E+00 -1.89501E+00 -1.86502E+00
 NY background values follow
    -2.411E+01   -2.403E+01   -2.395E+01   -2.387E+01   -2.379E+01   -2.371E+01   -2.363E+01   -2.354E+01   -2.346E+01   -2.338E+01
    -2.330E+01   -2.322E+01   -2.314E+01   -2.306E+01   -2.298E+01   -2.290E+01   -2.282E+01   -2.274E+01   -2.266E+01   -2.258E+01
    -2.250E+01   -2.242E+01   -2.234E+01   -2.226E+01   -2.218E+01   -2.210E+01   -2.202E+01   -2.194E+01   -2.186E+01   -2.178E+01
    -2.170E+01   -2.162E+01   -2.154E+01   -2.146E+01   -2.138E+01   -2.130E+01   -2.122E+01   -2.114E+01   -2.106E+01   -2.098E+01
    -2.091E+01   -2.083E+01   -2.075E+01   -2.067E+01   -2.059E+01   -2.051E+01   -2.044E+01   -2.036E+01   -2.028E+01   -2.021E+01
    -2.013E+01   -2.005E+01   -1.997E+01   -1.990E+01   -1.982E+01   -1.975E+01   -1.967E+01   -1.959E+01   -1.952E+01   -1.944E+01
    -1.937E+01   -1.929E+01   -1.922E+01   -1.914E+01   -1.907E+01   -1.900E+01   -1.892E+01   -1.885E+01   -1.877E+01   -1.870E+01
    -1.863E+01   -1.856E+01   -1.848E+01   -1.841E+01   -1.834E+01   -1.827E+01   -1.819E+01   -1.812E+01   -1.805E+01   -1.798E+01
    -1.791E+01   -1.784E+01   -1.777E+01   -1.770E+01   -1.763E+01   -1.756E+01   -1.749E+01   -1.742E+01   -1.736E+01   -1.729E+01
    -1.722E+01   -1.715E+01   -1.709E+01   -1.702E+01   -1.695E+01   -1.689E+01   -1.682E+01   -1.675E+01   -1.669E+01   -1.662E+01
    -1.656E+01   -1.649E+01   -1.643E+01   -1.636E+01   -1.630E+01   -1.624E+01   -1.617E+01   -1.611E+01   -1.605E+01   -1.599E+01
    -1.592E+01   -1.586E+01   -1.580E+01   -1.574E+01   -1.568E+01   -1.562E+01   -1.556E+01   -1.550E+01   -1.544E+01   -1.538E+01
    -1.532E+01   -1.526E+01   -1.520E+01   -1.514E+01   -1.508E+01   -1.502E+01   -1.497E+01   -1.491E+01   -1.485E+01   -1.479E+01
    -1.474E+01   -1.468E+01   -1.463E+01   -1.457E+01   -1.451E+01   -1.446E+01   -1.440E+01   -1.435E+01   -1.429E+01   -1.424E+01
    -1.418E+01   -1.413E+01   -1.408E+01   -1.402E+01   -1.397E+01   -1.392E+01   -1.386E+01   -1.381E+01   -1.376E+01   -1.371E+01
    -1.365E+01   -1.360E+01   -1.355E+01   -1.350E+01   -1.345E+01   -1.340E+01   -1.335E+01   -1.330E+01   -1.325E+01   -1.320E+01
    -1.315E+01   -1.310E+01   -1.305E+01   -1.300E+01   -1.295E+01   -1.290E+01   -1.285E+01   -1.281E+01   -1.276E+01   -1.271E+01
    -1.266E+01   -1.262E+01   -1.257E+01   -1.252E+01   -1.248E+01   -1.243E+01   -1.238E+01   -1.234E+01   -1.229E+01   -1.225E+01
    -1.220E+01   -1.216E+01   -1.211E+01   -1.207E+01   -1.202E+01   -1.198E+01   -1.193E+01   -1.189E+01   -1.184E+01   -1.180E+01
    -1.176E+01   -1.171E+01   -1.167E+01   -1.163E+01   -1.159E+01   -1.154E+01   -1.150E+01   -1.146E+01   -1.142E+01   -1.137E+01
    -1.133E+01   -1.129E+01   -1.125E+01   -1.121E+01   -1.117E+01   -1.113E+01   -1.109E+01   -1.105E+01   -1.101E+01   -1.097E+01
    -1.093E+01   -1.089E+01   -1.085E+01   -1.081E+01   -1.077E+01   -1.073E+01   -1.069E+01   -1.065E+01   -1.061E+01   -1.057E+01
    -1.054E+01   -1.050E+01   -1.046E+01   -1.042E+01   -1.038E+01   -1.035E+01   -1.031E+01   -1.027E+01   -1.023E+01   -1.020E+01
    -1.016E+01   -1.012E+01   -1.009E+01   -1.005E+01   -1.001E+01   -9.976E+00   -9.940E+00   -9.904E+00   -9.868E+00   -9.833E+00
    -9.797E+00   -9.761E+00   -9.726E+00   -9.691E+00   -9.655E+00   -9.620E+00   -9.585E+00   -9.550E+00   -9.516E+00   -9.481E+00
    -9.446E+00   -9.412E+00   -9.378E+00   -9.343E+00   -9.309E+00   -9.275E+00   -9.241E+00   -9.208E+00   -9.174E+00   -9.140E+00
    -9.107E+00   -9.073E+00   -9.040E+00   -9.006E+00   -8.973E+00   -8.940E+00   -8.907E+00   -8.874E+00   -8.841E+00   -8.808E+00
    -8.775E+00   -8.743E+00   -8.710E+00   -8.678E+00   -8.645E+00   -8.613E+00   -8.580E+00   -8.548E+00   -8.516E+00   -8.484E+00
    -8.452E+00   -8.420E+00   -8.388E+00   -8.356E+00   -8.324E+00   -8.292E+00   -8.260E+00   -8.229E+00   -8.197E+00   -8.166E+00
    -8.134E+00   -8.102E+00   -8.071E+00   -8.040E+00   -8.008E+00   -7.977E+00   -7.946E+00   -7.914E+00   -7.883E+00   -7.852E+00
    -7.821E+00   -7.790E+00   -7.759E+00   -7.728E+00   -7.697E+00   -7.666E+00   -7.635E+00   -7.604E+00   -7.573E+00   -7.542E+00
    -7.511E+00   -7.480E+00   -7.450E+00   -7.419E+00   -7.388E+00   -7.357E+00   -7.327E+00   -7.296E+00   -7.265E+00   -7.235E+00
    -7.204E+00   -7.173E+00   -7.143E+00   -7.112E+00   -7.081E+00   -7.051E+00   -7.020E+00   -6.990E+00   -6.959E+00   -6.929E+00
    -6.898E+00   -6.867E+00   -6.837E+00   -6.807E+00   -6.776E+00   -6.746E+00   -6.715E+00   -6.685E+00   -6.654E+00   -6.624E+00
    -6.594E+00   -6.563E+00   -6.533E+00   -6.503E+00   -6.473E+00   -6.442E+00   -6.412E+00   -6.382E+00   -6.352E+00   -6.321E+00
    -6.291E+00   -6.261E+00   -6.231E+00   -6.201E+00   -6.171E+00   -6.141E+00   -6.111E+00   -6.081E+00   -6.051E+00   -6.021E+00
    -5.991E+00   -5.961E+00   -5.931E+00   -5.901E+00   -5.871E+00   -5.842E+00   -5.812E+00   -5.782E+00   -5.752E+00   -5.722E+00
    -5.693E+00   -5.663E+00   -5.633E+00   -5.604E+00   -5.574E+00   -5.544E+00   -5.515E+00   -5.485E+00   -5.455E+00   -5.426E+00
    -5.396E+00   -5.366E+00   -5.337E+00   -5.307E+00   -5.278E+00   -5.248E+00   -5.219E+00   -5.189E+00   -5.160E+00   -5.130E+00
    -5.101E+00   -5.071E+00   -5.042E+00   -5.012E+00   -4.983E+00   -4.953E+00   -4.924E+00   -4.894E+00   -4.865E+00   -4.835E+00
    -4.806E+00   -4.776E+00   -4.747E+00   -4.717E+00   -4.688E+00   -4.658E+00   -4.628E+00   -4.599E+00   -4.569E+00   -4.540E+00
    -4.510E+00   -4.481E+00   -4.451E+00   -4.422E+00   -4.392E+00   -4.362E+00   -4.333E+00   -4.303E+00   -4.274E+00   -4.244E+00
    -4.214E+00   -4.185E+00   -4.155E+00   -4.125E+00   -4.096E+00   -4.066E+00   -4.036E+00   -4.007E+00   -3.977E+00   -3.947E+00
    -3.918E+00   -3.888E+00   -3.858E+00   -3.828E+00   -3.798E+00   -3.769E+00   -3.739E+00   -3.709E+00   -3.679E+00   -3.649E+00
    -3.619E+00   -3.590E+00   -3.560E+00   -3.530E+00   -3.500E+00   -3.470E+00   -3.440E+00   -3.410E+00   -3.380E+00   -3.350E+00
    -3.320E+00   -3.290E+00   -3.260E+00   -3.230E+00   -3.199E+00   -3.169E+00   -3.139E+00   -3.109E+00   -3.079E+00   -3.049E+00
    -3.018E+00   -2.988E+00   -2.958E+00   -2.928E+00   -2.897E+00   -2.867E+00   -2.837E+00   -2.807E+00   -2.776E+00   -2.746E+00
    -2.716E+00   -2.685E+00   -2.655E+00   -2.624E+00   -2.594E+00   -2.564E+00   -2.533E+00   -2.503E+00   -2.472E+00   -2.442E+00
    -2.412E+00   -2.381E+00   -2.351E+00   -2.320E+00   -2.290E+00   -2.260E+00   -2.229E+00   -2.199E+00   -2.168E+00   -2.138E+00
    -2.107E+00   -2.077E+00   -2.046E+00   -2.016E+00   -1.986E+00   -1.955E+00   -1.925E+00   -1.894E+00
 Asp      Conc. = 1.55E+01
