 LCModel (Version 6.3-1L) Copyright: S.W. Provencher.          Ref.: Magn. Reson. Med. 30:672-679 (1993).                
 Slice#1 Row#10 Col#13  PD_24_press_1_raw_act
 36 lines in following concentration table = NCONC+1
    Conc.  %SD /Cr+PCr  Metabolite                                         
    0.000 999%   0.000 Ala                                                 
    6.386  84%   0.261 Asp                                                 
   24.435  54%   1.000 Cr                                                  
    0.000 999%   0.000 PCr                                                 
    3.797  85%   0.155 GABA                                                
    3.690  88%   0.151 Glc                                                 
    0.000 999%   0.000 Gln                                                 
   14.771 321%   0.604 Glu                                                 
    0.000 999%   0.000 GPC                                                 
   17.587 205%   0.720 PCh                                                 
    0.000 999%   0.000 GSH                                                 
    0.000 999%   0.000 Ins                                                 
    0.000 999%   0.000 Lac                                                 
   44.019  39%   1.801 NAA                                                 
    3.973 468%   0.163 NAAG                                                
    1.162  92% 4.8E-02 Scyllo                                              
    5.764  93%   0.236 Tau                                                 
    3.247 173%   0.133 -CrCH2                                              
   17.587  31%   0.720 GPC+PCh                                             
   47.992  48%   1.964 NAA+NAAG                                            
   24.435  54%   1.000 Cr+PCr                                              
   14.771 321%   0.604 Glu+Gln                                             
 8.13E+03  12% 332.790 Lip13a                                              
    0.000 999%   0.000 Lip13b                                              
 2.21E+03  12%  90.372 Lip09                                               
 1.53E+03  19%  62.792 MM09                                                
 1.48E+03  13%  60.662 Lip20                                               
   14.012 999%   0.573 MM20                                                
  655.693  48%  26.834 MM12                                                
  140.344 159%   5.743 MM14                                                
  825.940  26%  33.801 MM17                                                
 8.13E+03  12% 332.790 Lip13a+Lip13b                                       
 8.93E+03   9% 365.368 MM14+Lip13a+Lip13b+MM12                             
 3.74E+03   7% 153.164 MM09+Lip09                                          
 1.50E+03  13%  61.235 MM20+Lip20                                          
   6 lines in following misc. output table
  FWHM = 0.031 ppm    S/N =   8                                            
  Data shift =-0.015 ppm                                                   
  Ph: -92 deg      -8.6 deg/ppm                                            
  alphaB,S = 2.9E+00,   1.1E+01                                            
   14 spline knots.   Ns = 5(1)                                            
  ( 6) 2 infls.   ( 5) 2 extrs.                                            
  498 points on ppm-axis = NY
      4.000000     3.992357     3.984714     3.977070     3.969427     3.961784     3.954141     3.946497     3.938854     3.931211
      3.923568     3.915925     3.908281     3.900638     3.892995     3.885352     3.877708     3.870065     3.862422     3.854779
      3.847136     3.839492     3.831849     3.824206     3.816563     3.808919     3.801276     3.793633     3.785990     3.778347
      3.770703     3.763060     3.755417     3.747774     3.740130     3.732487     3.724844     3.717201     3.709558     3.701914
      3.694271     3.686628     3.678985     3.671341     3.663698     3.656055     3.648412     3.640769     3.633125     3.625482
      3.617839     3.610196     3.602552     3.594909     3.587266     3.579623     3.571980     3.564336     3.556693     3.549050
      3.541407     3.533763     3.526120     3.518477     3.510834     3.503191     3.495547     3.487904     3.480261     3.472618
      3.464974     3.457331     3.449688     3.442045     3.434402     3.426758     3.419115     3.411472     3.403829     3.396185
      3.388542     3.380899     3.373256     3.365613     3.357969     3.350326     3.342683     3.335040     3.327396     3.319753
      3.312110     3.304467     3.296824     3.289180     3.281537     3.273894     3.266251     3.258607     3.250964     3.243321
      3.235678     3.228034     3.220391     3.212748     3.205105     3.197462     3.189818     3.182175     3.174532     3.166889
      3.159245     3.151602     3.143959     3.136316     3.128673     3.121029     3.113386     3.105743     3.098100     3.090456
      3.082813     3.075170     3.067527     3.059884     3.052240     3.044597     3.036954     3.029311     3.021667     3.014024
      3.006381     2.998738     2.991095     2.983451     2.975808     2.968165     2.960522     2.952878     2.945235     2.937592
      2.929949     2.922306     2.914662     2.907019     2.899376     2.891733     2.884089     2.876446     2.868803     2.861160
      2.853517     2.845873     2.838230     2.830587     2.822944     2.815300     2.807657     2.800014     2.792371     2.784728
      2.777084     2.769441     2.761798     2.754155     2.746511     2.738868     2.731225     2.723582     2.715939     2.708295
      2.700652     2.693009     2.685366     2.677722     2.670079     2.662436     2.654793     2.647150     2.639506     2.631863
      2.624220     2.616577     2.608933     2.601290     2.593647     2.586004     2.578361     2.570717     2.563074     2.555431
      2.547788     2.540144     2.532501     2.524858     2.517215     2.509572     2.501928     2.494285     2.486642     2.478999
      2.471355     2.463712     2.456069     2.448426     2.440783     2.433139     2.425496     2.417853     2.410210     2.402566
      2.394923     2.387280     2.379637     2.371994     2.364350     2.356707     2.349064     2.341421     2.333777     2.326134
      2.318491     2.310848     2.303205     2.295561     2.287918     2.280275     2.272632     2.264988     2.257345     2.249702
      2.242059     2.234416     2.226772     2.219129     2.211486     2.203843     2.196199     2.188556     2.180913     2.173270
      2.165627     2.157983     2.150340     2.142697     2.135054     2.127410     2.119767     2.112124     2.104481     2.096838
      2.089194     2.081551     2.073908     2.066265     2.058621     2.050978     2.043335     2.035692     2.028049     2.020405
      2.012762     2.005119     1.997476     1.989833     1.982190     1.974546     1.966903     1.959260     1.951617     1.943974
      1.936331     1.928688     1.921045     1.913402     1.905759     1.898115     1.890472     1.882829     1.875186     1.867543
      1.859900     1.852257     1.844614     1.836971     1.829327     1.821684     1.814041     1.806398     1.798755     1.791112
      1.783469     1.775826     1.768183     1.760540     1.752896     1.745253     1.737610     1.729967     1.722324     1.714681
      1.707038     1.699395     1.691752     1.684108     1.676465     1.668822     1.661179     1.653536     1.645893     1.638250
      1.630607     1.622964     1.615321     1.607677     1.600034     1.592391     1.584748     1.577105     1.569462     1.561819
      1.554176     1.546533     1.538890     1.531246     1.523603     1.515960     1.508317     1.500674     1.493031     1.485388
      1.477745     1.470102     1.462458     1.454815     1.447172     1.439529     1.431886     1.424243     1.416600     1.408957
      1.401314     1.393671     1.386027     1.378384     1.370741     1.363098     1.355455     1.347812     1.340169     1.332526
      1.324883     1.317240     1.309596     1.301953     1.294310     1.286667     1.279024     1.271381     1.263738     1.256095
      1.248452     1.240808     1.233165     1.225522     1.217879     1.210236     1.202593     1.194950     1.187307     1.179664
      1.172021     1.164377     1.156734     1.149091     1.141448     1.133805     1.126162     1.118519     1.110876     1.103233
      1.095590     1.087946     1.080303     1.072660     1.065017     1.057374     1.049731     1.042088     1.034445     1.026802
      1.019158     1.011515     1.003872     0.996229     0.988586     0.980943     0.973300     0.965657     0.958014     0.950371
      0.942727     0.935084     0.927441     0.919798     0.912155     0.904512     0.896869     0.889226     0.881583     0.873940
      0.866296     0.858653     0.851010     0.843367     0.835724     0.828081     0.820438     0.812795     0.805152     0.797508
      0.789865     0.782222     0.774579     0.766936     0.759293     0.751650     0.744007     0.736364     0.728721     0.721077
      0.713434     0.705791     0.698148     0.690505     0.682862     0.675219     0.667576     0.659933     0.652290     0.644646
      0.637003     0.629360     0.621717     0.614074     0.606431     0.598788     0.591145     0.583502     0.575858     0.568215
      0.560572     0.552929     0.545286     0.537643     0.530000     0.522357     0.514714     0.507071     0.499427     0.491784
      0.484141     0.476498     0.468855     0.461212     0.453569     0.445925     0.438282     0.430639     0.422996     0.415353
      0.407710     0.400067     0.392424     0.384780     0.377137     0.369494     0.361851     0.354208     0.346565     0.338922
      0.331278     0.323635     0.315992     0.308349     0.300706     0.293063     0.285420     0.277777     0.270133     0.262490
      0.254847     0.247204     0.239561     0.231918     0.224275     0.216631     0.208988     0.201345
 NY phased data points follow
   2.16918E+00  4.08368E+00  2.47866E+00  3.83522E+00  4.15240E+00  3.85277E+00  2.41065E+00  4.03877E+00  2.70274E+00  1.83067E+00
   4.01016E+00  4.10737E+00  5.06904E+00  4.91969E+00  4.37406E+00  4.67636E+00  5.59122E-01  2.23215E+00  3.51555E+00  2.36568E+00
   2.65484E+00  1.91095E+00  3.60699E+00  7.08101E-01  3.38506E+00  7.60865E-01  2.48099E+00  4.08833E+00  3.20872E+00  2.48780E+00
   1.20053E+00  4.56909E+00  2.78305E+00  3.39307E+00  4.25231E+00  2.66282E+00  3.29850E+00  2.69613E+00  3.53876E+00  2.94178E+00
   3.75281E+00  2.18594E+00  3.03481E+00  1.18048E+00  3.40530E+00  2.23956E+00 -8.22746E-02  4.53737E+00  2.30419E+00  3.26611E+00
   4.37609E+00  2.97092E+00  1.93148E+00  2.40505E+00  1.72780E+00  4.96871E+00  2.41871E+00  4.00410E+00  8.82782E-01  3.17631E+00
   2.44715E+00  3.92842E+00  2.88724E+00  2.31463E+00  3.63442E-01  2.71690E+00  1.89868E+00  2.52883E+00  3.57457E+00  3.33395E+00
   2.24663E+00  2.86397E+00  2.02301E+00  2.50396E+00  1.59788E+00  3.42996E+00  2.45677E+00  1.77794E+00  4.03084E+00  1.73694E+00
   3.26006E+00  6.83074E-01  2.16073E+00  7.25444E-01  3.31924E+00  1.44569E+00  2.35184E+00  1.88456E+00  2.70407E+00  3.67070E+00
   8.07110E-01  2.10241E+00  1.78977E+00  2.86770E+00  1.54805E+00  1.35169E+00  3.72306E+00  3.12297E+00 -1.74144E-01  1.81050E+00
   3.96849E+00  3.08535E+00  5.23680E+00  5.36340E+00  3.45124E+00  4.39395E+00  4.18469E+00  2.72575E+00  4.40754E+00  3.72030E-01
   1.83590E+00  3.62325E+00  2.30914E+00  4.34190E+00  2.16931E+00  1.57363E+00  2.56138E+00  1.05660E+00  2.00244E+00  2.87813E+00
   1.60869E+00  1.79377E+00  2.96165E+00  1.94334E+00  1.48906E+00  3.25261E+00  2.04232E+00  4.76840E+00  3.30702E+00  2.62190E+00
   2.67023E+00  5.88955E+00  1.47758E+00  1.52817E+00  2.88320E+00  2.12936E+00  2.90708E+00  2.09258E+00  2.16238E+00  2.91206E+00
   3.96141E+00  3.47184E+00  2.97804E+00  4.35327E+00  3.21492E+00  3.52677E+00  2.51688E+00  3.99396E+00  2.49857E+00  2.94139E+00
   1.76118E+00  2.21664E+00  2.03716E+00  2.36873E+00  1.99482E+00  4.02819E+00  2.90839E+00  1.87734E+00  3.39126E+00  6.51889E+00
   2.81263E+00  4.16101E+00  2.56191E+00  2.79525E+00  2.66714E+00  3.75527E+00  2.79768E+00  4.19485E+00 -3.64354E-01  2.15703E+00
   3.46936E+00  3.70231E+00  2.35608E+00  3.76513E+00  3.94802E+00  5.06242E+00 -6.09906E-02  3.34495E+00  5.91227E-01  3.01595E+00
   1.66098E+00  2.26551E+00  3.11398E+00  2.83251E+00  1.84674E+00 -1.03100E-01  2.21406E+00  2.90561E+00  3.67183E+00  7.63972E-01
   2.56600E+00  2.44794E+00  2.24838E+00  2.01783E+00  2.52155E+00  2.93303E+00  3.40548E+00  3.26340E+00  3.36990E+00  2.97589E+00
   2.37891E+00  3.27265E+00  3.37055E+00  2.66302E+00  3.11058E+00  4.67148E+00  4.48005E+00  1.04408E+00  3.87425E+00  3.84933E+00
   3.34432E+00  3.04622E+00  3.72159E+00  1.94938E+00  3.09374E+00  2.08979E+00  3.19009E+00  3.56716E+00  2.68217E+00  2.78686E+00
   2.98498E+00  3.61706E+00  1.32600E+00  3.19567E+00  3.18794E+00  4.03292E+00  5.33918E+00  3.97036E+00  3.92284E+00  2.51216E+00
   4.22852E+00  3.20087E+00  4.53667E+00  3.44366E+00  5.22417E+00  2.26510E+00  3.49039E+00  3.16927E+00  2.46981E+00  3.68695E+00
   3.38334E+00  3.92981E+00  4.74507E+00  3.94115E+00  3.33326E+00  4.00818E+00  2.98277E+00  3.88353E+00  4.43463E+00  2.43388E+00
   4.03295E+00  4.51615E+00  3.57680E+00  5.01793E+00  5.70962E+00  3.74871E+00  3.39937E+00  4.05000E+00  6.41880E+00  6.97919E+00
   6.94795E+00  6.01086E+00  3.97697E+00  3.13297E+00  3.52414E+00  5.23974E+00  3.66496E+00  1.67279E+00  2.63072E+00  1.20022E-01
   3.06313E+00  3.15207E+00  2.59244E+00  4.13416E+00  3.92417E+00  2.90440E+00  4.50169E+00  3.93477E+00  1.69144E+00  3.65704E+00
   5.25619E+00  2.30451E+00  1.49047E+00  3.58912E+00  4.10599E+00  3.68937E+00  1.60454E+00  6.12026E+00  4.27945E+00  2.81229E+00
   4.92343E+00  2.00608E+00  4.83720E+00  4.39437E+00  5.34363E+00  3.35090E+00  4.78835E+00  5.19527E+00  4.09397E+00  4.89115E+00
   5.25165E+00  5.12384E+00  4.88004E+00  4.96209E+00  4.33125E+00  5.27557E+00  4.59232E+00  7.23870E+00  6.09835E+00  6.05591E+00
   6.17515E+00  6.15854E+00  7.83735E+00  6.70677E+00  6.24409E+00  6.46799E+00  9.03138E+00  6.68710E+00  9.02147E+00  6.17995E+00
   7.20888E+00  6.82066E+00  6.93552E+00  6.35354E+00  5.73610E+00  7.53413E+00  8.20561E+00  7.57659E+00  6.61876E+00  1.05247E+01
   8.32673E+00  7.44259E+00  7.99272E+00  9.72772E+00  9.20606E+00  8.38911E+00  9.44649E+00  9.86683E+00  9.23917E+00  1.09682E+01
   1.06995E+01  1.10958E+01  1.10712E+01  1.31168E+01  1.26437E+01  1.36699E+01  1.45519E+01  1.39250E+01  1.25966E+01  1.10689E+01
   1.37773E+01  1.40511E+01  1.41932E+01  1.47111E+01  1.26983E+01  1.29334E+01  1.37381E+01  1.29087E+01  1.25776E+01  1.31152E+01
   1.33582E+01  1.46135E+01  1.45736E+01  1.52677E+01  1.45092E+01  1.67234E+01  1.51612E+01  1.66106E+01  1.69202E+01  1.79985E+01
   1.75050E+01  1.68674E+01  1.66211E+01  1.58250E+01  1.50509E+01  1.48625E+01  1.60021E+01  1.74195E+01  1.59169E+01  1.72208E+01
   1.65830E+01  1.75594E+01  1.50742E+01  1.74969E+01  1.69295E+01  1.49783E+01  1.58225E+01  1.74425E+01  1.77277E+01  1.60174E+01
   1.69677E+01  1.54370E+01  1.62065E+01  1.61256E+01  1.83948E+01  1.34998E+01  1.60347E+01  1.52274E+01  1.61733E+01  1.43007E+01
   1.59054E+01  1.34479E+01  1.40565E+01  1.30614E+01  1.19084E+01  1.20477E+01  1.35360E+01  1.31034E+01  1.20109E+01  9.31047E+00
   1.18107E+01  1.12895E+01  1.05284E+01  9.91767E+00  1.06589E+01  9.85912E+00  8.44784E+00  8.04830E+00  9.93823E+00  7.73707E+00
   6.95933E+00  7.37415E+00  8.30900E+00  5.15668E+00  4.40457E+00  5.40314E+00  5.34137E+00  5.25743E+00  5.11015E+00  5.03541E+00
   4.41844E+00  4.16269E+00  3.43514E+00  3.98757E+00  2.78482E+00  1.90098E+00  3.00010E+00  2.49901E-01  1.20803E+00 -1.03566E+00
  -2.09421E-01 -3.72735E-01  4.27868E-01  5.81008E-01 -4.52623E-01 -1.67627E+00 -2.92095E+00 -1.46546E+00 -6.03819E-01 -3.05540E+00
  -3.45541E+00 -2.09700E+00 -2.76264E+00 -2.55068E+00 -3.57154E+00 -5.28514E+00 -2.15328E+00 -2.32666E+00 -3.64468E+00 -4.31466E+00
  -4.96797E+00 -4.39072E+00 -3.85601E+00 -5.52533E+00 -7.07966E+00 -5.13460E+00 -5.72574E+00 -7.66524E+00 -5.21999E+00 -4.57292E+00
  -5.40378E+00 -5.57354E+00 -4.68669E+00 -7.11820E+00 -6.72724E+00 -6.00471E+00 -7.30586E+00 -6.83010E+00 -7.96942E+00 -5.18759E+00
  -6.98762E+00 -6.50728E+00 -8.03553E+00 -7.34670E+00 -9.04945E+00 -6.73534E+00 -7.50139E+00 -7.86556E+00 -9.07956E+00 -8.48647E+00
  -7.52294E+00 -6.18138E+00 -7.49468E+00 -7.83349E+00 -7.73867E+00 -8.16085E+00 -7.87785E+00 -6.69268E+00
 NY points of the fit to the data follow
   3.44115E+00  3.42986E+00  3.42070E+00  3.41707E+00  3.41528E+00  3.38892E+00  3.30729E+00  3.22583E+00  3.31962E+00  3.59766E+00
   3.90445E+00  4.06477E+00  4.01850E+00  3.84826E+00  3.66122E+00  3.49458E+00  3.34812E+00  3.24495E+00  3.20169E+00  3.18424E+00
   3.17855E+00  3.17727E+00  3.17801E+00  3.18284E+00  3.18304E+00  3.16916E+00  3.13991E+00  3.10329E+00  3.07248E+00  3.05797E+00
   3.06340E+00  3.08260E+00  3.10030E+00  3.10153E+00  3.07933E+00  3.03823E+00  2.99497E+00  2.96856E+00  2.96713E+00  2.97491E+00
   2.97584E+00  2.96080E+00  2.93156E+00  2.90342E+00  2.88418E+00  2.87025E+00  2.86187E+00  2.85150E+00  2.83419E+00  2.81831E+00
   2.81270E+00  2.81540E+00  2.82000E+00  2.82019E+00  2.81162E+00  2.79615E+00  2.77769E+00  2.75794E+00  2.74030E+00  2.72631E+00
   2.71394E+00  2.70196E+00  2.69139E+00  2.68458E+00  2.67831E+00  2.67143E+00  2.66223E+00  2.64802E+00  2.63005E+00  2.61217E+00
   2.59446E+00  2.58118E+00  2.58235E+00  2.59612E+00  2.60982E+00  2.61134E+00  2.59364E+00  2.56116E+00  2.52760E+00  2.50310E+00
   2.48859E+00  2.47888E+00  2.48171E+00  2.50605E+00  2.54142E+00  2.56658E+00  2.56438E+00  2.53633E+00  2.50180E+00  2.47417E+00
   2.44986E+00  2.42283E+00  2.39590E+00  2.37125E+00  2.35336E+00  2.35410E+00  2.37022E+00  2.37263E+00  2.27886E+00  2.30414E+00
   2.86669E+00  3.83690E+00  4.71164E+00  5.03479E+00  4.73538E+00  4.12443E+00  3.52076E+00  3.02211E+00  2.63286E+00  2.41955E+00
   2.36330E+00  2.34270E+00  2.33129E+00  2.32500E+00  2.32308E+00  2.32453E+00  2.32703E+00  2.32949E+00  2.33383E+00  2.34051E+00
   2.34831E+00  2.35041E+00  2.31463E+00  2.32674E+00  2.59342E+00  3.06935E+00  3.52176E+00  3.73057E+00  3.64400E+00  3.39551E+00
   3.13893E+00  2.92609E+00  2.76267E+00  2.68260E+00  2.68441E+00  2.70918E+00  2.74299E+00  2.78456E+00  2.82970E+00  2.87254E+00
   2.91126E+00  2.94869E+00  2.99142E+00  3.04068E+00  3.09052E+00  3.13523E+00  3.17253E+00  3.20398E+00  3.23199E+00  3.25823E+00
   3.28223E+00  3.30233E+00  3.31846E+00  3.33050E+00  3.33898E+00  3.34630E+00  3.35119E+00  3.33997E+00  3.30466E+00  3.25339E+00
   3.20234E+00  3.17299E+00  3.16390E+00  3.15497E+00  3.13030E+00  3.08615E+00  3.02685E+00  2.95910E+00  2.89019E+00  2.82349E+00
   2.76064E+00  2.70264E+00  2.63678E+00  2.55381E+00  2.46928E+00  2.40300E+00  2.36316E+00  2.33179E+00  2.28540E+00  2.22173E+00
   2.15835E+00  2.11338E+00  2.08540E+00  2.05311E+00  2.00840E+00  1.96501E+00  1.93891E+00  1.93243E+00  1.93588E+00  1.93329E+00
   1.91916E+00  1.89880E+00  1.87856E+00  1.87010E+00  1.87536E+00  1.88235E+00  1.87914E+00  1.86424E+00  1.84288E+00  1.82407E+00
   1.82514E+00  1.85093E+00  1.89471E+00  1.94032E+00  1.97143E+00  1.98836E+00  1.99684E+00  2.00306E+00  2.01257E+00  2.02041E+00
   2.02947E+00  2.05092E+00  2.11277E+00  2.21986E+00  2.34238E+00  2.44359E+00  2.50710E+00  2.54360E+00  2.56085E+00  2.55785E+00
   2.55418E+00  2.58455E+00  2.66497E+00  2.77879E+00  2.89648E+00  2.99848E+00  3.08036E+00  3.13926E+00  3.17450E+00  3.19858E+00
   3.22833E+00  3.27173E+00  3.32544E+00  3.38313E+00  3.43843E+00  3.48971E+00  3.53545E+00  3.57387E+00  3.60775E+00  3.63710E+00
   3.66647E+00  3.70545E+00  3.75925E+00  3.82344E+00  3.89073E+00  3.95581E+00  4.01363E+00  4.05946E+00  4.09139E+00  4.11452E+00
   4.13616E+00  4.15830E+00  4.20719E+00  4.29181E+00  4.36479E+00  4.31973E+00  4.33464E+00  4.76480E+00  5.51193E+00  6.16411E+00
   6.34712E+00  6.01138E+00  5.42498E+00  4.84600E+00  4.34673E+00  3.93437E+00  3.66862E+00  3.52764E+00  3.41185E+00  3.30555E+00
   3.21154E+00  3.13033E+00  3.06068E+00  3.00120E+00  2.94885E+00  2.90099E+00  2.85740E+00  2.81944E+00  2.78911E+00  2.76927E+00
   2.76224E+00  2.76917E+00  2.79145E+00  2.82979E+00  2.88350E+00  2.95177E+00  3.03405E+00  3.12963E+00  3.23868E+00  3.36170E+00
   3.49825E+00  3.64743E+00  3.80813E+00  3.97882E+00  4.15796E+00  4.34375E+00  4.53393E+00  4.72614E+00  4.91817E+00  5.10765E+00
   5.29186E+00  5.46813E+00  5.63400E+00  5.78738E+00  5.92655E+00  6.05026E+00  6.15795E+00  6.24961E+00  6.32579E+00  6.38755E+00
   6.43647E+00  6.47457E+00  6.50428E+00  6.52833E+00  6.54963E+00  6.57112E+00  6.59573E+00  6.62623E+00  6.66523E+00  6.71502E+00
   6.77754E+00  6.85433E+00  6.94658E+00  7.05504E+00  7.18014E+00  7.32189E+00  7.48000E+00  7.65383E+00  7.84257E+00  8.04518E+00
   8.26051E+00  8.48726E+00  8.72408E+00  8.96958E+00  9.22239E+00  9.48120E+00  9.74473E+00  1.00118E+01  1.02812E+01  1.05521E+01
   1.08234E+01  1.10943E+01  1.13642E+01  1.16323E+01  1.18981E+01  1.21611E+01  1.24207E+01  1.26766E+01  1.29283E+01  1.31752E+01
   1.34169E+01  1.36527E+01  1.38819E+01  1.41038E+01  1.43173E+01  1.45214E+01  1.47148E+01  1.48961E+01  1.50640E+01  1.52170E+01
   1.53537E+01  1.54727E+01  1.55731E+01  1.56541E+01  1.57155E+01  1.57575E+01  1.57811E+01  1.57878E+01  1.57800E+01  1.57607E+01
   1.57337E+01  1.57029E+01  1.56730E+01  1.56486E+01  1.56343E+01  1.56343E+01  1.56521E+01  1.56904E+01  1.57507E+01  1.58330E+01
   1.59362E+01  1.60573E+01  1.61920E+01  1.63346E+01  1.64782E+01  1.66153E+01  1.67378E+01  1.68376E+01  1.69070E+01  1.69391E+01
   1.69284E+01  1.68708E+01  1.67641E+01  1.66080E+01  1.64039E+01  1.61551E+01  1.58667E+01  1.55446E+01  1.51960E+01  1.48283E+01
   1.44491E+01  1.40654E+01  1.36838E+01  1.33097E+01  1.29473E+01  1.25995E+01  1.22677E+01  1.19522E+01  1.16518E+01  1.13645E+01
   1.10872E+01  1.08163E+01  1.05479E+01  1.02780E+01  1.00026E+01  9.71803E+00  9.42114E+00  9.10936E+00  8.78083E+00  8.43442E+00
   8.06972E+00  7.68705E+00  7.28736E+00  6.87221E+00  6.44364E+00  6.00404E+00  5.55607E+00  5.10255E+00  4.64630E+00  4.19017E+00
   3.73685E+00  3.28882E+00  2.84833E+00  2.41734E+00  1.99753E+00  1.59027E+00  1.19664E+00  8.17406E-01  4.53081E-01  1.03933E-01
  -2.29977E-01 -5.48755E-01 -8.52673E-01 -1.14213E+00 -1.41762E+00 -1.67970E+00 -1.92897E+00 -2.16607E+00 -2.39164E+00 -2.60634E+00
  -2.81083E+00 -3.00573E+00 -3.19163E+00 -3.36912E+00 -3.53875E+00 -3.70104E+00 -3.85649E+00 -4.00554E+00 -4.14862E+00 -4.28613E+00
  -4.41844E+00 -4.54589E+00 -4.66882E+00 -4.78749E+00 -4.90219E+00 -5.01316E+00 -5.12066E+00 -5.22489E+00 -5.32605E+00 -5.42432E+00
  -5.51987E+00 -5.61286E+00 -5.70346E+00 -5.79180E+00 -5.87799E+00 -5.96215E+00 -6.04439E+00 -6.12483E+00 -6.20356E+00 -6.28066E+00
  -6.35622E+00 -6.43031E+00 -6.50301E+00 -6.57439E+00 -6.64452E+00 -6.71345E+00 -6.78123E+00 -6.84791E+00 -6.91356E+00 -6.97822E+00
  -7.04194E+00 -7.10474E+00 -7.16667E+00 -7.22776E+00 -7.28806E+00 -7.34760E+00 -7.40641E+00 -7.46451E+00
 NY background values follow
     3.229E+00    3.215E+00    3.201E+00    3.187E+00    3.172E+00    3.158E+00    3.144E+00    3.130E+00    3.116E+00    3.102E+00
     3.088E+00    3.074E+00    3.060E+00    3.045E+00    3.031E+00    3.017E+00    3.003E+00    2.989E+00    2.975E+00    2.961E+00
     2.947E+00    2.932E+00    2.918E+00    2.904E+00    2.890E+00    2.876E+00    2.862E+00    2.848E+00    2.834E+00    2.819E+00
     2.805E+00    2.791E+00    2.777E+00    2.763E+00    2.749E+00    2.735E+00    2.720E+00    2.706E+00    2.692E+00    2.678E+00
     2.664E+00    2.649E+00    2.635E+00    2.621E+00    2.607E+00    2.593E+00    2.578E+00    2.564E+00    2.550E+00    2.536E+00
     2.522E+00    2.507E+00    2.493E+00    2.479E+00    2.465E+00    2.450E+00    2.436E+00    2.422E+00    2.407E+00    2.393E+00
     2.379E+00    2.364E+00    2.350E+00    2.336E+00    2.321E+00    2.307E+00    2.293E+00    2.278E+00    2.264E+00    2.249E+00
     2.235E+00    2.221E+00    2.206E+00    2.192E+00    2.177E+00    2.163E+00    2.148E+00    2.134E+00    2.119E+00    2.104E+00
     2.090E+00    2.075E+00    2.061E+00    2.046E+00    2.031E+00    2.017E+00    2.002E+00    1.987E+00    1.972E+00    1.958E+00
     1.943E+00    1.928E+00    1.913E+00    1.898E+00    1.884E+00    1.869E+00    1.854E+00    1.839E+00    1.824E+00    1.809E+00
     1.794E+00    1.779E+00    1.764E+00    1.749E+00    1.734E+00    1.719E+00    1.703E+00    1.688E+00    1.673E+00    1.658E+00
     1.642E+00    1.627E+00    1.612E+00    1.596E+00    1.581E+00    1.566E+00    1.550E+00    1.535E+00    1.519E+00    1.503E+00
     1.488E+00    1.472E+00    1.457E+00    1.441E+00    1.425E+00    1.409E+00    1.393E+00    1.378E+00    1.362E+00    1.346E+00
     1.330E+00    1.314E+00    1.298E+00    1.281E+00    1.265E+00    1.249E+00    1.233E+00    1.217E+00    1.200E+00    1.184E+00
     1.167E+00    1.151E+00    1.134E+00    1.118E+00    1.101E+00    1.085E+00    1.068E+00    1.051E+00    1.034E+00    1.017E+00
     1.000E+00    9.835E-01    9.664E-01    9.493E-01    9.322E-01    9.150E-01    8.977E-01    8.804E-01    8.630E-01    8.455E-01
     8.280E-01    8.104E-01    7.928E-01    7.751E-01    7.573E-01    7.395E-01    7.216E-01    7.036E-01    6.856E-01    6.675E-01
     6.493E-01    6.311E-01    6.128E-01    5.944E-01    5.760E-01    5.574E-01    5.388E-01    5.202E-01    5.014E-01    4.826E-01
     4.637E-01    4.447E-01    4.256E-01    4.065E-01    3.873E-01    3.680E-01    3.486E-01    3.292E-01    3.096E-01    2.900E-01
     2.703E-01    2.506E-01    2.307E-01    2.108E-01    1.908E-01    1.707E-01    1.505E-01    1.302E-01    1.099E-01    8.947E-02
     6.896E-02    4.838E-02    2.771E-02    6.956E-03   -1.388E-02   -3.480E-02   -5.580E-02   -7.689E-02   -9.806E-02   -1.193E-01
    -1.407E-01   -1.621E-01   -1.836E-01   -2.052E-01   -2.269E-01   -2.486E-01   -2.705E-01   -2.924E-01   -3.144E-01   -3.365E-01
    -3.587E-01   -3.810E-01   -4.034E-01   -4.259E-01   -4.484E-01   -4.710E-01   -4.938E-01   -5.166E-01   -5.395E-01   -5.624E-01
    -5.855E-01   -6.087E-01   -6.319E-01   -6.553E-01   -6.787E-01   -7.022E-01   -7.258E-01   -7.494E-01   -7.732E-01   -7.970E-01
    -8.209E-01   -8.450E-01   -8.690E-01   -8.932E-01   -9.175E-01   -9.418E-01   -9.662E-01   -9.907E-01   -1.015E+00   -1.040E+00
    -1.065E+00   -1.089E+00   -1.114E+00   -1.139E+00   -1.164E+00   -1.190E+00   -1.215E+00   -1.240E+00   -1.265E+00   -1.291E+00
    -1.316E+00   -1.342E+00   -1.368E+00   -1.393E+00   -1.419E+00   -1.445E+00   -1.471E+00   -1.497E+00   -1.523E+00   -1.549E+00
    -1.575E+00   -1.602E+00   -1.628E+00   -1.655E+00   -1.681E+00   -1.708E+00   -1.734E+00   -1.761E+00   -1.788E+00   -1.815E+00
    -1.842E+00   -1.869E+00   -1.896E+00   -1.923E+00   -1.950E+00   -1.977E+00   -2.005E+00   -2.032E+00   -2.060E+00   -2.087E+00
    -2.115E+00   -2.143E+00   -2.170E+00   -2.198E+00   -2.226E+00   -2.254E+00   -2.282E+00   -2.310E+00   -2.338E+00   -2.366E+00
    -2.395E+00   -2.423E+00   -2.451E+00   -2.480E+00   -2.508E+00   -2.537E+00   -2.565E+00   -2.594E+00   -2.623E+00   -2.652E+00
    -2.681E+00   -2.710E+00   -2.739E+00   -2.768E+00   -2.797E+00   -2.826E+00   -2.855E+00   -2.884E+00   -2.914E+00   -2.943E+00
    -2.973E+00   -3.002E+00   -3.032E+00   -3.061E+00   -3.091E+00   -3.121E+00   -3.150E+00   -3.180E+00   -3.210E+00   -3.240E+00
    -3.270E+00   -3.300E+00   -3.330E+00   -3.361E+00   -3.391E+00   -3.421E+00   -3.451E+00   -3.482E+00   -3.512E+00   -3.543E+00
    -3.573E+00   -3.604E+00   -3.634E+00   -3.665E+00   -3.696E+00   -3.727E+00   -3.757E+00   -3.788E+00   -3.819E+00   -3.850E+00
    -3.881E+00   -3.912E+00   -3.943E+00   -3.974E+00   -4.006E+00   -4.037E+00   -4.068E+00   -4.099E+00   -4.131E+00   -4.162E+00
    -4.194E+00   -4.225E+00   -4.257E+00   -4.288E+00   -4.320E+00   -4.351E+00   -4.383E+00   -4.415E+00   -4.447E+00   -4.479E+00
    -4.510E+00   -4.542E+00   -4.574E+00   -4.606E+00   -4.638E+00   -4.670E+00   -4.702E+00   -4.734E+00   -4.767E+00   -4.799E+00
    -4.831E+00   -4.863E+00   -4.896E+00   -4.928E+00   -4.960E+00   -4.993E+00   -5.025E+00   -5.058E+00   -5.090E+00   -5.123E+00
    -5.156E+00   -5.188E+00   -5.221E+00   -5.254E+00   -5.286E+00   -5.319E+00   -5.352E+00   -5.385E+00   -5.418E+00   -5.451E+00
    -5.483E+00   -5.516E+00   -5.549E+00   -5.582E+00   -5.616E+00   -5.649E+00   -5.682E+00   -5.715E+00   -5.748E+00   -5.781E+00
    -5.815E+00   -5.848E+00   -5.881E+00   -5.915E+00   -5.948E+00   -5.981E+00   -6.015E+00   -6.048E+00   -6.082E+00   -6.115E+00
    -6.149E+00   -6.182E+00   -6.216E+00   -6.249E+00   -6.283E+00   -6.317E+00   -6.350E+00   -6.384E+00   -6.418E+00   -6.452E+00
    -6.485E+00   -6.519E+00   -6.553E+00   -6.587E+00   -6.621E+00   -6.655E+00   -6.689E+00   -6.722E+00   -6.756E+00   -6.790E+00
    -6.824E+00   -6.858E+00   -6.892E+00   -6.926E+00   -6.961E+00   -6.995E+00   -7.029E+00   -7.063E+00   -7.097E+00   -7.131E+00
    -7.165E+00   -7.200E+00   -7.234E+00   -7.268E+00   -7.302E+00   -7.336E+00   -7.371E+00   -7.405E+00   -7.439E+00   -7.474E+00
    -7.508E+00   -7.542E+00   -7.577E+00   -7.611E+00   -7.645E+00   -7.680E+00   -7.714E+00   -7.748E+00   -7.783E+00   -7.817E+00
    -7.852E+00   -7.886E+00   -7.921E+00   -7.955E+00   -7.989E+00   -8.024E+00   -8.058E+00   -8.093E+00   -8.127E+00   -8.162E+00
    -8.196E+00   -8.231E+00   -8.265E+00   -8.300E+00   -8.334E+00   -8.369E+00   -8.403E+00   -8.438E+00   -8.472E+00   -8.507E+00
    -8.541E+00   -8.576E+00   -8.610E+00   -8.645E+00   -8.679E+00   -8.714E+00   -8.748E+00   -8.783E+00
 Asp      Conc. = 6.39E+00
