 LCModel (Version 6.3-1L) Copyright: S.W. Provencher.          Ref.: Magn. Reson. Med. 30:672-679 (1993).                
 Slice#1 Row#2 Col#12  PD_24_press_1_raw_act
 36 lines in following concentration table = NCONC+1
    Conc.  %SD /Cr+PCr  Metabolite                                         
  119.326  59%   4.233 Ala                                                 
    3.886 174%   0.138 Asp                                                 
    0.000 999%   0.000 Cr                                                  
   28.188 103%   1.000 PCr                                                 
    2.133 190% 7.6E-02 GABA                                                
    2.279 179% 8.1E-02 Glc                                                 
   27.004 458%   0.958 Gln                                                 
   25.697 530%   0.912 Glu                                                 
    0.000 999%   0.000 GPC                                                 
   14.210  76%   0.504 PCh                                                 
   66.246  65%   2.350 GSH                                                 
    0.000 999%   0.000 Ins                                                 
  119.961  91%   4.256 Lac                                                 
    7.130 524%   0.253 NAA                                                 
    0.000 999%   0.000 NAAG                                                
    0.799 170% 2.8E-02 Scyllo                                              
    3.758 180%   0.133 Tau                                                 
    1.942 384% 6.9E-02 -CrCH2                                              
   14.210  76%   0.504 GPC+PCh                                             
    7.130 557%   0.253 NAA+NAAG                                            
   28.188 103%   1.000 Cr+PCr                                              
   52.701 359%   1.870 Glu+Gln                                             
    0.000 999%   0.000 Lip13a                                              
 2.62E+03  83%  92.785 Lip13b                                              
    0.000 999%   0.000 Lip09                                               
 3.30E+04  13% 1.2E+03 MM09                                                
    0.000 999%   0.000 Lip20                                               
    0.000 999%   0.000 MM20                                                
 3.24E+04  17% 1.1E+03 MM12                                                
 2.41E+04  22% 853.534 MM14                                                
 9.75E+03  29% 345.943 MM17                                                
 2.62E+03  83%  92.785 Lip13a+Lip13b                                       
 5.90E+04  12% 2.1E+03 MM14+Lip13a+Lip13b+MM12                             
 3.30E+04  13% 1.2E+03 MM09+Lip09                                          
    0.000 999%   0.000 MM20+Lip20                                          
   6 lines in following misc. output table
  FWHM = 0.061 ppm    S/N =  42                                            
  Data shift = 0.084 ppm                                                   
  Ph: 138 deg      39.8 deg/ppm                                            
  alphaB,S = 2.5E-01,   3.8E+01                                            
   14 spline knots.   Ns = 5(1)                                            
  ( 9) 2 infls.   ( 9) 1 extrs.                                            
  498 points on ppm-axis = NY
      4.000000     3.992357     3.984714     3.977070     3.969427     3.961784     3.954141     3.946497     3.938854     3.931211
      3.923568     3.915925     3.908281     3.900638     3.892995     3.885352     3.877708     3.870065     3.862422     3.854779
      3.847136     3.839492     3.831849     3.824206     3.816563     3.808919     3.801276     3.793633     3.785990     3.778347
      3.770703     3.763060     3.755417     3.747774     3.740130     3.732487     3.724844     3.717201     3.709558     3.701914
      3.694271     3.686628     3.678985     3.671341     3.663698     3.656055     3.648412     3.640769     3.633125     3.625482
      3.617839     3.610196     3.602552     3.594909     3.587266     3.579623     3.571980     3.564336     3.556693     3.549050
      3.541407     3.533763     3.526120     3.518477     3.510834     3.503191     3.495547     3.487904     3.480261     3.472618
      3.464974     3.457331     3.449688     3.442045     3.434402     3.426758     3.419115     3.411472     3.403829     3.396185
      3.388542     3.380899     3.373256     3.365613     3.357969     3.350326     3.342683     3.335040     3.327396     3.319753
      3.312110     3.304467     3.296824     3.289180     3.281537     3.273894     3.266251     3.258607     3.250964     3.243321
      3.235678     3.228034     3.220391     3.212748     3.205105     3.197462     3.189818     3.182175     3.174532     3.166889
      3.159245     3.151602     3.143959     3.136316     3.128673     3.121029     3.113386     3.105743     3.098100     3.090456
      3.082813     3.075170     3.067527     3.059884     3.052240     3.044597     3.036954     3.029311     3.021667     3.014024
      3.006381     2.998738     2.991095     2.983451     2.975808     2.968165     2.960522     2.952878     2.945235     2.937592
      2.929949     2.922306     2.914662     2.907019     2.899376     2.891733     2.884089     2.876446     2.868803     2.861160
      2.853517     2.845873     2.838230     2.830587     2.822944     2.815300     2.807657     2.800014     2.792371     2.784728
      2.777084     2.769441     2.761798     2.754155     2.746511     2.738868     2.731225     2.723582     2.715939     2.708295
      2.700652     2.693009     2.685366     2.677722     2.670079     2.662436     2.654793     2.647150     2.639506     2.631863
      2.624220     2.616577     2.608933     2.601290     2.593647     2.586004     2.578361     2.570717     2.563074     2.555431
      2.547788     2.540144     2.532501     2.524858     2.517215     2.509572     2.501928     2.494285     2.486642     2.478999
      2.471355     2.463712     2.456069     2.448426     2.440783     2.433139     2.425496     2.417853     2.410210     2.402566
      2.394923     2.387280     2.379637     2.371994     2.364350     2.356707     2.349064     2.341421     2.333777     2.326134
      2.318491     2.310848     2.303205     2.295561     2.287918     2.280275     2.272632     2.264988     2.257345     2.249702
      2.242059     2.234416     2.226772     2.219129     2.211486     2.203843     2.196199     2.188556     2.180913     2.173270
      2.165627     2.157983     2.150340     2.142697     2.135054     2.127410     2.119767     2.112124     2.104481     2.096838
      2.089194     2.081551     2.073908     2.066265     2.058621     2.050978     2.043335     2.035692     2.028049     2.020405
      2.012762     2.005119     1.997476     1.989833     1.982190     1.974546     1.966903     1.959260     1.951617     1.943974
      1.936331     1.928688     1.921045     1.913402     1.905759     1.898115     1.890472     1.882829     1.875186     1.867543
      1.859900     1.852257     1.844614     1.836971     1.829327     1.821684     1.814041     1.806398     1.798755     1.791112
      1.783469     1.775826     1.768183     1.760540     1.752896     1.745253     1.737610     1.729967     1.722324     1.714681
      1.707038     1.699395     1.691752     1.684108     1.676465     1.668822     1.661179     1.653536     1.645893     1.638250
      1.630607     1.622964     1.615321     1.607677     1.600034     1.592391     1.584748     1.577105     1.569462     1.561819
      1.554176     1.546533     1.538890     1.531246     1.523603     1.515960     1.508317     1.500674     1.493031     1.485388
      1.477745     1.470102     1.462458     1.454815     1.447172     1.439529     1.431886     1.424243     1.416600     1.408957
      1.401314     1.393671     1.386027     1.378384     1.370741     1.363098     1.355455     1.347812     1.340169     1.332526
      1.324883     1.317240     1.309596     1.301953     1.294310     1.286667     1.279024     1.271381     1.263738     1.256095
      1.248452     1.240808     1.233165     1.225522     1.217879     1.210236     1.202593     1.194950     1.187307     1.179664
      1.172021     1.164377     1.156734     1.149091     1.141448     1.133805     1.126162     1.118519     1.110876     1.103233
      1.095590     1.087946     1.080303     1.072660     1.065017     1.057374     1.049731     1.042088     1.034445     1.026802
      1.019158     1.011515     1.003872     0.996229     0.988586     0.980943     0.973300     0.965657     0.958014     0.950371
      0.942727     0.935084     0.927441     0.919798     0.912155     0.904512     0.896869     0.889226     0.881583     0.873940
      0.866296     0.858653     0.851010     0.843367     0.835724     0.828081     0.820438     0.812795     0.805152     0.797508
      0.789865     0.782222     0.774579     0.766936     0.759293     0.751650     0.744007     0.736364     0.728721     0.721077
      0.713434     0.705791     0.698148     0.690505     0.682862     0.675219     0.667576     0.659933     0.652290     0.644646
      0.637003     0.629360     0.621717     0.614074     0.606431     0.598788     0.591145     0.583502     0.575858     0.568215
      0.560572     0.552929     0.545286     0.537643     0.530000     0.522357     0.514714     0.507071     0.499427     0.491784
      0.484141     0.476498     0.468855     0.461212     0.453569     0.445925     0.438282     0.430639     0.422996     0.415353
      0.407710     0.400067     0.392424     0.384780     0.377137     0.369494     0.361851     0.354208     0.346565     0.338922
      0.331278     0.323635     0.315992     0.308349     0.300706     0.293063     0.285420     0.277777     0.270133     0.262490
      0.254847     0.247204     0.239561     0.231918     0.224275     0.216631     0.208988     0.201345
 NY phased data points follow
  -2.17150E+01 -2.12326E+01 -2.34341E+01 -2.31652E+01 -2.01271E+01 -2.45728E+01 -2.16966E+01 -2.25495E+01 -2.06462E+01 -1.97578E+01
  -1.95151E+01 -1.91544E+01 -2.15589E+01 -2.06906E+01 -2.26400E+01 -2.22681E+01 -2.55243E+01 -2.24134E+01 -2.25316E+01 -1.96313E+01
  -1.93065E+01 -2.20362E+01 -2.19293E+01 -2.25112E+01 -2.00152E+01 -2.12593E+01 -2.17094E+01 -2.08257E+01 -2.06553E+01 -2.02491E+01
  -2.10936E+01 -1.89180E+01 -1.93696E+01 -1.99772E+01 -1.94708E+01 -1.85809E+01 -2.26629E+01 -1.89416E+01 -2.15602E+01 -1.91155E+01
  -2.24476E+01 -2.01943E+01 -1.91166E+01 -1.76101E+01 -1.80308E+01 -2.19875E+01 -2.16880E+01 -2.01871E+01 -2.27254E+01 -1.84292E+01
  -2.17684E+01 -1.91315E+01 -1.67673E+01 -2.08212E+01 -2.03690E+01 -2.19855E+01 -1.90319E+01 -1.97473E+01 -2.16518E+01 -2.17378E+01
  -1.89865E+01 -1.85730E+01 -1.74680E+01 -1.94701E+01 -2.16918E+01 -2.16371E+01 -2.04359E+01 -1.71575E+01 -2.02939E+01 -2.06331E+01
  -1.99959E+01 -1.76530E+01 -2.35719E+01 -2.16532E+01 -1.82524E+01 -1.92741E+01 -2.07560E+01 -2.14622E+01 -1.83797E+01 -2.05203E+01
  -1.82142E+01 -1.83620E+01 -1.67066E+01 -1.97515E+01 -2.00797E+01 -1.90365E+01 -1.93977E+01 -1.79714E+01 -1.94608E+01 -1.97377E+01
  -1.83814E+01 -1.86476E+01 -1.90729E+01 -1.58595E+01 -1.98836E+01 -1.86790E+01 -1.99002E+01 -1.66298E+01 -2.16927E+01 -1.83036E+01
  -1.82387E+01 -1.77617E+01 -1.81780E+01 -1.66257E+01 -1.89820E+01 -1.84641E+01 -1.51652E+01 -1.58720E+01 -1.84344E+01 -1.46329E+01
  -1.85254E+01 -1.68506E+01 -1.74819E+01 -1.81875E+01 -1.95764E+01 -1.80991E+01 -1.78263E+01 -1.97461E+01 -1.85112E+01 -1.85717E+01
  -1.54628E+01 -1.96579E+01 -1.65622E+01 -1.68749E+01 -1.80759E+01 -1.69002E+01 -1.49807E+01 -1.78516E+01 -1.65907E+01 -1.51577E+01
  -1.75594E+01 -1.67735E+01 -1.54763E+01 -1.78982E+01 -1.54125E+01 -1.43340E+01 -1.34968E+01 -1.51503E+01 -1.34998E+01 -1.67261E+01
  -1.76495E+01 -1.28229E+01 -1.57985E+01 -1.60304E+01 -2.15083E+01 -1.53302E+01 -1.41518E+01 -1.21934E+01 -1.67398E+01 -1.48486E+01
  -1.29840E+01 -1.38484E+01 -1.54670E+01 -1.26826E+01 -1.73671E+01 -1.67696E+01 -1.60256E+01 -1.58903E+01 -1.51572E+01 -1.64205E+01
  -1.59328E+01 -1.37993E+01 -1.38756E+01 -1.51302E+01 -1.44116E+01 -1.52063E+01 -1.28250E+01 -1.40441E+01 -1.35553E+01 -1.52699E+01
  -1.54232E+01 -1.51942E+01 -1.22365E+01 -1.39240E+01 -1.45239E+01 -1.28922E+01 -1.09420E+01 -1.28644E+01 -1.16944E+01 -1.26131E+01
  -1.60450E+01 -1.12378E+01 -1.39887E+01 -1.17039E+01 -1.34355E+01 -1.45091E+01 -1.31318E+01 -1.51278E+01 -1.39084E+01 -1.32932E+01
  -1.56497E+01 -1.18205E+01 -1.17148E+01 -1.00816E+01 -1.32860E+01 -9.88776E+00 -1.45645E+01 -9.36080E+00 -1.17885E+01 -1.30907E+01
  -1.06848E+01 -1.24188E+01 -1.14880E+01 -1.17400E+01 -8.54662E+00 -1.20120E+01 -1.08926E+01 -1.09593E+01 -1.06490E+01 -1.02298E+01
  -9.46666E+00 -9.77046E+00 -9.06393E+00 -1.06333E+01 -9.66391E+00 -8.98168E+00 -1.22021E+01 -1.10486E+01 -8.44345E+00 -7.63804E+00
  -8.94905E+00 -7.78101E+00 -7.72273E+00 -1.11600E+01 -1.09916E+01 -7.93155E+00 -8.51222E+00 -6.05784E+00 -8.10363E+00 -5.76584E+00
  -7.53051E+00 -8.37281E+00 -8.77915E+00 -7.76693E+00 -6.71469E+00 -4.36171E+00 -8.84597E+00 -6.61813E+00 -6.04248E+00 -4.48333E+00
  -4.85431E+00 -6.79667E+00 -4.48135E+00 -4.85629E+00 -3.98068E+00 -5.35515E+00 -3.43231E+00 -3.22770E+00 -4.00820E+00 -2.69306E+00
  -1.55419E+00 -7.64983E-01 -1.70909E+00 -3.55099E-01 -3.75264E-01  3.07066E+00  5.55230E-01  5.38419E+00  1.75363E+00  5.73617E+00
   4.48473E+00  7.84867E+00  5.52268E+00  7.63457E+00  4.56436E+00  4.60539E+00  6.22641E+00  8.26180E+00  7.14050E+00  8.56864E+00
   1.16286E+01  1.28498E+01  1.31209E+01  1.39699E+01  1.58642E+01  1.46464E+01  2.01424E+01  1.71440E+01  2.10894E+01  1.96862E+01
   2.17240E+01  2.20427E+01  2.32210E+01  2.62229E+01  2.57978E+01  2.47795E+01  2.72503E+01  2.85647E+01  2.93586E+01  3.26670E+01
   3.17746E+01  3.52641E+01  3.56646E+01  3.64849E+01  3.91293E+01  4.06939E+01  4.08583E+01  4.53546E+01  4.51937E+01  4.74724E+01
   4.58541E+01  5.07358E+01  5.03095E+01  5.24642E+01  5.35462E+01  5.71072E+01  5.59549E+01  5.93069E+01  5.98145E+01  6.16158E+01
   6.28608E+01  6.26164E+01  6.77839E+01  7.06534E+01  7.10962E+01  7.34613E+01  7.30251E+01  7.67212E+01  8.05429E+01  8.11272E+01
   8.16970E+01  8.50564E+01  8.48150E+01  8.90122E+01  8.94222E+01  9.44640E+01  9.62881E+01  9.87636E+01  1.01446E+02  1.04131E+02
   1.06836E+02  1.09258E+02  1.12598E+02  1.18725E+02  1.18882E+02  1.24601E+02  1.25146E+02  1.28552E+02  1.31247E+02  1.35415E+02
   1.38257E+02  1.40105E+02  1.45016E+02  1.44849E+02  1.46777E+02  1.47715E+02  1.48309E+02  1.46558E+02  1.50648E+02  1.52907E+02
   1.53009E+02  1.53010E+02  1.53747E+02  1.50714E+02  1.50686E+02  1.51939E+02  1.53926E+02  1.54113E+02  1.49619E+02  1.54928E+02
   1.54280E+02  1.55905E+02  1.53466E+02  1.55046E+02  1.59970E+02  1.57975E+02  1.60153E+02  1.62895E+02  1.65397E+02  1.70402E+02
   1.70239E+02  1.73192E+02  1.73989E+02  1.75506E+02  1.76375E+02  1.77553E+02  1.80131E+02  1.81620E+02  1.79228E+02  1.82009E+02
   1.80827E+02  1.79830E+02  1.82041E+02  1.80925E+02  1.81698E+02  1.79980E+02  1.80976E+02  1.78512E+02  1.79128E+02  1.77433E+02
   1.78531E+02  1.71097E+02  1.70603E+02  1.68382E+02  1.65689E+02  1.65219E+02  1.60606E+02  1.59162E+02  1.53075E+02  1.53542E+02
   1.48953E+02  1.46726E+02  1.41769E+02  1.40209E+02  1.38762E+02  1.33757E+02  1.30364E+02  1.28615E+02  1.22799E+02  1.16570E+02
   1.12851E+02  1.10680E+02  1.05676E+02  1.01665E+02  9.41644E+01  9.30485E+01  8.55322E+01  8.42590E+01  8.00079E+01  7.25926E+01
   7.26098E+01  6.83420E+01  6.40023E+01  5.68159E+01  5.25079E+01  5.24122E+01  4.66934E+01  4.28336E+01  3.88013E+01  3.36915E+01
   3.18752E+01  2.93124E+01  2.47044E+01  2.08783E+01  1.65376E+01  1.40075E+01  1.02889E+01  1.26391E+01  5.18662E+00  3.95300E+00
   2.41717E+00 -1.98096E+00 -2.06739E+00 -6.49352E+00 -7.62572E+00 -8.94501E+00 -1.13099E+01 -1.44542E+01 -1.60130E+01 -1.88540E+01
  -1.96125E+01 -2.27187E+01 -2.46734E+01 -2.66533E+01 -2.59255E+01 -2.69148E+01 -2.98887E+01 -2.94434E+01 -3.29238E+01 -3.25568E+01
  -3.54913E+01 -3.49476E+01 -3.62106E+01 -3.73116E+01 -4.02986E+01 -4.27728E+01 -4.27318E+01 -4.11667E+01 -4.40605E+01 -4.45320E+01
  -4.78676E+01 -4.41963E+01 -4.60977E+01 -4.72163E+01 -4.60056E+01 -4.69196E+01 -4.87544E+01 -5.25680E+01 -4.85982E+01 -5.11610E+01
  -5.13804E+01 -5.41449E+01 -5.26294E+01 -5.53869E+01 -5.42484E+01 -5.30272E+01 -5.49477E+01 -5.38825E+01 -5.56243E+01 -5.22376E+01
  -5.75671E+01 -5.52900E+01 -5.59850E+01 -5.54052E+01 -5.75432E+01 -5.61194E+01 -5.82797E+01 -5.53218E+01
 NY points of the fit to the data follow
  -2.23313E+01 -2.23046E+01 -2.22451E+01 -2.21481E+01 -2.20059E+01 -2.18546E+01 -2.17176E+01 -2.15975E+01 -2.14937E+01 -2.14046E+01
  -2.13359E+01 -2.13032E+01 -2.13267E+01 -2.14206E+01 -2.15592E+01 -2.16736E+01 -2.16950E+01 -2.16522E+01 -2.15821E+01 -2.14935E+01
  -2.13826E+01 -2.12683E+01 -2.11760E+01 -2.11115E+01 -2.10623E+01 -2.09540E+01 -2.07637E+01 -2.05716E+01 -2.04018E+01 -2.02230E+01
  -2.00144E+01 -1.97875E+01 -1.95815E+01 -1.95027E+01 -1.96301E+01 -1.99434E+01 -2.03093E+01 -2.05187E+01 -2.05900E+01 -2.06475E+01
  -2.06683E+01 -2.06374E+01 -2.05938E+01 -2.05623E+01 -2.05342E+01 -2.04944E+01 -2.04423E+01 -2.03911E+01 -2.03507E+01 -2.03119E+01
  -2.02746E+01 -2.02387E+01 -2.02046E+01 -2.01721E+01 -2.01384E+01 -2.01041E+01 -2.00713E+01 -2.00408E+01 -2.00145E+01 -1.99905E+01
  -1.99647E+01 -1.99372E+01 -1.99082E+01 -1.98788E+01 -1.98493E+01 -1.98205E+01 -1.97924E+01 -1.97647E+01 -1.97370E+01 -1.97095E+01
  -1.96814E+01 -1.96515E+01 -1.96205E+01 -1.95889E+01 -1.95572E+01 -1.95261E+01 -1.94953E+01 -1.94655E+01 -1.94372E+01 -1.94105E+01
  -1.93847E+01 -1.93558E+01 -1.93200E+01 -1.92786E+01 -1.92358E+01 -1.91938E+01 -1.91534E+01 -1.91153E+01 -1.90806E+01 -1.90502E+01
  -1.90250E+01 -1.90035E+01 -1.89807E+01 -1.89489E+01 -1.89078E+01 -1.88619E+01 -1.88105E+01 -1.87436E+01 -1.86123E+01 -1.83648E+01
  -1.80670E+01 -1.77852E+01 -1.75428E+01 -1.73376E+01 -1.71690E+01 -1.70584E+01 -1.70492E+01 -1.71840E+01 -1.74654E+01 -1.78111E+01
  -1.80491E+01 -1.80905E+01 -1.80602E+01 -1.80144E+01 -1.79620E+01 -1.79075E+01 -1.78530E+01 -1.77979E+01 -1.77413E+01 -1.76807E+01
  -1.76098E+01 -1.75059E+01 -1.73251E+01 -1.70941E+01 -1.68583E+01 -1.66362E+01 -1.64291E+01 -1.62394E+01 -1.60718E+01 -1.59450E+01
  -1.59104E+01 -1.60052E+01 -1.61946E+01 -1.63732E+01 -1.64411E+01 -1.64490E+01 -1.64515E+01 -1.64507E+01 -1.64443E+01 -1.64097E+01
  -1.63027E+01 -1.61051E+01 -1.58738E+01 -1.56690E+01 -1.55171E+01 -1.54342E+01 -1.54084E+01 -1.54026E+01 -1.53936E+01 -1.53543E+01
  -1.52979E+01 -1.52354E+01 -1.51682E+01 -1.50979E+01 -1.50261E+01 -1.49519E+01 -1.48713E+01 -1.47847E+01 -1.46947E+01 -1.46031E+01
  -1.45126E+01 -1.44276E+01 -1.43502E+01 -1.42755E+01 -1.41980E+01 -1.41182E+01 -1.40375E+01 -1.39571E+01 -1.38772E+01 -1.37970E+01
  -1.37177E+01 -1.36415E+01 -1.35697E+01 -1.35025E+01 -1.34392E+01 -1.33792E+01 -1.33239E+01 -1.32736E+01 -1.32271E+01 -1.31803E+01
  -1.31334E+01 -1.30903E+01 -1.30519E+01 -1.30172E+01 -1.29804E+01 -1.29303E+01 -1.28572E+01 -1.27597E+01 -1.26456E+01 -1.25274E+01
  -1.24114E+01 -1.23038E+01 -1.22290E+01 -1.22126E+01 -1.22443E+01 -1.23027E+01 -1.23671E+01 -1.24071E+01 -1.23946E+01 -1.23163E+01
  -1.21746E+01 -1.19862E+01 -1.17714E+01 -1.15661E+01 -1.14186E+01 -1.13617E+01 -1.13539E+01 -1.13452E+01 -1.13203E+01 -1.12741E+01
  -1.12051E+01 -1.11045E+01 -1.09662E+01 -1.07955E+01 -1.06044E+01 -1.04050E+01 -1.02191E+01 -1.00742E+01 -9.96022E+00 -9.85236E+00
  -9.74083E+00 -9.61909E+00 -9.47511E+00 -9.29266E+00 -9.07689E+00 -8.83563E+00 -8.57957E+00 -8.32776E+00 -8.08768E+00 -7.85963E+00
  -7.63640E+00 -7.40440E+00 -7.14542E+00 -6.84279E+00 -6.50236E+00 -6.14039E+00 -5.76228E+00 -5.37927E+00 -5.02882E+00 -4.73798E+00
  -4.48696E+00 -4.24371E+00 -3.99619E+00 -3.72673E+00 -3.39074E+00 -2.96194E+00 -2.47601E+00 -1.96923E+00 -1.45221E+00 -9.42987E-01
  -4.68821E-01 -3.16207E-02  3.90209E-01  8.27767E-01  1.28884E+00  1.78301E+00  2.31589E+00  2.87478E+00  3.44967E+00  4.03352E+00
   4.62517E+00  5.22472E+00  5.83154E+00  6.43778E+00  7.03293E+00  7.61275E+00  8.19213E+00  8.80586E+00  9.46786E+00  1.01607E+01
   1.08801E+01  1.16273E+01  1.24017E+01  1.32033E+01  1.40348E+01  1.48973E+01  1.57909E+01  1.67159E+01  1.76730E+01  1.86636E+01
   1.96909E+01  2.07583E+01  2.18682E+01  2.30226E+01  2.42233E+01  2.54713E+01  2.67669E+01  2.81101E+01  2.94999E+01  3.09354E+01
   3.24151E+01  3.39365E+01  3.54968E+01  3.70925E+01  3.87190E+01  4.03709E+01  4.20423E+01  4.37267E+01  4.54173E+01  4.71071E+01
   4.87890E+01  5.04564E+01  5.21034E+01  5.37248E+01  5.53167E+01  5.68768E+01  5.84044E+01  5.99009E+01  6.13697E+01  6.28167E+01
   6.42499E+01  6.56795E+01  6.71178E+01  6.85789E+01  7.00784E+01  7.16332E+01  7.32610E+01  7.49798E+01  7.68084E+01  7.87663E+01
   8.08760E+01  8.31723E+01  8.57084E+01  8.84190E+01  9.11748E+01  9.39412E+01  9.67280E+01  9.95342E+01  1.02320E+02  1.05016E+02
   1.07658E+02  1.10380E+02  1.13259E+02  1.16387E+02  1.19813E+02  1.23332E+02  1.26738E+02  1.30006E+02  1.33075E+02  1.35840E+02
   1.38188E+02  1.40126E+02  1.41933E+02  1.43821E+02  1.45607E+02  1.47195E+02  1.48577E+02  1.49756E+02  1.50700E+02  1.51338E+02
   1.51694E+02  1.51878E+02  1.51952E+02  1.52037E+02  1.52293E+02  1.52692E+02  1.53042E+02  1.53367E+02  1.53698E+02  1.54012E+02
   1.54267E+02  1.54506E+02  1.54991E+02  1.55926E+02  1.57249E+02  1.58892E+02  1.60796E+02  1.62902E+02  1.65144E+02  1.67455E+02
   1.69768E+02  1.72021E+02  1.74157E+02  1.76125E+02  1.77882E+02  1.79394E+02  1.80638E+02  1.81597E+02  1.82266E+02  1.82644E+02
   1.82742E+02  1.82573E+02  1.82158E+02  1.81519E+02  1.80679E+02  1.79664E+02  1.78497E+02  1.77199E+02  1.75788E+02  1.74279E+02
   1.72682E+02  1.71001E+02  1.69239E+02  1.67391E+02  1.65453E+02  1.63413E+02  1.61263E+02  1.58988E+02  1.56577E+02  1.54017E+02
   1.51298E+02  1.48412E+02  1.45352E+02  1.42115E+02  1.38701E+02  1.35113E+02  1.31358E+02  1.27444E+02  1.23384E+02  1.19193E+02
   1.14887E+02  1.10485E+02  1.06005E+02  1.01468E+02  9.68936E+01  9.22997E+01  8.77053E+01  8.31275E+01  7.85825E+01  7.40847E+01
   6.96472E+01  6.52811E+01  6.09963E+01  5.68007E+01  5.27010E+01  4.87022E+01  4.48081E+01  4.10213E+01  3.73432E+01  3.37744E+01
   3.03146E+01  2.69630E+01  2.37180E+01  2.05777E+01  1.75398E+01  1.46018E+01  1.17610E+01  9.01443E+00  6.35930E+00  3.79264E+00
   1.31153E+00 -1.08687E+00 -3.40533E+00 -5.64654E+00 -7.81307E+00 -9.90740E+00 -1.19318E+01 -1.38885E+01 -1.57796E+01 -1.76069E+01
  -1.93724E+01 -2.10776E+01 -2.27241E+01 -2.43136E+01 -2.58481E+01 -2.73298E+01 -2.87604E+01 -3.01420E+01 -3.14761E+01 -3.27645E+01
  -3.40087E+01 -3.52102E+01 -3.63704E+01 -3.74908E+01 -3.85724E+01 -3.96167E+01 -4.06246E+01 -4.15974E+01 -4.25361E+01 -4.34416E+01
  -4.43150E+01 -4.51571E+01 -4.59688E+01 -4.67510E+01 -4.75044E+01 -4.82299E+01 -4.89280E+01 -4.95997E+01 -5.02454E+01 -5.08660E+01
  -5.14619E+01 -5.20338E+01 -5.25823E+01 -5.31080E+01 -5.36114E+01 -5.40929E+01 -5.45532E+01 -5.49927E+01 -5.54118E+01 -5.58111E+01
  -5.61909E+01 -5.65518E+01 -5.68941E+01 -5.72182E+01 -5.75246E+01 -5.78135E+01 -5.80855E+01 -5.83408E+01
 NY background values follow
    -2.513E+01   -2.510E+01   -2.506E+01   -2.503E+01   -2.500E+01   -2.496E+01   -2.492E+01   -2.488E+01   -2.484E+01   -2.480E+01
    -2.476E+01   -2.472E+01   -2.468E+01   -2.463E+01   -2.459E+01   -2.454E+01   -2.450E+01   -2.445E+01   -2.440E+01   -2.436E+01
    -2.431E+01   -2.426E+01   -2.421E+01   -2.416E+01   -2.411E+01   -2.406E+01   -2.401E+01   -2.396E+01   -2.391E+01   -2.386E+01
    -2.381E+01   -2.376E+01   -2.371E+01   -2.366E+01   -2.361E+01   -2.356E+01   -2.352E+01   -2.347E+01   -2.342E+01   -2.337E+01
    -2.332E+01   -2.328E+01   -2.323E+01   -2.319E+01   -2.314E+01   -2.310E+01   -2.306E+01   -2.301E+01   -2.297E+01   -2.293E+01
    -2.289E+01   -2.285E+01   -2.281E+01   -2.277E+01   -2.274E+01   -2.270E+01   -2.266E+01   -2.263E+01   -2.259E+01   -2.255E+01
    -2.252E+01   -2.248E+01   -2.245E+01   -2.242E+01   -2.238E+01   -2.235E+01   -2.231E+01   -2.228E+01   -2.225E+01   -2.221E+01
    -2.218E+01   -2.215E+01   -2.211E+01   -2.208E+01   -2.205E+01   -2.201E+01   -2.198E+01   -2.194E+01   -2.191E+01   -2.187E+01
    -2.184E+01   -2.180E+01   -2.177E+01   -2.173E+01   -2.170E+01   -2.166E+01   -2.162E+01   -2.158E+01   -2.154E+01   -2.150E+01
    -2.146E+01   -2.142E+01   -2.138E+01   -2.134E+01   -2.130E+01   -2.125E+01   -2.121E+01   -2.116E+01   -2.112E+01   -2.107E+01
    -2.102E+01   -2.098E+01   -2.093E+01   -2.088E+01   -2.083E+01   -2.078E+01   -2.072E+01   -2.067E+01   -2.062E+01   -2.056E+01
    -2.051E+01   -2.045E+01   -2.040E+01   -2.034E+01   -2.028E+01   -2.022E+01   -2.016E+01   -2.010E+01   -2.004E+01   -1.997E+01
    -1.991E+01   -1.984E+01   -1.978E+01   -1.971E+01   -1.964E+01   -1.957E+01   -1.950E+01   -1.943E+01   -1.936E+01   -1.929E+01
    -1.921E+01   -1.914E+01   -1.906E+01   -1.899E+01   -1.891E+01   -1.883E+01   -1.875E+01   -1.867E+01   -1.859E+01   -1.850E+01
    -1.842E+01   -1.834E+01   -1.825E+01   -1.817E+01   -1.808E+01   -1.799E+01   -1.791E+01   -1.782E+01   -1.773E+01   -1.764E+01
    -1.756E+01   -1.747E+01   -1.738E+01   -1.730E+01   -1.721E+01   -1.712E+01   -1.704E+01   -1.695E+01   -1.687E+01   -1.678E+01
    -1.670E+01   -1.661E+01   -1.653E+01   -1.645E+01   -1.637E+01   -1.629E+01   -1.621E+01   -1.614E+01   -1.606E+01   -1.599E+01
    -1.591E+01   -1.584E+01   -1.577E+01   -1.571E+01   -1.564E+01   -1.558E+01   -1.551E+01   -1.545E+01   -1.540E+01   -1.534E+01
    -1.529E+01   -1.523E+01   -1.518E+01   -1.514E+01   -1.509E+01   -1.505E+01   -1.501E+01   -1.496E+01   -1.492E+01   -1.488E+01
    -1.484E+01   -1.480E+01   -1.477E+01   -1.473E+01   -1.469E+01   -1.465E+01   -1.460E+01   -1.456E+01   -1.452E+01   -1.447E+01
    -1.442E+01   -1.437E+01   -1.432E+01   -1.427E+01   -1.421E+01   -1.415E+01   -1.408E+01   -1.402E+01   -1.394E+01   -1.387E+01
    -1.379E+01   -1.371E+01   -1.362E+01   -1.352E+01   -1.343E+01   -1.332E+01   -1.321E+01   -1.310E+01   -1.298E+01   -1.285E+01
    -1.271E+01   -1.257E+01   -1.243E+01   -1.227E+01   -1.211E+01   -1.194E+01   -1.176E+01   -1.158E+01   -1.138E+01   -1.118E+01
    -1.097E+01   -1.076E+01   -1.053E+01   -1.030E+01   -1.007E+01   -9.821E+00   -9.571E+00   -9.314E+00   -9.050E+00   -8.781E+00
    -8.505E+00   -8.224E+00   -7.938E+00   -7.646E+00   -7.349E+00   -7.046E+00   -6.739E+00   -6.427E+00   -6.111E+00   -5.790E+00
    -5.464E+00   -5.135E+00   -4.802E+00   -4.465E+00   -4.125E+00   -3.781E+00   -3.434E+00   -3.084E+00   -2.730E+00   -2.375E+00
    -2.016E+00   -1.655E+00   -1.292E+00   -9.273E-01   -5.602E-01   -1.915E-01    1.789E-01    5.507E-01    9.237E-01    1.298E+00
     1.673E+00    2.049E+00    2.425E+00    2.802E+00    3.178E+00    3.554E+00    3.929E+00    4.303E+00    4.676E+00    5.046E+00
     5.414E+00    5.780E+00    6.143E+00    6.502E+00    6.858E+00    7.209E+00    7.557E+00    7.899E+00    8.236E+00    8.568E+00
     8.894E+00    9.214E+00    9.528E+00    9.834E+00    1.013E+01    1.042E+01    1.071E+01    1.098E+01    1.125E+01    1.151E+01
     1.176E+01    1.199E+01    1.222E+01    1.244E+01    1.265E+01    1.284E+01    1.303E+01    1.320E+01    1.336E+01    1.351E+01
     1.364E+01    1.376E+01    1.387E+01    1.397E+01    1.404E+01    1.411E+01    1.416E+01    1.419E+01    1.421E+01    1.422E+01
     1.420E+01    1.418E+01    1.414E+01    1.408E+01    1.401E+01    1.393E+01    1.384E+01    1.373E+01    1.361E+01    1.347E+01
     1.332E+01    1.316E+01    1.299E+01    1.281E+01    1.261E+01    1.241E+01    1.219E+01    1.196E+01    1.172E+01    1.147E+01
     1.121E+01    1.094E+01    1.066E+01    1.037E+01    1.008E+01    9.769E+00    9.452E+00    9.127E+00    8.794E+00    8.453E+00
     8.104E+00    7.747E+00    7.383E+00    7.012E+00    6.633E+00    6.248E+00    5.857E+00    5.459E+00    5.055E+00    4.646E+00
     4.230E+00    3.810E+00    3.384E+00    2.954E+00    2.518E+00    2.077E+00    1.630E+00    1.178E+00    7.194E-01    2.550E-01
    -2.155E-01   -6.924E-01   -1.176E+00   -1.666E+00   -2.163E+00   -2.666E+00   -3.177E+00   -3.696E+00   -4.221E+00   -4.755E+00
    -5.296E+00   -5.845E+00   -6.402E+00   -6.967E+00   -7.541E+00   -8.124E+00   -8.715E+00   -9.315E+00   -9.924E+00   -1.054E+01
    -1.117E+01   -1.181E+01   -1.245E+01   -1.311E+01   -1.378E+01   -1.445E+01   -1.514E+01   -1.584E+01   -1.655E+01   -1.727E+01
    -1.800E+01   -1.874E+01   -1.949E+01   -2.025E+01   -2.103E+01   -2.181E+01   -2.261E+01   -2.342E+01   -2.425E+01   -2.508E+01
    -2.593E+01   -2.678E+01   -2.764E+01   -2.852E+01   -2.940E+01   -3.028E+01   -3.118E+01   -3.208E+01   -3.298E+01   -3.389E+01
    -3.480E+01   -3.572E+01   -3.664E+01   -3.756E+01   -3.848E+01   -3.940E+01   -4.032E+01   -4.124E+01   -4.216E+01   -4.308E+01
    -4.399E+01   -4.490E+01   -4.581E+01   -4.671E+01   -4.760E+01   -4.849E+01   -4.937E+01   -5.025E+01   -5.111E+01   -5.197E+01
    -5.282E+01   -5.365E+01   -5.448E+01   -5.529E+01   -5.610E+01   -5.688E+01   -5.766E+01   -5.842E+01   -5.917E+01   -5.990E+01
    -6.061E+01   -6.131E+01   -6.199E+01   -6.265E+01   -6.329E+01   -6.392E+01   -6.453E+01   -6.512E+01   -6.569E+01   -6.624E+01
    -6.678E+01   -6.731E+01   -6.781E+01   -6.830E+01   -6.877E+01   -6.923E+01   -6.967E+01   -7.009E+01   -7.050E+01   -7.089E+01
    -7.127E+01   -7.163E+01   -7.198E+01   -7.231E+01   -7.263E+01   -7.293E+01   -7.322E+01   -7.350E+01   -7.376E+01   -7.400E+01
    -7.424E+01   -7.445E+01   -7.466E+01   -7.485E+01   -7.503E+01   -7.520E+01   -7.535E+01   -7.549E+01   -7.562E+01   -7.574E+01
    -7.584E+01   -7.594E+01   -7.602E+01   -7.609E+01   -7.614E+01   -7.619E+01   -7.622E+01   -7.625E+01
 Ala      Conc. = 1.19E+02
