 LCModel (Version 6.3-1L) Copyright: S.W. Provencher.          Ref.: Magn. Reson. Med. 30:672-679 (1993).                
 Slice#1 Row#13 Col#3  PD_24_press_1_raw_act
 36 lines in following concentration table = NCONC+1
    Conc.  %SD /Cr+PCr  Metabolite                                         
    0.000 999%   0.000 Ala                                                 
   13.902  92%   0.223 Asp                                                 
   41.970  60%   0.674 Cr                                                  
   20.321 126%   0.326 PCr                                                 
    7.060 107%   0.113 GABA                                                
    7.635 101%   0.123 Glc                                                 
    0.000 999%   0.000 Gln                                                 
   94.525  50%   1.517 Glu                                                 
   21.650  28%   0.348 GPC                                                 
    0.000 999%   0.000 PCh                                                 
    0.000 999%   0.000 GSH                                                 
   47.324 117%   0.760 Ins                                                 
    9.226 240%   0.148 Lac                                                 
   87.344  21%   1.402 NAA                                                 
   27.458  60%   0.441 NAAG                                                
    2.110 117% 3.4E-02 Scyllo                                              
   14.472  87%   0.232 Tau                                                 
    0.193 999% 3.1E-03 -CrCH2                                              
   21.650  28%   0.348 GPC+PCh                                             
  114.802  21%   1.843 NAA+NAAG                                            
   62.291  27%   1.000 Cr+PCr                                              
   94.525  50%   1.517 Glu+Gln                                             
    0.000 999%   0.000 Lip13a                                              
    0.000 999%   0.000 Lip13b                                              
 2.87E-04 999% 4.6E-06 Lip09                                               
   16.458 177%   0.264 MM09                                                
    0.000 999%   0.000 Lip20                                               
    0.000 999%   0.000 MM20                                                
    3.052 524% 4.9E-02 MM12                                                
    0.000 999%   0.000 MM14                                                
   55.332  71%   0.888 MM17                                                
    0.000 999%   0.000 Lip13a+Lip13b                                       
    3.052 524% 4.9E-02 MM14+Lip13a+Lip13b+MM12                             
   16.459 177%   0.264 MM09+Lip09                                          
    0.000 999%   0.000 MM20+Lip20                                          
   6 lines in following misc. output table
  FWHM = 0.031 ppm    S/N =   2                                            
  Data shift =-0.008 ppm                                                   
  Ph: 106 deg     -13.3 deg/ppm                                            
  alphaB,S = 4.6E-01,   5.6E+00                                            
   14 spline knots.   Ns = 5(1)                                            
  ( 8) 3 infls.   ( 6) 3 extrs.                                            
  498 points on ppm-axis = NY
      4.000000     3.992357     3.984714     3.977070     3.969427     3.961784     3.954141     3.946497     3.938854     3.931211
      3.923568     3.915925     3.908281     3.900638     3.892995     3.885352     3.877708     3.870065     3.862422     3.854779
      3.847136     3.839492     3.831849     3.824206     3.816563     3.808919     3.801276     3.793633     3.785990     3.778347
      3.770703     3.763060     3.755417     3.747774     3.740130     3.732487     3.724844     3.717201     3.709558     3.701914
      3.694271     3.686628     3.678985     3.671341     3.663698     3.656055     3.648412     3.640769     3.633125     3.625482
      3.617839     3.610196     3.602552     3.594909     3.587266     3.579623     3.571980     3.564336     3.556693     3.549050
      3.541407     3.533763     3.526120     3.518477     3.510834     3.503191     3.495547     3.487904     3.480261     3.472618
      3.464974     3.457331     3.449688     3.442045     3.434402     3.426758     3.419115     3.411472     3.403829     3.396185
      3.388542     3.380899     3.373256     3.365613     3.357969     3.350326     3.342683     3.335040     3.327396     3.319753
      3.312110     3.304467     3.296824     3.289180     3.281537     3.273894     3.266251     3.258607     3.250964     3.243321
      3.235678     3.228034     3.220391     3.212748     3.205105     3.197462     3.189818     3.182175     3.174532     3.166889
      3.159245     3.151602     3.143959     3.136316     3.128673     3.121029     3.113386     3.105743     3.098100     3.090456
      3.082813     3.075170     3.067527     3.059884     3.052240     3.044597     3.036954     3.029311     3.021667     3.014024
      3.006381     2.998738     2.991095     2.983451     2.975808     2.968165     2.960522     2.952878     2.945235     2.937592
      2.929949     2.922306     2.914662     2.907019     2.899376     2.891733     2.884089     2.876446     2.868803     2.861160
      2.853517     2.845873     2.838230     2.830587     2.822944     2.815300     2.807657     2.800014     2.792371     2.784728
      2.777084     2.769441     2.761798     2.754155     2.746511     2.738868     2.731225     2.723582     2.715939     2.708295
      2.700652     2.693009     2.685366     2.677722     2.670079     2.662436     2.654793     2.647150     2.639506     2.631863
      2.624220     2.616577     2.608933     2.601290     2.593647     2.586004     2.578361     2.570717     2.563074     2.555431
      2.547788     2.540144     2.532501     2.524858     2.517215     2.509572     2.501928     2.494285     2.486642     2.478999
      2.471355     2.463712     2.456069     2.448426     2.440783     2.433139     2.425496     2.417853     2.410210     2.402566
      2.394923     2.387280     2.379637     2.371994     2.364350     2.356707     2.349064     2.341421     2.333777     2.326134
      2.318491     2.310848     2.303205     2.295561     2.287918     2.280275     2.272632     2.264988     2.257345     2.249702
      2.242059     2.234416     2.226772     2.219129     2.211486     2.203843     2.196199     2.188556     2.180913     2.173270
      2.165627     2.157983     2.150340     2.142697     2.135054     2.127410     2.119767     2.112124     2.104481     2.096838
      2.089194     2.081551     2.073908     2.066265     2.058621     2.050978     2.043335     2.035692     2.028049     2.020405
      2.012762     2.005119     1.997476     1.989833     1.982190     1.974546     1.966903     1.959260     1.951617     1.943974
      1.936331     1.928688     1.921045     1.913402     1.905759     1.898115     1.890472     1.882829     1.875186     1.867543
      1.859900     1.852257     1.844614     1.836971     1.829327     1.821684     1.814041     1.806398     1.798755     1.791112
      1.783469     1.775826     1.768183     1.760540     1.752896     1.745253     1.737610     1.729967     1.722324     1.714681
      1.707038     1.699395     1.691752     1.684108     1.676465     1.668822     1.661179     1.653536     1.645893     1.638250
      1.630607     1.622964     1.615321     1.607677     1.600034     1.592391     1.584748     1.577105     1.569462     1.561819
      1.554176     1.546533     1.538890     1.531246     1.523603     1.515960     1.508317     1.500674     1.493031     1.485388
      1.477745     1.470102     1.462458     1.454815     1.447172     1.439529     1.431886     1.424243     1.416600     1.408957
      1.401314     1.393671     1.386027     1.378384     1.370741     1.363098     1.355455     1.347812     1.340169     1.332526
      1.324883     1.317240     1.309596     1.301953     1.294310     1.286667     1.279024     1.271381     1.263738     1.256095
      1.248452     1.240808     1.233165     1.225522     1.217879     1.210236     1.202593     1.194950     1.187307     1.179664
      1.172021     1.164377     1.156734     1.149091     1.141448     1.133805     1.126162     1.118519     1.110876     1.103233
      1.095590     1.087946     1.080303     1.072660     1.065017     1.057374     1.049731     1.042088     1.034445     1.026802
      1.019158     1.011515     1.003872     0.996229     0.988586     0.980943     0.973300     0.965657     0.958014     0.950371
      0.942727     0.935084     0.927441     0.919798     0.912155     0.904512     0.896869     0.889226     0.881583     0.873940
      0.866296     0.858653     0.851010     0.843367     0.835724     0.828081     0.820438     0.812795     0.805152     0.797508
      0.789865     0.782222     0.774579     0.766936     0.759293     0.751650     0.744007     0.736364     0.728721     0.721077
      0.713434     0.705791     0.698148     0.690505     0.682862     0.675219     0.667576     0.659933     0.652290     0.644646
      0.637003     0.629360     0.621717     0.614074     0.606431     0.598788     0.591145     0.583502     0.575858     0.568215
      0.560572     0.552929     0.545286     0.537643     0.530000     0.522357     0.514714     0.507071     0.499427     0.491784
      0.484141     0.476498     0.468855     0.461212     0.453569     0.445925     0.438282     0.430639     0.422996     0.415353
      0.407710     0.400067     0.392424     0.384780     0.377137     0.369494     0.361851     0.354208     0.346565     0.338922
      0.331278     0.323635     0.315992     0.308349     0.300706     0.293063     0.285420     0.277777     0.270133     0.262490
      0.254847     0.247204     0.239561     0.231918     0.224275     0.216631     0.208988     0.201345
 NY phased data points follow
   1.08252E+02  1.04149E+02  1.05142E+02  1.04307E+02  1.05479E+02  1.04033E+02  1.01427E+02  1.00599E+02  9.85678E+01  9.87801E+01
   9.87478E+01  9.67201E+01  9.72778E+01  9.48813E+01  9.64059E+01  9.17203E+01  9.20864E+01  9.03756E+01  8.90147E+01  8.79983E+01
   8.81446E+01  8.61714E+01  8.72282E+01  8.32193E+01  8.22813E+01  8.19208E+01  8.19158E+01  8.21191E+01  7.85160E+01  7.79585E+01
   7.71491E+01  7.73335E+01  7.82918E+01  7.68363E+01  7.40286E+01  7.35611E+01  7.36287E+01  7.17866E+01  7.02754E+01  7.15065E+01
   7.06992E+01  7.00838E+01  7.09142E+01  6.81119E+01  7.15180E+01  7.16672E+01  6.76633E+01  6.92830E+01  6.92186E+01  6.43288E+01
   6.58596E+01  6.69480E+01  6.44117E+01  6.35996E+01  6.33612E+01  6.42449E+01  6.32555E+01  6.14552E+01  6.36268E+01  6.30048E+01
   5.97220E+01  6.21785E+01  5.90922E+01  6.02730E+01  5.55099E+01  5.90922E+01  5.67751E+01  5.97708E+01  5.53784E+01  5.76677E+01
   5.52592E+01  5.62456E+01  5.31410E+01  5.60637E+01  5.44279E+01  5.50958E+01  5.55556E+01  5.68510E+01  5.29497E+01  5.19561E+01
   5.20783E+01  5.18644E+01  5.17069E+01  4.97730E+01  5.03627E+01  5.02723E+01  4.78202E+01  4.98141E+01  4.65071E+01  4.83815E+01
   4.83860E+01  4.63825E+01  4.62337E+01  4.61105E+01  4.71232E+01  4.50018E+01  4.69619E+01  4.37945E+01  4.55265E+01  4.49649E+01
   4.24536E+01  4.83235E+01  4.75702E+01  4.69129E+01  4.60411E+01  4.64462E+01  4.38909E+01  4.24767E+01  4.38712E+01  4.02328E+01
   4.05309E+01  4.08729E+01  3.86262E+01  3.87054E+01  3.99335E+01  3.94658E+01  4.03562E+01  3.90240E+01  4.11654E+01  3.82167E+01
   4.02205E+01  3.79890E+01  3.69935E+01  3.83663E+01  3.77675E+01  4.06742E+01  4.12777E+01  4.09827E+01  4.10086E+01  3.91407E+01
   3.50306E+01  3.47634E+01  3.69080E+01  3.75807E+01  3.58487E+01  3.35481E+01  3.57310E+01  3.34927E+01  3.52451E+01  3.80886E+01
   3.42878E+01  3.31461E+01  3.42190E+01  3.55089E+01  3.59620E+01  3.38813E+01  3.60154E+01  3.54627E+01  3.56775E+01  3.35596E+01
   3.32371E+01  3.37006E+01  3.33103E+01  3.55732E+01  3.18819E+01  3.35253E+01  3.43285E+01  3.47826E+01  3.26826E+01  3.29340E+01
   3.29217E+01  2.84191E+01  3.28409E+01  3.03468E+01  3.29841E+01  3.31667E+01  3.13977E+01  3.17036E+01  3.08936E+01  2.88809E+01
   3.40758E+01  3.08228E+01  2.87321E+01  2.79149E+01  2.85653E+01  2.76440E+01  2.88090E+01  2.78692E+01  3.01863E+01  2.74523E+01
   3.04509E+01  3.17789E+01  2.97118E+01  3.18132E+01  3.08692E+01  3.20155E+01  3.06118E+01  3.03326E+01  2.91305E+01  2.82441E+01
   3.06733E+01  2.57595E+01  2.60800E+01  2.75399E+01  2.70491E+01  2.81549E+01  2.58014E+01  2.58979E+01  2.58241E+01  2.67475E+01
   2.57394E+01  2.49907E+01  2.34061E+01  2.66107E+01  2.76573E+01  2.40781E+01  2.40271E+01  2.52483E+01  2.55976E+01  2.45867E+01
   2.66369E+01  2.42355E+01  2.37103E+01  2.23417E+01  2.45970E+01  2.40312E+01  2.44881E+01  2.45873E+01  2.40638E+01  2.02450E+01
   2.39210E+01  1.84682E+01  2.02964E+01  2.22420E+01  2.18204E+01  2.14265E+01  1.97264E+01  2.15595E+01  2.32906E+01  2.06689E+01
   2.03465E+01  1.91846E+01  2.18782E+01  2.06711E+01  2.14510E+01  2.09000E+01  1.99455E+01  2.20400E+01  1.84053E+01  1.84213E+01
   1.87540E+01  2.06693E+01  1.94632E+01  1.80711E+01  1.82921E+01  1.69912E+01  1.83374E+01  1.95741E+01  2.10244E+01  1.84860E+01
   1.59368E+01  1.41563E+01  1.50748E+01  1.81582E+01  1.73256E+01  2.14860E+01  1.70604E+01  1.80593E+01  2.05559E+01  2.24755E+01
   2.33339E+01  2.19789E+01  2.10733E+01  2.06333E+01  1.77307E+01  1.94458E+01  1.31666E+01  1.58500E+01  1.67064E+01  1.49544E+01
   1.46691E+01  1.62042E+01  1.45622E+01  9.68122E+00  1.61861E+01  1.40682E+01  1.67581E+01  1.52091E+01  1.42879E+01  1.57825E+01
   1.50590E+01  1.52226E+01  1.67368E+01  1.84138E+01  1.66489E+01  2.00625E+01  1.61103E+01  1.78155E+01  1.60093E+01  1.50568E+01
   1.77149E+01  1.83973E+01  1.68273E+01  1.58073E+01  1.55018E+01  1.57810E+01  1.55410E+01  1.39127E+01  1.68068E+01  1.58087E+01
   1.42258E+01  1.72397E+01  1.74677E+01  1.29755E+01  1.31292E+01  1.51457E+01  1.50817E+01  1.68503E+01  1.57433E+01  1.46526E+01
   1.20837E+01  1.51513E+01  1.51289E+01  1.53155E+01  1.47371E+01  1.38628E+01  1.30465E+01  1.32399E+01  1.64344E+01  1.39591E+01
   1.27788E+01  1.48606E+01  1.44795E+01  1.34828E+01  1.21698E+01  1.19521E+01  9.49121E+00  1.24500E+01  1.32466E+01  1.16692E+01
   1.25684E+01  1.02696E+01  1.17241E+01  1.22217E+01  1.31339E+01  1.33522E+01  9.94205E+00  1.20216E+01  1.22291E+01  8.90061E+00
   8.87402E+00  1.08952E+01  1.15793E+01  1.07308E+01  1.13328E+01  1.34536E+01  1.09542E+01  1.29537E+01  7.07286E+00  1.16736E+01
   9.40542E+00  7.66362E+00  1.10368E+01  1.06987E+01  9.19964E+00  9.08600E+00  1.03567E+01  6.58572E+00  7.99288E+00  1.06570E+01
   8.62601E+00  1.02767E+01  1.10934E+01  7.52900E+00  9.73527E+00  1.14117E+01  9.79168E+00  8.73141E+00  9.68687E+00  8.76246E+00
   7.08788E+00  9.58259E+00  9.47221E+00  1.12964E+01  1.05362E+01  8.58118E+00  1.18748E+01  9.67311E+00  1.19081E+01  7.79872E+00
   9.71824E+00  1.04684E+01  8.06734E+00  1.04759E+01  9.64977E+00  7.26072E+00  9.45427E+00  1.07423E+01  9.40113E+00  8.66815E+00
   9.02745E+00  8.64247E+00  7.89848E+00  8.55695E+00  6.60644E+00  8.86419E+00  8.40201E+00  9.51651E+00  1.19714E+01  9.32798E+00
   7.57391E+00  8.25788E+00  7.84364E+00  1.11357E+01  1.00549E+01  9.75941E+00  8.19023E+00  1.10339E+01  9.52872E+00  9.84607E+00
   8.26899E+00  1.17356E+01  8.31229E+00  1.21764E+01  8.53869E+00  7.83064E+00  7.41102E+00  9.12384E+00  7.58423E+00  9.60194E+00
   9.16493E+00  1.02351E+01  9.25719E+00  8.56192E+00  9.44836E+00  9.49099E+00  8.76512E+00  1.16742E+01  7.54942E+00  9.22563E+00
   8.63138E+00  1.23959E+01  1.06724E+01  9.05516E+00  1.06144E+01  9.47293E+00  8.84754E+00  7.44005E+00  9.31997E+00  7.32317E+00
   1.00042E+01  9.02568E+00  6.98485E+00  6.59987E+00  8.05133E+00  9.59177E+00  7.36067E+00  6.91775E+00  6.12650E+00  6.86781E+00
   4.64201E+00  5.14154E+00  6.99532E+00  4.59609E+00  5.50780E+00  4.65237E+00  7.28276E+00  7.06063E+00  5.86680E+00  7.37536E+00
   8.02458E+00  7.39066E+00  7.20679E+00  7.90989E+00  6.51989E+00  6.31395E+00  8.23268E+00  5.13956E+00  7.94203E+00  6.72890E+00
   6.76307E+00  4.64280E+00  8.48905E+00  6.17711E+00  4.68305E+00  8.57679E+00  5.00734E+00  6.59716E+00  5.55097E+00  5.38553E+00
   7.57826E+00  5.48139E+00  8.32468E+00  5.36899E+00  5.12611E+00  5.34157E+00  5.05309E+00  5.29629E+00  6.13021E+00  6.08025E+00
   3.60854E+00  4.90872E+00  3.02859E+00  6.55495E+00  4.28116E+00  5.73153E+00  3.02953E+00  4.31447E+00
 NY points of the fit to the data follow
   1.03824E+02  1.02989E+02  1.02180E+02  1.01365E+02  1.00513E+02  9.97395E+01  9.90954E+01  9.85898E+01  9.83511E+01  9.83233E+01
   9.80224E+01  9.70822E+01  9.57138E+01  9.42796E+01  9.29195E+01  9.17672E+01  9.07592E+01  8.99229E+01  8.91633E+01  8.83582E+01
   8.75641E+01  8.67888E+01  8.60434E+01  8.53747E+01  8.47247E+01  8.39498E+01  8.30034E+01  8.20029E+01  8.10593E+01  8.02423E+01
   7.96377E+01  7.92444E+01  7.88820E+01  7.83599E+01  7.75992E+01  7.66658E+01  7.56564E+01  7.47072E+01  7.39179E+01  7.32733E+01
   7.27168E+01  7.21725E+01  7.15289E+01  7.08524E+01  7.03321E+01  6.99554E+01  6.95512E+01  6.89669E+01  6.82362E+01  6.74380E+01
   6.66085E+01  6.58046E+01  6.51083E+01  6.45363E+01  6.40038E+01  6.34453E+01  6.29039E+01  6.24246E+01  6.19863E+01  6.15320E+01
   6.10221E+01  6.04486E+01  5.98314E+01  5.92189E+01  5.86491E+01  5.81489E+01  5.76992E+01  5.72568E+01  5.68055E+01  5.63609E+01
   5.59244E+01  5.54679E+01  5.50213E+01  5.46367E+01  5.42633E+01  5.38436E+01  5.33660E+01  5.28571E+01  5.23490E+01  5.18733E+01
   5.14530E+01  5.10703E+01  5.07231E+01  5.04247E+01  5.01382E+01  4.97673E+01  4.92917E+01  4.87913E+01  4.83405E+01  4.79575E+01
   4.76318E+01  4.73221E+01  4.70087E+01  4.66763E+01  4.63196E+01  4.59716E+01  4.56559E+01  4.52836E+01  4.46272E+01  4.41699E+01
   4.48800E+01  4.65440E+01  4.77099E+01  4.75821E+01  4.65956E+01  4.52479E+01  4.37726E+01  4.25657E+01  4.18231E+01  4.16352E+01
   4.15534E+01  4.13139E+01  4.10481E+01  4.07809E+01  4.05229E+01  4.02692E+01  4.00161E+01  3.97595E+01  3.95051E+01  3.92594E+01
   3.90076E+01  3.86585E+01  3.80796E+01  3.78438E+01  3.87903E+01  4.05321E+01  4.16467E+01  4.15148E+01  4.06037E+01  3.93433E+01
   3.79830E+01  3.69071E+01  3.62908E+01  3.61975E+01  3.61628E+01  3.59955E+01  3.58136E+01  3.56499E+01  3.54950E+01  3.53261E+01
   3.51387E+01  3.49477E+01  3.47772E+01  3.46334E+01  3.45027E+01  3.43657E+01  3.42101E+01  3.40438E+01  3.38739E+01  3.37102E+01
   3.35593E+01  3.34068E+01  3.32444E+01  3.30799E+01  3.29280E+01  3.28060E+01  3.27164E+01  3.26167E+01  3.24423E+01  3.21977E+01
   3.19502E+01  3.17695E+01  3.16799E+01  3.16408E+01  3.15847E+01  3.14794E+01  3.13209E+01  3.11121E+01  3.08951E+01  3.07257E+01
   3.06053E+01  3.05152E+01  3.04004E+01  3.02047E+01  2.99521E+01  2.97427E+01  2.96387E+01  2.95869E+01  2.94916E+01  2.93136E+01
   2.90976E+01  2.89186E+01  2.88071E+01  2.87149E+01  2.85831E+01  2.84055E+01  2.82528E+01  2.81423E+01  2.80474E+01  2.79537E+01
   2.78415E+01  2.76790E+01  2.74680E+01  2.72614E+01  2.71076E+01  2.69862E+01  2.68341E+01  2.66487E+01  2.64470E+01  2.62128E+01
   2.59834E+01  2.58307E+01  2.57619E+01  2.57181E+01  2.56116E+01  2.54260E+01  2.51727E+01  2.48451E+01  2.44764E+01  2.41145E+01
   2.37893E+01  2.34953E+01  2.34056E+01  2.36814E+01  2.41348E+01  2.43798E+01  2.42322E+01  2.38471E+01  2.33068E+01  2.25226E+01
   2.16092E+01  2.09337E+01  2.08024E+01  2.10505E+01  2.13852E+01  2.17005E+01  2.19154E+01  2.19345E+01  2.17157E+01  2.13575E+01
   2.10253E+01  2.07971E+01  2.06369E+01  2.05487E+01  2.04969E+01  2.04285E+01  2.03293E+01  2.01783E+01  1.99723E+01  1.97092E+01
   1.94050E+01  1.91457E+01  1.90279E+01  1.90355E+01  1.90647E+01  1.90813E+01  1.90737E+01  1.89674E+01  1.87224E+01  1.83867E+01
   1.80816E+01  1.77856E+01  1.77043E+01  1.81828E+01  1.90040E+01  1.92127E+01  1.85727E+01  1.86530E+01  2.04135E+01  2.24958E+01
   2.31913E+01  2.25419E+01  2.13511E+01  1.97501E+01  1.81051E+01  1.70093E+01  1.66399E+01  1.68034E+01  1.67677E+01  1.66404E+01
   1.65231E+01  1.64442E+01  1.64050E+01  1.63951E+01  1.63707E+01  1.63148E+01  1.62320E+01  1.61330E+01  1.60212E+01  1.59103E+01
   1.58212E+01  1.57540E+01  1.56975E+01  1.56458E+01  1.55985E+01  1.55503E+01  1.54965E+01  1.54350E+01  1.53709E+01  1.53119E+01
   1.52641E+01  1.52230E+01  1.51841E+01  1.51442E+01  1.51032E+01  1.50590E+01  1.50091E+01  1.49545E+01  1.49016E+01  1.48519E+01
   1.48031E+01  1.47547E+01  1.47054E+01  1.46527E+01  1.45954E+01  1.45325E+01  1.44653E+01  1.43947E+01  1.43208E+01  1.42439E+01
   1.41642E+01  1.40817E+01  1.39967E+01  1.39094E+01  1.38203E+01  1.37296E+01  1.36376E+01  1.35445E+01  1.34507E+01  1.33565E+01
   1.32620E+01  1.31673E+01  1.30727E+01  1.29782E+01  1.28839E+01  1.27900E+01  1.26964E+01  1.26031E+01  1.25101E+01  1.24176E+01
   1.23254E+01  1.22338E+01  1.21426E+01  1.20520E+01  1.19619E+01  1.18726E+01  1.17840E+01  1.16963E+01  1.16097E+01  1.15240E+01
   1.14391E+01  1.13533E+01  1.12636E+01  1.12031E+01  1.12116E+01  1.12364E+01  1.11718E+01  1.10010E+01  1.07980E+01  1.06088E+01
   1.04153E+01  1.02378E+01  1.01562E+01  1.02124E+01  1.03155E+01  1.03653E+01  1.03621E+01  1.03159E+01  1.02283E+01  1.01214E+01
   1.00178E+01  9.94715E+00  9.89868E+00  9.85117E+00  9.80555E+00  9.76255E+00  9.72219E+00  9.68437E+00  9.64898E+00  9.61592E+00
   9.58503E+00  9.55621E+00  9.52936E+00  9.50441E+00  9.48129E+00  9.45993E+00  9.44025E+00  9.42216E+00  9.40560E+00  9.39055E+00
   9.37696E+00  9.36476E+00  9.35388E+00  9.34427E+00  9.33590E+00  9.32874E+00  9.32274E+00  9.31782E+00  9.31392E+00  9.31094E+00
   9.30884E+00  9.30751E+00  9.30682E+00  9.30661E+00  9.30671E+00  9.30693E+00  9.30708E+00  9.30694E+00  9.30624E+00  9.30472E+00
   9.30213E+00  9.29824E+00  9.29282E+00  9.28565E+00  9.27655E+00  9.26535E+00  9.25194E+00  9.23627E+00  9.21834E+00  9.19824E+00
   9.17606E+00  9.15196E+00  9.12611E+00  9.09868E+00  9.06985E+00  9.03977E+00  9.00856E+00  8.97639E+00  8.94337E+00  8.90962E+00
   8.87519E+00  8.84013E+00  8.80448E+00  8.76828E+00  8.73154E+00  8.69427E+00  8.65646E+00  8.61808E+00  8.57912E+00  8.53958E+00
   8.49946E+00  8.45873E+00  8.41738E+00  8.37538E+00  8.33274E+00  8.28946E+00  8.24556E+00  8.20101E+00  8.15581E+00  8.10995E+00
   8.06347E+00  8.01637E+00  7.96866E+00  7.92034E+00  7.87140E+00  7.82186E+00  7.77175E+00  7.72109E+00  7.66986E+00  7.61809E+00
   7.56577E+00  7.51293E+00  7.45959E+00  7.40576E+00  7.35145E+00  7.29666E+00  7.24139E+00  7.18567E+00  7.12952E+00  7.07294E+00
   7.01593E+00  6.95850E+00  6.90066E+00  6.84244E+00  6.78385E+00  6.72489E+00  6.66557E+00  6.60588E+00  6.54586E+00  6.48553E+00
   6.42489E+00  6.36394E+00  6.30269E+00  6.24115E+00  6.17935E+00  6.11730E+00  6.05500E+00  5.99246E+00  5.92968E+00  5.86669E+00
   5.80350E+00  5.74013E+00  5.67657E+00  5.61283E+00  5.54892E+00  5.48487E+00  5.42069E+00  5.35640E+00  5.29197E+00  5.22743E+00
   5.16279E+00  5.09808E+00  5.03330E+00  4.96846E+00  4.90356E+00  4.83861E+00  4.77362E+00  4.70863E+00
 NY background values follow
     1.038E+02    1.029E+02    1.021E+02    1.013E+02    1.004E+02    9.961E+01    9.878E+01    9.796E+01    9.713E+01    9.631E+01
     9.549E+01    9.468E+01    9.386E+01    9.305E+01    9.224E+01    9.143E+01    9.063E+01    8.983E+01    8.903E+01    8.823E+01
     8.744E+01    8.666E+01    8.587E+01    8.509E+01    8.432E+01    8.355E+01    8.279E+01    8.203E+01    8.127E+01    8.052E+01
     7.978E+01    7.904E+01    7.830E+01    7.758E+01    7.686E+01    7.614E+01    7.543E+01    7.473E+01    7.403E+01    7.335E+01
     7.266E+01    7.199E+01    7.132E+01    7.066E+01    7.001E+01    6.937E+01    6.873E+01    6.811E+01    6.749E+01    6.688E+01
     6.627E+01    6.568E+01    6.509E+01    6.451E+01    6.393E+01    6.337E+01    6.281E+01    6.226E+01    6.172E+01    6.118E+01
     6.065E+01    6.013E+01    5.961E+01    5.910E+01    5.860E+01    5.810E+01    5.761E+01    5.713E+01    5.666E+01    5.619E+01
     5.572E+01    5.527E+01    5.481E+01    5.437E+01    5.393E+01    5.350E+01    5.307E+01    5.265E+01    5.223E+01    5.182E+01
     5.142E+01    5.102E+01    5.062E+01    5.023E+01    4.985E+01    4.947E+01    4.910E+01    4.873E+01    4.837E+01    4.801E+01
     4.765E+01    4.731E+01    4.696E+01    4.662E+01    4.628E+01    4.595E+01    4.563E+01    4.530E+01    4.499E+01    4.467E+01
     4.436E+01    4.406E+01    4.376E+01    4.346E+01    4.317E+01    4.288E+01    4.260E+01    4.232E+01    4.204E+01    4.177E+01
     4.150E+01    4.124E+01    4.098E+01    4.072E+01    4.047E+01    4.022E+01    3.997E+01    3.973E+01    3.949E+01    3.926E+01
     3.903E+01    3.880E+01    3.858E+01    3.836E+01    3.814E+01    3.793E+01    3.772E+01    3.751E+01    3.731E+01    3.711E+01
     3.691E+01    3.672E+01    3.653E+01    3.634E+01    3.616E+01    3.597E+01    3.580E+01    3.562E+01    3.545E+01    3.528E+01
     3.511E+01    3.495E+01    3.478E+01    3.462E+01    3.447E+01    3.431E+01    3.416E+01    3.400E+01    3.385E+01    3.370E+01
     3.356E+01    3.341E+01    3.327E+01    3.312E+01    3.298E+01    3.284E+01    3.270E+01    3.256E+01    3.242E+01    3.228E+01
     3.214E+01    3.201E+01    3.187E+01    3.173E+01    3.159E+01    3.146E+01    3.132E+01    3.118E+01    3.104E+01    3.090E+01
     3.077E+01    3.063E+01    3.048E+01    3.034E+01    3.020E+01    3.006E+01    2.991E+01    2.976E+01    2.961E+01    2.946E+01
     2.931E+01    2.916E+01    2.900E+01    2.885E+01    2.869E+01    2.853E+01    2.837E+01    2.820E+01    2.804E+01    2.787E+01
     2.770E+01    2.754E+01    2.737E+01    2.720E+01    2.703E+01    2.685E+01    2.668E+01    2.651E+01    2.633E+01    2.616E+01
     2.598E+01    2.581E+01    2.563E+01    2.546E+01    2.528E+01    2.511E+01    2.493E+01    2.476E+01    2.458E+01    2.441E+01
     2.423E+01    2.406E+01    2.389E+01    2.371E+01    2.354E+01    2.337E+01    2.320E+01    2.303E+01    2.286E+01    2.270E+01
     2.253E+01    2.237E+01    2.221E+01    2.205E+01    2.189E+01    2.173E+01    2.157E+01    2.142E+01    2.127E+01    2.112E+01
     2.097E+01    2.082E+01    2.067E+01    2.053E+01    2.039E+01    2.025E+01    2.011E+01    1.998E+01    1.984E+01    1.971E+01
     1.958E+01    1.945E+01    1.932E+01    1.919E+01    1.907E+01    1.895E+01    1.883E+01    1.871E+01    1.859E+01    1.848E+01
     1.836E+01    1.825E+01    1.814E+01    1.803E+01    1.792E+01    1.782E+01    1.772E+01    1.761E+01    1.751E+01    1.741E+01
     1.732E+01    1.722E+01    1.713E+01    1.703E+01    1.694E+01    1.686E+01    1.677E+01    1.668E+01    1.660E+01    1.651E+01
     1.643E+01    1.635E+01    1.628E+01    1.620E+01    1.612E+01    1.605E+01    1.598E+01    1.591E+01    1.584E+01    1.577E+01
     1.570E+01    1.563E+01    1.557E+01    1.550E+01    1.544E+01    1.538E+01    1.531E+01    1.525E+01    1.519E+01    1.513E+01
     1.507E+01    1.500E+01    1.494E+01    1.488E+01    1.482E+01    1.476E+01    1.470E+01    1.464E+01    1.458E+01    1.452E+01
     1.446E+01    1.440E+01    1.434E+01    1.427E+01    1.421E+01    1.415E+01    1.408E+01    1.402E+01    1.395E+01    1.388E+01
     1.382E+01    1.375E+01    1.368E+01    1.361E+01    1.353E+01    1.346E+01    1.338E+01    1.331E+01    1.323E+01    1.315E+01
     1.307E+01    1.299E+01    1.290E+01    1.282E+01    1.274E+01    1.265E+01    1.257E+01    1.248E+01    1.239E+01    1.230E+01
     1.222E+01    1.213E+01    1.204E+01    1.195E+01    1.187E+01    1.178E+01    1.169E+01    1.160E+01    1.152E+01    1.143E+01
     1.135E+01    1.126E+01    1.118E+01    1.109E+01    1.101E+01    1.093E+01    1.085E+01    1.077E+01    1.070E+01    1.062E+01
     1.055E+01    1.047E+01    1.040E+01    1.033E+01    1.027E+01    1.020E+01    1.014E+01    1.008E+01    1.002E+01    9.964E+00
     9.911E+00    9.860E+00    9.811E+00    9.766E+00    9.723E+00    9.682E+00    9.644E+00    9.608E+00    9.574E+00    9.542E+00
     9.513E+00    9.485E+00    9.459E+00    9.435E+00    9.413E+00    9.392E+00    9.373E+00    9.356E+00    9.339E+00    9.324E+00
     9.310E+00    9.297E+00    9.286E+00    9.275E+00    9.265E+00    9.255E+00    9.247E+00    9.239E+00    9.231E+00    9.224E+00
     9.217E+00    9.210E+00    9.204E+00    9.198E+00    9.191E+00    9.185E+00    9.178E+00    9.171E+00    9.164E+00    9.156E+00
     9.148E+00    9.139E+00    9.129E+00    9.119E+00    9.107E+00    9.095E+00    9.082E+00    9.067E+00    9.052E+00    9.035E+00
     9.017E+00    8.998E+00    8.977E+00    8.956E+00    8.934E+00    8.910E+00    8.886E+00    8.860E+00    8.834E+00    8.806E+00
     8.777E+00    8.748E+00    8.717E+00    8.685E+00    8.653E+00    8.620E+00    8.585E+00    8.550E+00    8.514E+00    8.477E+00
     8.439E+00    8.400E+00    8.361E+00    8.321E+00    8.279E+00    8.238E+00    8.195E+00    8.151E+00    8.107E+00    8.062E+00
     8.017E+00    7.971E+00    7.924E+00    7.876E+00    7.828E+00    7.779E+00    7.730E+00    7.679E+00    7.629E+00    7.578E+00
     7.526E+00    7.473E+00    7.421E+00    7.367E+00    7.313E+00    7.259E+00    7.204E+00    7.149E+00    7.093E+00    7.037E+00
     6.980E+00    6.923E+00    6.866E+00    6.808E+00    6.749E+00    6.691E+00    6.632E+00    6.572E+00    6.513E+00    6.453E+00
     6.392E+00    6.332E+00    6.271E+00    6.209E+00    6.148E+00    6.086E+00    6.024E+00    5.962E+00    5.899E+00    5.836E+00
     5.774E+00    5.710E+00    5.647E+00    5.584E+00    5.520E+00    5.456E+00    5.392E+00    5.328E+00    5.264E+00    5.200E+00
     5.135E+00    5.071E+00    5.006E+00    4.942E+00    4.877E+00    4.813E+00    4.748E+00    4.683E+00
 Asp      Conc. = 1.39E+01
