 LCModel (Version 6.3-1L) Copyright: S.W. Provencher.          Ref.: Magn. Reson. Med. 30:672-679 (1993).                
 Slice#1 Row#10 Col#9  PD_24_press_1_raw_act
 36 lines in following concentration table = NCONC+1
    Conc.  %SD /Cr+PCr  Metabolite                                         
    0.000 999%   0.000 Ala                                                 
   65.093 156%   0.155 Asp                                                 
  232.300  42%   0.554 Cr                                                  
  187.245  56%   0.446 PCr                                                 
   21.630 285% 5.2E-02 GABA                                                
   67.659  95%   0.161 Glc                                                 
   66.223 173%   0.158 Gln                                                 
  478.113  27%   1.140 Glu                                                 
  289.591   5%   0.690 GPC                                                 
    0.000 999%   0.000 PCh                                                 
  139.426  30%   0.332 GSH                                                 
  578.765  24%   1.380 Ins                                                 
    0.000 999%   0.000 Lac                                                 
  764.328   7%   1.822 NAA                                                 
  218.979  25%   0.522 NAAG                                                
   36.085  40% 8.6E-02 Scyllo                                              
  150.558  62%   0.359 Tau                                                 
   63.295  92%   0.151 -CrCH2                                              
  289.591   5%   0.690 GPC+PCh                                             
  983.307   5%   2.344 NAA+NAAG                                            
  419.545   8%   1.000 Cr+PCr                                              
  544.335  31%   1.297 Glu+Gln                                             
  543.713 239%   1.296 Lip13a                                              
 1.31E+03  89%   3.124 Lip13b                                              
  361.944  54%   0.863 Lip09                                               
  442.302  42%   1.054 MM09                                                
  232.904  64%   0.555 Lip20                                               
 1.09E+03  22%   2.593 MM20                                                
  140.223  74%   0.334 MM12                                                
   79.426 282%   0.189 MM14                                                
    0.000 999%   0.000 MM17                                                
 1.85E+03  16%   4.420 Lip13a+Lip13b                                       
 2.07E+03  10%   4.943 MM14+Lip13a+Lip13b+MM12                             
  804.246  15%   1.917 MM09+Lip09                                          
 1.32E+03  17%   3.148 MM20+Lip20                                          
   6 lines in following misc. output table
  FWHM = 0.038 ppm    S/N =   7                                            
  Data shift =-0.023 ppm                                                   
  Ph: -10 deg       5.6 deg/ppm                                            
  alphaB,S = 8.5E+01,   2.6E+01                                            
   14 spline knots.   Ns = 5(1)                                            
   2 inflections.     1 extrema                                            
  498 points on ppm-axis = NY
      4.000000     3.992357     3.984714     3.977070     3.969427     3.961784     3.954141     3.946497     3.938854     3.931211
      3.923568     3.915925     3.908281     3.900638     3.892995     3.885352     3.877708     3.870065     3.862422     3.854779
      3.847136     3.839492     3.831849     3.824206     3.816563     3.808919     3.801276     3.793633     3.785990     3.778347
      3.770703     3.763060     3.755417     3.747774     3.740130     3.732487     3.724844     3.717201     3.709558     3.701914
      3.694271     3.686628     3.678985     3.671341     3.663698     3.656055     3.648412     3.640769     3.633125     3.625482
      3.617839     3.610196     3.602552     3.594909     3.587266     3.579623     3.571980     3.564336     3.556693     3.549050
      3.541407     3.533763     3.526120     3.518477     3.510834     3.503191     3.495547     3.487904     3.480261     3.472618
      3.464974     3.457331     3.449688     3.442045     3.434402     3.426758     3.419115     3.411472     3.403829     3.396185
      3.388542     3.380899     3.373256     3.365613     3.357969     3.350326     3.342683     3.335040     3.327396     3.319753
      3.312110     3.304467     3.296824     3.289180     3.281537     3.273894     3.266251     3.258607     3.250964     3.243321
      3.235678     3.228034     3.220391     3.212748     3.205105     3.197462     3.189818     3.182175     3.174532     3.166889
      3.159245     3.151602     3.143959     3.136316     3.128673     3.121029     3.113386     3.105743     3.098100     3.090456
      3.082813     3.075170     3.067527     3.059884     3.052240     3.044597     3.036954     3.029311     3.021667     3.014024
      3.006381     2.998738     2.991095     2.983451     2.975808     2.968165     2.960522     2.952878     2.945235     2.937592
      2.929949     2.922306     2.914662     2.907019     2.899376     2.891733     2.884089     2.876446     2.868803     2.861160
      2.853517     2.845873     2.838230     2.830587     2.822944     2.815300     2.807657     2.800014     2.792371     2.784728
      2.777084     2.769441     2.761798     2.754155     2.746511     2.738868     2.731225     2.723582     2.715939     2.708295
      2.700652     2.693009     2.685366     2.677722     2.670079     2.662436     2.654793     2.647150     2.639506     2.631863
      2.624220     2.616577     2.608933     2.601290     2.593647     2.586004     2.578361     2.570717     2.563074     2.555431
      2.547788     2.540144     2.532501     2.524858     2.517215     2.509572     2.501928     2.494285     2.486642     2.478999
      2.471355     2.463712     2.456069     2.448426     2.440783     2.433139     2.425496     2.417853     2.410210     2.402566
      2.394923     2.387280     2.379637     2.371994     2.364350     2.356707     2.349064     2.341421     2.333777     2.326134
      2.318491     2.310848     2.303205     2.295561     2.287918     2.280275     2.272632     2.264988     2.257345     2.249702
      2.242059     2.234416     2.226772     2.219129     2.211486     2.203843     2.196199     2.188556     2.180913     2.173270
      2.165627     2.157983     2.150340     2.142697     2.135054     2.127410     2.119767     2.112124     2.104481     2.096838
      2.089194     2.081551     2.073908     2.066265     2.058621     2.050978     2.043335     2.035692     2.028049     2.020405
      2.012762     2.005119     1.997476     1.989833     1.982190     1.974546     1.966903     1.959260     1.951617     1.943974
      1.936331     1.928688     1.921045     1.913402     1.905759     1.898115     1.890472     1.882829     1.875186     1.867543
      1.859900     1.852257     1.844614     1.836971     1.829327     1.821684     1.814041     1.806398     1.798755     1.791112
      1.783469     1.775826     1.768183     1.760540     1.752896     1.745253     1.737610     1.729967     1.722324     1.714681
      1.707038     1.699395     1.691752     1.684108     1.676465     1.668822     1.661179     1.653536     1.645893     1.638250
      1.630607     1.622964     1.615321     1.607677     1.600034     1.592391     1.584748     1.577105     1.569462     1.561819
      1.554176     1.546533     1.538890     1.531246     1.523603     1.515960     1.508317     1.500674     1.493031     1.485388
      1.477745     1.470102     1.462458     1.454815     1.447172     1.439529     1.431886     1.424243     1.416600     1.408957
      1.401314     1.393671     1.386027     1.378384     1.370741     1.363098     1.355455     1.347812     1.340169     1.332526
      1.324883     1.317240     1.309596     1.301953     1.294310     1.286667     1.279024     1.271381     1.263738     1.256095
      1.248452     1.240808     1.233165     1.225522     1.217879     1.210236     1.202593     1.194950     1.187307     1.179664
      1.172021     1.164377     1.156734     1.149091     1.141448     1.133805     1.126162     1.118519     1.110876     1.103233
      1.095590     1.087946     1.080303     1.072660     1.065017     1.057374     1.049731     1.042088     1.034445     1.026802
      1.019158     1.011515     1.003872     0.996229     0.988586     0.980943     0.973300     0.965657     0.958014     0.950371
      0.942727     0.935084     0.927441     0.919798     0.912155     0.904512     0.896869     0.889226     0.881583     0.873940
      0.866296     0.858653     0.851010     0.843367     0.835724     0.828081     0.820438     0.812795     0.805152     0.797508
      0.789865     0.782222     0.774579     0.766936     0.759293     0.751650     0.744007     0.736364     0.728721     0.721077
      0.713434     0.705791     0.698148     0.690505     0.682862     0.675219     0.667576     0.659933     0.652290     0.644646
      0.637003     0.629360     0.621717     0.614074     0.606431     0.598788     0.591145     0.583502     0.575858     0.568215
      0.560572     0.552929     0.545286     0.537643     0.530000     0.522357     0.514714     0.507071     0.499427     0.491784
      0.484141     0.476498     0.468855     0.461212     0.453569     0.445925     0.438282     0.430639     0.422996     0.415353
      0.407710     0.400067     0.392424     0.384780     0.377137     0.369494     0.361851     0.354208     0.346565     0.338922
      0.331278     0.323635     0.315992     0.308349     0.300706     0.293063     0.285420     0.277777     0.270133     0.262490
      0.254847     0.247204     0.239561     0.231918     0.224275     0.216631     0.208988     0.201345
 NY phased data points follow
  -1.19674E+01 -1.00522E+01 -9.46843E+00 -1.01238E+01 -8.06581E+00 -6.77371E+00 -7.31727E+00 -5.70115E-01 -1.30809E+00  4.36938E+00
  -5.37333E-02  3.40323E+00  1.47502E+00 -9.15820E-01 -1.10631E+00 -5.29363E+00 -6.75874E+00 -1.02351E+01 -6.12074E+00 -7.75059E+00
  -3.61230E+00 -5.13712E+00 -3.78202E+00 -9.35551E+00 -4.66746E+00 -3.46330E+00 -4.05238E+00 -2.22212E+00 -3.11905E+00 -7.12720E+00
  -6.34506E+00 -1.30158E+00 -4.63161E+00 -3.71779E+00 -4.88217E+00 -3.78503E+00 -8.43721E+00 -1.10525E+01 -6.62393E+00 -6.29914E+00
  -2.67044E+00 -3.74610E+00 -3.53888E+00 -6.39173E+00 -4.19148E+00 -1.54610E+00 -1.09638E-01 -8.75812E-01 -1.12100E-01 -3.24741E+00
  -2.66307E+00 -4.13019E-01 -5.93439E+00 -6.28699E+00 -7.45956E+00 -5.34530E+00 -6.79028E+00 -4.06209E+00 -1.43318E+00 -1.01978E+01
  -3.43562E+00 -5.19272E+00 -8.64732E+00 -8.39855E+00 -1.04723E+01 -8.77503E+00 -9.71194E+00 -1.05661E+01 -7.34009E+00 -7.50188E+00
  -9.60653E+00 -7.46164E+00 -6.13649E+00 -8.64685E+00 -4.00264E+00 -2.26091E+00 -9.02359E+00 -6.14433E+00 -2.89584E+00 -1.06564E+01
  -6.81905E+00 -8.13051E+00 -7.63959E+00 -3.60618E+00 -6.49190E+00 -5.17809E+00 -4.91852E+00 -6.89687E+00 -2.92649E+00 -8.43938E+00
  -7.96391E+00 -3.51178E+00 -2.67284E+00 -2.34522E+00 -6.96288E+00 -1.09539E+00 -3.82173E+00 -7.93992E+00 -3.97578E+00  4.94374E+00
   5.77653E+00  1.56985E+01  2.07493E+01  2.85752E+01  2.51599E+01  2.08496E+01  1.26642E+01  2.06594E+00 -2.56592E+00 -4.68086E+00
  -5.28197E+00 -2.17352E+00 -6.82009E+00 -4.62646E+00 -4.15258E+00 -7.09105E+00 -4.99574E+00 -4.81209E+00 -9.46218E+00 -5.93099E+00
  -7.40793E+00 -4.36951E+00 -7.67740E+00 -4.29025E+00 -1.02992E+00  3.20651E+00  7.73925E+00  1.16370E+01  1.47928E+01  6.37671E+00
   1.46336E+00 -4.00858E+00 -7.29240E+00 -7.52474E+00 -4.31476E+00 -5.02394E+00 -2.56957E+00 -3.56433E+00 -2.36369E-01 -6.26870E+00
  -6.35112E+00 -1.11993E+01 -1.03150E+01 -3.90795E+00 -4.48342E+00 -9.28834E+00 -1.28449E+01 -8.69978E+00 -8.52740E+00 -1.01728E+01
  -4.79910E+00 -8.24912E+00 -7.54351E+00 -8.60613E+00 -6.93362E+00 -1.12766E+01 -5.98579E+00 -7.70375E+00 -6.47088E+00 -7.82163E+00
  -9.55645E+00 -9.88991E+00 -4.47814E+00 -1.34302E+01 -1.03039E+01 -5.77919E+00 -1.01241E+01 -7.76832E+00 -4.65588E+00 -1.39863E+01
  -9.26570E+00 -1.06480E+01 -1.52907E+01 -1.26882E+01 -1.21201E+01 -1.28807E+01 -1.27081E+01 -1.26800E+01 -8.82589E+00 -1.19897E+01
  -1.40104E+01 -9.67621E+00 -1.19120E+01 -5.61653E+00 -1.34687E+01 -1.31102E+01 -8.41806E+00 -1.15676E+01 -9.97323E+00 -8.43382E+00
  -7.23466E+00 -2.71990E+00 -6.49828E+00 -7.79476E+00 -9.10344E+00 -7.01962E+00 -1.04008E+01 -7.98364E+00 -9.72877E+00 -5.09303E+00
  -6.64500E+00 -4.13656E+00 -9.78854E+00 -2.87229E+00 -1.78796E+00 -2.85672E+00 -8.06172E-01 -5.75174E+00 -5.59127E+00 -2.94931E+00
  -9.15434E+00 -6.99241E+00 -5.02535E+00 -6.56002E+00 -4.72425E+00 -3.10175E+00  3.49738E-01 -2.81141E+00 -4.97029E-01 -7.79742E+00
  -7.79944E+00 -8.76721E+00 -2.61151E+00 -8.25931E+00 -5.58148E+00 -4.63598E+00 -2.81277E+00 -2.63029E+00 -2.85456E+00  4.87294E-02
  -4.63637E+00 -1.71076E+00 -4.37129E+00 -3.35264E-02 -3.46452E+00  3.98091E-01  9.72362E-01 -3.32408E+00 -7.29482E+00 -5.87886E+00
  -3.14284E+00 -5.70505E+00 -7.50450E+00 -5.47162E+00 -2.12229E+00 -1.02020E+00 -3.35585E-01  3.65417E+00 -2.94267E+00 -1.31650E+00
   1.32068E+00  3.04881E+00  1.44343E+00  5.39222E+00  5.02559E+00  1.20687E+01  1.57851E+01  1.73122E+01  1.98297E+01  2.41833E+01
   3.43451E+01  3.25784E+01  2.72526E+01  1.62352E+01  3.74502E+00  2.10592E-01  1.80066E-01  3.13267E-01  1.83187E+00 -1.51597E-01
  -1.47626E-01 -7.71605E+00 -3.41084E+00 -1.68069E+00 -7.32342E+00 -3.49000E+00 -5.90824E+00 -5.42960E+00 -3.13797E+00 -7.54479E+00
  -7.65900E+00 -7.34436E+00 -7.86122E+00 -8.02918E+00 -1.13035E+01 -3.47296E+00 -8.62726E+00 -4.67832E+00 -4.42813E+00 -4.67332E+00
  -5.59795E+00 -2.14855E+00 -1.05328E+01 -7.84402E+00 -7.79652E+00 -9.07561E+00 -7.71297E+00 -5.47387E+00 -8.88255E+00 -8.01125E+00
  -6.84668E+00 -9.99666E+00 -7.23270E+00 -3.94107E+00 -3.32005E+00 -9.93954E-02 -8.39667E+00 -2.48770E+00 -6.02841E+00 -1.63564E+00
  -5.57428E+00 -1.09019E+00 -4.43654E+00 -4.84171E+00 -4.77027E+00 -3.18737E+00 -1.07600E+01 -7.97122E+00 -4.46801E+00 -1.10910E+01
  -5.53754E+00 -4.46683E+00 -5.20551E+00 -3.29719E+00 -7.30020E+00 -8.58455E+00 -6.04057E+00 -2.10559E+00 -1.00002E+00 -5.91580E+00
  -6.34063E+00 -1.55942E+00 -3.60219E+00 -6.16799E+00 -4.35171E+00 -5.20088E+00 -1.54580E+00 -2.65116E+00 -9.26125E-01 -1.72981E+00
  -3.09008E-01 -8.04678E+00 -2.50229E+00 -5.35299E+00  1.80094E-01 -4.75620E-01  4.77228E+00  6.49223E+00  4.74445E+00  5.24890E+00
   1.32413E+00  1.18090E+01  8.14925E+00  9.65775E+00  8.42602E+00  9.19257E+00  9.58166E+00  7.81346E+00  9.95006E+00  6.85206E+00
   4.05212E+00  6.34594E+00  2.86300E+00  6.21358E+00  3.19779E+00  1.37622E+00  5.72872E-01  3.94025E-02 -1.72699E+00  3.46586E+00
   5.25088E-02  2.29572E-01 -4.28561E+00 -2.45392E+00 -6.15509E-02 -2.74699E+00 -1.88485E+00 -3.31966E+00 -8.01755E+00 -6.87657E+00
  -2.07470E+00 -1.16696E+00 -7.73172E+00 -2.35935E+00  8.60603E-01 -8.65065E-01 -4.40701E+00 -4.38668E+00 -3.57242E+00 -3.96878E+00
  -4.80699E+00 -4.84326E+00 -3.97042E+00 -4.30653E+00 -1.13495E+00 -1.42556E+00  1.31117E+00 -5.30442E+00  8.62710E-01 -2.53309E+00
  -4.43944E-01 -4.39326E+00 -1.91609E+00 -1.17009E+00  6.72992E-01  1.21807E+00  9.10491E-02  3.71130E-01  3.96092E+00  1.16104E+00
   1.00774E-01  3.25268E+00  2.20892E+00 -5.85217E+00 -5.07082E-01  3.38409E+00 -9.73966E-01  2.61852E+00 -1.90083E-01  4.04675E+00
  -2.92741E+00 -1.49941E-01 -4.01102E-01 -8.82065E-02 -4.11925E+00 -3.00920E+00 -2.09939E+00 -7.90041E+00 -5.06755E-02 -3.39806E+00
   9.00580E-02 -5.82220E+00 -8.28822E+00 -4.94742E-01 -3.44849E+00 -1.63682E+00  1.81081E-02 -3.55275E+00 -3.60975E+00 -3.50552E+00
  -2.96699E+00 -2.45670E+00 -4.39267E+00 -2.77589E+00 -3.02807E+00 -4.68487E+00 -6.05307E+00 -6.01583E+00 -2.30536E+00 -3.97691E+00
  -3.08302E+00 -7.60842E+00 -2.12393E+00 -5.50519E+00 -7.28393E+00 -3.20120E+00 -5.90601E+00 -4.32869E+00 -1.11821E+00 -7.03437E+00
  -2.91719E+00 -9.59752E+00 -3.06916E+00 -6.26005E+00 -3.75227E+00  6.42860E-01 -2.72693E+00 -4.94153E+00 -5.34768E+00 -5.27198E+00
  -4.96084E+00 -4.00092E+00 -5.47175E+00 -2.58890E+00 -7.55221E+00 -4.65745E+00 -3.67279E+00 -3.01209E+00 -1.91768E+00 -2.52525E+00
  -5.18560E+00 -7.96985E+00 -4.08376E+00 -4.78285E-01 -5.71192E+00 -2.47263E+00 -7.11181E+00 -4.91653E+00 -4.89247E+00 -3.48327E+00
  -3.91028E+00 -1.21695E+00 -2.65716E+00 -1.94161E+00 -2.45425E+00 -3.87209E+00 -1.40911E+00  4.41913E-01
 NY points of the fit to the data follow
  -7.60493E+00 -7.62088E+00 -7.46150E+00 -7.12110E+00 -6.49153E+00 -5.57689E+00 -4.32012E+00 -2.65234E+00 -8.10942E-01  1.00140E+00
   2.40964E+00  2.83056E+00  1.80647E+00 -3.48252E-01 -2.76666E+00 -4.68727E+00 -5.69258E+00 -6.13180E+00 -6.50914E+00 -6.82579E+00
  -7.03992E+00 -7.11273E+00 -7.11949E+00 -7.17762E+00 -7.11592E+00 -6.77406E+00 -6.35298E+00 -5.79030E+00 -4.90532E+00 -3.83939E+00
  -3.07953E+00 -2.94731E+00 -3.40138E+00 -4.16795E+00 -4.88978E+00 -5.54414E+00 -6.24156E+00 -6.74181E+00 -6.95477E+00 -6.95625E+00
  -6.91743E+00 -6.71817E+00 -6.12046E+00 -5.28911E+00 -4.38967E+00 -3.31709E+00 -2.16524E+00 -1.36575E+00 -1.48520E+00 -2.71485E+00
  -4.53662E+00 -6.08759E+00 -6.97353E+00 -7.36557E+00 -7.41185E+00 -7.18140E+00 -6.82322E+00 -6.42256E+00 -5.99310E+00 -5.59153E+00
  -5.36800E+00 -5.49442E+00 -6.00008E+00 -6.68273E+00 -7.20323E+00 -7.42097E+00 -7.32229E+00 -6.99904E+00 -6.64552E+00 -6.37699E+00
  -6.15701E+00 -5.89456E+00 -5.67430E+00 -5.54760E+00 -5.47242E+00 -5.50504E+00 -5.68301E+00 -6.01772E+00 -6.49149E+00 -6.92577E+00
  -7.08202E+00 -6.85247E+00 -6.42044E+00 -5.99398E+00 -5.61259E+00 -5.33261E+00 -5.35506E+00 -5.82960E+00 -6.62137E+00 -7.35431E+00
  -7.64493E+00 -7.42504E+00 -7.07960E+00 -6.85201E+00 -6.66512E+00 -6.45687E+00 -6.08663E+00 -5.15181E+00 -2.49193E+00  1.81620E+00
   6.95542E+00  1.37500E+01  2.18727E+01  2.79863E+01  2.80117E+01  2.12688E+01  1.08618E+01  1.70287E+00 -3.27699E+00 -5.54607E+00
  -6.76543E+00 -7.15666E+00 -7.28558E+00 -7.31594E+00 -7.31973E+00 -7.31102E+00 -7.28866E+00 -7.25431E+00 -7.20700E+00 -7.11763E+00
  -6.92021E+00 -6.39246E+00 -4.84712E+00 -2.48575E+00  3.41165E-01  4.08068E+00  8.41095E+00  1.13670E+01  1.10054E+01  7.30074E+00
   1.99571E+00 -2.33990E+00 -4.52641E+00 -5.71326E+00 -6.63037E+00 -7.28781E+00 -7.74440E+00 -7.86902E+00 -7.62707E+00 -7.17551E+00
  -6.70980E+00 -6.38288E+00 -6.30330E+00 -6.41306E+00 -6.58398E+00 -6.74144E+00 -6.85291E+00 -6.95626E+00 -7.06398E+00 -7.17863E+00
  -7.29172E+00 -7.38764E+00 -7.47931E+00 -7.55391E+00 -7.57722E+00 -7.54582E+00 -7.50026E+00 -7.47616E+00 -7.54327E+00 -7.77404E+00
  -8.08747E+00 -8.33950E+00 -8.37305E+00 -8.13257E+00 -7.78769E+00 -7.63111E+00 -7.76712E+00 -8.07528E+00 -8.39978E+00 -8.59904E+00
  -8.64534E+00 -8.65887E+00 -8.70073E+00 -8.79248E+00 -9.00306E+00 -9.25792E+00 -9.38238E+00 -9.25568E+00 -8.95043E+00 -8.70166E+00
  -8.70620E+00 -8.88347E+00 -8.96804E+00 -8.79484E+00 -8.46133E+00 -8.15424E+00 -7.91017E+00 -7.52811E+00 -6.89077E+00 -6.12312E+00
  -5.48677E+00 -5.23233E+00 -5.43167E+00 -5.90552E+00 -6.39516E+00 -6.75424E+00 -6.92618E+00 -6.93474E+00 -6.77992E+00 -6.43751E+00
  -6.00679E+00 -5.56757E+00 -5.18270E+00 -4.88385E+00 -4.74057E+00 -4.94397E+00 -5.50456E+00 -6.28202E+00 -7.10234E+00 -7.74011E+00
  -7.99727E+00 -7.70876E+00 -7.00889E+00 -5.98242E+00 -4.72255E+00 -3.55809E+00 -3.00327E+00 -3.51740E+00 -4.95229E+00 -6.65170E+00
  -8.05269E+00 -8.93931E+00 -9.18510E+00 -8.54205E+00 -7.09080E+00 -5.37698E+00 -4.05020E+00 -3.42661E+00 -3.34825E+00 -3.55044E+00
  -3.88406E+00 -4.15075E+00 -4.09361E+00 -3.69061E+00 -3.09571E+00 -2.56272E+00 -2.29088E+00 -2.33579E+00 -2.72246E+00 -3.28235E+00
  -3.77390E+00 -4.02303E+00 -3.92231E+00 -3.40904E+00 -2.56371E+00 -1.64906E+00 -9.53013E-01 -6.34481E-01 -6.45553E-01 -7.55505E-01
  -6.04745E-01  2.49388E-01  1.63611E+00  3.60939E+00  6.41943E+00  1.05346E+01  1.51699E+01  1.86332E+01  2.21149E+01  2.70120E+01
   3.17880E+01  3.23318E+01  2.66287E+01  1.68753E+01  7.48210E+00  1.87658E+00 -7.99055E-01 -2.46254E+00 -3.20329E+00 -3.58534E+00
  -3.84154E+00 -4.00275E+00 -4.07137E+00 -4.08940E+00 -4.10890E+00 -4.19170E+00 -4.36253E+00 -4.58819E+00 -4.80181E+00 -4.96879E+00
  -5.09201E+00 -5.17618E+00 -5.22430E+00 -5.24921E+00 -5.27443E+00 -5.32011E+00 -5.38652E+00 -5.45448E+00 -5.51563E+00 -5.56734E+00
  -5.59693E+00 -5.59575E+00 -5.57552E+00 -5.55591E+00 -5.55443E+00 -5.57329E+00 -5.60235E+00 -5.63354E+00 -5.66365E+00 -5.68302E+00
  -5.68488E+00 -5.67007E+00 -5.64543E+00 -5.62116E+00 -5.60127E+00 -5.58347E+00 -5.56795E+00 -5.55286E+00 -5.53617E+00 -5.51740E+00
  -5.49637E+00 -5.47323E+00 -5.44825E+00 -5.42150E+00 -5.39260E+00 -5.36115E+00 -5.32681E+00 -5.28948E+00 -5.24912E+00 -5.20553E+00
  -5.15831E+00 -5.10729E+00 -5.05241E+00 -4.99361E+00 -4.93053E+00 -4.86267E+00 -4.78946E+00 -4.71054E+00 -4.62547E+00 -4.53360E+00
  -4.43383E+00 -4.32480E+00 -4.20490E+00 -4.07234E+00 -3.92472E+00 -3.75882E+00 -3.57022E+00 -3.35342E+00 -3.10149E+00 -2.80598E+00
  -2.45641E+00 -2.04044E+00 -1.54427E+00 -9.53997E-01 -2.57325E-01  5.54032E-01  1.48163E+00  2.51701E+00  3.63889E+00  4.81131E+00
   5.98410E+00  7.09567E+00  8.07854E+00  8.86649E+00  9.40266E+00  9.64714E+00  9.58280E+00  9.21774E+00  8.58420E+00  7.73359E+00
   6.72923E+00  5.63803E+00  4.52315E+00  3.43800E+00  2.42283E+00  1.50348E+00  6.92468E-01 -8.56143E-03 -6.05479E-01 -1.10868E+00
  -1.53043E+00 -1.88329E+00 -2.17873E+00 -2.42665E+00 -2.63490E+00 -2.80955E+00 -2.95512E+00 -3.07512E+00 -3.17211E+00 -3.24792E+00
  -3.30363E+00 -3.33991E+00 -3.35706E+00 -3.35532E+00 -3.33460E+00 -3.29465E+00 -3.23487E+00 -3.15467E+00 -3.05346E+00 -2.93086E+00
  -2.78652E+00 -2.62031E+00 -2.43229E+00 -2.22313E+00 -1.99409E+00 -1.74722E+00 -1.48514E+00 -1.21124E+00 -9.29613E-01 -6.45250E-01
  -3.63800E-01 -9.14642E-02  1.65445E-01  4.00556E-01  6.07754E-01  7.81251E-01  9.16056E-01  1.00818E+00  1.05504E+00  1.05533E+00
   1.00920E+00  9.18028E-01  7.84586E-01  6.12829E-01  4.07814E-01  1.75194E-01 -7.89727E-02 -3.48622E-01 -6.27682E-01 -9.10410E-01
  -1.19148E+00 -1.46638E+00 -1.73135E+00 -1.98352E+00 -2.22065E+00 -2.44123E+00 -2.64436E+00 -2.82984E+00 -2.99798E+00 -3.14946E+00
  -3.28510E+00 -3.40591E+00 -3.51300E+00 -3.60768E+00 -3.69120E+00 -3.76479E+00 -3.82944E+00 -3.88615E+00 -3.93581E+00 -3.97936E+00
  -4.01757E+00 -4.05111E+00 -4.08043E+00 -4.10602E+00 -4.12833E+00 -4.14784E+00 -4.16488E+00 -4.17971E+00 -4.19246E+00 -4.20338E+00
  -4.21270E+00 -4.22065E+00 -4.22736E+00 -4.23289E+00 -4.23727E+00 -4.24066E+00 -4.24319E+00 -4.24501E+00 -4.24610E+00 -4.24650E+00
  -4.24619E+00 -4.24533E+00 -4.24399E+00 -4.24224E+00 -4.24001E+00 -4.23731E+00 -4.23417E+00 -4.23071E+00 -4.22696E+00 -4.22296E+00
  -4.21861E+00 -4.21394E+00 -4.20897E+00 -4.20383E+00 -4.19851E+00 -4.19299E+00 -4.18720E+00 -4.18118E+00 -4.17499E+00 -4.16871E+00
  -4.16229E+00 -4.15572E+00 -4.14892E+00 -4.14198E+00 -4.13494E+00 -4.12786E+00 -4.12065E+00 -4.11331E+00 -4.10578E+00 -4.09818E+00
  -4.09053E+00 -4.08286E+00 -4.07506E+00 -4.06713E+00 -4.05907E+00 -4.05099E+00 -4.04288E+00 -4.03474E+00
 NY background values follow
    -9.526E+00   -9.516E+00   -9.506E+00   -9.495E+00   -9.485E+00   -9.474E+00   -9.464E+00   -9.453E+00   -9.443E+00   -9.433E+00
    -9.422E+00   -9.412E+00   -9.401E+00   -9.391E+00   -9.380E+00   -9.370E+00   -9.359E+00   -9.349E+00   -9.339E+00   -9.328E+00
    -9.318E+00   -9.307E+00   -9.297E+00   -9.286E+00   -9.276E+00   -9.265E+00   -9.255E+00   -9.244E+00   -9.234E+00   -9.224E+00
    -9.213E+00   -9.203E+00   -9.192E+00   -9.182E+00   -9.171E+00   -9.161E+00   -9.150E+00   -9.140E+00   -9.129E+00   -9.119E+00
    -9.108E+00   -9.098E+00   -9.087E+00   -9.077E+00   -9.067E+00   -9.056E+00   -9.046E+00   -9.035E+00   -9.025E+00   -9.014E+00
    -9.004E+00   -8.993E+00   -8.983E+00   -8.972E+00   -8.962E+00   -8.951E+00   -8.941E+00   -8.930E+00   -8.920E+00   -8.909E+00
    -8.899E+00   -8.888E+00   -8.878E+00   -8.867E+00   -8.857E+00   -8.846E+00   -8.836E+00   -8.825E+00   -8.815E+00   -8.804E+00
    -8.794E+00   -8.783E+00   -8.773E+00   -8.762E+00   -8.752E+00   -8.741E+00   -8.731E+00   -8.720E+00   -8.710E+00   -8.699E+00
    -8.689E+00   -8.678E+00   -8.668E+00   -8.657E+00   -8.647E+00   -8.636E+00   -8.626E+00   -8.615E+00   -8.605E+00   -8.594E+00
    -8.584E+00   -8.573E+00   -8.563E+00   -8.552E+00   -8.542E+00   -8.531E+00   -8.521E+00   -8.510E+00   -8.500E+00   -8.489E+00
    -8.479E+00   -8.468E+00   -8.458E+00   -8.447E+00   -8.436E+00   -8.426E+00   -8.415E+00   -8.405E+00   -8.394E+00   -8.384E+00
    -8.373E+00   -8.363E+00   -8.352E+00   -8.342E+00   -8.331E+00   -8.321E+00   -8.310E+00   -8.300E+00   -8.289E+00   -8.278E+00
    -8.268E+00   -8.257E+00   -8.247E+00   -8.236E+00   -8.226E+00   -8.215E+00   -8.205E+00   -8.194E+00   -8.184E+00   -8.173E+00
    -8.162E+00   -8.152E+00   -8.141E+00   -8.131E+00   -8.120E+00   -8.110E+00   -8.099E+00   -8.089E+00   -8.078E+00   -8.068E+00
    -8.057E+00   -8.046E+00   -8.036E+00   -8.025E+00   -8.015E+00   -8.004E+00   -7.994E+00   -7.983E+00   -7.973E+00   -7.962E+00
    -7.951E+00   -7.941E+00   -7.930E+00   -7.920E+00   -7.909E+00   -7.899E+00   -7.888E+00   -7.877E+00   -7.867E+00   -7.856E+00
    -7.846E+00   -7.835E+00   -7.825E+00   -7.814E+00   -7.803E+00   -7.793E+00   -7.782E+00   -7.772E+00   -7.761E+00   -7.751E+00
    -7.740E+00   -7.729E+00   -7.719E+00   -7.708E+00   -7.698E+00   -7.687E+00   -7.676E+00   -7.666E+00   -7.655E+00   -7.645E+00
    -7.634E+00   -7.624E+00   -7.613E+00   -7.602E+00   -7.592E+00   -7.581E+00   -7.571E+00   -7.560E+00   -7.549E+00   -7.539E+00
    -7.528E+00   -7.518E+00   -7.507E+00   -7.496E+00   -7.486E+00   -7.475E+00   -7.465E+00   -7.454E+00   -7.443E+00   -7.433E+00
    -7.422E+00   -7.412E+00   -7.401E+00   -7.390E+00   -7.380E+00   -7.369E+00   -7.359E+00   -7.348E+00   -7.337E+00   -7.327E+00
    -7.316E+00   -7.306E+00   -7.295E+00   -7.284E+00   -7.274E+00   -7.263E+00   -7.253E+00   -7.242E+00   -7.231E+00   -7.221E+00
    -7.210E+00   -7.200E+00   -7.189E+00   -7.178E+00   -7.168E+00   -7.157E+00   -7.146E+00   -7.136E+00   -7.125E+00   -7.115E+00
    -7.104E+00   -7.093E+00   -7.083E+00   -7.072E+00   -7.061E+00   -7.051E+00   -7.040E+00   -7.030E+00   -7.019E+00   -7.008E+00
    -6.998E+00   -6.987E+00   -6.976E+00   -6.966E+00   -6.955E+00   -6.945E+00   -6.934E+00   -6.923E+00   -6.913E+00   -6.902E+00
    -6.891E+00   -6.881E+00   -6.870E+00   -6.860E+00   -6.849E+00   -6.838E+00   -6.828E+00   -6.817E+00   -6.806E+00   -6.796E+00
    -6.785E+00   -6.774E+00   -6.764E+00   -6.753E+00   -6.743E+00   -6.732E+00   -6.721E+00   -6.711E+00   -6.700E+00   -6.689E+00
    -6.679E+00   -6.668E+00   -6.657E+00   -6.647E+00   -6.636E+00   -6.625E+00   -6.615E+00   -6.604E+00   -6.593E+00   -6.583E+00
    -6.572E+00   -6.562E+00   -6.551E+00   -6.540E+00   -6.530E+00   -6.519E+00   -6.508E+00   -6.498E+00   -6.487E+00   -6.476E+00
    -6.466E+00   -6.455E+00   -6.444E+00   -6.434E+00   -6.423E+00   -6.412E+00   -6.402E+00   -6.391E+00   -6.380E+00   -6.370E+00
    -6.359E+00   -6.348E+00   -6.338E+00   -6.327E+00   -6.316E+00   -6.306E+00   -6.295E+00   -6.284E+00   -6.274E+00   -6.263E+00
    -6.252E+00   -6.242E+00   -6.231E+00   -6.220E+00   -6.210E+00   -6.199E+00   -6.188E+00   -6.178E+00   -6.167E+00   -6.156E+00
    -6.146E+00   -6.135E+00   -6.124E+00   -6.114E+00   -6.103E+00   -6.092E+00   -6.082E+00   -6.071E+00   -6.060E+00   -6.050E+00
    -6.039E+00   -6.028E+00   -6.018E+00   -6.007E+00   -5.996E+00   -5.986E+00   -5.975E+00   -5.964E+00   -5.954E+00   -5.943E+00
    -5.932E+00   -5.922E+00   -5.911E+00   -5.900E+00   -5.890E+00   -5.879E+00   -5.868E+00   -5.858E+00   -5.847E+00   -5.836E+00
    -5.826E+00   -5.815E+00   -5.804E+00   -5.793E+00   -5.783E+00   -5.772E+00   -5.761E+00   -5.751E+00   -5.740E+00   -5.729E+00
    -5.719E+00   -5.708E+00   -5.697E+00   -5.687E+00   -5.676E+00   -5.665E+00   -5.655E+00   -5.644E+00   -5.633E+00   -5.622E+00
    -5.612E+00   -5.601E+00   -5.590E+00   -5.580E+00   -5.569E+00   -5.558E+00   -5.548E+00   -5.537E+00   -5.526E+00   -5.516E+00
    -5.505E+00   -5.494E+00   -5.483E+00   -5.473E+00   -5.462E+00   -5.451E+00   -5.441E+00   -5.430E+00   -5.419E+00   -5.409E+00
    -5.398E+00   -5.387E+00   -5.377E+00   -5.366E+00   -5.355E+00   -5.344E+00   -5.334E+00   -5.323E+00   -5.312E+00   -5.302E+00
    -5.291E+00   -5.280E+00   -5.270E+00   -5.259E+00   -5.248E+00   -5.237E+00   -5.227E+00   -5.216E+00   -5.205E+00   -5.195E+00
    -5.184E+00   -5.173E+00   -5.163E+00   -5.152E+00   -5.141E+00   -5.130E+00   -5.120E+00   -5.109E+00   -5.098E+00   -5.088E+00
    -5.077E+00   -5.066E+00   -5.055E+00   -5.045E+00   -5.034E+00   -5.023E+00   -5.013E+00   -5.002E+00   -4.991E+00   -4.981E+00
    -4.970E+00   -4.959E+00   -4.948E+00   -4.938E+00   -4.927E+00   -4.916E+00   -4.906E+00   -4.895E+00   -4.884E+00   -4.873E+00
    -4.863E+00   -4.852E+00   -4.841E+00   -4.831E+00   -4.820E+00   -4.809E+00   -4.799E+00   -4.788E+00   -4.777E+00   -4.766E+00
    -4.756E+00   -4.745E+00   -4.734E+00   -4.724E+00   -4.713E+00   -4.702E+00   -4.691E+00   -4.681E+00   -4.670E+00   -4.659E+00
    -4.649E+00   -4.638E+00   -4.627E+00   -4.616E+00   -4.606E+00   -4.595E+00   -4.584E+00   -4.574E+00   -4.563E+00   -4.552E+00
    -4.541E+00   -4.531E+00   -4.520E+00   -4.509E+00   -4.499E+00   -4.488E+00   -4.477E+00   -4.466E+00   -4.456E+00   -4.445E+00
    -4.434E+00   -4.424E+00   -4.413E+00   -4.402E+00   -4.391E+00   -4.381E+00   -4.370E+00   -4.359E+00   -4.349E+00   -4.338E+00
    -4.327E+00   -4.316E+00   -4.306E+00   -4.295E+00   -4.284E+00   -4.274E+00   -4.263E+00   -4.252E+00
 Asp      Conc. = 6.51E+01
