 LCModel (Version 6.3-1L) Copyright: S.W. Provencher.          Ref.: Magn. Reson. Med. 30:672-679 (1993).                
 Slice#1 Row#11 Col#6  PD_24_press_1_raw_act
 36 lines in following concentration table = NCONC+1
    Conc.  %SD /Cr+PCr  Metabolite                                         
 6.85E-02 999% 6.1E-05 Ala                                                 
    0.000 999%   0.000 Asp                                                 
    0.000 999%   0.000 Cr                                                  
 1.13E+03   5%   1.000 PCr                                                 
   47.633 277% 4.2E-02 GABA                                                
  101.966 124% 9.0E-02 Glc                                                 
  688.166  38%   0.609 Gln                                                 
  997.235  30%   0.882 Glu                                                 
  431.279   5%   0.382 GPC                                                 
    0.000 999%   0.000 PCh                                                 
  323.742  23%   0.286 GSH                                                 
  960.381  25%   0.850 Ins                                                 
  114.040 123%   0.101 Lac                                                 
 2.12E+03   6%   1.877 NAA                                                 
   24.864 608% 2.2E-02 NAAG                                                
  111.305  23% 9.8E-02 Scyllo                                              
  374.926  47%   0.332 Tau                                                 
  319.570  30%   0.283 -CrCH2                                              
  431.279   5%   0.382 GPC+PCh                                             
 2.15E+03   4%   1.899 NAA+NAAG                                            
 1.13E+03   5%   1.000 Cr+PCr                                              
 1.69E+03  27%   1.491 Glu+Gln                                             
 1.19E+03  38%   1.056 Lip13a                                              
    0.000 999%   0.000 Lip13b                                              
  170.743 122%   0.151 Lip09                                               
 1.32E+03  18%   1.164 MM09                                                
  200.544  69%   0.177 Lip20                                               
 2.62E+03  13%   2.323 MM20                                                
  387.463  44%   0.343 MM12                                                
 1.85E+03  20%   1.637 MM14                                                
  935.460  23%   0.828 MM17                                                
 1.19E+03  38%   1.056 Lip13a+Lip13b                                       
 3.43E+03   9%   3.036 MM14+Lip13a+Lip13b+MM12                             
 1.49E+03  10%   1.315 MM09+Lip09                                          
 2.83E+03  11%   2.500 MM20+Lip20                                          
   6 lines in following misc. output table
  FWHM = 0.061 ppm    S/N =  11                                            
  Data shift = 0.000 ppm                                                   
  Ph: -45 deg      -7.0 deg/ppm                                            
  alphaB,S = 8.5E+01,   2.0E+02                                            
   14 spline knots.   Ns = 8(1)                                            
   2 inflections.     1 extrema                                            
  498 points on ppm-axis = NY
      4.000000     3.992357     3.984714     3.977070     3.969427     3.961784     3.954141     3.946497     3.938854     3.931211
      3.923568     3.915925     3.908281     3.900638     3.892995     3.885352     3.877708     3.870065     3.862422     3.854779
      3.847136     3.839492     3.831849     3.824206     3.816563     3.808919     3.801276     3.793633     3.785990     3.778347
      3.770703     3.763060     3.755417     3.747774     3.740130     3.732487     3.724844     3.717201     3.709558     3.701914
      3.694271     3.686628     3.678985     3.671341     3.663698     3.656055     3.648412     3.640769     3.633125     3.625482
      3.617839     3.610196     3.602552     3.594909     3.587266     3.579623     3.571980     3.564336     3.556693     3.549050
      3.541407     3.533763     3.526120     3.518477     3.510834     3.503191     3.495547     3.487904     3.480261     3.472618
      3.464974     3.457331     3.449688     3.442045     3.434402     3.426758     3.419115     3.411472     3.403829     3.396185
      3.388542     3.380899     3.373256     3.365613     3.357969     3.350326     3.342683     3.335040     3.327396     3.319753
      3.312110     3.304467     3.296824     3.289180     3.281537     3.273894     3.266251     3.258607     3.250964     3.243321
      3.235678     3.228034     3.220391     3.212748     3.205105     3.197462     3.189818     3.182175     3.174532     3.166889
      3.159245     3.151602     3.143959     3.136316     3.128673     3.121029     3.113386     3.105743     3.098100     3.090456
      3.082813     3.075170     3.067527     3.059884     3.052240     3.044597     3.036954     3.029311     3.021667     3.014024
      3.006381     2.998738     2.991095     2.983451     2.975808     2.968165     2.960522     2.952878     2.945235     2.937592
      2.929949     2.922306     2.914662     2.907019     2.899376     2.891733     2.884089     2.876446     2.868803     2.861160
      2.853517     2.845873     2.838230     2.830587     2.822944     2.815300     2.807657     2.800014     2.792371     2.784728
      2.777084     2.769441     2.761798     2.754155     2.746511     2.738868     2.731225     2.723582     2.715939     2.708295
      2.700652     2.693009     2.685366     2.677722     2.670079     2.662436     2.654793     2.647150     2.639506     2.631863
      2.624220     2.616577     2.608933     2.601290     2.593647     2.586004     2.578361     2.570717     2.563074     2.555431
      2.547788     2.540144     2.532501     2.524858     2.517215     2.509572     2.501928     2.494285     2.486642     2.478999
      2.471355     2.463712     2.456069     2.448426     2.440783     2.433139     2.425496     2.417853     2.410210     2.402566
      2.394923     2.387280     2.379637     2.371994     2.364350     2.356707     2.349064     2.341421     2.333777     2.326134
      2.318491     2.310848     2.303205     2.295561     2.287918     2.280275     2.272632     2.264988     2.257345     2.249702
      2.242059     2.234416     2.226772     2.219129     2.211486     2.203843     2.196199     2.188556     2.180913     2.173270
      2.165627     2.157983     2.150340     2.142697     2.135054     2.127410     2.119767     2.112124     2.104481     2.096838
      2.089194     2.081551     2.073908     2.066265     2.058621     2.050978     2.043335     2.035692     2.028049     2.020405
      2.012762     2.005119     1.997476     1.989833     1.982190     1.974546     1.966903     1.959260     1.951617     1.943974
      1.936331     1.928688     1.921045     1.913402     1.905759     1.898115     1.890472     1.882829     1.875186     1.867543
      1.859900     1.852257     1.844614     1.836971     1.829327     1.821684     1.814041     1.806398     1.798755     1.791112
      1.783469     1.775826     1.768183     1.760540     1.752896     1.745253     1.737610     1.729967     1.722324     1.714681
      1.707038     1.699395     1.691752     1.684108     1.676465     1.668822     1.661179     1.653536     1.645893     1.638250
      1.630607     1.622964     1.615321     1.607677     1.600034     1.592391     1.584748     1.577105     1.569462     1.561819
      1.554176     1.546533     1.538890     1.531246     1.523603     1.515960     1.508317     1.500674     1.493031     1.485388
      1.477745     1.470102     1.462458     1.454815     1.447172     1.439529     1.431886     1.424243     1.416600     1.408957
      1.401314     1.393671     1.386027     1.378384     1.370741     1.363098     1.355455     1.347812     1.340169     1.332526
      1.324883     1.317240     1.309596     1.301953     1.294310     1.286667     1.279024     1.271381     1.263738     1.256095
      1.248452     1.240808     1.233165     1.225522     1.217879     1.210236     1.202593     1.194950     1.187307     1.179664
      1.172021     1.164377     1.156734     1.149091     1.141448     1.133805     1.126162     1.118519     1.110876     1.103233
      1.095590     1.087946     1.080303     1.072660     1.065017     1.057374     1.049731     1.042088     1.034445     1.026802
      1.019158     1.011515     1.003872     0.996229     0.988586     0.980943     0.973300     0.965657     0.958014     0.950371
      0.942727     0.935084     0.927441     0.919798     0.912155     0.904512     0.896869     0.889226     0.881583     0.873940
      0.866296     0.858653     0.851010     0.843367     0.835724     0.828081     0.820438     0.812795     0.805152     0.797508
      0.789865     0.782222     0.774579     0.766936     0.759293     0.751650     0.744007     0.736364     0.728721     0.721077
      0.713434     0.705791     0.698148     0.690505     0.682862     0.675219     0.667576     0.659933     0.652290     0.644646
      0.637003     0.629360     0.621717     0.614074     0.606431     0.598788     0.591145     0.583502     0.575858     0.568215
      0.560572     0.552929     0.545286     0.537643     0.530000     0.522357     0.514714     0.507071     0.499427     0.491784
      0.484141     0.476498     0.468855     0.461212     0.453569     0.445925     0.438282     0.430639     0.422996     0.415353
      0.407710     0.400067     0.392424     0.384780     0.377137     0.369494     0.361851     0.354208     0.346565     0.338922
      0.331278     0.323635     0.315992     0.308349     0.300706     0.293063     0.285420     0.277777     0.270133     0.262490
      0.254847     0.247204     0.239561     0.231918     0.224275     0.216631     0.208988     0.201345
 NY phased data points follow
  -1.26190E+01 -6.13649E+00 -1.21088E+01 -1.34205E+01 -6.89527E+00 -4.71364E+00 -2.48264E+00  3.72887E+00  3.15462E+00  7.65853E+00
   4.42978E+00  7.81180E+00  3.46225E+00  5.07449E+00 -1.99354E+00 -1.42121E+00 -5.88888E+00 -8.42962E+00 -9.23214E+00 -1.24308E+01
  -1.12945E+01 -9.65634E+00 -1.43651E+01 -6.85432E+00 -3.53775E+00 -7.03056E+00 -8.86214E+00 -8.31079E+00 -9.79461E-01  2.81205E+00
  -3.48170E+00 -5.19163E+00 -4.49615E+00 -5.33622E+00 -3.96849E+00 -6.54809E+00 -7.67488E+00 -2.83637E+00 -8.92413E+00 -8.22920E+00
  -7.56157E+00 -4.99134E+00 -6.21028E+00 -1.92401E+00  1.06147E-01  1.65553E+00 -7.08566E+00 -6.46233E-01 -3.82584E+00 -4.05854E+00
  -9.45861E+00 -1.97040E+00 -5.83189E+00 -5.60124E+00 -3.56487E+00 -1.38812E+00 -9.54271E+00 -6.51078E+00 -7.81219E+00 -9.98019E+00
  -5.51768E+00 -4.02045E+00 -1.18637E+01 -8.67274E+00 -1.02462E+01 -8.50673E+00 -8.49385E+00 -5.87793E+00 -5.64342E+00 -8.39282E+00
  -7.95053E+00 -7.72846E+00 -7.18589E+00 -7.59441E+00 -6.60794E+00 -5.66329E+00 -7.33235E+00 -3.90666E+00 -8.47670E+00 -8.48041E+00
  -1.24100E+01 -9.52397E+00 -7.29665E+00 -2.23798E+00 -6.87308E+00 -8.32847E+00  5.87267E-01 -9.51825E+00 -3.52337E+00 -3.72211E+00
  -7.33376E+00 -4.72758E+00 -7.62228E+00 -2.73250E+00 -5.14131E-01 -6.28608E-01 -6.31056E-01 -1.80404E+00  1.18925E+01  1.68067E+01
   1.73273E+01  2.75330E+01  2.19155E+01  2.42795E+01  1.87416E+01  2.28277E+01  1.74995E+01  9.55102E+00  3.95860E+00 -1.76669E+00
  -9.03257E+00 -6.79705E+00 -3.15456E+00 -3.87908E+00 -8.38764E+00 -7.83283E+00 -7.55577E+00 -5.79157E+00 -3.64287E+00 -4.11814E+00
  -5.69217E+00 -4.35283E+00 -2.09019E+00  1.04112E+01  1.46971E+01  2.31589E+01  2.87614E+01  2.55234E+01  1.58338E+01  1.87410E+01
   1.95654E+01  1.67367E+01  1.12309E+01  5.49822E+00  5.06444E+00 -2.53447E+00 -6.39434E+00 -4.32815E+00 -5.09504E+00 -6.23335E+00
  -1.07235E+01 -7.49441E+00 -6.89923E+00 -3.05113E+00 -6.60876E+00 -4.83153E+00 -6.05204E+00 -9.19828E+00 -6.08463E+00 -4.59079E+00
  -1.13410E+01 -5.40842E+00 -5.56136E+00 -7.91148E+00 -4.23462E+00 -7.14448E+00 -7.88493E+00 -2.79108E+00 -7.72358E+00 -4.13451E+00
  -3.36957E+00 -8.52343E+00 -9.30596E+00 -7.90555E+00 -8.06898E+00 -9.22045E+00 -7.19245E+00 -9.70913E+00 -1.35003E+01 -1.16410E+01
  -1.62080E+01 -1.62287E+01 -1.37764E+01 -1.62175E+01 -1.58391E+01 -1.56467E+01 -1.64130E+01 -1.86635E+01 -2.00146E+01 -1.58534E+01
  -8.57531E+00 -1.32931E+01 -1.53186E+01 -1.07281E+01 -1.65240E+01 -1.45862E+01 -1.01654E+01 -7.73252E+00 -1.49284E+01 -6.56387E+00
  -1.38979E+01 -9.98368E+00 -1.16333E+01 -9.24473E+00 -1.28307E+01 -9.08599E+00 -8.34378E+00 -1.13242E+01 -1.25599E+01 -6.51359E+00
  -1.25948E+01 -7.57360E+00 -7.25535E+00 -8.44930E+00 -4.25316E-01 -5.51135E+00 -8.88266E+00 -3.34943E+00 -1.10609E+01 -3.66906E+00
  -8.21342E+00 -7.02822E+00 -8.28999E+00 -6.62105E+00 -1.08655E+00  3.82295E-02  2.78978E-01  2.66802E+00  3.37392E+00 -6.71628E+00
  -9.16474E+00 -6.96684E+00 -6.68551E+00 -9.09922E+00 -5.34127E+00  4.37665E+00 -2.92082E+00 -2.22185E+00 -3.03432E-01 -3.26322E+00
  -6.41652E-02  2.22784E+00 -4.53305E+00  2.42303E+00 -2.16347E+00 -2.60900E+00  1.21484E+00  3.17768E+00 -3.53479E+00  9.19972E-01
  -2.08766E+00 -4.11100E-01 -5.71722E+00  2.48412E+00  4.70234E+00  1.74707E+00 -1.01377E-01  4.28082E+00  5.28735E+00  3.58494E+00
   7.81791E+00  6.34358E+00  6.50943E+00  1.62657E+01  2.02002E+01  2.49974E+01  3.39531E+01  4.40728E+01  5.82736E+01  6.90669E+01
   6.27155E+01  5.78473E+01  5.13773E+01  4.86700E+01  3.39627E+01  2.83623E+01  1.71687E+01  7.91419E+00  1.02695E+01  9.48601E-01
  -2.57919E+00  3.12490E+00 -2.26816E+00  1.57338E+00  2.33291E-01 -1.89578E+00 -1.13951E+00 -1.49722E+00  1.23698E-01 -8.97530E-01
  -2.94193E+00 -3.66670E+00 -5.14059E+00 -3.36242E+00 -6.87726E+00 -3.06905E+00 -1.52254E+00 -5.15937E-01 -7.82593E-02 -4.37790E+00
  -5.11809E+00 -5.85166E+00 -2.49670E+00 -3.82149E-01  1.23289E-01 -8.33755E+00 -1.80013E+00 -4.19426E+00 -2.83359E+00 -1.65391E-01
   3.35498E-01 -5.88565E+00  3.75432E+00  1.37684E-01  9.38671E-01 -3.80007E+00  2.81541E+00  6.19678E+00  1.18391E+00  3.13762E-01
   6.88556E-01  1.66618E+00 -3.02290E-01  5.67535E+00  4.23588E+00  4.59556E+00  4.75867E+00  3.61954E+00 -1.21044E-01  1.01003E+00
   4.30228E+00  1.09553E+00  1.39829E+00  2.48633E+00  7.47660E-01  3.71172E+00  7.86184E-01  2.86129E+00  4.97802E+00  9.56623E+00
   1.30285E+00  1.54437E+00  3.09371E+00  7.26878E+00  4.13423E+00  7.95349E+00  1.23740E+01  6.12805E+00  4.27757E+00  9.13425E+00
   4.53188E+00  8.17596E+00  7.31622E+00  3.56597E+00  7.61729E+00  1.34394E+01  7.07882E+00  1.03188E+01  3.45315E+00  8.58339E+00
   6.63094E+00  6.44976E+00  3.04946E+00  6.66129E+00  4.77917E+00  2.54498E+00  4.86632E+00  4.97158E+00  6.48605E+00  6.57398E+00
   5.54101E+00  7.35562E+00 -7.45423E-01 -1.23776E-02  4.28848E+00  1.72595E+00  2.44961E+00  6.15902E+00  5.51349E-01  1.65141E+00
   1.52487E+00  8.72372E-01 -5.00663E+00  2.36698E+00 -6.02888E+00  1.39144E+00  2.88265E+00 -2.41685E+00 -8.88174E-01 -3.34136E-01
  -2.46903E+00  4.31730E-01 -1.34826E+00  1.11356E+00 -1.20875E-01  1.07214E+00 -2.94770E+00 -1.22813E+00  5.83391E-01 -2.28491E+00
  -4.98857E+00  3.41518E+00 -4.10235E-02 -2.62573E-01  3.28944E-01 -1.65156E-01  2.29779E+00  6.60229E+00  1.97042E+00  1.70193E+00
   3.64700E+00  6.46347E+00  1.70482E+00  8.87817E+00  3.64681E+00  8.83774E+00  1.10915E+01  7.21134E+00  5.55834E+00  6.02919E+00
   6.55317E+00  6.31741E+00  8.24865E+00  4.60272E+00  1.84152E+00  6.35083E+00  2.53843E+00  2.29807E+00  4.33712E+00  1.76906E-01
   3.15268E-01  3.99355E+00  4.58684E+00 -1.59489E+00 -1.52646E+00 -5.34050E+00 -2.10405E+00 -4.70354E-01 -1.95388E-01 -6.91168E-01
  -1.97041E+00  3.37908E+00  3.00281E+00 -4.05744E+00 -3.94255E+00 -6.62267E-01 -9.57146E-02 -2.25882E+00 -6.77004E+00 -5.01742E+00
  -1.18783E+00 -2.38835E+00 -2.10196E+00 -1.59916E+00 -5.61829E+00  2.28783E+00 -4.12022E+00 -2.61262E+00 -4.65553E+00 -3.87920E+00
  -6.93868E+00 -6.36433E+00 -6.70253E+00 -5.14972E+00 -4.93755E+00 -4.23299E+00 -3.75096E+00 -5.11300E+00 -3.72128E+00 -1.45235E-01
  -5.54600E+00 -5.74841E+00  6.20669E-01 -5.79348E+00 -2.33663E-01 -5.86473E+00  2.02065E+00  4.67102E-01 -1.02089E+00  8.64203E-01
  -1.69636E+00 -1.92500E+00 -2.43325E+00 -2.28702E+00 -4.66440E+00  1.43412E+00 -3.93262E+00 -2.81320E+00 -5.10741E+00 -2.84353E+00
   8.84479E-01 -2.66252E+00 -7.27423E+00 -1.93757E+00 -1.62859E+00 -4.42533E+00 -1.82946E+00 -1.53439E+00 -7.66690E+00 -3.60779E+00
  -5.32712E+00 -4.96304E+00 -3.38574E+00 -1.31223E+00 -7.26090E+00 -2.90313E+00 -7.46896E+00  1.58059E+00
 NY points of the fit to the data follow
  -1.04695E+01 -1.04755E+01 -9.73673E+00 -8.39746E+00 -6.48794E+00 -3.91992E+00 -8.47093E-01  2.23774E+00  4.65782E+00  5.87360E+00
   5.88525E+00  5.11539E+00  3.87971E+00  2.21945E+00  1.80905E-01 -2.02038E+00 -4.09681E+00 -5.79733E+00 -7.02292E+00 -7.77227E+00
  -8.20650E+00 -8.53929E+00 -8.70134E+00 -8.70183E+00 -8.46803E+00 -7.85914E+00 -6.81200E+00 -5.40395E+00 -3.90360E+00 -2.63348E+00
  -1.80929E+00 -1.48900E+00 -1.66110E+00 -2.29432E+00 -3.28581E+00 -4.47170E+00 -5.70688E+00 -6.81713E+00 -7.60797E+00 -7.91593E+00
  -7.71658E+00 -7.11374E+00 -6.17958E+00 -5.00563E+00 -3.78909E+00 -2.82654E+00 -2.36730E+00 -2.46146E+00 -2.98568E+00 -3.77996E+00
  -4.72041E+00 -5.69279E+00 -6.59864E+00 -7.33999E+00 -7.83423E+00 -8.03066E+00 -7.94062E+00 -7.67159E+00 -7.39201E+00 -7.23478E+00
  -7.25303E+00 -7.38761E+00 -7.57583E+00 -7.76217E+00 -7.90263E+00 -7.99587E+00 -8.04713E+00 -8.01033E+00 -7.83686E+00 -7.55646E+00
  -7.22358E+00 -6.89224E+00 -6.62716E+00 -6.48256E+00 -6.49604E+00 -6.69280E+00 -7.02986E+00 -7.39680E+00 -7.65916E+00 -7.68108E+00
  -7.51728E+00 -7.19364E+00 -6.68571E+00 -6.03780E+00 -5.38732E+00 -4.93101E+00 -4.82625E+00 -5.05596E+00 -5.46546E+00 -5.98116E+00
  -6.60107E+00 -7.27301E+00 -7.89193E+00 -8.20339E+00 -7.47997E+00 -5.30182E+00 -1.92946E+00  2.72896E+00  8.63895E+00  1.51385E+01
   2.09741E+01  2.47486E+01  2.57766E+01  2.45280E+01  2.19010E+01  1.83355E+01  1.39201E+01  8.94891E+00  4.01916E+00 -2.69091E-01
  -3.54883E+00 -5.69769E+00 -6.80578E+00 -7.27882E+00 -7.54591E+00 -7.72695E+00 -7.84463E+00 -7.88096E+00 -7.71448E+00 -6.76370E+00
  -4.60709E+00 -1.45523E+00  2.83390E+00  8.33088E+00  1.44596E+01  2.00429E+01  2.37739E+01  2.49732E+01  2.40511E+01  2.18243E+01
   1.86453E+01  1.45332E+01  9.72915E+00  4.82275E+00  4.86937E-01 -2.82025E+00 -4.92532E+00 -5.90308E+00 -6.16376E+00 -6.17665E+00
  -6.10924E+00 -6.02419E+00 -5.95600E+00 -5.92865E+00 -5.97222E+00 -6.10979E+00 -6.33046E+00 -6.60316E+00 -6.88676E+00 -7.14338E+00
  -7.35244E+00 -7.50575E+00 -7.61699E+00 -7.74070E+00 -7.88978E+00 -8.06709E+00 -8.28542E+00 -8.52293E+00 -8.76573E+00 -8.96057E+00
  -9.03265E+00 -8.98591E+00 -8.91864E+00 -8.93843E+00 -9.08169E+00 -9.30437E+00 -9.54639E+00 -9.80548E+00 -1.01401E+01 -1.05672E+01
  -1.10302E+01 -1.14973E+01 -1.19230E+01 -1.22657E+01 -1.24589E+01 -1.24735E+01 -1.23903E+01 -1.23240E+01 -1.23188E+01 -1.23455E+01
  -1.23140E+01 -1.21969E+01 -1.20478E+01 -1.18633E+01 -1.15440E+01 -1.09894E+01 -1.01903E+01 -9.23186E+00 -8.28033E+00 -7.48874E+00
  -6.95779E+00 -6.68588E+00 -6.63095E+00 -6.74046E+00 -6.95253E+00 -7.16573E+00 -7.23084E+00 -7.02308E+00 -6.48787E+00 -5.69397E+00
  -4.79629E+00 -3.98977E+00 -3.53515E+00 -3.55335E+00 -4.08033E+00 -5.11746E+00 -6.47925E+00 -7.85974E+00 -8.91380E+00 -9.40454E+00
  -9.27290E+00 -8.53842E+00 -7.30674E+00 -5.81704E+00 -4.46847E+00 -3.64148E+00 -3.45467E+00 -3.81300E+00 -4.58517E+00 -5.58669E+00
  -6.54457E+00 -7.13361E+00 -7.17796E+00 -6.74337E+00 -5.99554E+00 -5.06150E+00 -4.05130E+00 -3.12931E+00 -2.44025E+00 -1.96395E+00
  -1.63097E+00 -1.39908E+00 -1.20975E+00 -9.66274E-01 -5.96386E-01 -1.45463E-01  2.96120E-01  6.26234E-01  7.82450E-01  7.73011E-01
   6.74402E-01  5.84223E-01  6.06903E-01  7.94661E-01  1.10907E+00  1.51045E+00  2.00746E+00  2.62586E+00  3.35073E+00  4.14544E+00
   5.00579E+00  6.14470E+00  8.66804E+00  1.31684E+01  1.92265E+01  2.71504E+01  3.70269E+01  4.76825E+01  5.68311E+01  6.20957E+01
   6.24906E+01  5.90464E+01  5.34002E+01  4.62797E+01  3.78140E+01  2.85593E+01  1.95734E+01  1.18641E+01  6.03148E+00  2.26037E+00
   3.66988E-01 -4.13684E-01 -8.51411E-01 -1.16663E+00 -1.42663E+00 -1.66528E+00 -1.90033E+00 -2.13696E+00 -2.37842E+00 -2.62095E+00
  -2.85395E+00 -3.06508E+00 -3.24481E+00 -3.38566E+00 -3.48395E+00 -3.54139E+00 -3.56237E+00 -3.55079E+00 -3.50973E+00 -3.44138E+00
  -3.34674E+00 -3.22516E+00 -3.07433E+00 -2.89276E+00 -2.68001E+00 -2.43631E+00 -2.16299E+00 -1.86284E+00 -1.53964E+00 -1.19810E+00
  -8.44004E-01 -4.84160E-01 -1.25927E-01  2.22989E-01  5.54840E-01  8.62526E-01  1.13987E+00  1.38192E+00  1.58519E+00  1.74795E+00
   1.87039E+00  1.95471E+00  2.00508E+00  2.02738E+00  2.02876E+00  2.01732E+00  2.00180E+00  1.99117E+00  1.99419E+00  2.01885E+00
   2.07190E+00  2.15861E+00  2.28256E+00  2.44562E+00  2.64779E+00  2.88725E+00  3.16047E+00  3.46251E+00  3.78737E+00  4.12823E+00
   4.47780E+00  4.82861E+00  5.17344E+00  5.50569E+00  5.81984E+00  6.11189E+00  6.37977E+00  6.62445E+00  6.85286E+00  7.08248E+00
   7.30592E+00  7.49360E+00  7.63945E+00  7.72310E+00  7.69823E+00  7.51730E+00  7.16617E+00  6.71296E+00  6.25422E+00  5.84608E+00
   5.52231E+00  5.31245E+00  5.23578E+00  5.27511E+00  5.36746E+00  5.44067E+00  5.45813E+00  5.41110E+00  5.28102E+00  5.04886E+00
   4.72085E+00  4.31958E+00  3.87565E+00  3.41841E+00  2.97229E+00  2.55506E+00  2.16560E+00  1.79455E+00  1.43942E+00  1.10078E+00
   7.80143E-01  4.79320E-01  2.00117E-01 -5.57403E-02 -2.86693E-01 -4.91384E-01 -6.68680E-01 -8.17608E-01 -9.37291E-01 -1.02686E+00
  -1.08546E+00 -1.11220E+00 -1.10617E+00 -1.06635E+00 -9.91625E-01 -8.80732E-01 -7.32421E-01 -5.45509E-01 -3.18995E-01 -5.21500E-02
   2.55318E-01  6.03075E-01  9.89900E-01  1.41351E+00  1.87035E+00  2.35555E+00  2.86274E+00  3.38408E+00  3.91024E+00  4.43061E+00
   4.93358E+00  5.40694E+00  5.83831E+00  6.21565E+00  6.52775E+00  6.76483E+00  6.91908E+00  6.98507E+00  6.96000E+00  6.84388E+00
   6.63953E+00  6.35243E+00  5.99051E+00  5.56365E+00  5.08320E+00  4.56140E+00  4.01077E+00  3.44370E+00  2.87188E+00  2.30592E+00
   1.75504E+00  1.22684E+00  7.27278E-01  2.60695E-01 -1.70106E-01 -5.63722E-01 -9.19985E-01 -1.23971E+00 -1.52448E+00 -1.77638E+00
  -1.99786E+00 -2.19159E+00 -2.36031E+00 -2.50671E+00 -2.63335E+00 -2.74258E+00 -2.83657E+00 -2.91727E+00 -2.98644E+00 -3.04562E+00
  -3.09612E+00 -3.13906E+00 -3.17543E+00 -3.20609E+00 -3.23179E+00 -3.25315E+00 -3.27069E+00 -3.28484E+00 -3.29600E+00 -3.30452E+00
  -3.31071E+00 -3.31481E+00 -3.31702E+00 -3.31752E+00 -3.31648E+00 -3.31406E+00 -3.31042E+00 -3.30563E+00 -3.29980E+00 -3.29298E+00
  -3.28531E+00 -3.27685E+00 -3.26766E+00 -3.25778E+00 -3.24726E+00 -3.23614E+00 -3.22449E+00 -3.21236E+00 -3.19976E+00 -3.18671E+00
  -3.17323E+00 -3.15935E+00 -3.14514E+00 -3.13059E+00 -3.11571E+00 -3.10050E+00 -3.08499E+00 -3.06921E+00 -3.05318E+00 -3.03690E+00
  -3.02036E+00 -3.00357E+00 -2.98655E+00 -2.96931E+00 -2.95188E+00 -2.93422E+00 -2.91634E+00 -2.89823E+00 -2.87991E+00 -2.86140E+00
  -2.84268E+00 -2.82373E+00 -2.80454E+00 -2.78511E+00 -2.76544E+00 -2.74552E+00 -2.72533E+00 -2.70482E+00
 NY background values follow
    -1.234E+01   -1.232E+01   -1.230E+01   -1.228E+01   -1.226E+01   -1.224E+01   -1.222E+01   -1.221E+01   -1.219E+01   -1.217E+01
    -1.215E+01   -1.213E+01   -1.211E+01   -1.209E+01   -1.207E+01   -1.205E+01   -1.203E+01   -1.201E+01   -1.199E+01   -1.197E+01
    -1.196E+01   -1.194E+01   -1.192E+01   -1.190E+01   -1.188E+01   -1.186E+01   -1.184E+01   -1.182E+01   -1.180E+01   -1.178E+01
    -1.176E+01   -1.174E+01   -1.172E+01   -1.170E+01   -1.169E+01   -1.167E+01   -1.165E+01   -1.163E+01   -1.161E+01   -1.159E+01
    -1.157E+01   -1.155E+01   -1.153E+01   -1.151E+01   -1.149E+01   -1.147E+01   -1.145E+01   -1.143E+01   -1.141E+01   -1.139E+01
    -1.138E+01   -1.136E+01   -1.134E+01   -1.132E+01   -1.130E+01   -1.128E+01   -1.126E+01   -1.124E+01   -1.122E+01   -1.120E+01
    -1.118E+01   -1.116E+01   -1.114E+01   -1.112E+01   -1.110E+01   -1.108E+01   -1.106E+01   -1.104E+01   -1.103E+01   -1.101E+01
    -1.099E+01   -1.097E+01   -1.095E+01   -1.093E+01   -1.091E+01   -1.089E+01   -1.087E+01   -1.085E+01   -1.083E+01   -1.081E+01
    -1.079E+01   -1.077E+01   -1.075E+01   -1.073E+01   -1.071E+01   -1.069E+01   -1.067E+01   -1.065E+01   -1.063E+01   -1.061E+01
    -1.059E+01   -1.058E+01   -1.056E+01   -1.054E+01   -1.052E+01   -1.050E+01   -1.048E+01   -1.046E+01   -1.044E+01   -1.042E+01
    -1.040E+01   -1.038E+01   -1.036E+01   -1.034E+01   -1.032E+01   -1.030E+01   -1.028E+01   -1.026E+01   -1.024E+01   -1.022E+01
    -1.020E+01   -1.018E+01   -1.016E+01   -1.014E+01   -1.012E+01   -1.010E+01   -1.008E+01   -1.006E+01   -1.004E+01   -1.002E+01
    -1.001E+01   -9.985E+00   -9.966E+00   -9.946E+00   -9.926E+00   -9.906E+00   -9.887E+00   -9.867E+00   -9.847E+00   -9.827E+00
    -9.808E+00   -9.788E+00   -9.768E+00   -9.748E+00   -9.729E+00   -9.709E+00   -9.689E+00   -9.669E+00   -9.650E+00   -9.630E+00
    -9.610E+00   -9.590E+00   -9.570E+00   -9.551E+00   -9.531E+00   -9.511E+00   -9.491E+00   -9.471E+00   -9.451E+00   -9.432E+00
    -9.412E+00   -9.392E+00   -9.372E+00   -9.352E+00   -9.332E+00   -9.313E+00   -9.293E+00   -9.273E+00   -9.253E+00   -9.233E+00
    -9.213E+00   -9.193E+00   -9.174E+00   -9.154E+00   -9.134E+00   -9.114E+00   -9.094E+00   -9.074E+00   -9.054E+00   -9.034E+00
    -9.014E+00   -8.995E+00   -8.975E+00   -8.955E+00   -8.935E+00   -8.915E+00   -8.895E+00   -8.875E+00   -8.855E+00   -8.835E+00
    -8.815E+00   -8.795E+00   -8.776E+00   -8.756E+00   -8.736E+00   -8.716E+00   -8.696E+00   -8.676E+00   -8.656E+00   -8.636E+00
    -8.616E+00   -8.596E+00   -8.576E+00   -8.556E+00   -8.536E+00   -8.516E+00   -8.496E+00   -8.476E+00   -8.456E+00   -8.436E+00
    -8.416E+00   -8.396E+00   -8.376E+00   -8.356E+00   -8.336E+00   -8.316E+00   -8.296E+00   -8.276E+00   -8.256E+00   -8.236E+00
    -8.216E+00   -8.196E+00   -8.176E+00   -8.156E+00   -8.136E+00   -8.116E+00   -8.096E+00   -8.076E+00   -8.056E+00   -8.036E+00
    -8.016E+00   -7.996E+00   -7.976E+00   -7.956E+00   -7.936E+00   -7.916E+00   -7.896E+00   -7.876E+00   -7.856E+00   -7.836E+00
    -7.816E+00   -7.796E+00   -7.775E+00   -7.755E+00   -7.735E+00   -7.715E+00   -7.695E+00   -7.675E+00   -7.655E+00   -7.635E+00
    -7.615E+00   -7.595E+00   -7.575E+00   -7.555E+00   -7.535E+00   -7.514E+00   -7.494E+00   -7.474E+00   -7.454E+00   -7.434E+00
    -7.414E+00   -7.394E+00   -7.374E+00   -7.354E+00   -7.334E+00   -7.313E+00   -7.293E+00   -7.273E+00   -7.253E+00   -7.233E+00
    -7.213E+00   -7.193E+00   -7.173E+00   -7.153E+00   -7.132E+00   -7.112E+00   -7.092E+00   -7.072E+00   -7.052E+00   -7.032E+00
    -7.012E+00   -6.992E+00   -6.971E+00   -6.951E+00   -6.931E+00   -6.911E+00   -6.891E+00   -6.871E+00   -6.851E+00   -6.830E+00
    -6.810E+00   -6.790E+00   -6.770E+00   -6.750E+00   -6.730E+00   -6.710E+00   -6.689E+00   -6.669E+00   -6.649E+00   -6.629E+00
    -6.609E+00   -6.589E+00   -6.568E+00   -6.548E+00   -6.528E+00   -6.508E+00   -6.488E+00   -6.468E+00   -6.447E+00   -6.427E+00
    -6.407E+00   -6.387E+00   -6.367E+00   -6.347E+00   -6.326E+00   -6.306E+00   -6.286E+00   -6.266E+00   -6.246E+00   -6.225E+00
    -6.205E+00   -6.185E+00   -6.165E+00   -6.145E+00   -6.125E+00   -6.104E+00   -6.084E+00   -6.064E+00   -6.044E+00   -6.024E+00
    -6.003E+00   -5.983E+00   -5.963E+00   -5.943E+00   -5.923E+00   -5.902E+00   -5.882E+00   -5.862E+00   -5.842E+00   -5.822E+00
    -5.801E+00   -5.781E+00   -5.761E+00   -5.741E+00   -5.721E+00   -5.700E+00   -5.680E+00   -5.660E+00   -5.640E+00   -5.620E+00
    -5.599E+00   -5.579E+00   -5.559E+00   -5.539E+00   -5.519E+00   -5.498E+00   -5.478E+00   -5.458E+00   -5.438E+00   -5.418E+00
    -5.397E+00   -5.377E+00   -5.357E+00   -5.337E+00   -5.317E+00   -5.296E+00   -5.276E+00   -5.256E+00   -5.236E+00   -5.216E+00
    -5.195E+00   -5.175E+00   -5.155E+00   -5.135E+00   -5.114E+00   -5.094E+00   -5.074E+00   -5.054E+00   -5.034E+00   -5.013E+00
    -4.993E+00   -4.973E+00   -4.953E+00   -4.933E+00   -4.912E+00   -4.892E+00   -4.872E+00   -4.852E+00   -4.832E+00   -4.811E+00
    -4.791E+00   -4.771E+00   -4.751E+00   -4.730E+00   -4.710E+00   -4.690E+00   -4.670E+00   -4.650E+00   -4.629E+00   -4.609E+00
    -4.589E+00   -4.569E+00   -4.549E+00   -4.528E+00   -4.508E+00   -4.488E+00   -4.468E+00   -4.448E+00   -4.427E+00   -4.407E+00
    -4.387E+00   -4.367E+00   -4.347E+00   -4.326E+00   -4.306E+00   -4.286E+00   -4.266E+00   -4.246E+00   -4.225E+00   -4.205E+00
    -4.185E+00   -4.165E+00   -4.145E+00   -4.124E+00   -4.104E+00   -4.084E+00   -4.064E+00   -4.044E+00   -4.023E+00   -4.003E+00
    -3.983E+00   -3.963E+00   -3.943E+00   -3.922E+00   -3.902E+00   -3.882E+00   -3.862E+00   -3.842E+00   -3.821E+00   -3.801E+00
    -3.781E+00   -3.761E+00   -3.741E+00   -3.721E+00   -3.700E+00   -3.680E+00   -3.660E+00   -3.640E+00   -3.620E+00   -3.599E+00
    -3.579E+00   -3.559E+00   -3.539E+00   -3.519E+00   -3.499E+00   -3.478E+00   -3.458E+00   -3.438E+00   -3.418E+00   -3.398E+00
    -3.378E+00   -3.357E+00   -3.337E+00   -3.317E+00   -3.297E+00   -3.277E+00   -3.257E+00   -3.236E+00   -3.216E+00   -3.196E+00
    -3.176E+00   -3.156E+00   -3.136E+00   -3.116E+00   -3.095E+00   -3.075E+00   -3.055E+00   -3.035E+00   -3.015E+00   -2.995E+00
    -2.975E+00   -2.954E+00   -2.934E+00   -2.914E+00   -2.894E+00   -2.874E+00   -2.854E+00   -2.834E+00   -2.814E+00   -2.793E+00
    -2.773E+00   -2.753E+00   -2.733E+00   -2.713E+00   -2.693E+00   -2.673E+00   -2.653E+00   -2.633E+00   -2.612E+00   -2.592E+00
    -2.572E+00   -2.552E+00   -2.532E+00   -2.512E+00   -2.492E+00   -2.472E+00   -2.452E+00   -2.432E+00
 Ala      Conc. = 6.85E-02
