 LCModel (Version 6.3-1L) Copyright: S.W. Provencher.          Ref.: Magn. Reson. Med. 30:672-679 (1993).                
 Slice#1 Row#5 Col#4  PD_24_press_1_raw_act
 36 lines in following concentration table = NCONC+1
    Conc.  %SD /Cr+PCr  Metabolite                                         
  434.049  41%   0.379 Ala                                                 
    0.000 999%   0.000 Asp                                                 
    0.000 999%   0.000 Cr                                                  
 1.14E+03   6%   1.000 PCr                                                 
  244.127  69%   0.213 GABA                                                
   28.996 543% 2.5E-02 Glc                                                 
  370.289 105%   0.324 Gln                                                 
 1.12E+03  40%   0.981 Glu                                                 
  490.167   6%   0.429 GPC                                                 
    0.000 999%   0.000 PCh                                                 
  495.007  21%   0.433 GSH                                                 
 1.45E+03  24%   1.268 Ins                                                 
  234.510  84%   0.205 Lac                                                 
 2.28E+03   9%   1.995 NAA                                                 
  185.191 108%   0.162 NAAG                                                
  129.467  25%   0.113 Scyllo                                              
    0.000 999%   0.000 Tau                                                 
    5.623 999% 4.9E-03 -CrCH2                                              
  490.167   6%   0.429 GPC+PCh                                             
 2.47E+03   3%   2.157 NAA+NAAG                                            
 1.14E+03   6%   1.000 Cr+PCr                                              
 1.49E+03  48%   1.305 Glu+Gln                                             
    0.000 999%   0.000 Lip13a                                              
  373.556  24%   0.327 Lip13b                                              
   46.327 102% 4.1E-02 Lip09                                               
  549.429  26%   0.480 MM09                                                
   70.419  45% 6.2E-02 Lip20                                               
  872.776  25%   0.763 MM20                                                
  164.450  27%   0.144 MM12                                                
  438.280  27%   0.383 MM14                                                
  201.215  33%   0.176 MM17                                                
  373.556  24%   0.327 Lip13a+Lip13b                                       
  976.286  18%   0.854 MM14+Lip13a+Lip13b+MM12                             
  595.756  23%   0.521 MM09+Lip09                                          
  943.195  23%   0.825 MM20+Lip20                                          
   6 lines in following misc. output table
  FWHM = 0.084 ppm    S/N =   9                                            
  Data shift = 0.031 ppm                                                   
  Ph: -41 deg      -8.0 deg/ppm                                            
  alphaB,S = 5.9E-01,   1.6E+02                                            
   14 spline knots.   Ns =10(1)                                            
  (16) 4 infls.   (11) 1 extrs.                                            
  498 points on ppm-axis = NY
      4.000000     3.992357     3.984714     3.977070     3.969427     3.961784     3.954141     3.946497     3.938854     3.931211
      3.923568     3.915925     3.908281     3.900638     3.892995     3.885352     3.877708     3.870065     3.862422     3.854779
      3.847136     3.839492     3.831849     3.824206     3.816563     3.808919     3.801276     3.793633     3.785990     3.778347
      3.770703     3.763060     3.755417     3.747774     3.740130     3.732487     3.724844     3.717201     3.709558     3.701914
      3.694271     3.686628     3.678985     3.671341     3.663698     3.656055     3.648412     3.640769     3.633125     3.625482
      3.617839     3.610196     3.602552     3.594909     3.587266     3.579623     3.571980     3.564336     3.556693     3.549050
      3.541407     3.533763     3.526120     3.518477     3.510834     3.503191     3.495547     3.487904     3.480261     3.472618
      3.464974     3.457331     3.449688     3.442045     3.434402     3.426758     3.419115     3.411472     3.403829     3.396185
      3.388542     3.380899     3.373256     3.365613     3.357969     3.350326     3.342683     3.335040     3.327396     3.319753
      3.312110     3.304467     3.296824     3.289180     3.281537     3.273894     3.266251     3.258607     3.250964     3.243321
      3.235678     3.228034     3.220391     3.212748     3.205105     3.197462     3.189818     3.182175     3.174532     3.166889
      3.159245     3.151602     3.143959     3.136316     3.128673     3.121029     3.113386     3.105743     3.098100     3.090456
      3.082813     3.075170     3.067527     3.059884     3.052240     3.044597     3.036954     3.029311     3.021667     3.014024
      3.006381     2.998738     2.991095     2.983451     2.975808     2.968165     2.960522     2.952878     2.945235     2.937592
      2.929949     2.922306     2.914662     2.907019     2.899376     2.891733     2.884089     2.876446     2.868803     2.861160
      2.853517     2.845873     2.838230     2.830587     2.822944     2.815300     2.807657     2.800014     2.792371     2.784728
      2.777084     2.769441     2.761798     2.754155     2.746511     2.738868     2.731225     2.723582     2.715939     2.708295
      2.700652     2.693009     2.685366     2.677722     2.670079     2.662436     2.654793     2.647150     2.639506     2.631863
      2.624220     2.616577     2.608933     2.601290     2.593647     2.586004     2.578361     2.570717     2.563074     2.555431
      2.547788     2.540144     2.532501     2.524858     2.517215     2.509572     2.501928     2.494285     2.486642     2.478999
      2.471355     2.463712     2.456069     2.448426     2.440783     2.433139     2.425496     2.417853     2.410210     2.402566
      2.394923     2.387280     2.379637     2.371994     2.364350     2.356707     2.349064     2.341421     2.333777     2.326134
      2.318491     2.310848     2.303205     2.295561     2.287918     2.280275     2.272632     2.264988     2.257345     2.249702
      2.242059     2.234416     2.226772     2.219129     2.211486     2.203843     2.196199     2.188556     2.180913     2.173270
      2.165627     2.157983     2.150340     2.142697     2.135054     2.127410     2.119767     2.112124     2.104481     2.096838
      2.089194     2.081551     2.073908     2.066265     2.058621     2.050978     2.043335     2.035692     2.028049     2.020405
      2.012762     2.005119     1.997476     1.989833     1.982190     1.974546     1.966903     1.959260     1.951617     1.943974
      1.936331     1.928688     1.921045     1.913402     1.905759     1.898115     1.890472     1.882829     1.875186     1.867543
      1.859900     1.852257     1.844614     1.836971     1.829327     1.821684     1.814041     1.806398     1.798755     1.791112
      1.783469     1.775826     1.768183     1.760540     1.752896     1.745253     1.737610     1.729967     1.722324     1.714681
      1.707038     1.699395     1.691752     1.684108     1.676465     1.668822     1.661179     1.653536     1.645893     1.638250
      1.630607     1.622964     1.615321     1.607677     1.600034     1.592391     1.584748     1.577105     1.569462     1.561819
      1.554176     1.546533     1.538890     1.531246     1.523603     1.515960     1.508317     1.500674     1.493031     1.485388
      1.477745     1.470102     1.462458     1.454815     1.447172     1.439529     1.431886     1.424243     1.416600     1.408957
      1.401314     1.393671     1.386027     1.378384     1.370741     1.363098     1.355455     1.347812     1.340169     1.332526
      1.324883     1.317240     1.309596     1.301953     1.294310     1.286667     1.279024     1.271381     1.263738     1.256095
      1.248452     1.240808     1.233165     1.225522     1.217879     1.210236     1.202593     1.194950     1.187307     1.179664
      1.172021     1.164377     1.156734     1.149091     1.141448     1.133805     1.126162     1.118519     1.110876     1.103233
      1.095590     1.087946     1.080303     1.072660     1.065017     1.057374     1.049731     1.042088     1.034445     1.026802
      1.019158     1.011515     1.003872     0.996229     0.988586     0.980943     0.973300     0.965657     0.958014     0.950371
      0.942727     0.935084     0.927441     0.919798     0.912155     0.904512     0.896869     0.889226     0.881583     0.873940
      0.866296     0.858653     0.851010     0.843367     0.835724     0.828081     0.820438     0.812795     0.805152     0.797508
      0.789865     0.782222     0.774579     0.766936     0.759293     0.751650     0.744007     0.736364     0.728721     0.721077
      0.713434     0.705791     0.698148     0.690505     0.682862     0.675219     0.667576     0.659933     0.652290     0.644646
      0.637003     0.629360     0.621717     0.614074     0.606431     0.598788     0.591145     0.583502     0.575858     0.568215
      0.560572     0.552929     0.545286     0.537643     0.530000     0.522357     0.514714     0.507071     0.499427     0.491784
      0.484141     0.476498     0.468855     0.461212     0.453569     0.445925     0.438282     0.430639     0.422996     0.415353
      0.407710     0.400067     0.392424     0.384780     0.377137     0.369494     0.361851     0.354208     0.346565     0.338922
      0.331278     0.323635     0.315992     0.308349     0.300706     0.293063     0.285420     0.277777     0.270133     0.262490
      0.254847     0.247204     0.239561     0.231918     0.224275     0.216631     0.208988     0.201345
 NY phased data points follow
  -4.81423E+00 -3.78370E+00  3.02607E-01  2.20224E+00 -1.09153E+00  5.92380E+00  1.06234E+01  1.48902E+01  1.34737E+01  1.30900E+01
   1.01635E+01  1.29827E+01  1.07924E+01  7.29798E+00  6.80835E+00 -2.40589E-01  1.50061E+00  4.27469E-01 -3.34935E+00  1.57013E+00
   1.58760E-01 -4.51366E+00 -1.64334E+00 -2.86723E-01 -9.17518E-01  3.86113E+00  3.64042E-01  1.21752E+00  1.78344E+00  6.47235E-01
   8.16162E-01 -1.84240E+00  3.29469E+00  1.76526E+00  2.25916E+00  3.09537E+00 -2.16563E-01  2.62303E+00 -4.19312E+00 -3.17510E+00
   4.53450E-01  1.45811E+00  7.09764E-01  5.78227E+00  5.80773E+00  4.63454E+00  5.11381E-01  2.58779E+00  2.83900E+00  9.29655E-01
   7.64255E-01 -1.23968E+00  1.84024E+00 -1.21441E+00  1.65454E+00  3.20508E+00 -5.26884E+00  2.58820E+00  1.43593E+00 -4.55662E+00
  -3.58582E+00 -3.74683E+00 -3.29241E+00 -1.15580E+00 -4.49798E+00 -4.63307E+00 -2.32332E+00 -3.93202E+00 -6.17430E+00 -4.55441E+00
  -3.52707E+00 -2.93683E+00 -7.39175E+00 -3.45087E+00 -3.03339E+00 -2.89872E+00 -6.33275E+00 -5.10553E+00 -6.61228E+00 -4.72403E+00
  -1.93744E+00 -9.11460E-01 -1.63950E+00 -9.10214E-01  3.14063E+00 -3.91190E+00  7.53755E-01  8.47385E-01 -4.43862E+00 -1.62366E+00
  -3.83161E+00 -3.51999E+00 -3.49637E+00 -2.19665E+00 -3.58334E+00 -3.13423E+00  4.00867E+00  6.15974E+00  1.28335E+01  1.76260E+01
   1.99218E+01  2.59497E+01  2.64335E+01  2.71199E+01  2.25115E+01  2.21022E+01  1.83329E+01  1.32817E+01  1.12014E+01  1.00219E+01
   3.00683E+00  2.55031E+00  3.53686E-02  5.63229E+00  7.91615E-01 -1.98594E+00 -1.01593E+00 -4.07315E+00 -5.46438E-01 -2.52291E+00
  -4.88897E-01  4.93918E+00  1.16058E+01  1.52319E+01  1.48425E+01  2.15582E+01  2.18327E+01  2.12125E+01  2.33894E+01  1.63220E+01
   1.60299E+01  1.98813E+01  7.35896E+00  8.20547E+00  2.42391E+00 -1.34416E+00  4.76584E+00 -1.00388E+00 -6.66426E+00  7.87564E-01
  -3.37655E+00 -1.31935E+00 -3.71806E+00 -3.29480E+00 -6.94477E+00 -1.18963E+00 -3.82569E+00 -5.70871E+00 -8.37007E+00 -2.81972E+00
  -5.51775E+00 -9.36173E+00 -5.94374E+00 -1.82969E+00 -6.24330E+00 -2.37969E+00 -2.57455E+00 -4.84442E+00 -6.82091E+00 -6.48970E+00
  -3.94995E+00 -3.26940E+00 -2.17724E+00 -3.03896E+00 -5.90111E+00 -6.23378E+00 -6.01453E+00 -1.52359E+00 -9.01116E+00 -6.72473E+00
  -6.42942E+00 -9.35350E+00 -7.18977E+00 -6.70950E+00 -1.02613E+01 -9.39042E+00 -1.29036E+01 -1.33797E+01 -1.08937E+01 -1.36720E+01
  -1.31202E+01 -1.60699E+01 -1.51330E+01 -1.31258E+01 -7.79365E+00 -9.61459E+00 -9.49022E+00 -6.95689E+00 -5.32367E+00 -7.20437E+00
   1.04613E+00 -5.46937E+00 -9.00146E-01 -6.16581E-01 -7.93422E+00 -3.92017E+00 -5.50944E+00 -5.22733E+00 -9.79335E+00 -9.98989E+00
  -7.01321E+00 -4.48851E+00 -9.26713E+00 -4.90127E+00 -2.11849E+00 -3.67778E+00 -2.48466E+00 -2.81427E+00 -2.79129E+00 -1.62866E+00
  -2.44631E+00  9.39445E-01 -5.34594E+00  8.19187E+00  8.22472E-01  3.38408E+00  4.08493E-01  1.45104E+00  3.75429E-01  1.65170E+00
   1.08012E+00 -6.48768E-01 -2.89307E+00 -1.77657E+00  1.03470E+00 -2.52349E+00 -2.93818E+00  6.15001E-01  2.29746E+00  1.04500E+00
   4.16632E+00  3.76766E+00 -1.88919E+00  6.88031E+00  5.96779E+00  1.13562E+00  5.83682E+00  2.66051E+00  1.79851E+00  5.25244E+00
   9.52601E-01  2.67537E+00  3.58315E+00  1.43770E+00  3.34712E+00  8.02603E+00  6.55735E+00  1.48520E+00  9.50660E-02  1.88911E+00
   6.23101E+00  9.57810E+00  1.11230E+01  1.22170E+01  2.30491E+01  2.84092E+01  3.77402E+01  4.51433E+01  4.81670E+01  5.39248E+01
   5.26574E+01  5.41144E+01  4.76282E+01  4.24171E+01  3.85232E+01  2.82590E+01  2.69696E+01  2.51652E+01  1.58429E+01  1.25531E+01
   6.40526E+00  6.06762E+00  4.46957E+00  3.34154E+00  2.92126E+00  2.14134E+00 -1.26958E+00 -1.62353E+00 -1.55624E+00 -2.35132E+00
  -1.64468E+00 -4.76979E+00 -1.42592E+00 -3.72476E+00 -4.66171E+00 -1.75689E+00 -4.97051E+00 -5.73454E+00 -5.21788E+00 -4.08925E+00
  -3.15225E+00 -3.49936E+00 -4.75823E+00 -3.36507E+00 -8.61292E+00 -6.59248E+00 -2.94778E+00 -7.38987E-01 -5.75024E+00 -6.17512E+00
  -4.12517E+00 -7.12329E+00 -6.02396E+00 -2.18138E+00 -4.38819E+00 -4.83785E+00 -6.29523E+00 -3.26139E+00 -5.18853E+00  4.39797E-01
  -4.84663E+00 -2.57974E+00 -3.07704E+00 -2.57005E+00 -2.98655E+00  1.11762E+00  2.79067E+00 -7.78967E-01  5.58155E-01 -6.93473E-01
  -3.52754E-01 -2.13337E+00 -1.90592E+00 -2.09826E+00  1.07135E+00 -2.00191E+00  1.76794E+00 -4.19951E+00 -2.80975E+00 -3.30783E+00
  -1.41456E+00 -3.35457E+00 -7.88097E-01 -2.97923E+00 -4.23648E+00 -4.93502E+00 -1.74549E+00 -2.08032E+00 -6.11768E+00  5.97451E-01
  -2.32174E+00 -1.43377E-01  4.91664E-01  1.92042E+00 -2.33663E+00  5.68294E+00  4.09563E+00  5.71459E+00  4.16806E+00 -4.28800E-01
  -1.47409E-01 -6.70406E-01 -3.42949E+00  2.39066E+00  3.32176E+00  9.87944E-01 -1.01065E+00 -3.55968E+00 -6.59482E-01 -6.24908E+00
  -3.52112E+00 -2.62479E+00 -3.17680E+00 -2.57715E+00 -5.37734E+00 -7.79794E+00 -4.14847E+00 -7.63494E-01 -1.32902E+00 -1.48992E-01
  -1.47768E+00 -1.79931E+00 -4.75871E+00 -1.80805E+00 -6.29365E+00 -8.28303E+00 -7.83650E+00 -7.86907E+00 -8.14347E+00 -6.04726E+00
  -1.12097E+01 -7.64991E+00 -7.91982E+00 -5.54502E+00 -6.76255E+00 -9.28387E+00 -6.32696E+00 -4.19780E+00 -1.03795E+01 -9.84764E+00
  -1.07380E+01 -8.97637E+00 -6.32659E+00 -1.13769E+01 -1.10127E+01 -3.82472E+00 -1.08064E+01 -2.43103E+00 -5.60721E+00 -5.49985E+00
  -4.73228E+00 -7.05961E+00 -2.75325E-02  1.33489E-02 -5.72606E-01 -3.97449E+00  1.27232E+00  7.80708E-02  1.48084E-01 -4.39674E-02
  -1.90994E+00  1.49172E+00 -1.63069E+00 -3.35447E+00 -7.02026E+00 -2.53018E+00 -4.30449E+00 -3.52830E+00 -7.16216E+00 -2.94067E+00
  -3.90195E+00 -6.06063E+00 -4.89726E+00 -5.79354E+00 -3.22057E+00 -2.83366E+00 -4.52349E+00 -7.26469E+00 -4.36305E+00 -3.11717E+00
  -8.21083E+00 -3.64062E+00 -5.22356E+00 -7.95687E+00 -6.01147E+00 -2.21475E+00 -9.13586E+00 -5.58591E+00 -3.54072E+00 -5.36660E-01
  -3.39197E+00 -3.28882E+00 -7.05680E+00 -1.67622E+00 -1.40645E+00 -4.86264E+00  1.86746E+00 -2.61636E+00 -4.56097E+00 -1.50999E+00
  -1.44752E+00 -3.24684E+00 -5.16523E-01 -4.02328E+00 -2.36594E+00 -4.22221E+00 -3.11216E+00  3.30560E-01 -1.40165E+00 -2.85093E+00
  -2.69461E+00  4.59106E-01  1.55362E+00 -7.56752E-01 -2.68123E+00 -3.35017E+00 -1.60214E+00 -4.74558E+00 -2.75659E+00  8.37106E-02
  -4.86865E+00 -4.63243E+00 -3.82442E+00 -2.17220E+00 -1.00984E+00 -3.51756E+00 -1.95805E+00 -1.16220E+00 -1.21071E+00 -3.62650E+00
  -3.94021E+00  7.02188E-01  1.48337E+00  4.83692E+00  9.72203E-01  7.77524E-01  4.26570E-02  5.98882E+00 -1.51502E+00  1.41112E+00
  -2.80630E-02 -9.59376E-01 -2.50142E+00 -2.61322E+00 -5.73123E-01 -9.11390E-01 -1.61633E+00 -4.96412E-01
 NY points of the fit to the data follow
  -3.17996E+00 -2.51069E+00 -9.71238E-01  1.27489E+00  3.97605E+00  6.81064E+00  9.29772E+00  1.11816E+01  1.22982E+01  1.25317E+01
   1.19639E+01  1.08462E+01  9.43683E+00  7.89339E+00  6.32065E+00  4.76360E+00  3.23465E+00  1.85683E+00  6.21239E-01 -7.67587E-01
  -2.22527E+00 -2.95172E+00 -2.99076E+00 -2.61857E+00 -1.90688E+00 -9.73159E-01  4.41803E-02  1.09181E+00  2.09242E+00  2.90102E+00
   3.39173E+00  3.51499E+00  3.32274E+00  2.87291E+00  2.22227E+00  1.44811E+00  6.13721E-01 -1.30090E-01 -6.26207E-01 -8.47148E-01
  -8.79769E-01 -6.20004E-01  2.27237E-01  1.23733E+00  2.06953E+00  2.62731E+00  2.88188E+00  2.77964E+00  2.28352E+00  1.57050E+00
   8.06286E-01  7.13694E-02 -5.44876E-01 -1.04321E+00 -1.40053E+00 -1.55544E+00 -1.63455E+00 -1.85984E+00 -2.25811E+00 -2.62195E+00
  -2.86302E+00 -3.07299E+00 -3.27804E+00 -3.45570E+00 -3.55159E+00 -3.55005E+00 -3.48240E+00 -3.36781E+00 -3.22340E+00 -3.11343E+00
  -3.09439E+00 -3.11878E+00 -3.15376E+00 -3.18281E+00 -3.19356E+00 -3.20314E+00 -3.18152E+00 -3.14028E+00 -3.04902E+00 -2.78935E+00
  -2.36463E+00 -1.89139E+00 -1.53065E+00 -1.33475E+00 -1.27318E+00 -1.38382E+00 -1.66178E+00 -2.05060E+00 -2.45113E+00 -2.78364E+00
  -3.04134E+00 -3.23715E+00 -3.29619E+00 -2.98335E+00 -2.25895E+00 -6.32662E-01  2.39606E+00  6.65864E+00  1.17317E+01  1.68600E+01
   2.12463E+01  2.44047E+01  2.59380E+01  2.57366E+01  2.40650E+01  2.14830E+01  1.84957E+01  1.53865E+01  1.23710E+01  9.46713E+00
   6.68145E+00  4.25612E+00  2.08810E+00 -4.70602E-01 -3.19390E+00 -4.43291E+00 -4.55106E+00 -4.11294E+00 -3.23346E+00 -1.51271E+00
   1.46546E+00  5.48598E+00  9.95100E+00  1.42522E+01  1.79310E+01  2.06305E+01  2.20404E+01  2.20559E+01  2.08305E+01  1.87630E+01
   1.62141E+01  1.34156E+01  1.05367E+01  7.69494E+00  5.05481E+00  2.87028E+00  1.03371E+00 -9.82498E-01 -2.92482E+00 -3.60238E+00
  -3.62532E+00 -3.58058E+00 -3.55533E+00 -3.58382E+00 -3.66555E+00 -3.71492E+00 -3.71947E+00 -3.76849E+00 -3.85851E+00 -3.99762E+00
  -4.19882E+00 -4.40814E+00 -4.61164E+00 -4.77596E+00 -4.91117E+00 -5.06866E+00 -5.25378E+00 -5.44121E+00 -5.58688E+00 -5.68321E+00
  -5.74552E+00 -5.78453E+00 -5.82646E+00 -5.89855E+00 -6.02132E+00 -6.20093E+00 -6.43878E+00 -6.72618E+00 -7.02652E+00 -7.35588E+00
  -7.72151E+00 -8.06299E+00 -8.31816E+00 -8.50677E+00 -8.69201E+00 -8.87699E+00 -9.03056E+00 -9.08836E+00 -9.05684E+00 -9.01593E+00
  -8.98230E+00 -8.90749E+00 -8.71559E+00 -8.34305E+00 -7.76609E+00 -7.00666E+00 -6.11097E+00 -5.15819E+00 -4.29229E+00 -3.65659E+00
  -3.24730E+00 -3.01218E+00 -2.88170E+00 -2.82722E+00 -2.81738E+00 -2.75056E+00 -2.56248E+00 -2.22677E+00 -1.75161E+00 -1.25805E+00
  -8.90383E-01 -6.46636E-01 -5.64535E-01 -7.05639E-01 -1.05454E+00 -1.56683E+00 -2.18363E+00 -2.77417E+00 -3.21441E+00 -3.36786E+00
  -3.20805E+00 -2.80516E+00 -2.30365E+00 -1.85766E+00 -1.59325E+00 -1.63701E+00 -2.01141E+00 -2.58671E+00 -3.17821E+00 -3.62409E+00
  -3.83057E+00 -3.75498E+00 -3.52082E+00 -3.18777E+00 -2.78679E+00 -2.45814E+00 -2.29297E+00 -2.20518E+00 -2.01836E+00 -1.59101E+00
  -1.02781E+00 -3.84169E-01  2.82157E-01  9.06626E-01  1.35635E+00  1.46875E+00  1.27144E+00  9.46869E-01  6.09600E-01  3.40651E-01
   2.20116E-01  2.93393E-01  5.47938E-01  8.68605E-01  1.17307E+00  1.48802E+00  1.86397E+00  2.30128E+00  2.86149E+00  3.77073E+00
   5.29077E+00  7.57344E+00  1.05548E+01  1.49688E+01  2.14102E+01  2.92184E+01  3.72001E+01  4.43540E+01  4.99785E+01  5.34591E+01
   5.42942E+01  5.25029E+01  4.86031E+01  4.34379E+01  3.77271E+01  3.19055E+01  2.61838E+01  2.06572E+01  1.56835E+01  1.15577E+01
   7.83527E+00  3.61285E+00 -2.95404E-01 -1.89524E+00 -2.31912E+00 -2.53219E+00 -2.68978E+00 -2.81417E+00 -2.95079E+00 -3.08129E+00
  -3.18181E+00 -3.26258E+00 -3.33525E+00 -3.39049E+00 -3.43834E+00 -3.48641E+00 -3.52615E+00 -3.55138E+00 -3.55663E+00 -3.54414E+00
  -3.52570E+00 -3.50321E+00 -3.47416E+00 -3.44822E+00 -3.42512E+00 -3.40075E+00 -3.37788E+00 -3.35388E+00 -3.32127E+00 -3.28157E+00
  -3.23806E+00 -3.19074E+00 -3.14094E+00 -3.09313E+00 -3.04592E+00 -2.99818E+00 -2.95273E+00 -2.91026E+00 -2.87024E+00 -2.83112E+00
  -2.79162E+00 -2.75139E+00 -2.70737E+00 -2.65538E+00 -2.59054E+00 -2.50535E+00 -2.38699E+00 -2.21233E+00 -1.97604E+00 -1.68584E+00
  -1.30698E+00 -9.03502E-01 -6.24080E-01 -5.85405E-01 -8.38773E-01 -1.36692E+00 -2.11154E+00 -3.03141E+00 -3.95146E+00 -4.63103E+00
  -4.92997E+00 -4.85120E+00 -4.47357E+00 -3.88891E+00 -3.19656E+00 -2.49522E+00 -1.86871E+00 -1.40524E+00 -1.08804E+00 -7.19618E-01
  -1.97706E-01  2.54622E-01  5.58651E-01  7.01525E-01  7.35991E-01  6.95265E-01  4.79251E-01  9.13237E-02 -1.34147E-01 -1.27127E-01
   5.50096E-02  3.22232E-01  5.72633E-01  7.24054E-01  7.11987E-01  5.03641E-01  1.03456E-01 -4.75795E-01 -1.16829E+00 -1.81433E+00
  -2.32065E+00 -2.78321E+00 -3.20992E+00 -3.57713E+00 -3.86151E+00 -4.09571E+00 -4.36366E+00 -4.62811E+00 -4.78826E+00 -4.88680E+00
  -4.95559E+00 -5.00748E+00 -5.04855E+00 -5.08179E+00 -5.10856E+00 -5.12929E+00 -5.14391E+00 -5.15207E+00 -5.15326E+00 -5.14686E+00
  -5.13220E+00 -5.10856E+00 -5.07520E+00 -5.03133E+00 -4.97614E+00 -4.90879E+00 -4.82844E+00 -4.73427E+00 -4.62551E+00 -4.50150E+00
  -4.36175E+00 -4.20600E+00 -4.03434E+00 -3.84722E+00 -3.64562E+00 -3.43109E+00 -3.20581E+00 -2.97262E+00 -2.73500E+00 -2.49710E+00
  -2.26355E+00 -2.03942E+00 -1.82999E+00 -1.64054E+00 -1.47612E+00 -1.34132E+00 -1.23999E+00 -1.17507E+00 -1.14838E+00 -1.16056E+00
  -1.21096E+00 -1.29769E+00 -1.41774E+00 -1.56708E+00 -1.74091E+00 -1.93389E+00 -2.14042E+00 -2.35486E+00 -2.57183E+00 -2.78633E+00
  -2.99397E+00 -3.19108E+00 -3.37470E+00 -3.54268E+00 -3.69362E+00 -3.82675E+00 -3.94194E+00 -4.03953E+00 -4.12024E+00 -4.18509E+00
  -4.23527E+00 -4.27209E+00 -4.29686E+00 -4.31089E+00 -4.31546E+00 -4.31171E+00 -4.30071E+00 -4.28342E+00 -4.26066E+00 -4.23317E+00
  -4.20159E+00 -4.16647E+00 -4.12826E+00 -4.08738E+00 -4.04415E+00 -3.99886E+00 -3.95177E+00 -3.90309E+00 -3.85299E+00 -3.80162E+00
  -3.74913E+00 -3.69562E+00 -3.64120E+00 -3.58597E+00 -3.52997E+00 -3.47329E+00 -3.41597E+00 -3.35806E+00 -3.29960E+00 -3.24064E+00
  -3.18120E+00 -3.12132E+00 -3.06102E+00 -3.00034E+00 -2.93929E+00 -2.87790E+00 -2.81618E+00 -2.75416E+00 -2.69185E+00 -2.62926E+00
  -2.56641E+00 -2.50332E+00 -2.43999E+00 -2.37643E+00 -2.31266E+00 -2.24868E+00 -2.18451E+00 -2.12016E+00 -2.05562E+00 -1.99090E+00
  -1.92603E+00 -1.86099E+00 -1.79579E+00 -1.73043E+00 -1.66492E+00 -1.59926E+00 -1.53345E+00 -1.46749E+00 -1.40137E+00 -1.33509E+00
  -1.26864E+00 -1.20201E+00 -1.13520E+00 -1.06819E+00 -1.00096E+00 -9.33482E-01 -8.65737E-01 -7.97689E-01
 NY background values follow
    -8.779E+00   -8.755E+00   -8.731E+00   -8.706E+00   -8.682E+00   -8.657E+00   -8.633E+00   -8.609E+00   -8.584E+00   -8.560E+00
    -8.535E+00   -8.511E+00   -8.487E+00   -8.462E+00   -8.438E+00   -8.413E+00   -8.389E+00   -8.365E+00   -8.340E+00   -8.316E+00
    -8.292E+00   -8.267E+00   -8.243E+00   -8.219E+00   -8.195E+00   -8.170E+00   -8.146E+00   -8.122E+00   -8.098E+00   -8.074E+00
    -8.049E+00   -8.025E+00   -8.001E+00   -7.977E+00   -7.953E+00   -7.929E+00   -7.905E+00   -7.882E+00   -7.858E+00   -7.834E+00
    -7.810E+00   -7.786E+00   -7.763E+00   -7.739E+00   -7.715E+00   -7.692E+00   -7.668E+00   -7.645E+00   -7.622E+00   -7.598E+00
    -7.575E+00   -7.552E+00   -7.528E+00   -7.505E+00   -7.482E+00   -7.459E+00   -7.436E+00   -7.413E+00   -7.390E+00   -7.367E+00
    -7.344E+00   -7.321E+00   -7.298E+00   -7.275E+00   -7.252E+00   -7.229E+00   -7.207E+00   -7.184E+00   -7.161E+00   -7.139E+00
    -7.116E+00   -7.093E+00   -7.071E+00   -7.048E+00   -7.026E+00   -7.003E+00   -6.980E+00   -6.958E+00   -6.935E+00   -6.913E+00
    -6.891E+00   -6.868E+00   -6.846E+00   -6.823E+00   -6.801E+00   -6.778E+00   -6.756E+00   -6.734E+00   -6.711E+00   -6.689E+00
    -6.667E+00   -6.644E+00   -6.622E+00   -6.600E+00   -6.577E+00   -6.555E+00   -6.533E+00   -6.510E+00   -6.488E+00   -6.466E+00
    -6.443E+00   -6.421E+00   -6.399E+00   -6.377E+00   -6.354E+00   -6.332E+00   -6.310E+00   -6.288E+00   -6.266E+00   -6.244E+00
    -6.221E+00   -6.199E+00   -6.177E+00   -6.155E+00   -6.133E+00   -6.111E+00   -6.089E+00   -6.067E+00   -6.045E+00   -6.023E+00
    -6.001E+00   -5.979E+00   -5.958E+00   -5.936E+00   -5.914E+00   -5.892E+00   -5.870E+00   -5.849E+00   -5.827E+00   -5.805E+00
    -5.784E+00   -5.762E+00   -5.741E+00   -5.719E+00   -5.698E+00   -5.676E+00   -5.655E+00   -5.633E+00   -5.612E+00   -5.591E+00
    -5.569E+00   -5.548E+00   -5.527E+00   -5.506E+00   -5.484E+00   -5.463E+00   -5.442E+00   -5.421E+00   -5.399E+00   -5.378E+00
    -5.357E+00   -5.336E+00   -5.314E+00   -5.293E+00   -5.271E+00   -5.250E+00   -5.228E+00   -5.207E+00   -5.185E+00   -5.164E+00
    -5.142E+00   -5.120E+00   -5.098E+00   -5.076E+00   -5.054E+00   -5.032E+00   -5.010E+00   -4.988E+00   -4.966E+00   -4.943E+00
    -4.921E+00   -4.898E+00   -4.875E+00   -4.852E+00   -4.829E+00   -4.806E+00   -4.783E+00   -4.760E+00   -4.736E+00   -4.712E+00
    -4.689E+00   -4.665E+00   -4.641E+00   -4.616E+00   -4.592E+00   -4.568E+00   -4.543E+00   -4.519E+00   -4.494E+00   -4.469E+00
    -4.445E+00   -4.420E+00   -4.396E+00   -4.371E+00   -4.347E+00   -4.323E+00   -4.299E+00   -4.275E+00   -4.251E+00   -4.227E+00
    -4.203E+00   -4.180E+00   -4.157E+00   -4.134E+00   -4.112E+00   -4.089E+00   -4.068E+00   -4.046E+00   -4.025E+00   -4.004E+00
    -3.983E+00   -3.963E+00   -3.943E+00   -3.924E+00   -3.905E+00   -3.887E+00   -3.869E+00   -3.851E+00   -3.834E+00   -3.818E+00
    -3.802E+00   -3.787E+00   -3.773E+00   -3.759E+00   -3.745E+00   -3.733E+00   -3.721E+00   -3.709E+00   -3.699E+00   -3.689E+00
    -3.680E+00   -3.671E+00   -3.663E+00   -3.656E+00   -3.650E+00   -3.644E+00   -3.638E+00   -3.634E+00   -3.630E+00   -3.627E+00
    -3.624E+00   -3.622E+00   -3.621E+00   -3.620E+00   -3.620E+00   -3.620E+00   -3.621E+00   -3.623E+00   -3.625E+00   -3.628E+00
    -3.632E+00   -3.636E+00   -3.641E+00   -3.646E+00   -3.652E+00   -3.658E+00   -3.665E+00   -3.673E+00   -3.681E+00   -3.690E+00
    -3.699E+00   -3.709E+00   -3.719E+00   -3.730E+00   -3.742E+00   -3.754E+00   -3.766E+00   -3.779E+00   -3.793E+00   -3.807E+00
    -3.821E+00   -3.836E+00   -3.852E+00   -3.868E+00   -3.885E+00   -3.902E+00   -3.919E+00   -3.937E+00   -3.956E+00   -3.975E+00
    -3.994E+00   -4.013E+00   -4.033E+00   -4.054E+00   -4.074E+00   -4.096E+00   -4.117E+00   -4.139E+00   -4.161E+00   -4.183E+00
    -4.206E+00   -4.229E+00   -4.252E+00   -4.275E+00   -4.299E+00   -4.323E+00   -4.347E+00   -4.371E+00   -4.395E+00   -4.420E+00
    -4.445E+00   -4.470E+00   -4.495E+00   -4.520E+00   -4.545E+00   -4.571E+00   -4.596E+00   -4.622E+00   -4.647E+00   -4.673E+00
    -4.699E+00   -4.724E+00   -4.750E+00   -4.776E+00   -4.801E+00   -4.827E+00   -4.853E+00   -4.878E+00   -4.904E+00   -4.929E+00
    -4.955E+00   -4.980E+00   -5.005E+00   -5.030E+00   -5.055E+00   -5.080E+00   -5.105E+00   -5.129E+00   -5.153E+00   -5.177E+00
    -5.201E+00   -5.224E+00   -5.248E+00   -5.271E+00   -5.293E+00   -5.316E+00   -5.338E+00   -5.360E+00   -5.381E+00   -5.402E+00
    -5.423E+00   -5.443E+00   -5.463E+00   -5.483E+00   -5.502E+00   -5.521E+00   -5.539E+00   -5.557E+00   -5.574E+00   -5.591E+00
    -5.607E+00   -5.623E+00   -5.638E+00   -5.653E+00   -5.668E+00   -5.681E+00   -5.694E+00   -5.707E+00   -5.719E+00   -5.730E+00
    -5.741E+00   -5.751E+00   -5.760E+00   -5.769E+00   -5.777E+00   -5.784E+00   -5.791E+00   -5.796E+00   -5.802E+00   -5.806E+00
    -5.810E+00   -5.813E+00   -5.815E+00   -5.816E+00   -5.817E+00   -5.817E+00   -5.816E+00   -5.815E+00   -5.812E+00   -5.809E+00
    -5.805E+00   -5.800E+00   -5.794E+00   -5.788E+00   -5.780E+00   -5.772E+00   -5.763E+00   -5.752E+00   -5.742E+00   -5.730E+00
    -5.717E+00   -5.703E+00   -5.689E+00   -5.673E+00   -5.656E+00   -5.639E+00   -5.621E+00   -5.601E+00   -5.581E+00   -5.560E+00
    -5.537E+00   -5.514E+00   -5.489E+00   -5.464E+00   -5.438E+00   -5.410E+00   -5.382E+00   -5.352E+00   -5.322E+00   -5.290E+00
    -5.257E+00   -5.224E+00   -5.189E+00   -5.153E+00   -5.117E+00   -5.079E+00   -5.041E+00   -5.002E+00   -4.961E+00   -4.920E+00
    -4.878E+00   -4.836E+00   -4.792E+00   -4.748E+00   -4.703E+00   -4.657E+00   -4.611E+00   -4.563E+00   -4.515E+00   -4.467E+00
    -4.418E+00   -4.368E+00   -4.317E+00   -4.266E+00   -4.214E+00   -4.162E+00   -4.109E+00   -4.056E+00   -4.002E+00   -3.948E+00
    -3.893E+00   -3.837E+00   -3.782E+00   -3.725E+00   -3.669E+00   -3.612E+00   -3.554E+00   -3.497E+00   -3.439E+00   -3.380E+00
    -3.321E+00   -3.263E+00   -3.203E+00   -3.144E+00   -3.084E+00   -3.024E+00   -2.964E+00   -2.904E+00   -2.843E+00   -2.782E+00
    -2.721E+00   -2.660E+00   -2.598E+00   -2.537E+00   -2.475E+00   -2.413E+00   -2.351E+00   -2.289E+00   -2.227E+00   -2.164E+00
    -2.102E+00   -2.039E+00   -1.976E+00   -1.913E+00   -1.850E+00   -1.787E+00   -1.724E+00   -1.660E+00   -1.597E+00   -1.534E+00
    -1.470E+00   -1.407E+00   -1.343E+00   -1.280E+00   -1.216E+00   -1.152E+00   -1.089E+00   -1.025E+00   -9.616E-01   -8.980E-01
    -8.344E-01   -7.708E-01   -7.073E-01   -6.439E-01   -5.804E-01   -5.171E-01   -4.537E-01   -3.905E-01
 Ala      Conc. = 4.34E+02
