 LCModel (Version 6.3-1L) Copyright: S.W. Provencher.          Ref.: Magn. Reson. Med. 30:672-679 (1993).                
 Slice#2 Row#3 Col#13  PD_24_press_1_raw_act
 36 lines in following concentration table = NCONC+1
    Conc.  %SD /Cr+PCr  Metabolite                                         
 6.07E+03  28% 197.879 Ala                                                 
   16.551  77%   0.540 Asp                                                 
   30.668 463%   1.000 Cr                                                  
    0.000 999%   0.000 PCr                                                 
    9.929  77%   0.324 GABA                                                
    9.938  77%   0.324 Glc                                                 
 2.25E+03  50%  73.336 Gln                                                 
    0.000 999%   0.000 Glu                                                 
    0.000 999%   0.000 GPC                                                 
  100.066  49%   3.263 PCh                                                 
    0.000 999%   0.000 GSH                                                 
  778.627  71%  25.389 Ins                                                 
    0.000 999%   0.000 Lac                                                 
    0.000 999%   0.000 NAA                                                 
    0.000 999%   0.000 NAAG                                                
    3.325  77%   0.108 Scyllo                                              
   16.591  77%   0.541 Tau                                                 
    0.000 999%   0.000 -CrCH2                                              
  100.066  49%   3.263 GPC+PCh                                             
    0.000 999%   0.000 NAA+NAAG                                            
   30.668 463%   1.000 Cr+PCr                                              
 2.25E+03  89%  73.336 Glu+Gln                                             
    0.000 999%   0.000 Lip13a                                              
 8.49E+04  14% 2.8E+03 Lip13b                                              
 1.25E+04  22% 407.008 Lip09                                               
 7.26E+03  24% 236.727 MM09                                                
 1.06E+03  92%  34.575-Lip20                                               
 2.10E+03  46%  68.607 MM20                                                
 4.26E+03  31% 138.900 MM12                                                
 9.06E+04   8% 3.0E+03+MM14                                                
 4.31E+04  11% 1.4E+03+MM17                                                
 8.49E+04  14% 2.8E+03 Lip13a+Lip13b                                       
 1.80E+05   6% 5.9E+03 MM14+Lip13a+Lip13b+MM12                             
 1.97E+04  15% 643.735 MM09+Lip09                                          
 3.16E+03  25% 103.182 MM20+Lip20                                          
   6 lines in following misc. output table
  FWHM = 0.199 ppm    S/N =  51                                            
  Data shift = 0.260 ppm                                                   
  Ph: -15 deg     -18.6 deg/ppm                                            
  alphaB,S = 2.9E+01,   1.2E+02                                            
    6 spline knots.   Ns = 9(2)                                            
  (10) 5 infls.   (10) 1 extrs.                                            
  498 points on ppm-axis = NY
      4.000000     3.992357     3.984714     3.977070     3.969427     3.961784     3.954141     3.946497     3.938854     3.931211
      3.923568     3.915925     3.908281     3.900638     3.892995     3.885352     3.877708     3.870065     3.862422     3.854779
      3.847136     3.839492     3.831849     3.824206     3.816563     3.808919     3.801276     3.793633     3.785990     3.778347
      3.770703     3.763060     3.755417     3.747774     3.740130     3.732487     3.724844     3.717201     3.709558     3.701914
      3.694271     3.686628     3.678985     3.671341     3.663698     3.656055     3.648412     3.640769     3.633125     3.625482
      3.617839     3.610196     3.602552     3.594909     3.587266     3.579623     3.571980     3.564336     3.556693     3.549050
      3.541407     3.533763     3.526120     3.518477     3.510834     3.503191     3.495547     3.487904     3.480261     3.472618
      3.464974     3.457331     3.449688     3.442045     3.434402     3.426758     3.419115     3.411472     3.403829     3.396185
      3.388542     3.380899     3.373256     3.365613     3.357969     3.350326     3.342683     3.335040     3.327396     3.319753
      3.312110     3.304467     3.296824     3.289180     3.281537     3.273894     3.266251     3.258607     3.250964     3.243321
      3.235678     3.228034     3.220391     3.212748     3.205105     3.197462     3.189818     3.182175     3.174532     3.166889
      3.159245     3.151602     3.143959     3.136316     3.128673     3.121029     3.113386     3.105743     3.098100     3.090456
      3.082813     3.075170     3.067527     3.059884     3.052240     3.044597     3.036954     3.029311     3.021667     3.014024
      3.006381     2.998738     2.991095     2.983451     2.975808     2.968165     2.960522     2.952878     2.945235     2.937592
      2.929949     2.922306     2.914662     2.907019     2.899376     2.891733     2.884089     2.876446     2.868803     2.861160
      2.853517     2.845873     2.838230     2.830587     2.822944     2.815300     2.807657     2.800014     2.792371     2.784728
      2.777084     2.769441     2.761798     2.754155     2.746511     2.738868     2.731225     2.723582     2.715939     2.708295
      2.700652     2.693009     2.685366     2.677722     2.670079     2.662436     2.654793     2.647150     2.639506     2.631863
      2.624220     2.616577     2.608933     2.601290     2.593647     2.586004     2.578361     2.570717     2.563074     2.555431
      2.547788     2.540144     2.532501     2.524858     2.517215     2.509572     2.501928     2.494285     2.486642     2.478999
      2.471355     2.463712     2.456069     2.448426     2.440783     2.433139     2.425496     2.417853     2.410210     2.402566
      2.394923     2.387280     2.379637     2.371994     2.364350     2.356707     2.349064     2.341421     2.333777     2.326134
      2.318491     2.310848     2.303205     2.295561     2.287918     2.280275     2.272632     2.264988     2.257345     2.249702
      2.242059     2.234416     2.226772     2.219129     2.211486     2.203843     2.196199     2.188556     2.180913     2.173270
      2.165627     2.157983     2.150340     2.142697     2.135054     2.127410     2.119767     2.112124     2.104481     2.096838
      2.089194     2.081551     2.073908     2.066265     2.058621     2.050978     2.043335     2.035692     2.028049     2.020405
      2.012762     2.005119     1.997476     1.989833     1.982190     1.974546     1.966903     1.959260     1.951617     1.943974
      1.936331     1.928688     1.921045     1.913402     1.905759     1.898115     1.890472     1.882829     1.875186     1.867543
      1.859900     1.852257     1.844614     1.836971     1.829327     1.821684     1.814041     1.806398     1.798755     1.791112
      1.783469     1.775826     1.768183     1.760540     1.752896     1.745253     1.737610     1.729967     1.722324     1.714681
      1.707038     1.699395     1.691752     1.684108     1.676465     1.668822     1.661179     1.653536     1.645893     1.638250
      1.630607     1.622964     1.615321     1.607677     1.600034     1.592391     1.584748     1.577105     1.569462     1.561819
      1.554176     1.546533     1.538890     1.531246     1.523603     1.515960     1.508317     1.500674     1.493031     1.485388
      1.477745     1.470102     1.462458     1.454815     1.447172     1.439529     1.431886     1.424243     1.416600     1.408957
      1.401314     1.393671     1.386027     1.378384     1.370741     1.363098     1.355455     1.347812     1.340169     1.332526
      1.324883     1.317240     1.309596     1.301953     1.294310     1.286667     1.279024     1.271381     1.263738     1.256095
      1.248452     1.240808     1.233165     1.225522     1.217879     1.210236     1.202593     1.194950     1.187307     1.179664
      1.172021     1.164377     1.156734     1.149091     1.141448     1.133805     1.126162     1.118519     1.110876     1.103233
      1.095590     1.087946     1.080303     1.072660     1.065017     1.057374     1.049731     1.042088     1.034445     1.026802
      1.019158     1.011515     1.003872     0.996229     0.988586     0.980943     0.973300     0.965657     0.958014     0.950371
      0.942727     0.935084     0.927441     0.919798     0.912155     0.904512     0.896869     0.889226     0.881583     0.873940
      0.866296     0.858653     0.851010     0.843367     0.835724     0.828081     0.820438     0.812795     0.805152     0.797508
      0.789865     0.782222     0.774579     0.766936     0.759293     0.751650     0.744007     0.736364     0.728721     0.721077
      0.713434     0.705791     0.698148     0.690505     0.682862     0.675219     0.667576     0.659933     0.652290     0.644646
      0.637003     0.629360     0.621717     0.614074     0.606431     0.598788     0.591145     0.583502     0.575858     0.568215
      0.560572     0.552929     0.545286     0.537643     0.530000     0.522357     0.514714     0.507071     0.499427     0.491784
      0.484141     0.476498     0.468855     0.461212     0.453569     0.445925     0.438282     0.430639     0.422996     0.415353
      0.407710     0.400067     0.392424     0.384780     0.377137     0.369494     0.361851     0.354208     0.346565     0.338922
      0.331278     0.323635     0.315992     0.308349     0.300706     0.293063     0.285420     0.277777     0.270133     0.262490
      0.254847     0.247204     0.239561     0.231918     0.224275     0.216631     0.208988     0.201345
 NY phased data points follow
   3.76956E+01  3.94619E+01  3.64332E+01  3.23591E+01  3.96730E+01  3.53807E+01  3.77568E+01  3.62609E+01  3.86599E+01  3.61939E+01
   3.54399E+01  3.20388E+01  3.72472E+01  3.66866E+01  3.41560E+01  3.75920E+01  3.77115E+01  3.67271E+01  3.64229E+01  3.71656E+01
   3.80835E+01  3.46502E+01  3.75551E+01  3.43060E+01  3.76316E+01  3.55911E+01  3.60985E+01  3.73448E+01  3.70682E+01  3.48755E+01
   3.60622E+01  3.43518E+01  3.78383E+01  3.67691E+01  3.54336E+01  3.77942E+01  3.54637E+01  3.90305E+01  3.78026E+01  3.58164E+01
   3.60532E+01  3.58899E+01  3.69167E+01  3.59986E+01  3.93873E+01  3.34354E+01  3.94756E+01  3.20679E+01  3.74090E+01  3.67800E+01
   3.86953E+01  3.79242E+01  3.62095E+01  3.64327E+01  3.82834E+01  3.67110E+01  3.92835E+01  3.58117E+01  3.58209E+01  3.73496E+01
   3.67526E+01  3.95756E+01  3.61966E+01  3.79178E+01  3.80161E+01  3.41080E+01  3.70729E+01  3.66332E+01  3.52451E+01  4.02035E+01
   3.87819E+01  3.90285E+01  3.90262E+01  3.69976E+01  4.07302E+01  3.76232E+01  4.09889E+01  3.82932E+01  3.81221E+01  3.53310E+01
   4.25738E+01  3.75411E+01  3.83830E+01  3.75378E+01  3.89194E+01  3.74739E+01  3.77775E+01  3.52474E+01  3.80864E+01  3.70118E+01
   3.60940E+01  3.61947E+01  3.59108E+01  3.73119E+01  4.30350E+01  3.67722E+01  4.08052E+01  4.16391E+01  4.06395E+01  3.86846E+01
   3.74473E+01  3.53529E+01  4.00469E+01  3.67279E+01  3.68964E+01  3.74136E+01  3.78157E+01  3.75305E+01  3.98148E+01  3.70277E+01
   3.83290E+01  3.65609E+01  3.93323E+01  4.06430E+01  4.16891E+01  3.65995E+01  3.83868E+01  4.04488E+01  4.04772E+01  3.99732E+01
   3.64548E+01  3.75132E+01  4.03211E+01  3.82205E+01  4.04838E+01  3.75335E+01  3.99040E+01  3.73979E+01  3.99092E+01  4.08456E+01
   3.93987E+01  3.74605E+01  4.14733E+01  3.70971E+01  3.99755E+01  4.01359E+01  4.05657E+01  3.92077E+01  4.01102E+01  3.95468E+01
   4.13207E+01  3.78934E+01  3.90309E+01  3.84345E+01  4.05779E+01  4.00189E+01  4.10151E+01  3.82114E+01  4.39121E+01  3.97111E+01
   4.36794E+01  4.23347E+01  3.91549E+01  4.11382E+01  4.17907E+01  3.93914E+01  4.06931E+01  4.02954E+01  4.03427E+01  4.48259E+01
   4.34590E+01  4.11425E+01  4.20109E+01  3.97949E+01  4.39376E+01  4.41898E+01  4.11734E+01  4.14705E+01  4.36689E+01  4.44508E+01
   4.21222E+01  4.22949E+01  4.67318E+01  4.46288E+01  4.51859E+01  4.30404E+01  4.43260E+01  4.22172E+01  4.49513E+01  4.37223E+01
   3.97229E+01  4.31394E+01  4.55839E+01  4.24101E+01  4.58098E+01  4.47118E+01  4.28803E+01  4.70291E+01  4.39235E+01  4.33235E+01
   4.21932E+01  4.46643E+01  4.55934E+01  4.42736E+01  4.59547E+01  4.79666E+01  4.89771E+01  4.97965E+01  5.25519E+01  4.72303E+01
   4.97057E+01  4.92534E+01  5.12194E+01  5.21952E+01  5.08041E+01  5.13996E+01  5.57955E+01  5.29994E+01  5.41981E+01  5.45297E+01
   5.69364E+01  5.49466E+01  5.31288E+01  5.97196E+01  6.01045E+01  5.89759E+01  6.07865E+01  6.20447E+01  6.12588E+01  6.00883E+01
   6.28830E+01  6.36211E+01  6.45628E+01  6.41517E+01  6.56768E+01  6.75017E+01  7.06507E+01  7.38402E+01  7.67852E+01  7.56973E+01
   7.48505E+01  7.78875E+01  7.80092E+01  7.69463E+01  8.00710E+01  8.07081E+01  8.00052E+01  8.09709E+01  8.60748E+01  8.27656E+01
   8.31762E+01  8.57597E+01  8.87429E+01  8.84486E+01  9.39390E+01  9.27830E+01  9.31408E+01  9.50734E+01  9.78099E+01  1.01707E+02
   1.01834E+02  1.05351E+02  1.02762E+02  1.08154E+02  1.13324E+02  1.13783E+02  1.15043E+02  1.20877E+02  1.26421E+02  1.28018E+02
   1.31495E+02  1.34022E+02  1.38148E+02  1.38837E+02  1.43434E+02  1.51580E+02  1.55962E+02  1.60481E+02  1.67053E+02  1.69351E+02
   1.76635E+02  1.83464E+02  1.89364E+02  2.01041E+02  2.00929E+02  2.10578E+02  2.20279E+02  2.26098E+02  2.35144E+02  2.38614E+02
   2.45261E+02  2.54681E+02  2.62159E+02  2.71584E+02  2.76514E+02  2.78150E+02  2.90075E+02  2.94434E+02  3.00440E+02  3.06015E+02
   3.12635E+02  3.18619E+02  3.22055E+02  3.28266E+02  3.32672E+02  3.40684E+02  3.42833E+02  3.46080E+02  3.58349E+02  3.64263E+02
   3.71607E+02  3.74190E+02  3.80489E+02  3.90516E+02  3.99554E+02  4.05752E+02  4.11323E+02  4.19440E+02  4.26776E+02  4.30175E+02
   4.35546E+02  4.35077E+02  4.37884E+02  4.36629E+02  4.38780E+02  4.38041E+02  4.31857E+02  4.33244E+02  4.31285E+02  4.29606E+02
   4.22890E+02  4.24392E+02  4.20481E+02  4.18309E+02  4.12656E+02  4.09050E+02  4.06502E+02  3.99644E+02  3.96060E+02  3.89698E+02
   3.86504E+02  3.76605E+02  3.69805E+02  3.62035E+02  3.56165E+02  3.47689E+02  3.42002E+02  3.32883E+02  3.26397E+02  3.19347E+02
   3.10092E+02  3.07028E+02  2.99222E+02  2.95461E+02  2.90299E+02  2.84530E+02  2.83887E+02  2.78502E+02  2.73754E+02  2.72552E+02
   2.67889E+02  2.67491E+02  2.67488E+02  2.62061E+02  2.60304E+02  2.59052E+02  2.53893E+02  2.51644E+02  2.52127E+02  2.50100E+02
   2.49982E+02  2.47530E+02  2.46237E+02  2.46268E+02  2.40989E+02  2.43567E+02  2.42104E+02  2.39361E+02  2.35524E+02  2.34407E+02
   2.35902E+02  2.31634E+02  2.29295E+02  2.26353E+02  2.27887E+02  2.24636E+02  2.22791E+02  2.20648E+02  2.19471E+02  2.16790E+02
   2.16082E+02  2.12726E+02  2.09759E+02  2.10608E+02  2.07218E+02  2.06058E+02  1.99730E+02  1.99031E+02  1.99622E+02  1.95723E+02
   1.93559E+02  1.88326E+02  1.85991E+02  1.83353E+02  1.81241E+02  1.79620E+02  1.75500E+02  1.76269E+02  1.70106E+02  1.66794E+02
   1.66628E+02  1.62286E+02  1.57332E+02  1.59350E+02  1.55200E+02  1.52983E+02  1.49445E+02  1.47523E+02  1.45843E+02  1.41695E+02
   1.45503E+02  1.39421E+02  1.36957E+02  1.37013E+02  1.32959E+02  1.30824E+02  1.28528E+02  1.26484E+02  1.24390E+02  1.22315E+02
   1.22583E+02  1.17467E+02  1.17288E+02  1.13942E+02  1.16331E+02  1.14641E+02  1.08448E+02  1.09318E+02  1.08454E+02  1.03937E+02
   1.03416E+02  1.02754E+02  9.99610E+01  1.01249E+02  9.62824E+01  9.74315E+01  9.56357E+01  9.71364E+01  9.41771E+01  9.17424E+01
   8.95798E+01  9.05510E+01  8.94081E+01  8.92676E+01  8.92332E+01  8.90328E+01  8.51567E+01  8.79233E+01  8.43831E+01  8.17855E+01
   8.20995E+01  7.99987E+01  7.92200E+01  8.10503E+01  8.11397E+01  7.83531E+01  7.43932E+01  7.48376E+01  7.45019E+01  7.29769E+01
   7.27237E+01  7.38493E+01  7.41795E+01  7.09013E+01  6.97014E+01  6.93243E+01  6.81591E+01  6.93456E+01  6.80838E+01  6.81590E+01
   6.37267E+01  6.50411E+01  6.58204E+01  6.36879E+01  6.23427E+01  6.51941E+01  6.24619E+01  6.34062E+01  6.36091E+01  6.10308E+01
   5.92882E+01  6.29488E+01  5.63891E+01  5.89917E+01  5.75132E+01  5.85472E+01  5.85700E+01  5.63143E+01  5.47457E+01  5.65015E+01
   5.75356E+01  5.88186E+01  5.65444E+01  5.64859E+01  5.50516E+01  5.48022E+01  5.43360E+01  5.43820E+01
 NY points of the fit to the data follow
   3.62057E+01  3.62104E+01  3.58788E+01  3.62115E+01  3.61304E+01  3.68642E+01  3.74048E+01  3.89419E+01  3.82112E+01  3.87401E+01
   3.74005E+01  3.74168E+01  3.58764E+01  3.56066E+01  3.43801E+01  3.53839E+01  3.47344E+01  3.57046E+01  3.51660E+01  3.58786E+01
   3.53897E+01  3.63033E+01  3.57702E+01  3.65229E+01  3.62320E+01  3.67990E+01  3.65656E+01  3.69449E+01  3.67064E+01  3.70623E+01
   3.70953E+01  3.72982E+01  3.73053E+01  3.73673E+01  3.73085E+01  3.72681E+01  3.72915E+01  3.71367E+01  3.72837E+01  3.70510E+01
   3.70691E+01  3.69691E+01  3.70292E+01  3.68318E+01  3.70921E+01  3.69056E+01  3.74866E+01  3.76390E+01  3.79777E+01  3.79233E+01
   3.81223E+01  3.77280E+01  3.77079E+01  3.70829E+01  3.71202E+01  3.68818E+01  3.71243E+01  3.69426E+01  3.72423E+01  3.70775E+01
   3.73370E+01  3.72654E+01  3.73782E+01  3.72332E+01  3.72994E+01  3.70998E+01  3.71018E+01  3.68931E+01  3.68916E+01  3.67030E+01
   3.67362E+01  3.65023E+01  3.65225E+01  3.62739E+01  3.63162E+01  3.60914E+01  3.61747E+01  3.59578E+01  3.60777E+01  3.58743E+01
   3.59563E+01  3.58001E+01  3.58897E+01  3.58125E+01  3.59862E+01  3.63841E+01  3.70380E+01  3.71391E+01  3.78370E+01  3.76436E+01
   3.83362E+01  3.79924E+01  3.87223E+01  3.82533E+01  3.90159E+01  3.83846E+01  3.90760E+01  3.83543E+01  3.89534E+01  3.82220E+01
   3.87245E+01  3.80802E+01  3.85327E+01  3.79964E+01  3.84289E+01  3.79994E+01  3.84263E+01  3.80744E+01  3.84970E+01  3.82589E+01
   3.86712E+01  3.84632E+01  3.88720E+01  3.86385E+01  3.89977E+01  3.87394E+01  3.90336E+01  3.88255E+01  3.90946E+01  3.89221E+01
   3.91279E+01  3.89187E+01  3.89938E+01  3.88341E+01  3.88367E+01  3.89200E+01  3.90268E+01  3.91352E+01  3.92468E+01  3.93567E+01
   3.94634E+01  3.95668E+01  3.96674E+01  3.97666E+01  3.98643E+01  3.99625E+01  4.00569E+01  4.01463E+01  4.02355E+01  4.03147E+01
   4.04006E+01  4.04784E+01  4.05625E+01  4.06422E+01  4.07260E+01  4.07998E+01  4.08844E+01  4.09604E+01  4.10549E+01  4.11611E+01
   4.12646E+01  4.13770E+01  4.14826E+01  4.15957E+01  4.17022E+01  4.18172E+01  4.19225E+01  4.20372E+01  4.21399E+01  4.22512E+01
   4.23497E+01  4.24563E+01  4.25547E+01  4.26602E+01  4.27594E+01  4.28666E+01  4.29734E+01  4.30898E+01  4.32014E+01  4.33288E+01
   4.34550E+01  4.35843E+01  4.37199E+01  4.38586E+01  4.40068E+01  4.41376E+01  4.41743E+01  4.42501E+01  4.41772E+01  4.40776E+01
   4.40751E+01  4.39497E+01  4.40809E+01  4.41994E+01  4.47953E+01  4.51136E+01  4.57995E+01  4.62878E+01  4.70302E+01  4.73616E+01
   4.79186E+01  4.78015E+01  4.74452E+01  4.71950E+01  4.74075E+01  4.72811E+01  4.77982E+01  4.76965E+01  4.83172E+01  4.82414E+01
   4.90524E+01  4.91071E+01  5.02096E+01  5.04364E+01  5.17206E+01  5.20840E+01  5.34612E+01  5.38861E+01  5.51778E+01  5.56426E+01
   5.68355E+01  5.73154E+01  5.84270E+01  5.89197E+01  5.99682E+01  6.04562E+01  6.14276E+01  6.17710E+01  6.21355E+01  6.24457E+01
   6.31214E+01  6.37135E+01  6.48790E+01  6.59535E+01  6.73745E+01  6.79994E+01  6.94537E+01  6.98843E+01  7.14649E+01  7.17970E+01
   7.34123E+01  7.35585E+01  7.49358E+01  7.52143E+01  7.68457E+01  7.73270E+01  7.90976E+01  7.98026E+01  8.16821E+01  8.26137E+01
   8.46880E+01  8.57738E+01  8.80109E+01  8.92624E+01  9.15954E+01  9.29562E+01  9.54113E+01  9.68940E+01  9.94894E+01  1.01111E+02
   1.03784E+02  1.05520E+02  1.08268E+02  1.10209E+02  1.13139E+02  1.15391E+02  1.18506E+02  1.21014E+02  1.24150E+02  1.26957E+02
   1.30400E+02  1.33742E+02  1.37628E+02  1.41651E+02  1.46031E+02  1.50491E+02  1.55357E+02  1.60301E+02  1.65636E+02  1.71074E+02
   1.76913E+02  1.82865E+02  1.89208E+02  1.95727E+02  2.02565E+02  2.09554E+02  2.16759E+02  2.24087E+02  2.31490E+02  2.38953E+02
   2.46396E+02  2.53797E+02  2.61116E+02  2.68321E+02  2.75376E+02  2.82256E+02  2.88939E+02  2.95417E+02  3.01683E+02  3.07743E+02
   3.13610E+02  3.19305E+02  3.24856E+02  3.30298E+02  3.35667E+02  3.41003E+02  3.46345E+02  3.51731E+02  3.57195E+02  3.62763E+02
   3.68458E+02  3.74294E+02  3.80280E+02  3.86422E+02  3.92727E+02  3.99224E+02  4.05991E+02  4.13267E+02  4.21788E+02  4.31469E+02
   4.35256E+02  4.40689E+02  4.40849E+02  4.43054E+02  4.40384E+02  4.39477E+02  4.33491E+02  4.35002E+02  4.31108E+02  4.31168E+02
   4.27217E+02  4.25089E+02  4.20588E+02  4.17137E+02  4.12919E+02  4.08930E+02  4.04935E+02  3.99840E+02  3.95222E+02  3.88898E+02
   3.83259E+02  3.75668E+02  3.69106E+02  3.61182E+02  3.54252E+02  3.46537E+02  3.39355E+02  3.31756E+02  3.24878E+02  3.17480E+02
   3.11493E+02  3.05009E+02  2.99918E+02  2.94434E+02  2.90251E+02  2.85027E+02  2.82223E+02  2.77682E+02  2.76426E+02  2.73749E+02
   2.72260E+02  2.69618E+02  2.68142E+02  2.64917E+02  2.62680E+02  2.58816E+02  2.55749E+02  2.53401E+02  2.51457E+02  2.49779E+02
   2.48287E+02  2.46925E+02  2.45642E+02  2.44396E+02  2.43148E+02  2.41864E+02  2.40514E+02  2.39078E+02  2.37539E+02  2.35891E+02
   2.34134E+02  2.32276E+02  2.30332E+02  2.28319E+02  2.26261E+02  2.24180E+02  2.22098E+02  2.20033E+02  2.17999E+02  2.16003E+02
   2.14047E+02  2.12126E+02  2.10228E+02  2.08336E+02  2.06429E+02  2.04487E+02  2.02486E+02  2.00406E+02  1.98230E+02  1.95944E+02
   1.93543E+02  1.91024E+02  1.88392E+02  1.85658E+02  1.82837E+02  1.79949E+02  1.77014E+02  1.74056E+02  1.71097E+02  1.68161E+02
   1.65266E+02  1.62431E+02  1.59669E+02  1.56990E+02  1.54401E+02  1.51906E+02  1.49504E+02  1.47194E+02  1.44971E+02  1.42827E+02
   1.40756E+02  1.38749E+02  1.36797E+02  1.34892E+02  1.33026E+02  1.31192E+02  1.29384E+02  1.27595E+02  1.25822E+02  1.24062E+02
   1.22312E+02  1.20570E+02  1.18837E+02  1.17112E+02  1.15397E+02  1.13693E+02  1.12001E+02  1.10324E+02  1.08664E+02  1.07023E+02
   1.05405E+02  1.03810E+02  1.02241E+02  1.00701E+02  9.91914E+01  9.77134E+01  9.62686E+01  9.48582E+01  9.34831E+01  9.21439E+01
   9.08411E+01  8.95750E+01  8.83454E+01  8.71525E+01  8.59956E+01  8.48746E+01  8.37886E+01  8.27372E+01  8.17195E+01  8.07347E+01
   7.97818E+01  7.88600E+01  7.79683E+01  7.71057E+01  7.62712E+01  7.54639E+01  7.46827E+01  7.39266E+01  7.31948E+01  7.24862E+01
   7.17999E+01  7.11351E+01  7.04909E+01  6.98664E+01  6.92609E+01  6.86735E+01  6.81035E+01  6.75503E+01  6.70130E+01  6.64911E+01
   6.59839E+01  6.54908E+01  6.50112E+01  6.45446E+01  6.40904E+01  6.36482E+01  6.32174E+01  6.27977E+01  6.23885E+01  6.19894E+01
   6.16001E+01  6.12202E+01  6.08493E+01  6.04870E+01  6.01330E+01  5.97871E+01  5.94489E+01  5.91181E+01  5.87945E+01  5.84778E+01
   5.81678E+01  5.78643E+01  5.75670E+01  5.72757E+01  5.69904E+01  5.67108E+01  5.64368E+01  5.61685E+01
 NY background values follow
     3.152E+01    3.150E+01    3.149E+01    3.148E+01    3.147E+01    3.146E+01    3.144E+01    3.143E+01    3.142E+01    3.140E+01
     3.139E+01    3.137E+01    3.136E+01    3.134E+01    3.132E+01    3.131E+01    3.129E+01    3.127E+01    3.126E+01    3.124E+01
     3.122E+01    3.120E+01    3.118E+01    3.116E+01    3.114E+01    3.112E+01    3.110E+01    3.108E+01    3.106E+01    3.104E+01
     3.102E+01    3.100E+01    3.098E+01    3.096E+01    3.094E+01    3.091E+01    3.089E+01    3.087E+01    3.085E+01    3.083E+01
     3.080E+01    3.078E+01    3.076E+01    3.074E+01    3.071E+01    3.069E+01    3.067E+01    3.064E+01    3.062E+01    3.060E+01
     3.057E+01    3.055E+01    3.053E+01    3.050E+01    3.048E+01    3.045E+01    3.043E+01    3.041E+01    3.038E+01    3.036E+01
     3.034E+01    3.031E+01    3.029E+01    3.027E+01    3.024E+01    3.022E+01    3.020E+01    3.017E+01    3.015E+01    3.013E+01
     3.010E+01    3.008E+01    3.006E+01    3.004E+01    3.001E+01    2.999E+01    2.997E+01    2.995E+01    2.993E+01    2.991E+01
     2.989E+01    2.986E+01    2.984E+01    2.982E+01    2.980E+01    2.978E+01    2.976E+01    2.974E+01    2.972E+01    2.971E+01
     2.969E+01    2.967E+01    2.965E+01    2.963E+01    2.961E+01    2.960E+01    2.958E+01    2.956E+01    2.955E+01    2.953E+01
     2.952E+01    2.950E+01    2.949E+01    2.947E+01    2.946E+01    2.945E+01    2.943E+01    2.942E+01    2.941E+01    2.940E+01
     2.939E+01    2.938E+01    2.936E+01    2.935E+01    2.935E+01    2.934E+01    2.933E+01    2.932E+01    2.931E+01    2.931E+01
     2.930E+01    2.929E+01    2.929E+01    2.928E+01    2.928E+01    2.928E+01    2.927E+01    2.927E+01    2.927E+01    2.927E+01
     2.927E+01    2.927E+01    2.927E+01    2.927E+01    2.927E+01    2.928E+01    2.928E+01    2.928E+01    2.929E+01    2.930E+01
     2.930E+01    2.931E+01    2.932E+01    2.932E+01    2.933E+01    2.934E+01    2.935E+01    2.937E+01    2.938E+01    2.939E+01
     2.940E+01    2.942E+01    2.943E+01    2.945E+01    2.947E+01    2.949E+01    2.950E+01    2.952E+01    2.954E+01    2.957E+01
     2.959E+01    2.961E+01    2.964E+01    2.966E+01    2.969E+01    2.971E+01    2.974E+01    2.977E+01    2.980E+01    2.983E+01
     2.986E+01    2.989E+01    2.992E+01    2.996E+01    2.999E+01    3.003E+01    3.007E+01    3.010E+01    3.014E+01    3.018E+01
     3.022E+01    3.026E+01    3.030E+01    3.034E+01    3.039E+01    3.043E+01    3.047E+01    3.052E+01    3.056E+01    3.061E+01
     3.066E+01    3.071E+01    3.075E+01    3.080E+01    3.085E+01    3.090E+01    3.096E+01    3.101E+01    3.106E+01    3.111E+01
     3.117E+01    3.122E+01    3.128E+01    3.133E+01    3.139E+01    3.145E+01    3.150E+01    3.156E+01    3.162E+01    3.168E+01
     3.174E+01    3.180E+01    3.186E+01    3.192E+01    3.198E+01    3.204E+01    3.210E+01    3.217E+01    3.223E+01    3.229E+01
     3.236E+01    3.242E+01    3.249E+01    3.255E+01    3.262E+01    3.268E+01    3.275E+01    3.282E+01    3.288E+01    3.295E+01
     3.302E+01    3.309E+01    3.316E+01    3.322E+01    3.329E+01    3.336E+01    3.343E+01    3.350E+01    3.357E+01    3.364E+01
     3.371E+01    3.378E+01    3.385E+01    3.393E+01    3.400E+01    3.407E+01    3.414E+01    3.421E+01    3.428E+01    3.436E+01
     3.443E+01    3.450E+01    3.457E+01    3.465E+01    3.472E+01    3.479E+01    3.487E+01    3.494E+01    3.501E+01    3.509E+01
     3.516E+01    3.523E+01    3.530E+01    3.538E+01    3.545E+01    3.552E+01    3.560E+01    3.567E+01    3.574E+01    3.582E+01
     3.589E+01    3.596E+01    3.604E+01    3.611E+01    3.618E+01    3.626E+01    3.633E+01    3.640E+01    3.647E+01    3.655E+01
     3.662E+01    3.669E+01    3.676E+01    3.683E+01    3.690E+01    3.698E+01    3.705E+01    3.712E+01    3.719E+01    3.726E+01
     3.733E+01    3.740E+01    3.747E+01    3.754E+01    3.761E+01    3.768E+01    3.774E+01    3.781E+01    3.788E+01    3.795E+01
     3.801E+01    3.808E+01    3.815E+01    3.821E+01    3.828E+01    3.834E+01    3.841E+01    3.847E+01    3.854E+01    3.860E+01
     3.867E+01    3.873E+01    3.879E+01    3.885E+01    3.891E+01    3.898E+01    3.904E+01    3.910E+01    3.916E+01    3.921E+01
     3.927E+01    3.933E+01    3.939E+01    3.944E+01    3.950E+01    3.956E+01    3.961E+01    3.967E+01    3.972E+01    3.977E+01
     3.983E+01    3.988E+01    3.993E+01    3.998E+01    4.003E+01    4.008E+01    4.013E+01    4.018E+01    4.022E+01    4.027E+01
     4.032E+01    4.036E+01    4.041E+01    4.045E+01    4.050E+01    4.054E+01    4.058E+01    4.062E+01    4.067E+01    4.071E+01
     4.075E+01    4.079E+01    4.082E+01    4.086E+01    4.090E+01    4.094E+01    4.097E+01    4.101E+01    4.104E+01    4.108E+01
     4.111E+01    4.115E+01    4.118E+01    4.121E+01    4.124E+01    4.127E+01    4.130E+01    4.133E+01    4.136E+01    4.139E+01
     4.142E+01    4.144E+01    4.147E+01    4.150E+01    4.152E+01    4.155E+01    4.157E+01    4.159E+01    4.162E+01    4.164E+01
     4.166E+01    4.168E+01    4.170E+01    4.172E+01    4.174E+01    4.176E+01    4.178E+01    4.180E+01    4.182E+01    4.183E+01
     4.185E+01    4.186E+01    4.188E+01    4.189E+01    4.191E+01    4.192E+01    4.193E+01    4.194E+01    4.196E+01    4.197E+01
     4.198E+01    4.199E+01    4.200E+01    4.200E+01    4.201E+01    4.202E+01    4.203E+01    4.203E+01    4.204E+01    4.204E+01
     4.205E+01    4.205E+01    4.206E+01    4.206E+01    4.206E+01    4.206E+01    4.206E+01    4.207E+01    4.207E+01    4.206E+01
     4.206E+01    4.206E+01    4.206E+01    4.206E+01    4.206E+01    4.205E+01    4.205E+01    4.204E+01    4.204E+01    4.203E+01
     4.203E+01    4.202E+01    4.201E+01    4.200E+01    4.200E+01    4.199E+01    4.198E+01    4.197E+01    4.196E+01    4.195E+01
     4.193E+01    4.192E+01    4.191E+01    4.190E+01    4.188E+01    4.187E+01    4.185E+01    4.184E+01    4.182E+01    4.181E+01
     4.179E+01    4.177E+01    4.176E+01    4.174E+01    4.172E+01    4.170E+01    4.168E+01    4.166E+01    4.164E+01    4.162E+01
     4.160E+01    4.157E+01    4.155E+01    4.153E+01    4.150E+01    4.148E+01    4.145E+01    4.143E+01    4.140E+01    4.138E+01
     4.135E+01    4.132E+01    4.130E+01    4.127E+01    4.124E+01    4.121E+01    4.118E+01    4.115E+01    4.112E+01    4.109E+01
     4.106E+01    4.103E+01    4.099E+01    4.096E+01    4.093E+01    4.089E+01    4.086E+01    4.082E+01    4.079E+01    4.075E+01
     4.072E+01    4.068E+01    4.064E+01    4.060E+01    4.057E+01    4.053E+01    4.049E+01    4.045E+01
 Ala      Conc. = 6.07E+03
