 LCModel (Version 6.3-1L) Copyright: S.W. Provencher.          Ref.: Magn. Reson. Med. 30:672-679 (1993).                
 Slice#1 Row#1 Col#10  PD_24_press_1_raw_act
 36 lines in following concentration table = NCONC+1
    Conc.  %SD /Cr+PCr  Metabolite                                         
    0.000 999%   0.000 Ala                                                 
    7.261  37%   0.155 Asp                                                 
   46.786  37%   1.000 Cr                                                  
    0.000 999%   0.000 PCr                                                 
    4.337  37% 9.3E-02 GABA                                                
    4.316  38% 9.2E-02 Glc                                                 
   33.570 190%   0.718 Gln                                                 
   94.781  75%   2.026 Glu                                                 
   22.434  31%   0.480 GPC                                                 
    0.000 999%   0.000 PCh                                                 
   23.774  98%   0.508 GSH                                                 
   22.420 313%   0.479 Ins                                                 
  185.584  34%   3.967 Lac                                                 
   30.534  62%   0.653 NAA                                                 
    0.000 999%   0.000 NAAG                                                
    1.426  38% 3.0E-02 Scyllo                                              
    7.133  38%   0.152 Tau                                                 
    4.231  76% 9.0E-02 -CrCH2                                              
   22.434  31%   0.480 GPC+PCh                                             
   30.534  62%   0.653 NAA+NAAG                                            
   46.786  37%   1.000 Cr+PCr                                              
  128.350  72%   2.743 Glu+Gln                                             
    0.000 999%   0.000 Lip13a                                              
  431.843  21%   9.230 Lip13b                                              
    0.000 999%   0.000 Lip09                                               
    0.000 999%   0.000 MM09                                                
   44.127  87%   0.943 Lip20                                               
    0.000 999%   0.000 MM20                                                
 1.25E-04 999% 2.7E-06 MM12                                                
 1.14E-02 999% 2.4E-04 MM14                                                
 9.39E-03 999% 2.0E-04 MM17                                                
  431.843  21%   9.230 Lip13a+Lip13b                                       
  431.855  21%   9.230 MM14+Lip13a+Lip13b+MM12                             
    0.000 999%   0.000 MM09+Lip09                                          
   44.127  87%   0.943 MM20+Lip20                                          
   6 lines in following misc. output table
  FWHM = 0.038 ppm    S/N =   2                                            
  Data shift = 0.031 ppm                                                   
  Ph:-127 deg     -45.4 deg/ppm                                            
  alphaB,S = 8.5E+01,   2.6E+01                                            
   14 spline knots.   Ns = 5(1)                                            
   2 inflections.     1 extrema                                            
  498 points on ppm-axis = NY
      4.000000     3.992357     3.984714     3.977070     3.969427     3.961784     3.954141     3.946497     3.938854     3.931211
      3.923568     3.915925     3.908281     3.900638     3.892995     3.885352     3.877708     3.870065     3.862422     3.854779
      3.847136     3.839492     3.831849     3.824206     3.816563     3.808919     3.801276     3.793633     3.785990     3.778347
      3.770703     3.763060     3.755417     3.747774     3.740130     3.732487     3.724844     3.717201     3.709558     3.701914
      3.694271     3.686628     3.678985     3.671341     3.663698     3.656055     3.648412     3.640769     3.633125     3.625482
      3.617839     3.610196     3.602552     3.594909     3.587266     3.579623     3.571980     3.564336     3.556693     3.549050
      3.541407     3.533763     3.526120     3.518477     3.510834     3.503191     3.495547     3.487904     3.480261     3.472618
      3.464974     3.457331     3.449688     3.442045     3.434402     3.426758     3.419115     3.411472     3.403829     3.396185
      3.388542     3.380899     3.373256     3.365613     3.357969     3.350326     3.342683     3.335040     3.327396     3.319753
      3.312110     3.304467     3.296824     3.289180     3.281537     3.273894     3.266251     3.258607     3.250964     3.243321
      3.235678     3.228034     3.220391     3.212748     3.205105     3.197462     3.189818     3.182175     3.174532     3.166889
      3.159245     3.151602     3.143959     3.136316     3.128673     3.121029     3.113386     3.105743     3.098100     3.090456
      3.082813     3.075170     3.067527     3.059884     3.052240     3.044597     3.036954     3.029311     3.021667     3.014024
      3.006381     2.998738     2.991095     2.983451     2.975808     2.968165     2.960522     2.952878     2.945235     2.937592
      2.929949     2.922306     2.914662     2.907019     2.899376     2.891733     2.884089     2.876446     2.868803     2.861160
      2.853517     2.845873     2.838230     2.830587     2.822944     2.815300     2.807657     2.800014     2.792371     2.784728
      2.777084     2.769441     2.761798     2.754155     2.746511     2.738868     2.731225     2.723582     2.715939     2.708295
      2.700652     2.693009     2.685366     2.677722     2.670079     2.662436     2.654793     2.647150     2.639506     2.631863
      2.624220     2.616577     2.608933     2.601290     2.593647     2.586004     2.578361     2.570717     2.563074     2.555431
      2.547788     2.540144     2.532501     2.524858     2.517215     2.509572     2.501928     2.494285     2.486642     2.478999
      2.471355     2.463712     2.456069     2.448426     2.440783     2.433139     2.425496     2.417853     2.410210     2.402566
      2.394923     2.387280     2.379637     2.371994     2.364350     2.356707     2.349064     2.341421     2.333777     2.326134
      2.318491     2.310848     2.303205     2.295561     2.287918     2.280275     2.272632     2.264988     2.257345     2.249702
      2.242059     2.234416     2.226772     2.219129     2.211486     2.203843     2.196199     2.188556     2.180913     2.173270
      2.165627     2.157983     2.150340     2.142697     2.135054     2.127410     2.119767     2.112124     2.104481     2.096838
      2.089194     2.081551     2.073908     2.066265     2.058621     2.050978     2.043335     2.035692     2.028049     2.020405
      2.012762     2.005119     1.997476     1.989833     1.982190     1.974546     1.966903     1.959260     1.951617     1.943974
      1.936331     1.928688     1.921045     1.913402     1.905759     1.898115     1.890472     1.882829     1.875186     1.867543
      1.859900     1.852257     1.844614     1.836971     1.829327     1.821684     1.814041     1.806398     1.798755     1.791112
      1.783469     1.775826     1.768183     1.760540     1.752896     1.745253     1.737610     1.729967     1.722324     1.714681
      1.707038     1.699395     1.691752     1.684108     1.676465     1.668822     1.661179     1.653536     1.645893     1.638250
      1.630607     1.622964     1.615321     1.607677     1.600034     1.592391     1.584748     1.577105     1.569462     1.561819
      1.554176     1.546533     1.538890     1.531246     1.523603     1.515960     1.508317     1.500674     1.493031     1.485388
      1.477745     1.470102     1.462458     1.454815     1.447172     1.439529     1.431886     1.424243     1.416600     1.408957
      1.401314     1.393671     1.386027     1.378384     1.370741     1.363098     1.355455     1.347812     1.340169     1.332526
      1.324883     1.317240     1.309596     1.301953     1.294310     1.286667     1.279024     1.271381     1.263738     1.256095
      1.248452     1.240808     1.233165     1.225522     1.217879     1.210236     1.202593     1.194950     1.187307     1.179664
      1.172021     1.164377     1.156734     1.149091     1.141448     1.133805     1.126162     1.118519     1.110876     1.103233
      1.095590     1.087946     1.080303     1.072660     1.065017     1.057374     1.049731     1.042088     1.034445     1.026802
      1.019158     1.011515     1.003872     0.996229     0.988586     0.980943     0.973300     0.965657     0.958014     0.950371
      0.942727     0.935084     0.927441     0.919798     0.912155     0.904512     0.896869     0.889226     0.881583     0.873940
      0.866296     0.858653     0.851010     0.843367     0.835724     0.828081     0.820438     0.812795     0.805152     0.797508
      0.789865     0.782222     0.774579     0.766936     0.759293     0.751650     0.744007     0.736364     0.728721     0.721077
      0.713434     0.705791     0.698148     0.690505     0.682862     0.675219     0.667576     0.659933     0.652290     0.644646
      0.637003     0.629360     0.621717     0.614074     0.606431     0.598788     0.591145     0.583502     0.575858     0.568215
      0.560572     0.552929     0.545286     0.537643     0.530000     0.522357     0.514714     0.507071     0.499427     0.491784
      0.484141     0.476498     0.468855     0.461212     0.453569     0.445925     0.438282     0.430639     0.422996     0.415353
      0.407710     0.400067     0.392424     0.384780     0.377137     0.369494     0.361851     0.354208     0.346565     0.338922
      0.331278     0.323635     0.315992     0.308349     0.300706     0.293063     0.285420     0.277777     0.270133     0.262490
      0.254847     0.247204     0.239561     0.231918     0.224275     0.216631     0.208988     0.201345
 NY phased data points follow
   1.21377E+00  2.88988E+00  3.11909E+00  3.62747E+00  1.19795E+00  1.82787E+00  1.36502E+00  1.38352E+00  2.71697E+00  3.87257E+00
   2.45973E+00  2.10436E+00  4.24892E+00  2.06550E+00  3.71020E+00  5.31408E+00  2.62993E+00  1.72688E+00  1.87506E+00  4.50141E-01
   3.25188E+00  5.36141E+00  3.96628E+00  2.10331E+00  3.04099E+00  2.47575E+00 -1.56573E-01  3.00992E-01  2.42044E+00  1.73098E+00
  -5.90018E-01  2.28115E+00  2.31147E+00  3.55618E+00  7.29921E-01  3.14113E+00  1.18319E+00  2.09349E-01  1.93661E+00  1.86840E+00
  -1.01553E+00  2.46307E+00  2.68304E+00  2.99268E-01  1.01616E+00  3.26698E+00  3.40773E+00  6.91465E-02  3.70712E+00  8.60333E-01
   1.65334E+00  8.00161E-02  2.06406E+00 -5.73722E-01  2.60535E+00  2.53374E+00 -2.25056E-02  1.14614E+00 -4.72668E-01  1.04883E+00
   1.03489E+00  4.96264E-01  2.44404E+00  2.76624E+00 -1.97469E+00  1.20295E+00  5.32610E-01  5.44862E-01  3.08207E+00  2.19852E+00
   2.70708E+00 -2.35231E-01 -1.09333E-01 -1.03613E+00  1.31764E+00 -2.64580E+00 -1.42245E+00  3.22430E-01  1.79497E-01  1.20564E-01
  -1.23868E+00  1.68141E+00  1.23122E+00  1.16191E-02  3.61112E+00  3.12913E+00  1.78534E-01  1.62273E-01 -5.25543E-01  5.60262E-01
  -7.05734E-01 -1.12333E+00  1.52114E+00  7.17458E-01  5.82056E-01 -8.86911E-01 -1.67729E+00 -5.46699E-01 -1.33627E+00 -1.96643E+00
   8.56977E-01  7.11697E-01  2.08789E+00 -4.48127E-02  2.78375E+00  6.24522E+00  4.09833E+00 -8.35161E-01  2.77063E+00  3.76599E+00
   3.58792E-01  3.08974E+00  3.47050E+00 -1.22792E+00 -4.09033E-01 -5.81474E-01 -2.90227E-01  8.80654E-01 -1.32891E-01  4.48353E-02
   8.55869E-01  1.01802E+00 -1.96279E+00 -2.43827E+00  1.72978E+00  1.36514E-01  7.59426E-02  2.37345E+00  2.34542E+00  1.01001E-02
   1.26032E+00  1.99597E+00  2.82341E+00  6.97306E-01  3.76329E+00 -8.07108E-01  1.48837E+00 -1.79353E-02  1.73902E+00 -7.43693E-01
   1.43688E+00  1.37405E+00 -3.56811E-02  7.20947E-01  1.57036E-01  1.37394E+00  2.97070E+00 -2.72920E+00  2.07713E+00 -7.85008E-01
  -5.84718E-01  2.14819E+00  1.12286E+00  7.33847E-01 -9.94544E-01  8.26249E-01 -3.88455E-01 -2.00580E+00 -7.19984E-01  4.45073E-01
  -2.83375E-01 -2.33954E+00  1.80999E-01  6.51090E-01 -2.15882E+00  1.76528E+00  6.22919E-01 -1.70149E+00 -7.83174E-01  1.33718E+00
   1.75529E+00  1.67020E+00  2.62096E+00  1.13383E+00  4.99582E-01  1.38519E-01 -7.01417E-01 -1.34465E+00 -5.45455E-01 -4.32712E-01
   5.55318E-01  2.36452E+00  8.26311E-01 -4.34739E-01  5.91087E-01 -2.79349E-01  1.77782E+00  1.67377E+00 -1.80465E+00  1.51816E+00
   1.61402E+00  1.69854E+00 -1.95114E+00  8.72762E-01 -8.57060E-01 -6.67049E-01  5.10106E-01  2.21034E-01  1.36974E+00  3.29979E-01
  -2.49175E-01 -1.65421E+00 -5.91146E-03 -1.86714E+00  5.35837E-02 -1.18239E-01 -8.77702E-01 -5.08338E-02  1.88875E+00  1.38888E+00
   1.19046E+00  1.39059E+00 -9.46319E-01 -1.65322E+00  8.68294E-01 -1.92569E+00 -8.30494E-01 -1.86629E+00  6.11444E-01 -2.28235E+00
   1.39172E+00 -3.25391E-01 -9.24411E-02  3.45816E-01 -3.12898E+00 -1.06650E-01 -3.77290E+00 -4.51180E-01 -1.21415E-01  8.08662E-01
  -8.91805E-01  1.42440E+00 -5.44327E-01 -1.58338E+00  1.62988E-01  1.55052E+00 -9.54241E-01 -9.31412E-02 -7.31921E-01  1.31650E+00
   1.85142E+00  4.02294E-01  6.14916E-01  1.10265E+00 -1.15259E+00  2.67957E+00 -8.09511E-01  6.03125E-01 -6.61554E-01 -2.85768E+00
   3.77857E-01 -2.28024E+00 -2.57837E+00  1.53433E+00  5.37331E-01  1.72736E+00 -9.33180E-01 -2.83328E+00 -3.55695E+00 -2.92432E+00
   1.21820E-02  2.02430E-01  1.24375E+00  6.14495E-01  8.70654E-01  3.95928E+00  4.30698E-01  4.52626E-01  8.18851E-01  1.54987E+00
   1.59258E+00 -3.29788E-01  1.77694E+00  1.23749E+00  7.38046E-01  1.29697E+00 -4.61761E-01  4.20184E-01  6.89934E-01  1.21273E+00
  -1.25597E+00  1.79004E+00 -2.20882E+00  1.27515E+00 -2.96108E+00  7.19391E-01  1.12289E+00 -7.14605E-01 -1.34042E+00 -2.41217E-03
  -2.67182E-01 -7.00009E-01  2.73506E+00  7.74572E-01 -8.59079E-01  1.83980E-01 -8.08687E-01  6.80308E-02  1.15237E+00 -3.52092E-01
   7.50346E-01  2.27667E+00 -1.18924E-01  4.38064E+00  5.74550E-01  1.84416E-01 -2.40340E-01  9.51221E-01 -1.00400E+00  5.17291E-01
  -7.72807E-01 -3.13885E+00 -1.91127E+00  1.70804E+00 -2.31634E-01 -5.75074E-02 -3.53773E-01  2.61519E+00  4.52367E+00 -2.82678E-01
   1.59486E+00  7.32225E-01 -2.23408E-01 -3.99243E-01  1.22284E+00  1.02529E+00  2.27789E-01 -1.63841E+00 -7.75141E-01 -2.49328E+00
  -1.81045E+00  6.26851E-01  1.27381E+00 -1.15352E+00  1.05895E+00 -8.18526E-03  1.32326E+00 -2.02734E+00 -1.06998E+00 -2.64240E-01
   7.19215E-01  1.27582E+00  1.14694E+00  2.86299E-01  1.88683E+00  3.76814E+00  5.15112E+00  3.43284E+00  6.60206E+00  6.03250E+00
   5.03329E+00  7.95639E+00  4.19846E+00  1.99852E+00  2.63520E+00  1.52322E+00  1.09909E+00  5.12402E-01  1.77840E+00  9.84045E-01
   2.69896E+00  3.50615E+00  2.53809E+00  2.69880E+00  1.65667E+00  2.11173E+00  3.44359E+00  8.67897E-01  8.13474E-01  2.66284E+00
   2.17026E+00  2.05183E+00 -5.08705E-01  1.45299E+00 -1.45983E+00 -1.06426E+00 -1.37223E+00  4.30117E-01 -1.49064E+00 -1.99934E+00
   9.40018E-01 -2.67747E+00  2.46095E-01 -3.48294E+00 -2.47608E+00  1.40760E+00 -1.51719E+00 -2.48753E+00 -2.76495E+00 -2.75611E+00
  -1.27769E+00 -1.33224E+00 -8.95348E-01 -8.81937E-01  2.11454E+00  1.16996E+00 -1.90598E+00 -1.79351E+00 -2.43145E+00  4.59419E-01
   7.22506E-01 -1.27408E+00 -1.79119E+00 -2.31847E+00 -9.85768E-01 -7.72792E-01  1.75750E+00 -2.37917E+00 -1.35085E+00 -2.42881E-01
  -1.56146E+00 -4.42879E+00 -1.72332E+00 -2.13724E+00 -1.95258E+00 -6.38502E-01 -1.43628E+00 -2.66279E+00 -1.79590E+00  2.00774E-03
  -1.91419E+00  1.07818E+00 -1.72385E+00 -2.11299E+00 -6.75825E+00 -6.80989E-01 -6.31501E-01 -2.40958E+00 -3.04854E+00 -1.63804E+00
  -1.30289E+00 -2.16289E+00 -1.56604E+00 -8.11800E-01 -2.40072E+00 -3.47947E+00 -2.44322E+00 -1.82339E+00 -8.28741E-02 -3.05460E-01
  -9.34086E-01  6.96191E-01  4.77370E-01 -4.96630E-01 -2.60990E+00 -3.86487E-01 -3.60722E-01 -3.90589E+00 -2.87698E-02 -1.73211E+00
   8.59185E-01 -5.44301E-01 -2.72760E+00  1.26641E+00 -2.05393E+00 -1.62621E-01 -3.60327E-01  1.43804E+00 -2.89784E+00 -2.09479E-01
  -3.90312E+00 -1.08274E+00  9.25021E-01 -3.08097E-01  7.02478E-01 -1.52041E+00 -1.18314E-02 -1.35534E+00  2.32333E-01 -2.80281E+00
   2.05325E+00  1.26178E+00  6.51503E-02 -2.54497E+00 -1.48384E+00  1.78551E+00 -2.39508E+00 -1.13458E+00  1.86360E-01  6.64991E-01
  -4.22982E-01  1.45204E-02 -1.44943E+00 -2.38750E+00 -5.25675E-01 -1.60131E+00 -2.24065E+00 -3.29547E-01 -1.70121E+00  1.55629E+00
  -9.06554E-01 -1.32926E+00  3.58584E-01  4.80793E-01 -2.14312E+00 -2.05997E+00 -4.92049E-01  1.62966E-01
 NY points of the fit to the data follow
   1.21548E+00  1.06238E+00  9.77362E-01  9.90608E-01  1.09331E+00  1.21329E+00  1.25094E+00  1.25979E+00  1.34039E+00  1.50039E+00
   1.70101E+00  1.93320E+00  2.19912E+00  2.46220E+00  2.62756E+00  2.58084E+00  2.27014E+00  1.81023E+00  1.49016E+00  1.40056E+00
   1.36972E+00  1.33963E+00  1.31441E+00  1.30922E+00  1.31227E+00  1.28522E+00  1.24402E+00  1.22483E+00  1.23424E+00  1.28338E+00
   1.39393E+00  1.57275E+00  1.80166E+00  2.01891E+00  2.12448E+00  2.01653E+00  1.74422E+00  1.47665E+00  1.23823E+00  1.04085E+00
   9.50964E-01  9.69337E-01  1.06120E+00  1.16541E+00  1.25417E+00  1.29989E+00  1.30612E+00  1.31542E+00  1.32554E+00  1.33257E+00
   1.33811E+00  1.31524E+00  1.24785E+00  1.16694E+00  1.10273E+00  1.05721E+00  1.02408E+00  1.00894E+00  1.00703E+00  1.01127E+00
   1.01568E+00  1.01784E+00  1.01858E+00  1.01464E+00  9.98042E-01  9.66021E-01  9.31039E-01  9.04831E-01  8.91969E-01  8.93202E-01
   8.99072E-01  9.03351E-01  9.06744E-01  9.11663E-01  9.18795E-01  9.24416E-01  9.28828E-01  9.25281E-01  9.10923E-01  8.91779E-01
   8.65453E-01  8.30940E-01  8.06127E-01  8.05647E-01  8.19680E-01  8.36115E-01  8.48748E-01  8.52595E-01  8.44949E-01  8.25322E-01
   7.91799E-01  7.47320E-01  7.07560E-01  6.95589E-01  7.02390E-01  7.07883E-01  7.04972E-01  6.81129E-01  6.14200E-01  6.33099E-01
   8.63762E-01  1.26334E+00  1.76042E+00  2.34059E+00  2.95749E+00  3.46073E+00  3.62663E+00  3.27642E+00  2.43383E+00  1.46015E+00
   9.49327E-01  8.08538E-01  7.50364E-01  7.15362E-01  6.89809E-01  6.72690E-01  6.59298E-01  6.46307E-01  6.33483E-01  6.20368E-01
   6.04846E-01  5.80723E-01  5.26434E-01  5.04825E-01  6.26137E-01  8.88782E-01  1.23810E+00  1.65132E+00  2.10333E+00  2.50310E+00
   2.70140E+00  2.56311E+00  2.06406E+00  1.39152E+00  9.58238E-01  8.18228E-01  7.31387E-01  6.34966E-01  5.31177E-01  4.44405E-01
   4.12887E-01  4.56240E-01  5.38575E-01  6.21442E-01  6.79093E-01  6.92182E-01  6.68246E-01  6.30223E-01  5.90771E-01  5.66402E-01
   5.47634E-01  5.29338E-01  5.10976E-01  4.94975E-01  4.80613E-01  4.67177E-01  4.58216E-01  4.52330E-01  4.46304E-01  4.39158E-01
   4.29336E-01  4.15562E-01  3.97431E-01  3.79413E-01  3.68105E-01  3.66511E-01  3.73305E-01  3.81282E-01  3.80832E-01  3.70426E-01
   3.55510E-01  3.40859E-01  3.30706E-01  3.19011E-01  3.03853E-01  2.88453E-01  2.73167E-01  2.56384E-01  2.37577E-01  2.20342E-01
   2.10880E-01  2.09739E-01  2.08887E-01  1.97224E-01  1.74025E-01  1.53781E-01  1.42530E-01  1.40444E-01  1.45329E-01  1.62042E-01
   1.97560E-01  2.53272E-01  3.14543E-01  3.56169E-01  3.50329E-01  2.88893E-01  1.91599E-01  8.75223E-02  7.46580E-03 -2.66500E-02
  -9.51258E-03  5.63281E-02  1.72215E-01  3.14630E-01  4.35518E-01  5.02749E-01  5.09944E-01  4.46168E-01  3.21778E-01  1.60271E-01
  -2.26185E-02 -2.02776E-01 -3.07322E-01 -2.66322E-01 -8.86369E-02  1.84587E-01  5.01924E-01  7.47742E-01  8.64614E-01  8.13896E-01
   5.60654E-01  1.67963E-01 -2.44752E-01 -5.27478E-01 -6.51304E-01 -6.41805E-01 -4.78888E-01 -1.84906E-01  1.41411E-01  3.56762E-01
   3.99486E-01  3.43303E-01  2.63079E-01  1.64487E-01  8.41984E-02  5.78539E-02  8.79167E-02  1.54083E-01  2.21713E-01  2.52759E-01
   2.43520E-01  1.99057E-01  1.19419E-01 -1.21216E-03 -1.16934E-01 -1.72104E-01 -1.67134E-01 -1.20657E-01 -4.63631E-02  3.46545E-02
   5.57322E-02  2.70650E-02 -1.43639E-02 -4.06447E-02 -5.33611E-02 -5.91375E-02 -5.44444E-02  1.07206E-02  1.43794E-01  3.09686E-01
   5.16261E-01  7.85892E-01  1.08697E+00  1.32393E+00  1.37692E+00  1.15972E+00  7.20823E-01  3.17866E-01  1.41794E-01  4.95366E-02
  -2.01433E-02 -6.53087E-02 -9.33839E-02 -1.19576E-01 -1.31193E-01 -1.25598E-01 -1.08207E-01 -8.90461E-02 -7.80815E-02 -8.48322E-02
  -1.06465E-01 -1.32692E-01 -1.58571E-01 -1.81880E-01 -2.00112E-01 -2.12595E-01 -2.19609E-01 -2.23188E-01 -2.27524E-01 -2.32827E-01
  -2.39088E-01 -2.46833E-01 -2.55498E-01 -2.64006E-01 -2.72157E-01 -2.80430E-01 -2.88797E-01 -2.96635E-01 -3.04023E-01 -3.11295E-01
  -3.18222E-01 -3.24980E-01 -3.31602E-01 -3.38082E-01 -3.44422E-01 -3.50654E-01 -3.56811E-01 -3.62947E-01 -3.69129E-01 -3.75421E-01
  -3.81712E-01 -3.87886E-01 -3.93957E-01 -3.99891E-01 -4.05678E-01 -4.11350E-01 -4.16932E-01 -4.22422E-01 -4.27754E-01 -4.32865E-01
  -4.37729E-01 -4.42370E-01 -4.46791E-01 -4.50936E-01 -4.54679E-01 -4.57913E-01 -4.60564E-01 -4.62576E-01 -4.63811E-01 -4.64009E-01
  -4.62787E-01 -4.59686E-01 -4.54103E-01 -4.45136E-01 -4.31318E-01 -4.10383E-01 -3.79016E-01 -3.32586E-01 -2.64725E-01 -1.66947E-01
  -2.85383E-02  1.62502E-01  4.14688E-01  7.34058E-01  1.25346E+00  2.09956E+00  3.12478E+00  4.13399E+00  5.03668E+00  5.71618E+00
   5.93554E+00  5.36495E+00  3.99830E+00  2.32175E+00  1.00420E+00  6.52613E-01  1.07933E+00  1.73484E+00  2.58847E+00  3.48160E+00
   4.05481E+00  3.91489E+00  2.98144E+00  1.98044E+00  1.35079E+00  9.33256E-01  6.35406E-01  4.15510E-01  2.49425E-01  1.21413E-01
   2.07909E-02 -5.98544E-02 -1.25784E-01 -1.80829E-01 -2.27746E-01 -2.68441E-01 -3.04175E-01 -3.35849E-01 -3.64190E-01 -3.89846E-01
  -4.13319E-01 -4.34948E-01 -4.54931E-01 -4.73447E-01 -4.90702E-01 -5.06924E-01 -5.22272E-01 -5.36825E-01 -5.50612E-01 -5.63697E-01
  -5.76184E-01 -5.88191E-01 -5.99770E-01 -6.10926E-01 -6.21653E-01 -6.31994E-01 -6.42023E-01 -6.51802E-01 -6.61336E-01 -6.70608E-01
  -6.79612E-01 -6.88392E-01 -6.96999E-01 -7.05464E-01 -7.13768E-01 -7.21892E-01 -7.29838E-01 -7.37653E-01 -7.45370E-01 -7.52995E-01
  -7.60499E-01 -7.67872E-01 -7.75128E-01 -7.82310E-01 -7.89431E-01 -7.96484E-01 -8.03440E-01 -8.10300E-01 -8.17085E-01 -8.23829E-01
  -8.30531E-01 -8.37175E-01 -8.43738E-01 -8.50234E-01 -8.56685E-01 -8.63114E-01 -8.69507E-01 -8.75847E-01 -8.82122E-01 -8.88353E-01
  -8.94560E-01 -9.00753E-01 -9.06911E-01 -9.13020E-01 -9.19080E-01 -9.25114E-01 -9.31136E-01 -9.37144E-01 -9.43116E-01 -9.49047E-01
  -9.54943E-01 -9.60828E-01 -9.66705E-01 -9.72567E-01 -9.78392E-01 -9.84183E-01 -9.89952E-01 -9.95719E-01 -1.00148E+00 -1.00722E+00
  -1.01292E+00 -1.01861E+00 -1.02428E+00 -1.02995E+00 -1.03562E+00 -1.04126E+00 -1.04687E+00 -1.05247E+00 -1.05806E+00 -1.06366E+00
  -1.06924E+00 -1.07480E+00 -1.08034E+00 -1.08587E+00 -1.09140E+00 -1.09693E+00 -1.10245E+00 -1.10794E+00 -1.11342E+00 -1.11890E+00
  -1.12438E+00 -1.12986E+00 -1.13532E+00 -1.14076E+00 -1.14619E+00 -1.15164E+00 -1.15708E+00 -1.16251E+00 -1.16792E+00 -1.17332E+00
  -1.17873E+00 -1.18414E+00 -1.18955E+00 -1.19494E+00 -1.20033E+00 -1.20571E+00 -1.21109E+00 -1.21648E+00 -1.22187E+00 -1.22725E+00
  -1.23261E+00 -1.23799E+00 -1.24337E+00 -1.24876E+00 -1.25414E+00 -1.25951E+00 -1.26489E+00 -1.27028E+00
 NY background values follow
     1.182E+00    1.177E+00    1.172E+00    1.166E+00    1.161E+00    1.156E+00    1.151E+00    1.146E+00    1.141E+00    1.136E+00
     1.131E+00    1.126E+00    1.121E+00    1.115E+00    1.110E+00    1.105E+00    1.100E+00    1.095E+00    1.090E+00    1.085E+00
     1.080E+00    1.075E+00    1.070E+00    1.064E+00    1.059E+00    1.054E+00    1.049E+00    1.044E+00    1.039E+00    1.034E+00
     1.029E+00    1.024E+00    1.018E+00    1.013E+00    1.008E+00    1.003E+00    9.980E-01    9.929E-01    9.878E-01    9.827E-01
     9.776E-01    9.725E-01    9.674E-01    9.623E-01    9.572E-01    9.521E-01    9.470E-01    9.419E-01    9.368E-01    9.317E-01
     9.266E-01    9.215E-01    9.164E-01    9.113E-01    9.062E-01    9.011E-01    8.959E-01    8.908E-01    8.857E-01    8.806E-01
     8.755E-01    8.704E-01    8.653E-01    8.602E-01    8.551E-01    8.500E-01    8.449E-01    8.398E-01    8.347E-01    8.296E-01
     8.245E-01    8.194E-01    8.143E-01    8.092E-01    8.041E-01    7.990E-01    7.939E-01    7.888E-01    7.837E-01    7.786E-01
     7.734E-01    7.683E-01    7.632E-01    7.581E-01    7.530E-01    7.479E-01    7.428E-01    7.377E-01    7.326E-01    7.275E-01
     7.224E-01    7.173E-01    7.122E-01    7.071E-01    7.020E-01    6.969E-01    6.918E-01    6.867E-01    6.816E-01    6.765E-01
     6.714E-01    6.663E-01    6.612E-01    6.561E-01    6.510E-01    6.459E-01    6.408E-01    6.357E-01    6.306E-01    6.255E-01
     6.204E-01    6.153E-01    6.102E-01    6.051E-01    6.000E-01    5.949E-01    5.898E-01    5.847E-01    5.796E-01    5.745E-01
     5.694E-01    5.643E-01    5.592E-01    5.541E-01    5.490E-01    5.439E-01    5.388E-01    5.337E-01    5.286E-01    5.235E-01
     5.184E-01    5.133E-01    5.083E-01    5.032E-01    4.981E-01    4.930E-01    4.879E-01    4.828E-01    4.777E-01    4.726E-01
     4.675E-01    4.624E-01    4.573E-01    4.522E-01    4.471E-01    4.420E-01    4.369E-01    4.318E-01    4.267E-01    4.217E-01
     4.166E-01    4.115E-01    4.064E-01    4.013E-01    3.962E-01    3.911E-01    3.860E-01    3.809E-01    3.758E-01    3.707E-01
     3.657E-01    3.606E-01    3.555E-01    3.504E-01    3.453E-01    3.402E-01    3.351E-01    3.300E-01    3.250E-01    3.199E-01
     3.148E-01    3.097E-01    3.046E-01    2.995E-01    2.944E-01    2.893E-01    2.843E-01    2.792E-01    2.741E-01    2.690E-01
     2.639E-01    2.588E-01    2.538E-01    2.487E-01    2.436E-01    2.385E-01    2.334E-01    2.283E-01    2.233E-01    2.182E-01
     2.131E-01    2.080E-01    2.029E-01    1.979E-01    1.928E-01    1.877E-01    1.826E-01    1.775E-01    1.725E-01    1.674E-01
     1.623E-01    1.572E-01    1.522E-01    1.471E-01    1.420E-01    1.369E-01    1.318E-01    1.268E-01    1.217E-01    1.166E-01
     1.115E-01    1.065E-01    1.014E-01    9.633E-02    9.126E-02    8.618E-02    8.111E-02    7.604E-02    7.097E-02    6.590E-02
     6.083E-02    5.576E-02    5.069E-02    4.562E-02    4.055E-02    3.548E-02    3.041E-02    2.534E-02    2.028E-02    1.521E-02
     1.014E-02    5.075E-03    9.397E-06   -5.056E-03   -1.012E-02   -1.519E-02   -2.025E-02   -2.531E-02   -3.038E-02   -3.544E-02
    -4.050E-02   -4.557E-02   -5.063E-02   -5.569E-02   -6.075E-02   -6.581E-02   -7.087E-02   -7.593E-02   -8.099E-02   -8.605E-02
    -9.111E-02   -9.616E-02   -1.012E-01   -1.063E-01   -1.113E-01   -1.164E-01   -1.214E-01   -1.265E-01   -1.316E-01   -1.366E-01
    -1.417E-01   -1.467E-01   -1.518E-01   -1.568E-01   -1.619E-01   -1.669E-01   -1.720E-01   -1.770E-01   -1.821E-01   -1.871E-01
    -1.922E-01   -1.972E-01   -2.023E-01   -2.073E-01   -2.124E-01   -2.174E-01   -2.225E-01   -2.275E-01   -2.326E-01   -2.376E-01
    -2.426E-01   -2.477E-01   -2.527E-01   -2.578E-01   -2.628E-01   -2.679E-01   -2.729E-01   -2.779E-01   -2.830E-01   -2.880E-01
    -2.931E-01   -2.981E-01   -3.031E-01   -3.082E-01   -3.132E-01   -3.182E-01   -3.233E-01   -3.283E-01   -3.333E-01   -3.384E-01
    -3.434E-01   -3.485E-01   -3.535E-01   -3.585E-01   -3.635E-01   -3.686E-01   -3.736E-01   -3.786E-01   -3.837E-01   -3.887E-01
    -3.937E-01   -3.988E-01   -4.038E-01   -4.088E-01   -4.138E-01   -4.189E-01   -4.239E-01   -4.289E-01   -4.339E-01   -4.390E-01
    -4.440E-01   -4.490E-01   -4.540E-01   -4.590E-01   -4.641E-01   -4.691E-01   -4.741E-01   -4.791E-01   -4.841E-01   -4.892E-01
    -4.942E-01   -4.992E-01   -5.042E-01   -5.092E-01   -5.142E-01   -5.192E-01   -5.243E-01   -5.293E-01   -5.343E-01   -5.393E-01
    -5.443E-01   -5.493E-01   -5.543E-01   -5.593E-01   -5.643E-01   -5.693E-01   -5.744E-01   -5.794E-01   -5.844E-01   -5.894E-01
    -5.944E-01   -5.994E-01   -6.044E-01   -6.094E-01   -6.144E-01   -6.194E-01   -6.244E-01   -6.294E-01   -6.344E-01   -6.394E-01
    -6.444E-01   -6.494E-01   -6.544E-01   -6.594E-01   -6.644E-01   -6.694E-01   -6.744E-01   -6.793E-01   -6.843E-01   -6.893E-01
    -6.943E-01   -6.993E-01   -7.043E-01   -7.093E-01   -7.143E-01   -7.193E-01   -7.243E-01   -7.292E-01   -7.342E-01   -7.392E-01
    -7.442E-01   -7.492E-01   -7.542E-01   -7.591E-01   -7.641E-01   -7.691E-01   -7.741E-01   -7.791E-01   -7.840E-01   -7.890E-01
    -7.940E-01   -7.990E-01   -8.039E-01   -8.089E-01   -8.139E-01   -8.189E-01   -8.238E-01   -8.288E-01   -8.338E-01   -8.388E-01
    -8.437E-01   -8.487E-01   -8.537E-01   -8.586E-01   -8.636E-01   -8.686E-01   -8.735E-01   -8.785E-01   -8.834E-01   -8.884E-01
    -8.934E-01   -8.983E-01   -9.033E-01   -9.083E-01   -9.132E-01   -9.182E-01   -9.231E-01   -9.281E-01   -9.330E-01   -9.380E-01
    -9.430E-01   -9.479E-01   -9.529E-01   -9.578E-01   -9.628E-01   -9.677E-01   -9.727E-01   -9.776E-01   -9.826E-01   -9.875E-01
    -9.924E-01   -9.974E-01   -1.002E+00   -1.007E+00   -1.012E+00   -1.017E+00   -1.022E+00   -1.027E+00   -1.032E+00   -1.037E+00
    -1.042E+00   -1.047E+00   -1.052E+00   -1.057E+00   -1.062E+00   -1.067E+00   -1.071E+00   -1.076E+00   -1.081E+00   -1.086E+00
    -1.091E+00   -1.096E+00   -1.101E+00   -1.106E+00   -1.111E+00   -1.116E+00   -1.121E+00   -1.126E+00   -1.131E+00   -1.136E+00
    -1.140E+00   -1.145E+00   -1.150E+00   -1.155E+00   -1.160E+00   -1.165E+00   -1.170E+00   -1.175E+00   -1.180E+00   -1.185E+00
    -1.190E+00   -1.195E+00   -1.199E+00   -1.204E+00   -1.209E+00   -1.214E+00   -1.219E+00   -1.224E+00   -1.229E+00   -1.234E+00
    -1.239E+00   -1.244E+00   -1.248E+00   -1.253E+00   -1.258E+00   -1.263E+00   -1.268E+00   -1.273E+00   -1.278E+00   -1.283E+00
    -1.288E+00   -1.293E+00   -1.297E+00   -1.302E+00   -1.307E+00   -1.312E+00   -1.317E+00   -1.322E+00
 Asp      Conc. = 7.26E+00
