 LCModel (Version 6.3-1L) Copyright: S.W. Provencher.          Ref.: Magn. Reson. Med. 30:672-679 (1993).                
 Slice#1 Row#3 Col#12  PD_24_press_1_raw_act
 36 lines in following concentration table = NCONC+1
    Conc.  %SD /Cr+PCr  Metabolite                                         
    0.000 999%   0.000 Ala                                                 
    4.292 192%   0.135 Asp                                                 
   31.872  66%   1.000 Cr                                                  
    0.000 999%   0.000 PCr                                                 
    2.331 211% 7.3E-02 GABA                                                
    2.334 212% 7.3E-02 Glc                                                 
    0.000 999%   0.000 Gln                                                 
   56.577 127%   1.775 Glu                                                 
    0.000 999%   0.000 GPC                                                 
    3.329 231%   0.104 PCh                                                 
    0.136 999% 4.3E-03 GSH                                                 
    0.000 999%   0.000 Ins                                                 
  125.822  51%   3.948 Lac                                                 
   38.906  64%   1.221 NAA                                                 
    0.000 999%   0.000 NAAG                                                
    0.903 182% 2.8E-02 Scyllo                                              
    3.801 217%   0.119 Tau                                                 
    8.078 149%   0.253 -CrCH2                                              
    3.329 231%   0.104 GPC+PCh                                             
   38.906  64%   1.221 NAA+NAAG                                            
   31.872  66%   1.000 Cr+PCr                                              
   56.577 127%   1.775 Glu+Gln                                             
    0.000 999%   0.000 Lip13a                                              
 1.47E+04  23% 462.445 Lip13b                                              
 1.20E+04  15% 375.567 Lip09                                               
 1.20E+04  16% 376.367 MM09                                                
    0.000 999%   0.000 Lip20                                               
    0.000 999%   0.000 MM20                                                
 1.08E+04  20% 339.119 MM12                                                
 2.22E+03  66%  69.604 MM14                                                
 1.87E+03  35%  58.784 MM17                                                
 1.47E+04  23% 462.445 Lip13a+Lip13b                                       
 2.78E+04  11% 871.168 MM14+Lip13a+Lip13b+MM12                             
 2.40E+04   9% 751.935 MM09+Lip09                                          
    0.000 999%   0.000 MM20+Lip20                                          
   6 lines in following misc. output table
  FWHM = 0.038 ppm    S/N =  23                                            
  Data shift = 0.031 ppm                                                   
  Ph:  19 deg       4.6 deg/ppm                                            
  alphaB,S = 6.2E-01,   1.1E+01                                            
   14 spline knots.   Ns = 5(1)                                            
  (12) 2 infls.   (11) 1 extrs.                                            
  498 points on ppm-axis = NY
      4.000000     3.992357     3.984714     3.977070     3.969427     3.961784     3.954141     3.946497     3.938854     3.931211
      3.923568     3.915925     3.908281     3.900638     3.892995     3.885352     3.877708     3.870065     3.862422     3.854779
      3.847136     3.839492     3.831849     3.824206     3.816563     3.808919     3.801276     3.793633     3.785990     3.778347
      3.770703     3.763060     3.755417     3.747774     3.740130     3.732487     3.724844     3.717201     3.709558     3.701914
      3.694271     3.686628     3.678985     3.671341     3.663698     3.656055     3.648412     3.640769     3.633125     3.625482
      3.617839     3.610196     3.602552     3.594909     3.587266     3.579623     3.571980     3.564336     3.556693     3.549050
      3.541407     3.533763     3.526120     3.518477     3.510834     3.503191     3.495547     3.487904     3.480261     3.472618
      3.464974     3.457331     3.449688     3.442045     3.434402     3.426758     3.419115     3.411472     3.403829     3.396185
      3.388542     3.380899     3.373256     3.365613     3.357969     3.350326     3.342683     3.335040     3.327396     3.319753
      3.312110     3.304467     3.296824     3.289180     3.281537     3.273894     3.266251     3.258607     3.250964     3.243321
      3.235678     3.228034     3.220391     3.212748     3.205105     3.197462     3.189818     3.182175     3.174532     3.166889
      3.159245     3.151602     3.143959     3.136316     3.128673     3.121029     3.113386     3.105743     3.098100     3.090456
      3.082813     3.075170     3.067527     3.059884     3.052240     3.044597     3.036954     3.029311     3.021667     3.014024
      3.006381     2.998738     2.991095     2.983451     2.975808     2.968165     2.960522     2.952878     2.945235     2.937592
      2.929949     2.922306     2.914662     2.907019     2.899376     2.891733     2.884089     2.876446     2.868803     2.861160
      2.853517     2.845873     2.838230     2.830587     2.822944     2.815300     2.807657     2.800014     2.792371     2.784728
      2.777084     2.769441     2.761798     2.754155     2.746511     2.738868     2.731225     2.723582     2.715939     2.708295
      2.700652     2.693009     2.685366     2.677722     2.670079     2.662436     2.654793     2.647150     2.639506     2.631863
      2.624220     2.616577     2.608933     2.601290     2.593647     2.586004     2.578361     2.570717     2.563074     2.555431
      2.547788     2.540144     2.532501     2.524858     2.517215     2.509572     2.501928     2.494285     2.486642     2.478999
      2.471355     2.463712     2.456069     2.448426     2.440783     2.433139     2.425496     2.417853     2.410210     2.402566
      2.394923     2.387280     2.379637     2.371994     2.364350     2.356707     2.349064     2.341421     2.333777     2.326134
      2.318491     2.310848     2.303205     2.295561     2.287918     2.280275     2.272632     2.264988     2.257345     2.249702
      2.242059     2.234416     2.226772     2.219129     2.211486     2.203843     2.196199     2.188556     2.180913     2.173270
      2.165627     2.157983     2.150340     2.142697     2.135054     2.127410     2.119767     2.112124     2.104481     2.096838
      2.089194     2.081551     2.073908     2.066265     2.058621     2.050978     2.043335     2.035692     2.028049     2.020405
      2.012762     2.005119     1.997476     1.989833     1.982190     1.974546     1.966903     1.959260     1.951617     1.943974
      1.936331     1.928688     1.921045     1.913402     1.905759     1.898115     1.890472     1.882829     1.875186     1.867543
      1.859900     1.852257     1.844614     1.836971     1.829327     1.821684     1.814041     1.806398     1.798755     1.791112
      1.783469     1.775826     1.768183     1.760540     1.752896     1.745253     1.737610     1.729967     1.722324     1.714681
      1.707038     1.699395     1.691752     1.684108     1.676465     1.668822     1.661179     1.653536     1.645893     1.638250
      1.630607     1.622964     1.615321     1.607677     1.600034     1.592391     1.584748     1.577105     1.569462     1.561819
      1.554176     1.546533     1.538890     1.531246     1.523603     1.515960     1.508317     1.500674     1.493031     1.485388
      1.477745     1.470102     1.462458     1.454815     1.447172     1.439529     1.431886     1.424243     1.416600     1.408957
      1.401314     1.393671     1.386027     1.378384     1.370741     1.363098     1.355455     1.347812     1.340169     1.332526
      1.324883     1.317240     1.309596     1.301953     1.294310     1.286667     1.279024     1.271381     1.263738     1.256095
      1.248452     1.240808     1.233165     1.225522     1.217879     1.210236     1.202593     1.194950     1.187307     1.179664
      1.172021     1.164377     1.156734     1.149091     1.141448     1.133805     1.126162     1.118519     1.110876     1.103233
      1.095590     1.087946     1.080303     1.072660     1.065017     1.057374     1.049731     1.042088     1.034445     1.026802
      1.019158     1.011515     1.003872     0.996229     0.988586     0.980943     0.973300     0.965657     0.958014     0.950371
      0.942727     0.935084     0.927441     0.919798     0.912155     0.904512     0.896869     0.889226     0.881583     0.873940
      0.866296     0.858653     0.851010     0.843367     0.835724     0.828081     0.820438     0.812795     0.805152     0.797508
      0.789865     0.782222     0.774579     0.766936     0.759293     0.751650     0.744007     0.736364     0.728721     0.721077
      0.713434     0.705791     0.698148     0.690505     0.682862     0.675219     0.667576     0.659933     0.652290     0.644646
      0.637003     0.629360     0.621717     0.614074     0.606431     0.598788     0.591145     0.583502     0.575858     0.568215
      0.560572     0.552929     0.545286     0.537643     0.530000     0.522357     0.514714     0.507071     0.499427     0.491784
      0.484141     0.476498     0.468855     0.461212     0.453569     0.445925     0.438282     0.430639     0.422996     0.415353
      0.407710     0.400067     0.392424     0.384780     0.377137     0.369494     0.361851     0.354208     0.346565     0.338922
      0.331278     0.323635     0.315992     0.308349     0.300706     0.293063     0.285420     0.277777     0.270133     0.262490
      0.254847     0.247204     0.239561     0.231918     0.224275     0.216631     0.208988     0.201345
 NY phased data points follow
   1.71523E+01  1.35354E+01  1.83553E+01  1.12603E+01  1.44965E+01  1.30406E+01  1.60178E+01  1.15492E+01  1.45563E+01  1.06024E+01
   1.88024E+01  1.27413E+01  1.62889E+01  1.66736E+01  1.67561E+01  1.77038E+01  1.52602E+01  1.41980E+01  1.31606E+01  1.28628E+01
   1.45806E+01  1.71718E+01  1.65108E+01  1.59267E+01  1.36556E+01  1.52996E+01  1.34842E+01  1.66728E+01  1.49483E+01  1.61096E+01
   1.58531E+01  1.49872E+01  1.34805E+01  1.27147E+01  1.45666E+01  1.42319E+01  1.49554E+01  1.44816E+01  1.42396E+01  1.58472E+01
   1.40309E+01  1.59449E+01  1.73958E+01  1.47700E+01  1.20285E+01  1.36543E+01  1.64734E+01  1.64737E+01  1.84793E+01  1.11703E+01
   1.62335E+01  8.36869E+00  1.44694E+01  1.54815E+01  1.58548E+01  1.41337E+01  1.68603E+01  1.45794E+01  1.86823E+01  1.14304E+01
   1.52260E+01  1.37623E+01  1.57386E+01  1.41874E+01  1.61932E+01  1.35723E+01  1.45030E+01  1.45450E+01  1.73889E+01  1.27484E+01
   1.60560E+01  1.30028E+01  1.76427E+01  1.28911E+01  1.63407E+01  1.24201E+01  1.40526E+01  1.56147E+01  1.52817E+01  1.47520E+01
   1.76580E+01  1.59169E+01  1.32866E+01  1.50375E+01  1.61080E+01  1.49439E+01  1.83512E+01  1.53357E+01  1.62326E+01  1.53158E+01
   1.41623E+01  1.68359E+01  1.61326E+01  1.75638E+01  1.18139E+01  1.45759E+01  1.67373E+01  1.65362E+01  1.60946E+01  1.56264E+01
   1.45235E+01  1.49852E+01  1.84588E+01  1.60903E+01  1.53167E+01  1.45420E+01  1.96570E+01  1.70792E+01  1.72955E+01  1.30649E+01
   1.98688E+01  1.51537E+01  1.98644E+01  1.72143E+01  1.71473E+01  1.41749E+01  1.76560E+01  1.26380E+01  1.60072E+01  1.42980E+01
   1.45309E+01  1.60480E+01  1.80683E+01  1.49791E+01  1.81669E+01  1.51653E+01  1.95956E+01  1.81684E+01  1.83456E+01  1.84189E+01
   1.50954E+01  1.60694E+01  1.65826E+01  1.65136E+01  1.61251E+01  1.61482E+01  1.63088E+01  1.31780E+01  1.86229E+01  1.77013E+01
   1.89391E+01  1.78554E+01  1.84071E+01  1.81120E+01  1.68682E+01  1.40503E+01  1.50314E+01  1.74881E+01  1.74839E+01  1.65144E+01
   1.40882E+01  1.49915E+01  1.89946E+01  1.78692E+01  1.73700E+01  1.58596E+01  2.01938E+01  1.58110E+01  1.39378E+01  1.85298E+01
   1.69428E+01  1.24469E+01  1.79576E+01  1.48824E+01  1.87407E+01  1.46242E+01  1.65915E+01  1.78239E+01  1.74478E+01  1.49316E+01
   1.70553E+01  1.57657E+01  1.82490E+01  1.68602E+01  1.73237E+01  1.75229E+01  1.69610E+01  1.57523E+01  1.75275E+01  1.49504E+01
   1.59402E+01  1.71841E+01  1.57047E+01  1.67410E+01  1.58256E+01  1.46449E+01  1.46273E+01  1.73644E+01  1.58795E+01  1.85644E+01
   1.51703E+01  1.31218E+01  1.60196E+01  1.62377E+01  1.44640E+01  1.72790E+01  1.57840E+01  1.59057E+01  1.70329E+01  1.98001E+01
   1.60801E+01  1.65126E+01  1.75894E+01  1.43661E+01  1.91758E+01  1.63800E+01  1.90258E+01  1.59488E+01  1.57617E+01  1.56035E+01
   2.08350E+01  1.62253E+01  1.44254E+01  1.65174E+01  1.58426E+01  1.56898E+01  1.74656E+01  1.88303E+01  1.73302E+01  1.59324E+01
   1.75454E+01  1.77575E+01  1.60939E+01  1.43036E+01  1.88038E+01  1.77283E+01  1.78275E+01  1.94677E+01  1.86192E+01  1.75301E+01
   1.91184E+01  2.01042E+01  1.79150E+01  1.97410E+01  2.15530E+01  2.20874E+01  2.03863E+01  2.03713E+01  2.00433E+01  1.80300E+01
   2.18771E+01  2.19627E+01  2.11558E+01  1.98429E+01  1.94385E+01  2.40439E+01  2.28871E+01  2.26957E+01  1.93097E+01  2.54167E+01
   2.42516E+01  2.25364E+01  2.40246E+01  2.49445E+01  2.53349E+01  2.62846E+01  2.40579E+01  2.22536E+01  2.53411E+01  2.48953E+01
   3.18001E+01  3.07532E+01  2.85048E+01  2.61013E+01  3.13412E+01  2.83122E+01  3.10931E+01  2.84732E+01  3.18621E+01  2.73109E+01
   3.24596E+01  2.87509E+01  3.07561E+01  3.46201E+01  3.52580E+01  3.03694E+01  3.36821E+01  3.57854E+01  3.59830E+01  3.56400E+01
   3.52342E+01  3.67156E+01  3.21429E+01  3.76291E+01  3.72448E+01  3.75600E+01  3.32851E+01  3.49682E+01  3.77303E+01  3.57835E+01
   3.42438E+01  3.75580E+01  3.86335E+01  3.69545E+01  4.02906E+01  3.91464E+01  3.94047E+01  4.08446E+01  4.44076E+01  4.22811E+01
   4.03940E+01  4.43826E+01  4.43781E+01  4.63045E+01  4.46168E+01  4.52364E+01  4.52061E+01  4.59421E+01  4.85946E+01  4.71940E+01
   4.86447E+01  4.75832E+01  4.80328E+01  5.17038E+01  5.19118E+01  5.08954E+01  5.53275E+01  5.46648E+01  5.32731E+01  5.75320E+01
   5.71841E+01  5.76147E+01  5.68036E+01  5.77083E+01  5.99596E+01  6.08813E+01  5.77099E+01  5.77279E+01  6.16821E+01  5.92849E+01
   6.61178E+01  6.15891E+01  6.66782E+01  7.00578E+01  7.09969E+01  7.18098E+01  7.37930E+01  7.86608E+01  7.81856E+01  8.15578E+01
   8.59148E+01  8.81002E+01  9.30727E+01  8.98355E+01  9.61055E+01  9.74483E+01  1.02629E+02  1.07343E+02  1.08548E+02  1.12460E+02
   1.11507E+02  1.13136E+02  1.15246E+02  1.14245E+02  1.13979E+02  1.14795E+02  1.18880E+02  1.22475E+02  1.23810E+02  1.22890E+02
   1.23002E+02  1.22725E+02  1.21023E+02  1.27095E+02  1.23796E+02  1.23335E+02  1.24972E+02  1.27020E+02  1.25195E+02  1.26529E+02
   1.27718E+02  1.27757E+02  1.27162E+02  1.26994E+02  1.29271E+02  1.27251E+02  1.31536E+02  1.29547E+02  1.33948E+02  1.32424E+02
   1.33818E+02  1.35726E+02  1.34857E+02  1.35901E+02  1.36660E+02  1.34517E+02  1.32184E+02  1.34563E+02  1.33942E+02  1.34506E+02
   1.32106E+02  1.35398E+02  1.33648E+02  1.32650E+02  1.33196E+02  1.36221E+02  1.36169E+02  1.35984E+02  1.33836E+02  1.32794E+02
   1.32719E+02  1.31760E+02  1.31063E+02  1.29912E+02  1.28583E+02  1.27696E+02  1.27633E+02  1.24493E+02  1.24870E+02  1.21380E+02
   1.19117E+02  1.17619E+02  1.18895E+02  1.17426E+02  1.19662E+02  1.15949E+02  1.12261E+02  1.11259E+02  1.10393E+02  1.09318E+02
   1.05740E+02  1.01664E+02  1.00622E+02  1.02650E+02  1.00727E+02  9.93977E+01  9.50194E+01  9.55990E+01  9.60815E+01  9.02104E+01
   8.93058E+01  8.58952E+01  8.61666E+01  8.41202E+01  7.84786E+01  7.92495E+01  7.49670E+01  7.86684E+01  7.53130E+01  7.20743E+01
   7.24773E+01  6.89185E+01  6.68304E+01  6.20926E+01  6.53257E+01  6.08002E+01  5.84572E+01  5.84195E+01  5.74641E+01  5.64309E+01
   5.47349E+01  5.15692E+01  5.22584E+01  5.22627E+01  5.07844E+01  4.77881E+01  4.79858E+01  4.66730E+01  4.50410E+01  4.15417E+01
   4.20569E+01  4.23758E+01  4.13162E+01  3.83564E+01  3.97643E+01  3.76137E+01  3.54213E+01  3.59553E+01  3.32172E+01  3.51519E+01
   3.31961E+01  3.47676E+01  2.85017E+01  3.08792E+01  3.11530E+01  2.81205E+01  2.81853E+01  2.83777E+01  2.47139E+01  2.88886E+01
   2.30878E+01  2.12457E+01  2.46229E+01  2.75175E+01  2.15609E+01  2.31614E+01  2.10048E+01  2.10823E+01  2.01779E+01  1.98942E+01
   2.13060E+01  2.02943E+01  1.85942E+01  1.86353E+01  1.91435E+01  1.82443E+01  2.07308E+01  1.76053E+01
 NY points of the fit to the data follow
   1.44240E+01  1.45176E+01  1.46169E+01  1.47125E+01  1.47853E+01  1.47912E+01  1.47143E+01  1.46040E+01  1.46081E+01  1.48478E+01
   1.52634E+01  1.56213E+01  1.57250E+01  1.55697E+01  1.52929E+01  1.49979E+01  1.47207E+01  1.45323E+01  1.44999E+01  1.45408E+01
   1.45808E+01  1.46179E+01  1.46580E+01  1.47097E+01  1.47643E+01  1.47935E+01  1.47682E+01  1.46895E+01  1.45986E+01  1.45495E+01
   1.45793E+01  1.46896E+01  1.48451E+01  1.49852E+01  1.50371E+01  1.49703E+01  1.48292E+01  1.46842E+01  1.45986E+01  1.46034E+01
   1.46778E+01  1.47741E+01  1.48458E+01  1.48823E+01  1.48908E+01  1.48765E+01  1.48562E+01  1.48497E+01  1.48529E+01  1.48600E+01
   1.48689E+01  1.48802E+01  1.48935E+01  1.49080E+01  1.49224E+01  1.49352E+01  1.49466E+01  1.49574E+01  1.49682E+01  1.49808E+01
   1.49954E+01  1.50109E+01  1.50272E+01  1.50453E+01  1.50649E+01  1.50852E+01  1.51049E+01  1.51224E+01  1.51370E+01  1.51495E+01
   1.51610E+01  1.51739E+01  1.51925E+01  1.52211E+01  1.52578E+01  1.52945E+01  1.53227E+01  1.53367E+01  1.53407E+01  1.53440E+01
   1.53522E+01  1.53664E+01  1.53904E+01  1.54284E+01  1.54805E+01  1.55401E+01  1.55905E+01  1.56181E+01  1.56250E+01  1.56251E+01
   1.56278E+01  1.56327E+01  1.56399E+01  1.56538E+01  1.56714E+01  1.56940E+01  1.57264E+01  1.57658E+01  1.57967E+01  1.58166E+01
   1.58636E+01  1.59873E+01  1.61861E+01  1.63816E+01  1.64809E+01  1.64577E+01  1.63569E+01  1.62365E+01  1.61253E+01  1.60421E+01
   1.60216E+01  1.60519E+01  1.60879E+01  1.61216E+01  1.61539E+01  1.61865E+01  1.62185E+01  1.62492E+01  1.62783E+01  1.63056E+01
   1.63288E+01  1.63334E+01  1.62872E+01  1.62399E+01  1.63609E+01  1.67832E+01  1.74209E+01  1.79675E+01  1.81525E+01  1.79453E+01
   1.75233E+01  1.70613E+01  1.66309E+01  1.63136E+01  1.62211E+01  1.62445E+01  1.62737E+01  1.62995E+01  1.63234E+01  1.63443E+01
   1.63600E+01  1.63691E+01  1.63743E+01  1.63804E+01  1.63886E+01  1.63968E+01  1.64022E+01  1.64031E+01  1.64000E+01  1.63940E+01
   1.63871E+01  1.63807E+01  1.63751E+01  1.63710E+01  1.63671E+01  1.63636E+01  1.63619E+01  1.63598E+01  1.63500E+01  1.63260E+01
   1.62899E+01  1.62568E+01  1.62436E+01  1.62543E+01  1.62764E+01  1.62930E+01  1.62957E+01  1.62845E+01  1.62627E+01  1.62391E+01
   1.62185E+01  1.62048E+01  1.61985E+01  1.61874E+01  1.61657E+01  1.61405E+01  1.61273E+01  1.61350E+01  1.61539E+01  1.61660E+01
   1.61636E+01  1.61573E+01  1.61602E+01  1.61688E+01  1.61734E+01  1.61721E+01  1.61702E+01  1.61799E+01  1.62049E+01  1.62411E+01
   1.62778E+01  1.63065E+01  1.63279E+01  1.63460E+01  1.63662E+01  1.63978E+01  1.64381E+01  1.64734E+01  1.64956E+01  1.65054E+01
   1.65129E+01  1.65341E+01  1.65825E+01  1.66616E+01  1.67575E+01  1.68455E+01  1.69098E+01  1.69465E+01  1.69561E+01  1.69413E+01
   1.69148E+01  1.68984E+01  1.69356E+01  1.70852E+01  1.73605E+01  1.77069E+01  1.80118E+01  1.81892E+01  1.82319E+01  1.81570E+01
   1.79787E+01  1.77564E+01  1.76139E+01  1.76772E+01  1.79336E+01  1.83000E+01  1.86959E+01  1.90698E+01  1.93857E+01  1.96076E+01
   1.97483E+01  1.98675E+01  2.00053E+01  2.01680E+01  2.03600E+01  2.05776E+01  2.08138E+01  2.10548E+01  2.12829E+01  2.14883E+01
   2.16715E+01  2.18447E+01  2.20338E+01  2.22632E+01  2.25378E+01  2.28449E+01  2.31653E+01  2.34747E+01  2.37524E+01  2.39867E+01
   2.41818E+01  2.43811E+01  2.46218E+01  2.49073E+01  2.52079E+01  2.54542E+01  2.56069E+01  2.58049E+01  2.63037E+01  2.72137E+01
   2.83160E+01  2.92056E+01  2.96394E+01  2.96756E+01  2.95169E+01  2.92816E+01  2.90605E+01  2.90401E+01  2.92477E+01  2.95081E+01
   2.97772E+01  3.00594E+01  3.03565E+01  3.06692E+01  3.09987E+01  3.13363E+01  3.16743E+01  3.20089E+01  3.23383E+01  3.26623E+01
   3.29866E+01  3.33191E+01  3.36637E+01  3.40226E+01  3.43969E+01  3.47871E+01  3.51934E+01  3.56153E+01  3.60528E+01  3.65079E+01
   3.69823E+01  3.74770E+01  3.79930E+01  3.85315E+01  3.90927E+01  3.96762E+01  4.02814E+01  4.09070E+01  4.15511E+01  4.22108E+01
   4.28830E+01  4.35641E+01  4.42500E+01  4.49365E+01  4.56191E+01  4.62932E+01  4.69548E+01  4.76006E+01  4.82278E+01  4.88349E+01
   4.94213E+01  4.99876E+01  5.05360E+01  5.10696E+01  5.15932E+01  5.21125E+01  5.26340E+01  5.31653E+01  5.37143E+01  5.42894E+01
   5.48988E+01  5.55506E+01  5.62525E+01  5.70116E+01  5.78346E+01  5.87277E+01  5.96963E+01  6.07456E+01  6.18803E+01  6.31055E+01
   6.44262E+01  6.58478E+01  6.73761E+01  6.90172E+01  7.07776E+01  7.26639E+01  7.46823E+01  7.68377E+01  7.91326E+01  8.15658E+01
   8.41301E+01  8.68067E+01  8.95478E+01  9.23527E+01  9.54272E+01  9.89952E+01  1.02926E+02  1.06644E+02  1.09512E+02  1.11367E+02
   1.12465E+02  1.13070E+02  1.13361E+02  1.13736E+02  1.14858E+02  1.16909E+02  1.19205E+02  1.21159E+02  1.22493E+02  1.23270E+02
   1.23613E+02  1.23579E+02  1.23461E+02  1.23591E+02  1.23910E+02  1.24360E+02  1.24912E+02  1.25543E+02  1.26227E+02  1.26940E+02
   1.27655E+02  1.28348E+02  1.28998E+02  1.29589E+02  1.30110E+02  1.30559E+02  1.30936E+02  1.31251E+02  1.31516E+02  1.31746E+02
   1.31959E+02  1.32172E+02  1.32399E+02  1.32654E+02  1.32943E+02  1.33268E+02  1.33627E+02  1.34010E+02  1.34402E+02  1.34786E+02
   1.35141E+02  1.35442E+02  1.35668E+02  1.35795E+02  1.35806E+02  1.35683E+02  1.35418E+02  1.35003E+02  1.34438E+02  1.33729E+02
   1.32884E+02  1.31918E+02  1.30847E+02  1.29688E+02  1.28461E+02  1.27184E+02  1.25875E+02  1.24549E+02  1.23219E+02  1.21893E+02
   1.20577E+02  1.19273E+02  1.17981E+02  1.16696E+02  1.15412E+02  1.14122E+02  1.12816E+02  1.11484E+02  1.10117E+02  1.08706E+02
   1.07244E+02  1.05725E+02  1.04143E+02  1.02498E+02  1.00788E+02  9.90165E+01  9.71855E+01  9.53007E+01  9.33689E+01  9.13975E+01
   8.93950E+01  8.73705E+01  8.53330E+01  8.32916E+01  8.12550E+01  7.92314E+01  7.72285E+01  7.52529E+01  7.33107E+01  7.14069E+01
   6.95456E+01  6.77301E+01  6.59629E+01  6.42457E+01  6.25796E+01  6.09648E+01  5.94014E+01  5.78886E+01  5.64256E+01  5.50110E+01
   5.36435E+01  5.23213E+01  5.10426E+01  4.98056E+01  4.86084E+01  4.74492E+01  4.63261E+01  4.52373E+01  4.41811E+01  4.31558E+01
   4.21597E+01  4.11912E+01  4.02490E+01  3.93315E+01  3.84375E+01  3.75657E+01  3.67149E+01  3.58840E+01  3.50720E+01  3.42779E+01
   3.35009E+01  3.27400E+01  3.19945E+01  3.12636E+01  3.05467E+01  2.98431E+01  2.91523E+01  2.84736E+01  2.78066E+01  2.71508E+01
   2.65058E+01  2.58711E+01  2.52463E+01  2.46311E+01  2.40253E+01  2.34283E+01  2.28401E+01  2.22602E+01  2.16886E+01  2.11249E+01
   2.05689E+01  2.00205E+01  1.94794E+01  1.89455E+01  1.84187E+01  1.78988E+01  1.73857E+01  1.68792E+01
 NY background values follow
     4.731E+00    4.740E+00    4.749E+00    4.758E+00    4.767E+00    4.775E+00    4.783E+00    4.792E+00    4.800E+00    4.807E+00
     4.815E+00    4.823E+00    4.830E+00    4.838E+00    4.845E+00    4.853E+00    4.860E+00    4.868E+00    4.875E+00    4.882E+00
     4.890E+00    4.897E+00    4.905E+00    4.912E+00    4.920E+00    4.928E+00    4.935E+00    4.943E+00    4.951E+00    4.960E+00
     4.968E+00    4.977E+00    4.985E+00    4.994E+00    5.003E+00    5.013E+00    5.023E+00    5.033E+00    5.043E+00    5.053E+00
     5.064E+00    5.076E+00    5.087E+00    5.099E+00    5.111E+00    5.124E+00    5.137E+00    5.151E+00    5.165E+00    5.179E+00
     5.194E+00    5.209E+00    5.225E+00    5.241E+00    5.257E+00    5.274E+00    5.292E+00    5.309E+00    5.328E+00    5.346E+00
     5.365E+00    5.384E+00    5.404E+00    5.424E+00    5.445E+00    5.466E+00    5.487E+00    5.509E+00    5.531E+00    5.554E+00
     5.577E+00    5.600E+00    5.624E+00    5.648E+00    5.673E+00    5.698E+00    5.723E+00    5.749E+00    5.775E+00    5.801E+00
     5.828E+00    5.856E+00    5.883E+00    5.911E+00    5.940E+00    5.968E+00    5.997E+00    6.027E+00    6.057E+00    6.087E+00
     6.118E+00    6.148E+00    6.180E+00    6.211E+00    6.243E+00    6.275E+00    6.308E+00    6.340E+00    6.373E+00    6.406E+00
     6.439E+00    6.472E+00    6.505E+00    6.538E+00    6.571E+00    6.604E+00    6.637E+00    6.670E+00    6.702E+00    6.735E+00
     6.767E+00    6.799E+00    6.831E+00    6.863E+00    6.894E+00    6.925E+00    6.955E+00    6.985E+00    7.015E+00    7.044E+00
     7.072E+00    7.100E+00    7.128E+00    7.155E+00    7.181E+00    7.206E+00    7.231E+00    7.255E+00    7.278E+00    7.300E+00
     7.322E+00    7.342E+00    7.362E+00    7.380E+00    7.398E+00    7.415E+00    7.430E+00    7.445E+00    7.458E+00    7.470E+00
     7.482E+00    7.492E+00    7.502E+00    7.511E+00    7.519E+00    7.526E+00    7.533E+00    7.539E+00    7.544E+00    7.548E+00
     7.553E+00    7.556E+00    7.559E+00    7.562E+00    7.564E+00    7.566E+00    7.568E+00    7.569E+00    7.570E+00    7.571E+00
     7.572E+00    7.573E+00    7.574E+00    7.575E+00    7.575E+00    7.576E+00    7.577E+00    7.578E+00    7.580E+00    7.582E+00
     7.584E+00    7.586E+00    7.589E+00    7.592E+00    7.596E+00    7.600E+00    7.605E+00    7.610E+00    7.616E+00    7.623E+00
     7.631E+00    7.639E+00    7.649E+00    7.659E+00    7.670E+00    7.683E+00    7.697E+00    7.712E+00    7.729E+00    7.748E+00
     7.769E+00    7.791E+00    7.815E+00    7.842E+00    7.870E+00    7.901E+00    7.935E+00    7.971E+00    8.010E+00    8.051E+00
     8.096E+00    8.144E+00    8.194E+00    8.248E+00    8.306E+00    8.367E+00    8.431E+00    8.500E+00    8.572E+00    8.648E+00
     8.728E+00    8.813E+00    8.901E+00    8.995E+00    9.093E+00    9.195E+00    9.302E+00    9.415E+00    9.532E+00    9.654E+00
     9.782E+00    9.915E+00    1.005E+01    1.020E+01    1.035E+01    1.050E+01    1.067E+01    1.083E+01    1.101E+01    1.119E+01
     1.137E+01    1.156E+01    1.176E+01    1.196E+01    1.217E+01    1.238E+01    1.259E+01    1.281E+01    1.303E+01    1.326E+01
     1.349E+01    1.372E+01    1.396E+01    1.420E+01    1.444E+01    1.469E+01    1.494E+01    1.519E+01    1.544E+01    1.570E+01
     1.595E+01    1.621E+01    1.647E+01    1.673E+01    1.699E+01    1.726E+01    1.752E+01    1.778E+01    1.805E+01    1.831E+01
     1.857E+01    1.884E+01    1.910E+01    1.936E+01    1.962E+01    1.988E+01    2.014E+01    2.040E+01    2.065E+01    2.091E+01
     2.116E+01    2.141E+01    2.165E+01    2.190E+01    2.214E+01    2.237E+01    2.261E+01    2.284E+01    2.307E+01    2.330E+01
     2.353E+01    2.375E+01    2.397E+01    2.418E+01    2.440E+01    2.461E+01    2.481E+01    2.502E+01    2.522E+01    2.542E+01
     2.561E+01    2.581E+01    2.600E+01    2.618E+01    2.637E+01    2.655E+01    2.672E+01    2.690E+01    2.707E+01    2.723E+01
     2.740E+01    2.756E+01    2.772E+01    2.787E+01    2.802E+01    2.817E+01    2.831E+01    2.845E+01    2.859E+01    2.872E+01
     2.885E+01    2.898E+01    2.910E+01    2.922E+01    2.933E+01    2.945E+01    2.956E+01    2.966E+01    2.976E+01    2.986E+01
     2.995E+01    3.004E+01    3.013E+01    3.021E+01    3.029E+01    3.037E+01    3.044E+01    3.051E+01    3.057E+01    3.063E+01
     3.069E+01    3.075E+01    3.080E+01    3.085E+01    3.089E+01    3.093E+01    3.097E+01    3.100E+01    3.103E+01    3.106E+01
     3.108E+01    3.110E+01    3.112E+01    3.113E+01    3.114E+01    3.115E+01    3.115E+01    3.115E+01    3.115E+01    3.114E+01
     3.113E+01    3.112E+01    3.110E+01    3.108E+01    3.106E+01    3.103E+01    3.100E+01    3.097E+01    3.094E+01    3.090E+01
     3.085E+01    3.081E+01    3.076E+01    3.071E+01    3.066E+01    3.060E+01    3.054E+01    3.048E+01    3.041E+01    3.034E+01
     3.027E+01    3.019E+01    3.011E+01    3.003E+01    2.994E+01    2.986E+01    2.977E+01    2.967E+01    2.957E+01    2.947E+01
     2.937E+01    2.926E+01    2.915E+01    2.904E+01    2.892E+01    2.881E+01    2.868E+01    2.856E+01    2.843E+01    2.830E+01
     2.816E+01    2.803E+01    2.789E+01    2.774E+01    2.760E+01    2.745E+01    2.729E+01    2.714E+01    2.698E+01    2.682E+01
     2.665E+01    2.648E+01    2.631E+01    2.614E+01    2.596E+01    2.578E+01    2.560E+01    2.541E+01    2.522E+01    2.503E+01
     2.484E+01    2.464E+01    2.444E+01    2.423E+01    2.403E+01    2.382E+01    2.360E+01    2.339E+01    2.317E+01    2.295E+01
     2.272E+01    2.250E+01    2.227E+01    2.203E+01    2.180E+01    2.156E+01    2.132E+01    2.108E+01    2.083E+01    2.058E+01
     2.033E+01    2.007E+01    1.982E+01    1.956E+01    1.929E+01    1.903E+01    1.876E+01    1.849E+01    1.822E+01    1.794E+01
     1.766E+01    1.738E+01    1.710E+01    1.681E+01    1.652E+01    1.623E+01    1.594E+01    1.564E+01    1.534E+01    1.504E+01
     1.474E+01    1.443E+01    1.412E+01    1.381E+01    1.350E+01    1.319E+01    1.287E+01    1.255E+01    1.223E+01    1.191E+01
     1.158E+01    1.126E+01    1.093E+01    1.060E+01    1.027E+01    9.940E+00    9.608E+00    9.275E+00    8.941E+00    8.607E+00
     8.271E+00    7.935E+00    7.599E+00    7.262E+00    6.925E+00    6.588E+00    6.250E+00    5.913E+00    5.576E+00    5.239E+00
     4.902E+00    4.565E+00    4.229E+00    3.894E+00    3.559E+00    3.225E+00    2.892E+00    2.559E+00    2.228E+00    1.898E+00
     1.569E+00    1.241E+00    9.144E-01    5.894E-01    2.660E-01   -5.580E-02   -3.759E-01   -6.942E-01
 Asp      Conc. = 4.29E+00
