 LCModel (Version 6.3-1L) Copyright: S.W. Provencher.          Ref.: Magn. Reson. Med. 30:672-679 (1993).                
 Slice#3 Row#8 Col#7  PD_24_press_1_raw_act
 36 lines in following concentration table = NCONC+1
    Conc.  %SD /Cr+PCr  Metabolite                                         
    0.000 999%   0.000 Ala                                                 
  178.005 131%   0.107 Asp                                                 
  747.641  35%   0.450 Cr                                                  
  912.864  29%   0.550 PCr                                                 
   26.811 592% 1.6E-02 GABA                                                
    0.000 999%   0.000 Glc                                                 
  707.940  38%   0.426 Gln                                                 
 1.69E+03  19%   1.016 Glu                                                 
  629.106   4%   0.379 GPC                                                 
    0.000 999%   0.000 PCh                                                 
  525.047  16%   0.316 GSH                                                 
  698.901  41%   0.421 Ins                                                 
   85.049 199% 5.1E-02 Lac                                                 
 1.81E+03   7%   1.090 NAA                                                 
  197.114  68%   0.119 NAAG                                                
   57.196  52% 3.4E-02 Scyllo                                              
    0.000 999%   0.000 Tau                                                 
    0.000 999%   0.000 -CrCH2                                              
  629.106   4%   0.379 GPC+PCh                                             
 2.01E+03   5%   1.208 NAA+NAAG                                            
 1.66E+03   4%   1.000 Cr+PCr                                              
 2.39E+03  19%   1.442 Glu+Gln                                             
  179.156 847%   0.108 Lip13a                                              
 1.36E+03  96%   0.818 Lip13b                                              
    0.000 999%   0.000 Lip09                                               
 1.38E+03  17%   0.829 MM09                                                
  223.054  96%   0.134 Lip20                                               
 2.74E+03  16%   1.651 MM20                                                
  434.538  43%   0.262 MM12                                                
 2.69E+03  18%   1.619 MM14                                                
 2.40E+03  16%   1.444 MM17                                                
 1.54E+03  32%   0.926 Lip13a+Lip13b                                       
 4.66E+03  13%   2.806 MM14+Lip13a+Lip13b+MM12                             
 1.38E+03  17%   0.829 MM09+Lip09                                          
 2.96E+03  15%   1.785 MM20+Lip20                                          
   6 lines in following misc. output table
  FWHM = 0.054 ppm    S/N =   9                                            
  Data shift = 0.015 ppm                                                   
  Ph: -22 deg      -2.7 deg/ppm                                            
  alphaB,S = 1.1E+00,   1.0E+02                                            
   14 spline knots.   Ns = 7(1)                                            
  (11) 4 infls.   (13) 1 extrs.                                            
  498 points on ppm-axis = NY
      4.000000     3.992357     3.984714     3.977070     3.969427     3.961784     3.954141     3.946497     3.938854     3.931211
      3.923568     3.915925     3.908281     3.900638     3.892995     3.885352     3.877708     3.870065     3.862422     3.854779
      3.847136     3.839492     3.831849     3.824206     3.816563     3.808919     3.801276     3.793633     3.785990     3.778347
      3.770703     3.763060     3.755417     3.747774     3.740130     3.732487     3.724844     3.717201     3.709558     3.701914
      3.694271     3.686628     3.678985     3.671341     3.663698     3.656055     3.648412     3.640769     3.633125     3.625482
      3.617839     3.610196     3.602552     3.594909     3.587266     3.579623     3.571980     3.564336     3.556693     3.549050
      3.541407     3.533763     3.526120     3.518477     3.510834     3.503191     3.495547     3.487904     3.480261     3.472618
      3.464974     3.457331     3.449688     3.442045     3.434402     3.426758     3.419115     3.411472     3.403829     3.396185
      3.388542     3.380899     3.373256     3.365613     3.357969     3.350326     3.342683     3.335040     3.327396     3.319753
      3.312110     3.304467     3.296824     3.289180     3.281537     3.273894     3.266251     3.258607     3.250964     3.243321
      3.235678     3.228034     3.220391     3.212748     3.205105     3.197462     3.189818     3.182175     3.174532     3.166889
      3.159245     3.151602     3.143959     3.136316     3.128673     3.121029     3.113386     3.105743     3.098100     3.090456
      3.082813     3.075170     3.067527     3.059884     3.052240     3.044597     3.036954     3.029311     3.021667     3.014024
      3.006381     2.998738     2.991095     2.983451     2.975808     2.968165     2.960522     2.952878     2.945235     2.937592
      2.929949     2.922306     2.914662     2.907019     2.899376     2.891733     2.884089     2.876446     2.868803     2.861160
      2.853517     2.845873     2.838230     2.830587     2.822944     2.815300     2.807657     2.800014     2.792371     2.784728
      2.777084     2.769441     2.761798     2.754155     2.746511     2.738868     2.731225     2.723582     2.715939     2.708295
      2.700652     2.693009     2.685366     2.677722     2.670079     2.662436     2.654793     2.647150     2.639506     2.631863
      2.624220     2.616577     2.608933     2.601290     2.593647     2.586004     2.578361     2.570717     2.563074     2.555431
      2.547788     2.540144     2.532501     2.524858     2.517215     2.509572     2.501928     2.494285     2.486642     2.478999
      2.471355     2.463712     2.456069     2.448426     2.440783     2.433139     2.425496     2.417853     2.410210     2.402566
      2.394923     2.387280     2.379637     2.371994     2.364350     2.356707     2.349064     2.341421     2.333777     2.326134
      2.318491     2.310848     2.303205     2.295561     2.287918     2.280275     2.272632     2.264988     2.257345     2.249702
      2.242059     2.234416     2.226772     2.219129     2.211486     2.203843     2.196199     2.188556     2.180913     2.173270
      2.165627     2.157983     2.150340     2.142697     2.135054     2.127410     2.119767     2.112124     2.104481     2.096838
      2.089194     2.081551     2.073908     2.066265     2.058621     2.050978     2.043335     2.035692     2.028049     2.020405
      2.012762     2.005119     1.997476     1.989833     1.982190     1.974546     1.966903     1.959260     1.951617     1.943974
      1.936331     1.928688     1.921045     1.913402     1.905759     1.898115     1.890472     1.882829     1.875186     1.867543
      1.859900     1.852257     1.844614     1.836971     1.829327     1.821684     1.814041     1.806398     1.798755     1.791112
      1.783469     1.775826     1.768183     1.760540     1.752896     1.745253     1.737610     1.729967     1.722324     1.714681
      1.707038     1.699395     1.691752     1.684108     1.676465     1.668822     1.661179     1.653536     1.645893     1.638250
      1.630607     1.622964     1.615321     1.607677     1.600034     1.592391     1.584748     1.577105     1.569462     1.561819
      1.554176     1.546533     1.538890     1.531246     1.523603     1.515960     1.508317     1.500674     1.493031     1.485388
      1.477745     1.470102     1.462458     1.454815     1.447172     1.439529     1.431886     1.424243     1.416600     1.408957
      1.401314     1.393671     1.386027     1.378384     1.370741     1.363098     1.355455     1.347812     1.340169     1.332526
      1.324883     1.317240     1.309596     1.301953     1.294310     1.286667     1.279024     1.271381     1.263738     1.256095
      1.248452     1.240808     1.233165     1.225522     1.217879     1.210236     1.202593     1.194950     1.187307     1.179664
      1.172021     1.164377     1.156734     1.149091     1.141448     1.133805     1.126162     1.118519     1.110876     1.103233
      1.095590     1.087946     1.080303     1.072660     1.065017     1.057374     1.049731     1.042088     1.034445     1.026802
      1.019158     1.011515     1.003872     0.996229     0.988586     0.980943     0.973300     0.965657     0.958014     0.950371
      0.942727     0.935084     0.927441     0.919798     0.912155     0.904512     0.896869     0.889226     0.881583     0.873940
      0.866296     0.858653     0.851010     0.843367     0.835724     0.828081     0.820438     0.812795     0.805152     0.797508
      0.789865     0.782222     0.774579     0.766936     0.759293     0.751650     0.744007     0.736364     0.728721     0.721077
      0.713434     0.705791     0.698148     0.690505     0.682862     0.675219     0.667576     0.659933     0.652290     0.644646
      0.637003     0.629360     0.621717     0.614074     0.606431     0.598788     0.591145     0.583502     0.575858     0.568215
      0.560572     0.552929     0.545286     0.537643     0.530000     0.522357     0.514714     0.507071     0.499427     0.491784
      0.484141     0.476498     0.468855     0.461212     0.453569     0.445925     0.438282     0.430639     0.422996     0.415353
      0.407710     0.400067     0.392424     0.384780     0.377137     0.369494     0.361851     0.354208     0.346565     0.338922
      0.331278     0.323635     0.315992     0.308349     0.300706     0.293063     0.285420     0.277777     0.270133     0.262490
      0.254847     0.247204     0.239561     0.231918     0.224275     0.216631     0.208988     0.201345
 NY phased data points follow
   4.68859E+01  4.65382E+01  4.76119E+01  4.84721E+01  5.30413E+01  5.60351E+01  6.46712E+01  6.61147E+01  7.79454E+01  7.54791E+01
   7.85116E+01  8.10750E+01  8.55845E+01  7.32126E+01  7.90038E+01  6.21090E+01  6.40705E+01  4.78467E+01  4.79940E+01  4.10340E+01
   4.38311E+01  4.25866E+01  4.03743E+01  4.41371E+01  4.40875E+01  4.79252E+01  4.82203E+01  4.20179E+01  5.30241E+01  4.34847E+01
   4.89372E+01  4.79771E+01  4.81049E+01  4.73291E+01  4.65051E+01  3.54566E+01  4.27536E+01  3.90605E+01  4.31970E+01  4.08976E+01
   4.17548E+01  3.84091E+01  3.93108E+01  3.84687E+01  4.50390E+01  3.86688E+01  3.97485E+01  4.15352E+01  4.53119E+01  4.00945E+01
   3.72296E+01  3.39163E+01  3.27531E+01  3.37977E+01  3.08638E+01  2.74485E+01  3.32658E+01  2.96637E+01  3.40815E+01  2.86396E+01
   3.22537E+01  2.28848E+01  1.97898E+01  1.98948E+01  2.05941E+01  1.81674E+01  1.77979E+01  1.96608E+01  1.38283E+01  1.18914E+01
   1.87787E+01  1.40130E+01  2.10119E+01  1.91268E+01  2.11189E+01  1.56156E+01  2.36065E+01  1.93821E+01  1.97587E+01  2.01214E+01
   2.27642E+01  1.97862E+01  2.23258E+01  1.78566E+01  2.34996E+01  1.70021E+01  2.20370E+01  1.99556E+01  1.97517E+01  2.00111E+01
   1.78165E+01  1.82850E+01  2.18140E+01  1.98238E+01  1.64500E+01  1.69600E+01  1.88852E+01  1.35881E+01  2.53892E+01  2.90486E+01
   5.15977E+01  6.15127E+01  7.35268E+01  6.81757E+01  6.60263E+01  5.92409E+01  5.84286E+01  4.02423E+01  4.37097E+01  2.75292E+01
   3.21747E+01  2.15957E+01  1.82553E+01  1.53141E+01  1.63143E+01  1.31059E+01  1.48493E+01  1.30443E+01  1.40082E+01  1.09736E+01
   9.94390E+00  1.60539E+01  2.50376E+01  2.37201E+01  3.30990E+01  4.81541E+01  5.80229E+01  5.99693E+01  5.63791E+01  6.23108E+01
   5.22903E+01  3.88628E+01  3.10156E+01  3.05674E+01  2.37209E+01  1.23516E+01  1.63486E+01  1.42393E+01  1.25403E+01  8.91819E+00
   1.17037E+01  6.36534E+00  8.30874E+00  4.00262E+00  8.70541E+00  6.12529E+00  1.05697E+01  8.64091E+00  1.02426E+01  4.27517E+00
   8.04253E+00  3.05408E+00  9.97052E+00  9.48198E+00  4.69105E+00  6.17370E+00  3.98411E+00  5.38713E+00  3.26273E+00  6.44441E-01
   5.55701E-01  1.97484E+00 -1.98001E-01 -3.75462E-01  9.27609E+00  6.37836E+00  4.83703E+00  6.38603E+00  1.56173E+00  9.11791E-01
  -9.97942E-01  1.28219E+00 -1.71719E+00 -4.55784E+00 -2.44180E+00 -6.50159E+00 -7.18840E-01 -1.45327E+00 -4.29776E+00 -2.24250E+00
  -7.35244E+00 -4.06022E+00 -8.55001E+00  5.37120E-01 -2.22720E+00 -4.65177E+00 -4.43684E+00  4.51959E-01  2.17164E+00  2.41347E+00
   8.12762E+00  4.92452E+00  7.54929E+00  7.31740E+00  1.04953E+01  1.11341E+01  4.74098E+00  9.96506E-01  1.80439E+00  3.50618E+00
   3.59738E+00  3.82134E+00  5.43069E+00  4.51782E+00  8.98072E+00  2.06809E+00  5.06816E+00  5.35077E-01 -6.30947E+00  5.11116E+00
  -3.01172E+00 -3.12469E-01  1.17463E+00  4.52401E+00  1.28370E+01  1.00886E+01  1.64483E+01  1.14966E+01  1.08495E+01  9.43150E+00
  -5.49792E-01  1.43720E+00  5.43269E+00  4.13996E+00  7.06127E+00 -1.95571E-01  4.71657E+00  7.21864E+00  8.28062E+00  9.44846E+00
   1.07273E+01  6.35810E+00  1.22107E+01  8.15425E+00  1.06512E+01  9.96661E+00  8.63956E+00  1.03670E+01  8.30387E+00  5.03016E+00
   3.15029E+00  4.86733E+00  4.31656E+00  1.11257E+01  1.13538E+01  1.42061E+01  1.03857E+01  7.98821E+00  1.45993E+01  1.13014E+01
   1.66448E+01  1.98751E+01  2.52896E+01  1.69179E+01  2.19416E+01  2.74336E+01  3.22771E+01  4.63585E+01  6.23461E+01  7.75098E+01
   7.29662E+01  6.44067E+01  6.07719E+01  5.37279E+01  4.49849E+01  3.65435E+01  2.53733E+01  2.09279E+01  1.65077E+01  1.90169E+01
   1.53298E+01  1.03834E+01  7.94599E+00  1.27015E+01  9.13125E+00  8.41133E+00  1.11226E+01  9.89403E+00  1.26908E+01  1.19843E+01
   1.08326E+01  7.94462E+00  8.00311E+00  7.50935E+00  6.45933E+00  6.81931E+00  1.03416E+01  7.53576E+00  4.61526E+00  3.35372E+00
   1.52130E+01  6.97191E+00  1.35083E+01  1.20753E+01  9.78996E+00  8.55329E+00  1.36476E+01  1.11176E+01  1.05336E+01  1.25502E+01
   1.22657E+01  1.41435E+01  1.87481E+01  1.57234E+01  1.56506E+01  1.80441E+01  1.60493E+01  2.11971E+01  1.77308E+01  2.48385E+01
   1.99094E+01  2.13478E+01  2.64571E+01  2.10966E+01  2.29696E+01  1.94493E+01  2.06916E+01  2.40707E+01  1.86851E+01  1.80489E+01
   2.00394E+01  1.75271E+01  1.94819E+01  1.58754E+01  1.74112E+01  1.48105E+01  1.66295E+01  1.48286E+01  1.83826E+01  2.08498E+01
   1.65300E+01  1.40035E+01  2.06311E+01  1.42561E+01  2.44814E+01  1.28022E+01  1.47694E+01  1.21162E+01  1.20454E+01  1.06847E+01
   1.55832E+01  1.50401E+01  1.62366E+01  1.63342E+01  1.34592E+01  2.01393E+01  1.85568E+01  1.94485E+01  1.81045E+01  1.31253E+01
   2.17634E+01  1.74734E+01  1.90983E+01  1.97009E+01  2.14855E+01  2.21650E+01  1.56288E+01  1.77799E+01  2.30904E+01  1.28660E+01
   1.69508E+01  1.23967E+01  9.42593E+00  1.02915E+01  1.32759E+01  7.98171E+00  1.14112E+01  9.13436E+00  1.30952E+01  1.05327E+01
   9.97165E+00  5.13369E+00  3.49224E+00  1.96227E+00  9.16587E+00  2.94418E+00  2.39486E+00  9.11149E+00  1.47147E+00  4.32720E+00
   7.61472E+00  8.93500E-01  4.85926E+00  6.46549E+00  2.43230E+00  5.35945E+00  4.93835E+00  3.63278E-01  4.38690E+00  3.78136E+00
   7.49631E+00  4.31601E+00  1.07051E+01  8.42286E+00  9.44101E+00  8.57734E+00  3.37056E+00  7.85332E+00  5.06672E+00  3.28381E+00
   1.17813E+01  4.30966E+00  9.16809E+00  1.14865E+01  1.20366E+01  1.00904E+01  9.18825E+00  6.13210E+00  1.04524E+01  1.21184E+01
   7.60345E+00  6.14688E+00  1.01742E+01  2.82443E+00  6.10516E+00  7.93314E+00  6.90945E+00  3.71556E+00  7.04774E+00  6.96513E+00
   6.74005E+00  4.28794E+00  5.76744E+00  4.10638E+00  7.09646E+00  1.76193E+00 -1.85734E+00  5.89923E+00  4.74796E+00 -2.38428E+00
   1.74587E+00  2.90879E+00  3.62559E+00 -4.33575E-01  3.52737E+00 -3.45468E-01 -2.74404E+00  2.14228E+00 -2.50625E-01 -4.49840E+00
   1.03212E+00  2.32735E+00 -3.02574E+00 -1.94648E+00  6.08138E+00 -1.46555E+00 -1.53101E+00  1.23015E+00 -4.07063E+00 -4.45983E+00
  -4.99831E-01 -6.40110E+00  5.65186E-01  1.06963E+00  8.21691E+00 -1.54767E+00 -3.45981E-01 -3.22289E+00  6.23724E-01  6.43666E-01
  -3.06677E+00  5.15382E-01 -2.32645E+00 -1.44940E+00  6.40087E-01 -3.90215E+00 -2.40151E+00 -3.24552E+00 -3.02433E+00  8.03517E-01
   1.13970E+00 -2.45020E+00 -5.70967E+00 -3.37058E+00 -3.40583E+00  1.96811E+00 -9.45397E-01 -4.63125E-01  1.22506E+00  6.14925E+00
  -1.18609E+00  4.81068E-01 -7.87933E-01 -7.53000E-01 -2.56498E+00  9.22430E-01  2.70299E+00  1.13622E+00 -1.21616E+00 -2.59717E+00
  -4.39571E-01 -2.73893E+00  1.46440E+00 -3.47410E+00 -2.16324E+00 -1.83478E+00  8.66072E-02 -4.59102E+00
 NY points of the fit to the data follow
   4.69378E+01  4.66863E+01  4.68659E+01  4.76912E+01  4.95716E+01  5.30359E+01  5.83617E+01  6.49837E+01  7.15081E+01  7.62927E+01
   7.83823E+01  7.77482E+01  7.50071E+01  7.10381E+01  6.65316E+01  6.18134E+01  5.71582E+01  5.27069E+01  4.88558E+01  4.60278E+01
   4.39553E+01  4.27409E+01  4.19693E+01  4.14754E+01  4.13634E+01  4.18978E+01  4.33344E+01  4.53921E+01  4.73395E+01  4.86342E+01
   4.92672E+01  4.92612E+01  4.83143E+01  4.64207E+01  4.40596E+01  4.16418E+01  3.94370E+01  3.75194E+01  3.62184E+01  3.56981E+01
   3.55319E+01  3.56963E+01  3.61815E+01  3.69455E+01  3.79320E+01  3.87378E+01  3.89524E+01  3.84903E+01  3.76041E+01  3.65411E+01
   3.52895E+01  3.39195E+01  3.26936E+01  3.16812E+01  3.07285E+01  2.99187E+01  2.94782E+01  2.93216E+01  2.91517E+01  2.88146E+01
   2.83084E+01  2.76568E+01  2.69250E+01  2.61922E+01  2.55511E+01  2.50578E+01  2.46889E+01  2.44058E+01  2.42211E+01  2.41160E+01
   2.40180E+01  2.38607E+01  2.36117E+01  2.32957E+01  2.29301E+01  2.25256E+01  2.21153E+01  2.17215E+01  2.13603E+01  2.10498E+01
   2.08512E+01  2.08342E+01  2.09974E+01  2.12425E+01  2.13442E+01  2.11030E+01  2.05441E+01  1.98780E+01  1.92575E+01  1.87066E+01
   1.82551E+01  1.79357E+01  1.77121E+01  1.75048E+01  1.73066E+01  1.73279E+01  1.81062E+01  2.06629E+01  2.61941E+01  3.56533E+01
   4.85295E+01  6.13836E+01  6.96273E+01  7.13557E+01  6.83833E+01  6.29397E+01  5.56808E+01  4.73867E+01  3.94154E+01  3.22834E+01
   2.56188E+01  1.93411E+01  1.52705E+01  1.40075E+01  1.35561E+01  1.32901E+01  1.30929E+01  1.29519E+01  1.29091E+01  1.30657E+01
   1.37744E+01  1.58886E+01  2.04325E+01  2.82560E+01  3.93392E+01  5.12650E+01  6.00396E+01  6.32525E+01  6.18943E+01  5.80326E+01
   5.23408E+01  4.50930E+01  3.73586E+01  2.99541E+01  2.30422E+01  1.66187E+01  1.20167E+01  1.04906E+01  1.03053E+01  1.04210E+01
   1.05120E+01  1.05186E+01  1.05253E+01  1.04942E+01  1.03034E+01  9.96231E+00  9.49376E+00  8.92013E+00  8.31683E+00  7.71919E+00
   7.20764E+00  6.77988E+00  6.42511E+00  6.16013E+00  5.95769E+00  5.74778E+00  5.44373E+00  4.99748E+00  4.45911E+00  3.97264E+00
   3.69397E+00  3.65515E+00  3.72847E+00  3.74189E+00  3.61582E+00  3.38357E+00  3.10502E+00  2.82141E+00  2.56271E+00  2.31408E+00
   1.96929E+00  1.48525E+00  8.95600E-01  3.16089E-01 -5.89616E-02 -1.97166E-01 -2.10463E-01 -2.67727E-01 -4.34529E-01 -6.10005E-01
  -6.92942E-01 -7.08860E-01 -7.17658E-01 -6.91984E-01 -4.89029E-01  2.67784E-02  9.31617E-01  2.17011E+00  3.44809E+00  4.45069E+00
   4.93911E+00  4.86656E+00  4.37375E+00  3.64761E+00  2.87503E+00  2.27784E+00  2.01814E+00  2.22025E+00  2.91142E+00  4.00547E+00
   5.38154E+00  6.81012E+00  7.93543E+00  8.42666E+00  8.08384E+00  6.87299E+00  4.92109E+00  2.60675E+00  5.64541E-01 -6.62675E-01
  -7.80344E-01  2.67278E-01  2.43640E+00  5.39927E+00  8.24401E+00  1.00297E+01  1.03427E+01  9.30619E+00  7.18569E+00  4.14519E+00
   1.02575E+00 -1.06615E+00 -1.70490E+00 -1.12494E+00  1.82402E-01  2.00236E+00  4.08806E+00  5.82583E+00  6.98568E+00  7.74741E+00
   8.40750E+00  8.98183E+00  9.30071E+00  9.53001E+00  9.95702E+00  1.04667E+01  1.07641E+01  1.07100E+01  1.03669E+01  9.80036E+00
   9.05133E+00  8.43935E+00  8.36430E+00  8.83417E+00  9.51966E+00  1.01810E+01  1.08870E+01  1.15461E+01  1.20453E+01  1.25879E+01
   1.35143E+01  1.49719E+01  1.68451E+01  1.93315E+01  2.30931E+01  2.89314E+01  3.78327E+01  4.98227E+01  6.19613E+01  6.97816E+01
   7.12696E+01  6.80905E+01  6.23842E+01  5.47417E+01  4.59929E+01  3.77210E+01  3.03618E+01  2.33929E+01  1.66589E+01  1.20061E+01
   1.02242E+01  9.43797E+00  8.98394E+00  8.70266E+00  8.49718E+00  8.27059E+00  8.03207E+00  7.77957E+00  7.50763E+00  7.24036E+00
   7.00885E+00  6.80920E+00  6.63673E+00  6.51439E+00  6.45836E+00  6.45876E+00  6.50504E+00  6.60208E+00  6.76354E+00  6.99584E+00
   7.29225E+00  7.65445E+00  8.08826E+00  8.59481E+00  9.17173E+00  9.81707E+00  1.05282E+01  1.13017E+01  1.21313E+01  1.30055E+01
   1.39087E+01  1.48261E+01  1.57387E+01  1.66240E+01  1.74601E+01  1.82272E+01  1.89080E+01  1.94869E+01  1.99511E+01  2.02942E+01
   2.05144E+01  2.06143E+01  2.06011E+01  2.04869E+01  2.02859E+01  2.00152E+01  1.96931E+01  1.93387E+01  1.89701E+01  1.86039E+01
   1.82539E+01  1.79310E+01  1.76430E+01  1.73939E+01  1.71846E+01  1.70127E+01  1.68734E+01  1.67599E+01  1.66643E+01  1.65784E+01
   1.64936E+01  1.64025E+01  1.62989E+01  1.61787E+01  1.60402E+01  1.58847E+01  1.57167E+01  1.55444E+01  1.53809E+01  1.52457E+01
   1.51678E+01  1.51801E+01  1.53030E+01  1.55371E+01  1.58430E+01  1.61458E+01  1.64002E+01  1.66392E+01  1.69349E+01  1.73161E+01
   1.77693E+01  1.83001E+01  1.88950E+01  1.94482E+01  1.97951E+01  1.98313E+01  1.95710E+01  1.90220E+01  1.81714E+01  1.70857E+01
   1.58603E+01  1.45781E+01  1.32893E+01  1.20321E+01  1.08870E+01  9.89522E+00  9.04107E+00  8.30994E+00  7.68710E+00  7.15708E+00
   6.70482E+00  6.31689E+00  5.98211E+00  5.69176E+00  5.43934E+00  5.22028E+00  5.03163E+00  4.87175E+00  4.73999E+00  4.63642E+00
   4.56157E+00  4.51626E+00  4.50156E+00  4.51870E+00  4.56900E+00  4.65368E+00  4.77370E+00  4.92974E+00  5.12206E+00  5.35041E+00
   5.61384E+00  5.91047E+00  6.23741E+00  6.59064E+00  6.96504E+00  7.35434E+00  7.75117E+00  8.14707E+00  8.53278E+00  8.89856E+00
   9.23452E+00  9.53101E+00  9.77894E+00  9.97018E+00  1.00980E+01  1.01575E+01  1.01456E+01  1.00615E+01  9.90633E+00  9.68341E+00
   9.39783E+00  9.05637E+00  8.66709E+00  8.23887E+00  7.78101E+00  7.30286E+00  6.81347E+00  6.32135E+00  5.83411E+00  5.35826E+00
   4.89914E+00  4.46093E+00  4.04671E+00  3.65850E+00  3.29735E+00  2.96344E+00  2.65627E+00  2.37486E+00  2.11788E+00  1.88375E+00
   1.67072E+00  1.47693E+00  1.30053E+00  1.13980E+00  9.93131E-01  8.59028E-01  7.36079E-01  6.22988E-01  5.18625E-01  4.22027E-01
   3.32363E-01  2.48872E-01  1.70848E-01  9.76685E-02  2.88297E-02 -3.60771E-02 -9.74165E-02 -1.55549E-01 -2.10814E-01 -2.63494E-01
  -3.13798E-01 -3.61891E-01 -4.07941E-01 -4.52141E-01 -4.94670E-01 -5.35661E-01 -5.75197E-01 -6.13359E-01 -6.50255E-01 -6.86009E-01
  -7.20724E-01 -7.54452E-01 -7.87221E-01 -8.19075E-01 -8.50101E-01 -8.80385E-01 -9.09982E-01 -9.38901E-01 -9.67154E-01 -9.94781E-01
  -1.02185E+00 -1.04843E+00 -1.07452E+00 -1.10012E+00 -1.12524E+00 -1.14992E+00 -1.17422E+00 -1.19819E+00 -1.22180E+00 -1.24505E+00
  -1.26796E+00 -1.29058E+00 -1.31295E+00 -1.33508E+00 -1.35696E+00 -1.37857E+00 -1.39995E+00 -1.42114E+00 -1.44217E+00 -1.46304E+00
  -1.48372E+00 -1.50422E+00 -1.52457E+00 -1.54482E+00 -1.56498E+00 -1.58503E+00 -1.60493E+00 -1.62473E+00
 NY background values follow
     4.355E+01    4.323E+01    4.290E+01    4.258E+01    4.225E+01    4.193E+01    4.160E+01    4.128E+01    4.095E+01    4.063E+01
     4.030E+01    3.998E+01    3.965E+01    3.933E+01    3.900E+01    3.868E+01    3.835E+01    3.803E+01    3.770E+01    3.738E+01
     3.706E+01    3.673E+01    3.641E+01    3.609E+01    3.576E+01    3.544E+01    3.512E+01    3.480E+01    3.448E+01    3.416E+01
     3.383E+01    3.351E+01    3.320E+01    3.288E+01    3.256E+01    3.224E+01    3.192E+01    3.161E+01    3.129E+01    3.098E+01
     3.066E+01    3.035E+01    3.003E+01    2.972E+01    2.941E+01    2.910E+01    2.879E+01    2.848E+01    2.817E+01    2.787E+01
     2.756E+01    2.725E+01    2.695E+01    2.665E+01    2.634E+01    2.604E+01    2.574E+01    2.544E+01    2.514E+01    2.485E+01
     2.455E+01    2.426E+01    2.396E+01    2.367E+01    2.338E+01    2.309E+01    2.281E+01    2.252E+01    2.223E+01    2.195E+01
     2.167E+01    2.139E+01    2.111E+01    2.083E+01    2.055E+01    2.028E+01    2.001E+01    1.974E+01    1.947E+01    1.920E+01
     1.893E+01    1.867E+01    1.841E+01    1.815E+01    1.789E+01    1.763E+01    1.737E+01    1.712E+01    1.687E+01    1.662E+01
     1.637E+01    1.613E+01    1.588E+01    1.564E+01    1.540E+01    1.517E+01    1.493E+01    1.470E+01    1.447E+01    1.424E+01
     1.401E+01    1.379E+01    1.357E+01    1.334E+01    1.313E+01    1.291E+01    1.270E+01    1.248E+01    1.227E+01    1.206E+01
     1.186E+01    1.166E+01    1.145E+01    1.125E+01    1.106E+01    1.086E+01    1.067E+01    1.048E+01    1.029E+01    1.010E+01
     9.915E+00    9.733E+00    9.552E+00    9.374E+00    9.197E+00    9.023E+00    8.851E+00    8.681E+00    8.514E+00    8.348E+00
     8.185E+00    8.024E+00    7.865E+00    7.708E+00    7.553E+00    7.401E+00    7.250E+00    7.102E+00    6.956E+00    6.813E+00
     6.671E+00    6.532E+00    6.394E+00    6.259E+00    6.126E+00    5.995E+00    5.866E+00    5.739E+00    5.614E+00    5.492E+00
     5.371E+00    5.253E+00    5.136E+00    5.022E+00    4.909E+00    4.799E+00    4.691E+00    4.584E+00    4.480E+00    4.377E+00
     4.277E+00    4.178E+00    4.082E+00    3.987E+00    3.895E+00    3.804E+00    3.715E+00    3.628E+00    3.543E+00    3.460E+00
     3.379E+00    3.300E+00    3.222E+00    3.147E+00    3.073E+00    3.001E+00    2.931E+00    2.863E+00    2.796E+00    2.731E+00
     2.669E+00    2.607E+00    2.548E+00    2.491E+00    2.435E+00    2.381E+00    2.328E+00    2.277E+00    2.228E+00    2.180E+00
     2.134E+00    2.090E+00    2.047E+00    2.005E+00    1.965E+00    1.926E+00    1.889E+00    1.853E+00    1.818E+00    1.785E+00
     1.753E+00    1.723E+00    1.693E+00    1.665E+00    1.638E+00    1.612E+00    1.587E+00    1.564E+00    1.541E+00    1.520E+00
     1.499E+00    1.480E+00    1.462E+00    1.444E+00    1.428E+00    1.412E+00    1.397E+00    1.383E+00    1.370E+00    1.358E+00
     1.347E+00    1.336E+00    1.326E+00    1.317E+00    1.308E+00    1.300E+00    1.293E+00    1.286E+00    1.280E+00    1.274E+00
     1.269E+00    1.264E+00    1.260E+00    1.256E+00    1.253E+00    1.251E+00    1.248E+00    1.246E+00    1.245E+00    1.244E+00
     1.243E+00    1.243E+00    1.243E+00    1.243E+00    1.244E+00    1.245E+00    1.246E+00    1.247E+00    1.249E+00    1.251E+00
     1.253E+00    1.255E+00    1.257E+00    1.260E+00    1.262E+00    1.265E+00    1.268E+00    1.271E+00    1.274E+00    1.277E+00
     1.280E+00    1.283E+00    1.286E+00    1.289E+00    1.292E+00    1.295E+00    1.297E+00    1.300E+00    1.303E+00    1.305E+00
     1.307E+00    1.309E+00    1.311E+00    1.313E+00    1.315E+00    1.316E+00    1.317E+00    1.318E+00    1.319E+00    1.319E+00
     1.319E+00    1.319E+00    1.319E+00    1.319E+00    1.318E+00    1.317E+00    1.316E+00    1.314E+00    1.312E+00    1.310E+00
     1.308E+00    1.306E+00    1.303E+00    1.300E+00    1.296E+00    1.293E+00    1.289E+00    1.284E+00    1.280E+00    1.275E+00
     1.269E+00    1.264E+00    1.258E+00    1.252E+00    1.245E+00    1.238E+00    1.231E+00    1.223E+00    1.215E+00    1.207E+00
     1.198E+00    1.189E+00    1.179E+00    1.169E+00    1.159E+00    1.149E+00    1.137E+00    1.126E+00    1.114E+00    1.102E+00
     1.089E+00    1.076E+00    1.063E+00    1.049E+00    1.035E+00    1.021E+00    1.006E+00    9.906E-01    9.752E-01    9.594E-01
     9.432E-01    9.268E-01    9.100E-01    8.930E-01    8.756E-01    8.580E-01    8.400E-01    8.218E-01    8.034E-01    7.846E-01
     7.656E-01    7.464E-01    7.269E-01    7.072E-01    6.872E-01    6.670E-01    6.466E-01    6.260E-01    6.052E-01    5.841E-01
     5.629E-01    5.415E-01    5.199E-01    4.982E-01    4.762E-01    4.541E-01    4.319E-01    4.095E-01    3.869E-01    3.643E-01
     3.415E-01    3.185E-01    2.955E-01    2.723E-01    2.490E-01    2.257E-01    2.022E-01    1.787E-01    1.551E-01    1.314E-01
     1.076E-01    8.376E-02    5.987E-02    3.593E-02    1.195E-02   -1.208E-02   -3.613E-02   -6.022E-02   -8.433E-02   -1.084E-01
    -1.326E-01   -1.567E-01   -1.808E-01   -2.050E-01   -2.291E-01   -2.532E-01   -2.772E-01   -3.013E-01   -3.252E-01   -3.492E-01
    -3.731E-01   -3.969E-01   -4.207E-01   -4.444E-01   -4.680E-01   -4.916E-01   -5.151E-01   -5.384E-01   -5.617E-01   -5.849E-01
    -6.079E-01   -6.309E-01   -6.537E-01   -6.764E-01   -6.990E-01   -7.214E-01   -7.437E-01   -7.658E-01   -7.878E-01   -8.096E-01
    -8.312E-01   -8.527E-01   -8.741E-01   -8.953E-01   -9.163E-01   -9.372E-01   -9.580E-01   -9.785E-01   -9.990E-01   -1.019E+00
    -1.039E+00   -1.059E+00   -1.079E+00   -1.099E+00   -1.118E+00   -1.138E+00   -1.157E+00   -1.176E+00   -1.195E+00   -1.214E+00
    -1.233E+00   -1.251E+00   -1.269E+00   -1.288E+00   -1.306E+00   -1.324E+00   -1.341E+00   -1.359E+00   -1.377E+00   -1.394E+00
    -1.411E+00   -1.428E+00   -1.445E+00   -1.462E+00   -1.478E+00   -1.495E+00   -1.511E+00   -1.528E+00   -1.544E+00   -1.560E+00
    -1.575E+00   -1.591E+00   -1.607E+00   -1.622E+00   -1.637E+00   -1.652E+00   -1.667E+00   -1.682E+00   -1.697E+00   -1.712E+00
    -1.726E+00   -1.741E+00   -1.755E+00   -1.769E+00   -1.784E+00   -1.798E+00   -1.812E+00   -1.826E+00   -1.839E+00   -1.853E+00
    -1.867E+00   -1.880E+00   -1.894E+00   -1.907E+00   -1.921E+00   -1.934E+00   -1.948E+00   -1.961E+00   -1.974E+00   -1.987E+00
    -2.001E+00   -2.014E+00   -2.027E+00   -2.040E+00   -2.053E+00   -2.066E+00   -2.079E+00   -2.092E+00   -2.105E+00   -2.118E+00
    -2.131E+00   -2.144E+00   -2.158E+00   -2.171E+00   -2.184E+00   -2.197E+00   -2.210E+00   -2.223E+00
 Asp      Conc. = 1.78E+02
