 LCModel (Version 6.3-1L) Copyright: S.W. Provencher.          Ref.: Magn. Reson. Med. 30:672-679 (1993).                
 Slice#1 Row#9 Col#7  PD_24_press_1_raw_act
 36 lines in following concentration table = NCONC+1
    Conc.  %SD /Cr+PCr  Metabolite                                         
    2.055 999% 4.4E-03 Ala                                                 
   72.108 161%   0.154 Asp                                                 
    0.000 999%   0.000 Cr                                                  
  467.154  11%   1.000 PCr                                                 
   21.965 319% 4.7E-02 GABA                                                
   39.331 181% 8.4E-02 Glc                                                 
  293.506  64%   0.628 Gln                                                 
  613.923  35%   1.314 Glu                                                 
    0.000 999%   0.000 GPC                                                 
  232.298   9%   0.497 PCh                                                 
   75.108  90%   0.161 GSH                                                 
  401.708  54%   0.860 Ins                                                 
   13.926 734% 3.0E-02 Lac                                                 
 1.01E+03   7%   2.163 NAA                                                 
   87.432  91%   0.187 NAAG                                                
   39.702  47% 8.5E-02 Scyllo                                              
  181.145  61%   0.388 Tau                                                 
  285.419  29%   0.611 -CrCH2                                              
  232.298   9%   0.497 GPC+PCh                                             
 1.10E+03   7%   2.351 NAA+NAAG                                            
  467.154  11%   1.000 Cr+PCr                                              
  907.429  31%   1.942 Glu+Gln                                             
  908.208  28%   1.944 Lip13a                                              
    0.000 999%   0.000 Lip13b                                              
    0.000 999%   0.000 Lip09                                               
  535.857  27%   1.147 MM09                                                
  283.712  49%   0.607 Lip20                                               
 1.00E+03  24%   2.151 MM20                                                
  166.970  36%   0.357 MM12                                                
  160.609 113%   0.344 MM14                                                
  343.439  34%   0.735 MM17                                                
  908.208  28%   1.944 Lip13a+Lip13b                                       
 1.24E+03  23%   2.645 MM14+Lip13a+Lip13b+MM12                             
  535.857  27%   1.147 MM09+Lip09                                          
 1.29E+03  21%   2.759 MM20+Lip20                                          
   6 lines in following misc. output table
  FWHM = 0.038 ppm    S/N =   5                                            
  Data shift = 0.008 ppm                                                   
  Ph: -69 deg     -21.5 deg/ppm                                            
  alphaB,S = 2.1E+00,   4.0E+01                                            
   14 spline knots.   Ns = 5(1)                                            
  ( 6) 4 infls.   ( 5) 1 extrs.                                            
  498 points on ppm-axis = NY
      4.000000     3.992357     3.984714     3.977070     3.969427     3.961784     3.954141     3.946497     3.938854     3.931211
      3.923568     3.915925     3.908281     3.900638     3.892995     3.885352     3.877708     3.870065     3.862422     3.854779
      3.847136     3.839492     3.831849     3.824206     3.816563     3.808919     3.801276     3.793633     3.785990     3.778347
      3.770703     3.763060     3.755417     3.747774     3.740130     3.732487     3.724844     3.717201     3.709558     3.701914
      3.694271     3.686628     3.678985     3.671341     3.663698     3.656055     3.648412     3.640769     3.633125     3.625482
      3.617839     3.610196     3.602552     3.594909     3.587266     3.579623     3.571980     3.564336     3.556693     3.549050
      3.541407     3.533763     3.526120     3.518477     3.510834     3.503191     3.495547     3.487904     3.480261     3.472618
      3.464974     3.457331     3.449688     3.442045     3.434402     3.426758     3.419115     3.411472     3.403829     3.396185
      3.388542     3.380899     3.373256     3.365613     3.357969     3.350326     3.342683     3.335040     3.327396     3.319753
      3.312110     3.304467     3.296824     3.289180     3.281537     3.273894     3.266251     3.258607     3.250964     3.243321
      3.235678     3.228034     3.220391     3.212748     3.205105     3.197462     3.189818     3.182175     3.174532     3.166889
      3.159245     3.151602     3.143959     3.136316     3.128673     3.121029     3.113386     3.105743     3.098100     3.090456
      3.082813     3.075170     3.067527     3.059884     3.052240     3.044597     3.036954     3.029311     3.021667     3.014024
      3.006381     2.998738     2.991095     2.983451     2.975808     2.968165     2.960522     2.952878     2.945235     2.937592
      2.929949     2.922306     2.914662     2.907019     2.899376     2.891733     2.884089     2.876446     2.868803     2.861160
      2.853517     2.845873     2.838230     2.830587     2.822944     2.815300     2.807657     2.800014     2.792371     2.784728
      2.777084     2.769441     2.761798     2.754155     2.746511     2.738868     2.731225     2.723582     2.715939     2.708295
      2.700652     2.693009     2.685366     2.677722     2.670079     2.662436     2.654793     2.647150     2.639506     2.631863
      2.624220     2.616577     2.608933     2.601290     2.593647     2.586004     2.578361     2.570717     2.563074     2.555431
      2.547788     2.540144     2.532501     2.524858     2.517215     2.509572     2.501928     2.494285     2.486642     2.478999
      2.471355     2.463712     2.456069     2.448426     2.440783     2.433139     2.425496     2.417853     2.410210     2.402566
      2.394923     2.387280     2.379637     2.371994     2.364350     2.356707     2.349064     2.341421     2.333777     2.326134
      2.318491     2.310848     2.303205     2.295561     2.287918     2.280275     2.272632     2.264988     2.257345     2.249702
      2.242059     2.234416     2.226772     2.219129     2.211486     2.203843     2.196199     2.188556     2.180913     2.173270
      2.165627     2.157983     2.150340     2.142697     2.135054     2.127410     2.119767     2.112124     2.104481     2.096838
      2.089194     2.081551     2.073908     2.066265     2.058621     2.050978     2.043335     2.035692     2.028049     2.020405
      2.012762     2.005119     1.997476     1.989833     1.982190     1.974546     1.966903     1.959260     1.951617     1.943974
      1.936331     1.928688     1.921045     1.913402     1.905759     1.898115     1.890472     1.882829     1.875186     1.867543
      1.859900     1.852257     1.844614     1.836971     1.829327     1.821684     1.814041     1.806398     1.798755     1.791112
      1.783469     1.775826     1.768183     1.760540     1.752896     1.745253     1.737610     1.729967     1.722324     1.714681
      1.707038     1.699395     1.691752     1.684108     1.676465     1.668822     1.661179     1.653536     1.645893     1.638250
      1.630607     1.622964     1.615321     1.607677     1.600034     1.592391     1.584748     1.577105     1.569462     1.561819
      1.554176     1.546533     1.538890     1.531246     1.523603     1.515960     1.508317     1.500674     1.493031     1.485388
      1.477745     1.470102     1.462458     1.454815     1.447172     1.439529     1.431886     1.424243     1.416600     1.408957
      1.401314     1.393671     1.386027     1.378384     1.370741     1.363098     1.355455     1.347812     1.340169     1.332526
      1.324883     1.317240     1.309596     1.301953     1.294310     1.286667     1.279024     1.271381     1.263738     1.256095
      1.248452     1.240808     1.233165     1.225522     1.217879     1.210236     1.202593     1.194950     1.187307     1.179664
      1.172021     1.164377     1.156734     1.149091     1.141448     1.133805     1.126162     1.118519     1.110876     1.103233
      1.095590     1.087946     1.080303     1.072660     1.065017     1.057374     1.049731     1.042088     1.034445     1.026802
      1.019158     1.011515     1.003872     0.996229     0.988586     0.980943     0.973300     0.965657     0.958014     0.950371
      0.942727     0.935084     0.927441     0.919798     0.912155     0.904512     0.896869     0.889226     0.881583     0.873940
      0.866296     0.858653     0.851010     0.843367     0.835724     0.828081     0.820438     0.812795     0.805152     0.797508
      0.789865     0.782222     0.774579     0.766936     0.759293     0.751650     0.744007     0.736364     0.728721     0.721077
      0.713434     0.705791     0.698148     0.690505     0.682862     0.675219     0.667576     0.659933     0.652290     0.644646
      0.637003     0.629360     0.621717     0.614074     0.606431     0.598788     0.591145     0.583502     0.575858     0.568215
      0.560572     0.552929     0.545286     0.537643     0.530000     0.522357     0.514714     0.507071     0.499427     0.491784
      0.484141     0.476498     0.468855     0.461212     0.453569     0.445925     0.438282     0.430639     0.422996     0.415353
      0.407710     0.400067     0.392424     0.384780     0.377137     0.369494     0.361851     0.354208     0.346565     0.338922
      0.331278     0.323635     0.315992     0.308349     0.300706     0.293063     0.285420     0.277777     0.270133     0.262490
      0.254847     0.247204     0.239561     0.231918     0.224275     0.216631     0.208988     0.201345
 NY phased data points follow
  -1.79943E+01 -2.44319E+01 -1.68693E+01 -1.94927E+01 -1.70573E+01 -1.59397E+01 -2.28984E+01 -2.01039E+01 -1.11439E+01 -9.80936E+00
  -4.41490E+00 -1.08374E+01 -5.62871E+00 -1.57417E+01 -1.52349E+01 -1.42758E+01 -1.26135E+01 -1.77366E+01 -1.56883E+01 -1.87929E+01
  -1.89793E+01 -2.05902E+01 -1.28395E+01 -1.68821E+01 -1.58717E+01 -1.65209E+01 -1.38040E+01 -1.39070E+01 -1.13219E+01 -8.51975E+00
  -1.11381E+01 -1.04021E+01 -9.45560E+00 -1.75787E+01 -6.90189E+00 -1.28315E+01 -1.54376E+01 -1.78413E+01 -1.12411E+01 -1.51890E+01
  -1.14350E+01 -6.88203E+00 -1.11192E+01 -7.73755E+00 -3.07751E+00 -7.36992E+00 -9.50388E+00 -1.17351E+00 -4.21474E+00 -2.94299E-01
  -7.21341E+00 -4.91866E+00 -4.24708E+00 -1.04014E+01 -5.20922E+00 -1.07514E+01 -5.48877E+00 -2.62930E+00 -1.12398E+01 -4.40157E+00
  -1.35488E+01 -1.43210E+01 -8.12204E+00 -1.84469E+01 -6.78902E+00 -4.37514E+00 -1.01482E+01 -1.82738E+01 -8.85781E+00 -1.26943E+01
  -1.26518E+01 -1.12631E+01 -4.52115E+00 -8.79835E+00 -9.60550E+00 -6.19070E+00 -2.62473E+00 -1.07005E+01 -5.57667E+00 -1.76066E+01
  -7.07854E+00 -9.67348E+00 -4.25427E+00 -6.36542E+00 -6.15904E+00 -1.03412E+01 -2.76304E+00 -5.09909E+00 -5.65441E+00 -5.78975E+00
  -3.87487E+00 -8.07508E+00 -2.27180E+00 -2.31423E+00 -1.54648E+00  2.37072E+00 -5.28970E+00 -8.43962E+00  3.87176E+00 -2.26597E+00
   4.84874E+00  1.27343E+01  1.62825E+01  2.14141E+01  1.98813E+01  9.04900E+00  1.24509E+01  7.55543E-01 -5.68132E-01  1.63022E-01
  -5.11680E+00 -8.67829E-01 -3.41795E+00 -5.61090E+00 -3.30044E+00 -5.05872E+00 -4.89838E+00 -7.65356E+00  2.18499E+00  1.73445E+00
  -7.60776E+00  6.41761E-01 -2.33768E+00 -1.51606E+00  3.52414E+00 -3.35874E+00  8.23958E+00  1.89847E+01  1.63384E+01  9.66944E+00
   7.06970E+00  3.93628E+00  6.04331E+00  2.62906E+00  5.11898E+00 -4.56176E-01  2.15958E+00 -7.06893E+00 -6.84058E+00 -9.80771E+00
  -1.20705E+00 -6.75600E+00  2.21567E-01 -7.75278E+00 -3.89958E+00 -1.01887E+01 -5.31310E+00 -4.76945E+00 -1.12785E+01 -6.66526E+00
  -2.55528E+00 -4.29617E+00 -3.05142E+00 -1.01208E+00 -4.40338E+00 -1.86481E+00 -6.04950E+00 -2.94181E+00  1.27980E+00 -6.26808E+00
  -3.47011E+00 -5.21048E+00 -4.04679E+00 -4.10002E+00 -1.22613E+00 -2.54729E+00  6.56602E-01 -2.06780E+00 -4.49931E+00 -4.63948E+00
  -1.02658E+01 -2.19624E+00 -7.38430E+00 -3.82141E+00 -5.11891E+00 -1.57497E+01 -8.54932E+00 -1.11060E+01 -8.54419E+00 -4.52239E+00
  -8.11906E+00 -8.75804E+00 -1.03513E+01 -3.78397E+00  2.83861E+00 -9.96862E+00 -6.91957E+00 -5.47598E+00 -6.88195E+00 -5.91718E+00
  -2.99961E+00 -1.81816E+00 -6.37084E-02 -5.64799E+00 -8.26615E-01 -2.47622E+00  2.43421E+00 -3.96233E+00  2.39461E+00 -9.11332E+00
  -5.72115E+00 -3.23575E+00  6.04136E+00  2.66451E+00 -9.72860E-01  1.98554E+00  3.50980E+00  2.05685E+00 -1.85369E+00 -2.60051E+00
  -1.06256E+00 -1.66513E-01 -5.58215E+00  7.40696E+00  5.23097E+00  2.51548E+00  1.46837E+01  7.66490E+00  7.59278E+00  4.52628E+00
   2.10888E+00 -3.77016E-01  1.38231E+00 -7.12201E+00  5.44275E+00 -1.52185E+00  7.26225E+00 -3.04891E-01  7.89078E+00  9.37693E-01
   8.33783E+00  2.28747E+00  3.60040E+00  5.44282E+00  3.43285E+00  2.35081E+00  7.76696E+00  9.48752E+00  2.65519E+00  2.51020E+00
   3.66876E+00  3.69310E+00  4.22058E+00 -2.52143E+00  6.58467E+00  3.38935E+00  2.55390E+00  2.96418E+00  4.20209E+00  6.25674E+00
   6.22672E+00  6.82466E+00  5.19989E+00  5.89153E+00  1.54251E+01  1.26751E+01  1.68441E+01  1.67284E+01  2.28311E+01  3.80347E+01
   4.72385E+01  4.60572E+01  4.58985E+01  3.06202E+01  1.79549E+01  1.25249E+01  1.48422E+01  1.30618E+01  2.03989E+00  4.20685E+00
   1.08260E+01  1.16890E+01  3.66715E+00  1.23346E+01  5.69583E+00  4.59884E-01  1.82216E+00  3.64546E+00  7.50501E+00  3.07665E+00
   4.90856E+00  4.67262E+00  7.44205E+00  1.47382E+00  4.50195E+00  4.50723E-01 -4.86423E+00  3.11078E+00 -4.04417E+00  6.52972E+00
   3.27945E+00 -8.13067E-01  4.21297E+00  6.37759E+00  2.62701E+00  8.92661E+00  3.26095E+00  1.46264E-01  6.15150E+00  6.26915E+00
   4.78074E-01  7.60090E-01  3.28106E+00  9.43572E-01  1.14215E+01  8.47316E+00  5.08461E+00  7.31770E+00  5.61953E+00  8.65061E+00
   4.80039E+00  4.44416E+00  3.79799E+00  1.20992E+01  3.24452E+00  6.76217E+00  7.18037E+00  3.35944E+00  6.14640E+00 -1.96626E-01
   9.04026E+00  5.58189E+00  4.44080E+00 -5.36204E+00 -4.39059E+00  1.93929E+00  4.39555E+00 -8.22995E-01  8.75030E-01 -4.68076E+00
   7.64885E-01  2.15880E+00 -4.97581E+00  8.11343E+00  1.89544E+00  6.61083E+00  3.65569E+00  1.03938E+00  6.84653E+00  3.24784E+00
   8.20169E+00  1.00885E+00 -4.63713E-01  7.49952E+00  4.77666E+00  6.35505E-01  1.14957E+01  7.38637E+00  3.01096E+00  9.70122E+00
   8.33919E+00  2.40979E+00  1.12583E+01  3.86287E+00  5.03702E+00  7.52598E+00  1.05718E+01  6.68092E+00  6.91878E+00  8.36890E+00
   9.70248E+00  6.90181E+00  8.98453E+00  2.08489E+00  1.43626E+01  5.55361E+00  1.12139E+01  4.71531E+00  5.90275E+00  9.59171E+00
   1.03861E+01  8.39368E+00  1.33496E+01  4.30865E+00  4.35435E-01  9.30376E+00  9.75547E+00  4.05077E+00  5.32396E+00  6.87829E+00
   5.00523E+00  9.56786E+00 -4.30365E-01  4.05269E+00  2.60796E+00  3.37573E+00  5.85067E+00 -6.87588E-01  4.12075E+00  4.91785E+00
   4.47596E+00  3.09111E+00  1.23058E+00  1.47022E+01  3.72577E+00  3.80764E+00  4.09229E+00  6.05172E+00  9.41421E+00  5.76150E+00
   3.67186E+00  3.87235E+00  2.81597E+00  9.70776E-02 -2.18436E+00  4.34855E+00  7.95378E+00  3.04834E+00  7.54976E+00  8.47344E+00
   1.26913E+01  6.70453E+00  6.65326E+00  9.52883E+00  4.34896E+00  8.98900E+00  5.33791E+00 -1.04265E+00  1.62061E-01  1.12500E+00
   8.57913E+00  7.90992E-01  4.08760E-01  7.92308E+00  4.35149E+00  3.24937E+00  5.67157E+00  2.69928E-01 -4.41318E-01  5.41324E+00
  -2.03969E+00 -2.99433E+00  1.07401E+00  9.47467E+00  1.96630E+00  3.47727E+00  1.96563E-01 -1.01161E+00  2.88887E+00  6.14501E+00
  -6.71758E-01  4.87777E+00 -1.43517E+00  4.43586E+00  1.77075E+00  2.28295E+00  4.44917E+00  1.97380E+00  5.92259E+00  9.73466E-01
   3.70989E+00  2.80047E+00  4.98000E+00 -6.98524E-01  7.67200E+00  1.31280E+00  4.03205E+00  6.30690E+00  5.52450E+00  1.53789E+00
   3.73505E+00  3.76209E+00 -5.24649E+00  2.87306E-01  1.83992E+00  9.37134E+00  2.63832E+00  3.55625E+00  6.52702E+00  4.74163E+00
   2.88960E+00  2.05261E+00  9.80441E+00  7.33492E+00  7.20309E+00  5.60328E+00  6.81499E+00  6.99765E+00  2.76436E+00  1.14400E-01
   4.43704E+00  1.04286E+00  4.94702E+00  7.57012E+00  3.88960E-01 -1.35460E+00  7.34105E+00  4.82128E+00  1.83005E+00  6.38732E+00
   4.27506E+00  3.31810E-01  3.25926E+00  2.47271E+00  8.75427E+00 -1.74731E+00  6.14203E-01  7.47214E+00
 NY points of the fit to the data follow
  -1.41761E+01 -1.43208E+01 -1.44377E+01 -1.46452E+01 -1.48801E+01 -1.49074E+01 -1.50141E+01 -1.45686E+01 -1.28339E+01 -1.02871E+01
  -8.23376E+00 -7.68028E+00 -8.56255E+00 -9.94186E+00 -1.08523E+01 -1.16076E+01 -1.26052E+01 -1.30002E+01 -1.30778E+01 -1.30086E+01
  -1.28132E+01 -1.25264E+01 -1.22338E+01 -1.20244E+01 -1.19526E+01 -1.20084E+01 -1.22272E+01 -1.23835E+01 -1.21288E+01 -1.13127E+01
  -1.00904E+01 -8.87387E+00 -8.04804E+00 -7.84908E+00 -8.28795E+00 -9.25337E+00 -1.04596E+01 -1.14429E+01 -1.19857E+01 -1.20487E+01
  -1.18039E+01 -1.14865E+01 -1.11462E+01 -1.07725E+01 -1.02010E+01 -9.29959E+00 -8.26166E+00 -7.47807E+00 -7.33247E+00 -7.92080E+00
  -8.87995E+00 -9.71216E+00 -1.02417E+01 -1.05525E+01 -1.06706E+01 -1.05651E+01 -1.02717E+01 -9.85493E+00 -9.39278E+00 -8.92850E+00
  -8.58833E+00 -8.49076E+00 -8.63694E+00 -8.89524E+00 -9.09127E+00 -9.18130E+00 -9.15547E+00 -9.01536E+00 -8.85190E+00 -8.68744E+00
  -8.47859E+00 -8.20548E+00 -7.92297E+00 -7.62147E+00 -7.32147E+00 -7.17316E+00 -7.24773E+00 -7.55966E+00 -8.01947E+00 -8.36619E+00
  -8.43819E+00 -8.23426E+00 -7.82114E+00 -7.23762E+00 -6.52415E+00 -5.85969E+00 -5.55931E+00 -5.80214E+00 -6.44476E+00 -7.09167E+00
  -7.46285E+00 -7.61518E+00 -7.79084E+00 -7.93753E+00 -7.89949E+00 -7.72427E+00 -7.33971E+00 -6.43020E+00 -4.36910E+00 -1.19550E+00
   3.89226E+00  1.10491E+01  1.78576E+01  2.10663E+01  1.92841E+01  1.39731E+01  8.07595E+00  3.47058E+00 -1.12915E-01 -3.28109E+00
  -4.84521E+00 -5.34407E+00 -5.56739E+00 -5.67944E+00 -5.75411E+00 -5.78550E+00 -5.78990E+00 -5.77941E+00 -5.75996E+00 -5.71672E+00
  -5.61993E+00 -5.37928E+00 -4.57063E+00 -2.83303E+00 -8.57516E-02  4.30099E+00  9.66919E+00  1.37428E+01  1.45747E+01  1.21051E+01
   7.98438E+00  4.17271E+00  1.37797E+00 -1.05035E+00 -3.03550E+00 -3.88200E+00 -4.29201E+00 -4.47816E+00 -4.46627E+00 -4.31981E+00
  -4.11989E+00 -3.92459E+00 -3.79707E+00 -3.73419E+00 -3.70087E+00 -3.69741E+00 -3.72660E+00 -3.77480E+00 -3.82817E+00 -3.86347E+00
  -3.88858E+00 -3.90641E+00 -3.92435E+00 -3.92577E+00 -3.89537E+00 -3.83726E+00 -3.78493E+00 -3.78450E+00 -3.88687E+00 -4.13896E+00
  -4.44852E+00 -4.64262E+00 -4.57994E+00 -4.23450E+00 -3.81302E+00 -3.58472E+00 -3.63497E+00 -3.84830E+00 -4.09978E+00 -4.31213E+00
  -4.44956E+00 -4.58248E+00 -4.72269E+00 -4.86307E+00 -5.08347E+00 -5.29510E+00 -5.32878E+00 -5.12191E+00 -4.78947E+00 -4.56849E+00
  -4.56309E+00 -4.62203E+00 -4.54412E+00 -4.32694E+00 -4.14803E+00 -4.06385E+00 -3.94544E+00 -3.56048E+00 -2.88460E+00 -2.13233E+00
  -1.51680E+00 -1.19677E+00 -1.14904E+00 -1.25536E+00 -1.43411E+00 -1.62065E+00 -1.71900E+00 -1.73396E+00 -1.63105E+00 -1.30273E+00
  -7.35541E-01 -2.03852E-02  7.24045E-01  1.30505E+00  1.54601E+00  1.19646E+00  2.66250E-01 -1.07639E+00 -2.57028E+00 -3.73681E+00
  -4.18823E+00 -3.76156E+00 -2.59929E+00 -9.30966E-01  1.01170E+00  2.75519E+00  3.71647E+00  3.36099E+00  1.94099E+00  1.39885E-01
  -1.64809E+00 -3.15526E+00 -3.91765E+00 -3.46247E+00 -1.95419E+00 -1.24900E-01  1.42026E+00  2.44339E+00  3.03105E+00  3.21427E+00
   2.98700E+00  2.59186E+00  2.37517E+00  2.34857E+00  2.44315E+00  2.67042E+00  3.06695E+00  3.58965E+00  4.01333E+00  4.17992E+00
   4.03423E+00  3.66516E+00  3.29481E+00  3.11661E+00  3.26710E+00  3.68156E+00  4.16056E+00  4.54748E+00  4.84735E+00  5.13721E+00
   5.42002E+00  5.92400E+00  6.74861E+00  7.95392E+00  9.52866E+00  1.18289E+01  1.53995E+01  2.01479E+01  2.76893E+01  3.76397E+01
   4.57134E+01  4.73205E+01  4.16355E+01  3.20346E+01  2.28196E+01  1.59619E+01  1.04307E+01  5.90690E+00  4.10249E+00  3.47511E+00
   3.10630E+00  2.89863E+00  2.84187E+00  2.85733E+00  2.89993E+00  2.91027E+00  2.85470E+00  2.74744E+00  2.62220E+00  2.48994E+00
   2.36441E+00  2.27579E+00  2.23576E+00  2.23459E+00  2.25417E+00  2.28243E+00  2.31665E+00  2.35981E+00  2.40717E+00  2.46502E+00
   2.54270E+00  2.64212E+00  2.75588E+00  2.87857E+00  3.00481E+00  3.13282E+00  3.26110E+00  3.38828E+00  3.51192E+00  3.63402E+00
   3.75394E+00  3.86794E+00  3.97021E+00  4.05593E+00  4.12172E+00  4.16647E+00  4.18809E+00  4.18841E+00  4.16933E+00  4.13294E+00
   4.08144E+00  4.01833E+00  3.94643E+00  3.86960E+00  3.79091E+00  3.71390E+00  3.64119E+00  3.57584E+00  3.51983E+00  3.47538E+00
   3.44347E+00  3.42533E+00  3.42144E+00  3.43150E+00  3.45469E+00  3.48970E+00  3.53157E+00  3.57717E+00  3.62726E+00  3.68661E+00
   3.75976E+00  3.84837E+00  3.95047E+00  4.06728E+00  4.20042E+00  4.34575E+00  4.49622E+00  4.64959E+00  4.80708E+00  4.97314E+00
   5.15078E+00  5.34169E+00  5.54990E+00  5.77290E+00  6.00470E+00  6.23774E+00  6.44348E+00  6.59697E+00  6.70209E+00  6.78922E+00
   6.89524E+00  7.03073E+00  7.18801E+00  7.36687E+00  7.56657E+00  7.75053E+00  7.86809E+00  7.90534E+00  7.87543E+00  7.80302E+00
   7.69952E+00  7.56122E+00  7.40183E+00  7.23165E+00  7.04828E+00  6.85344E+00  6.64994E+00  6.44173E+00  6.23235E+00  6.02571E+00
   5.82485E+00  5.63292E+00  5.45218E+00  5.28510E+00  5.13320E+00  4.99817E+00  4.88072E+00  4.78179E+00  4.70164E+00  4.64091E+00
   4.59961E+00  4.57809E+00  4.57603E+00  4.59362E+00  4.63049E+00  4.68677E+00  4.76188E+00  4.85552E+00  4.96662E+00  5.09434E+00
   5.23704E+00  5.39316E+00  5.56012E+00  5.73529E+00  5.91501E+00  6.09577E+00  6.27320E+00  6.44316E+00  6.60081E+00  6.74179E+00
   6.86154E+00  6.95647E+00  7.02315E+00  7.05937E+00  7.06329E+00  7.03456E+00  6.97341E+00  6.88165E+00  6.76150E+00  6.61644E+00
   6.45003E+00  6.26681E+00  6.07110E+00  5.86778E+00  5.66105E+00  5.45521E+00  5.25359E+00  5.05953E+00  4.87530E+00  4.70307E+00
   4.54389E+00  4.39867E+00  4.26738E+00  4.15014E+00  4.04627E+00  3.95531E+00  3.87611E+00  3.80786E+00  3.74928E+00  3.69959E+00
   3.65762E+00  3.62267E+00  3.59360E+00  3.56982E+00  3.55040E+00  3.53502E+00  3.52294E+00  3.51390E+00  3.50724E+00  3.50282E+00
   3.50014E+00  3.49925E+00  3.49971E+00  3.50154E+00  3.50431E+00  3.50811E+00  3.51265E+00  3.51809E+00  3.52413E+00  3.53085E+00
   3.53795E+00  3.54562E+00  3.55364E+00  3.56220E+00  3.57102E+00  3.58025E+00  3.58962E+00  3.59937E+00  3.60928E+00  3.61957E+00
   3.62994E+00  3.64057E+00  3.65124E+00  3.66220E+00  3.67325E+00  3.68457E+00  3.69588E+00  3.70738E+00  3.71888E+00  3.73062E+00
   3.74240E+00  3.75437E+00  3.76630E+00  3.77838E+00  3.79046E+00  3.80276E+00  3.81506E+00  3.82752E+00  3.83990E+00  3.85245E+00
   3.86498E+00  3.87772E+00  3.89043E+00  3.90328E+00  3.91606E+00  3.92902E+00  3.94198E+00  3.95514E+00  3.96826E+00  3.98152E+00
   3.99475E+00  4.00817E+00  4.02163E+00  4.03530E+00  4.04895E+00  4.06278E+00  4.07663E+00  4.09075E+00
 NY background values follow
    -1.484E+01   -1.477E+01   -1.470E+01   -1.463E+01   -1.456E+01   -1.448E+01   -1.441E+01   -1.434E+01   -1.427E+01   -1.420E+01
    -1.412E+01   -1.405E+01   -1.398E+01   -1.391E+01   -1.384E+01   -1.376E+01   -1.369E+01   -1.362E+01   -1.355E+01   -1.348E+01
    -1.340E+01   -1.333E+01   -1.326E+01   -1.319E+01   -1.312E+01   -1.304E+01   -1.297E+01   -1.290E+01   -1.283E+01   -1.276E+01
    -1.268E+01   -1.261E+01   -1.254E+01   -1.247E+01   -1.240E+01   -1.233E+01   -1.225E+01   -1.218E+01   -1.211E+01   -1.204E+01
    -1.197E+01   -1.190E+01   -1.182E+01   -1.175E+01   -1.168E+01   -1.161E+01   -1.154E+01   -1.147E+01   -1.140E+01   -1.133E+01
    -1.125E+01   -1.118E+01   -1.111E+01   -1.104E+01   -1.097E+01   -1.090E+01   -1.083E+01   -1.076E+01   -1.069E+01   -1.062E+01
    -1.055E+01   -1.048E+01   -1.041E+01   -1.034E+01   -1.027E+01   -1.020E+01   -1.013E+01   -1.006E+01   -9.988E+00   -9.919E+00
    -9.849E+00   -9.780E+00   -9.711E+00   -9.642E+00   -9.573E+00   -9.504E+00   -9.435E+00   -9.367E+00   -9.298E+00   -9.230E+00
    -9.162E+00   -9.094E+00   -9.026E+00   -8.958E+00   -8.890E+00   -8.823E+00   -8.755E+00   -8.688E+00   -8.621E+00   -8.554E+00
    -8.487E+00   -8.420E+00   -8.353E+00   -8.287E+00   -8.221E+00   -8.155E+00   -8.089E+00   -8.023E+00   -7.957E+00   -7.892E+00
    -7.826E+00   -7.761E+00   -7.696E+00   -7.631E+00   -7.566E+00   -7.502E+00   -7.437E+00   -7.373E+00   -7.309E+00   -7.245E+00
    -7.181E+00   -7.118E+00   -7.054E+00   -6.991E+00   -6.928E+00   -6.865E+00   -6.802E+00   -6.740E+00   -6.677E+00   -6.615E+00
    -6.553E+00   -6.491E+00   -6.430E+00   -6.368E+00   -6.307E+00   -6.245E+00   -6.184E+00   -6.124E+00   -6.063E+00   -6.002E+00
    -5.942E+00   -5.882E+00   -5.822E+00   -5.762E+00   -5.703E+00   -5.643E+00   -5.584E+00   -5.525E+00   -5.466E+00   -5.408E+00
    -5.349E+00   -5.291E+00   -5.233E+00   -5.175E+00   -5.118E+00   -5.060E+00   -5.003E+00   -4.946E+00   -4.889E+00   -4.832E+00
    -4.775E+00   -4.719E+00   -4.663E+00   -4.607E+00   -4.551E+00   -4.495E+00   -4.440E+00   -4.385E+00   -4.330E+00   -4.275E+00
    -4.220E+00   -4.166E+00   -4.112E+00   -4.057E+00   -4.004E+00   -3.950E+00   -3.896E+00   -3.843E+00   -3.790E+00   -3.737E+00
    -3.684E+00   -3.632E+00   -3.579E+00   -3.527E+00   -3.475E+00   -3.423E+00   -3.372E+00   -3.320E+00   -3.269E+00   -3.218E+00
    -3.167E+00   -3.117E+00   -3.066E+00   -3.016E+00   -2.966E+00   -2.916E+00   -2.867E+00   -2.817E+00   -2.768E+00   -2.719E+00
    -2.670E+00   -2.621E+00   -2.573E+00   -2.525E+00   -2.477E+00   -2.429E+00   -2.381E+00   -2.334E+00   -2.287E+00   -2.240E+00
    -2.193E+00   -2.147E+00   -2.100E+00   -2.054E+00   -2.008E+00   -1.963E+00   -1.917E+00   -1.872E+00   -1.827E+00   -1.782E+00
    -1.738E+00   -1.694E+00   -1.650E+00   -1.606E+00   -1.562E+00   -1.519E+00   -1.476E+00   -1.433E+00   -1.390E+00   -1.348E+00
    -1.306E+00   -1.264E+00   -1.222E+00   -1.180E+00   -1.139E+00   -1.098E+00   -1.058E+00   -1.017E+00   -9.768E-01   -9.368E-01
    -8.971E-01   -8.576E-01   -8.183E-01   -7.793E-01   -7.406E-01   -7.020E-01   -6.638E-01   -6.257E-01   -5.879E-01   -5.504E-01
    -5.131E-01   -4.760E-01   -4.392E-01   -4.026E-01   -3.662E-01   -3.301E-01   -2.942E-01   -2.586E-01   -2.232E-01   -1.880E-01
    -1.531E-01   -1.184E-01   -8.391E-02   -4.968E-02   -1.569E-02    1.807E-02    5.160E-02    8.490E-02    1.180E-01    1.508E-01
     1.834E-01    2.158E-01    2.479E-01    2.798E-01    3.115E-01    3.429E-01    3.742E-01    4.052E-01    4.359E-01    4.665E-01
     4.968E-01    5.269E-01    5.568E-01    5.864E-01    6.158E-01    6.450E-01    6.740E-01    7.028E-01    7.313E-01    7.597E-01
     7.878E-01    8.157E-01    8.434E-01    8.709E-01    8.982E-01    9.253E-01    9.521E-01    9.788E-01    1.005E+00    1.032E+00
     1.058E+00    1.084E+00    1.109E+00    1.135E+00    1.160E+00    1.185E+00    1.210E+00    1.235E+00    1.259E+00    1.284E+00
     1.308E+00    1.332E+00    1.356E+00    1.380E+00    1.403E+00    1.426E+00    1.449E+00    1.472E+00    1.495E+00    1.518E+00
     1.540E+00    1.563E+00    1.585E+00    1.607E+00    1.629E+00    1.650E+00    1.672E+00    1.693E+00    1.714E+00    1.736E+00
     1.756E+00    1.777E+00    1.798E+00    1.818E+00    1.839E+00    1.859E+00    1.879E+00    1.899E+00    1.919E+00    1.938E+00
     1.958E+00    1.977E+00    1.996E+00    2.015E+00    2.034E+00    2.053E+00    2.072E+00    2.090E+00    2.109E+00    2.127E+00
     2.146E+00    2.164E+00    2.182E+00    2.199E+00    2.217E+00    2.235E+00    2.252E+00    2.270E+00    2.287E+00    2.304E+00
     2.321E+00    2.338E+00    2.355E+00    2.372E+00    2.389E+00    2.405E+00    2.422E+00    2.438E+00    2.455E+00    2.471E+00
     2.487E+00    2.503E+00    2.519E+00    2.535E+00    2.550E+00    2.566E+00    2.582E+00    2.597E+00    2.613E+00    2.628E+00
     2.643E+00    2.659E+00    2.674E+00    2.689E+00    2.704E+00    2.719E+00    2.733E+00    2.748E+00    2.763E+00    2.778E+00
     2.792E+00    2.807E+00    2.821E+00    2.836E+00    2.850E+00    2.864E+00    2.878E+00    2.893E+00    2.907E+00    2.921E+00
     2.935E+00    2.949E+00    2.963E+00    2.977E+00    2.990E+00    3.004E+00    3.018E+00    3.032E+00    3.045E+00    3.059E+00
     3.073E+00    3.086E+00    3.100E+00    3.113E+00    3.127E+00    3.140E+00    3.154E+00    3.167E+00    3.180E+00    3.194E+00
     3.207E+00    3.220E+00    3.234E+00    3.247E+00    3.260E+00    3.273E+00    3.287E+00    3.300E+00    3.313E+00    3.326E+00
     3.339E+00    3.352E+00    3.365E+00    3.379E+00    3.392E+00    3.405E+00    3.418E+00    3.431E+00    3.444E+00    3.457E+00
     3.470E+00    3.482E+00    3.495E+00    3.508E+00    3.521E+00    3.534E+00    3.547E+00    3.560E+00    3.573E+00    3.586E+00
     3.598E+00    3.611E+00    3.624E+00    3.637E+00    3.650E+00    3.663E+00    3.675E+00    3.688E+00    3.701E+00    3.714E+00
     3.727E+00    3.739E+00    3.752E+00    3.765E+00    3.778E+00    3.790E+00    3.803E+00    3.816E+00    3.829E+00    3.841E+00
     3.854E+00    3.867E+00    3.880E+00    3.892E+00    3.905E+00    3.918E+00    3.930E+00    3.943E+00    3.956E+00    3.969E+00
     3.981E+00    3.994E+00    4.007E+00    4.019E+00    4.032E+00    4.045E+00    4.057E+00    4.070E+00    4.083E+00    4.095E+00
     4.108E+00    4.120E+00    4.133E+00    4.146E+00    4.158E+00    4.171E+00    4.184E+00    4.196E+00    4.209E+00    4.221E+00
     4.234E+00    4.246E+00    4.259E+00    4.271E+00    4.284E+00    4.297E+00    4.309E+00    4.322E+00
 Ala      Conc. = 2.05E+00
