 LCModel (Version 6.3-1L) Copyright: S.W. Provencher.          Ref.: Magn. Reson. Med. 30:672-679 (1993).                
 Slice#1 Row#14 Col#10  PD_24_press_1_raw_act
 36 lines in following concentration table = NCONC+1
    Conc.  %SD /Cr+PCr  Metabolite                                         
   54.366  51%   1.291 Ala                                                 
    7.970  80%   0.189 Asp                                                 
   42.126  32%   1.000 Cr                                                  
    0.000 999%   0.000 PCr                                                 
    4.644  82%   0.110 GABA                                                
    4.633  82%   0.110 Glc                                                 
  123.730  44%   2.937 Gln                                                 
   29.603 194%   0.703 Glu                                                 
    0.000 999%   0.000 GPC                                                 
   17.666  30%   0.419 PCh                                                 
   58.075  34%   1.379 GSH                                                 
  131.360  45%   3.118 Ins                                                 
   11.857 244%   0.281 Lac                                                 
   63.364  26%   1.504 NAA                                                 
    0.000 999%   0.000 NAAG                                                
    1.574  80% 3.7E-02 Scyllo                                              
    7.247  87%   0.172 Tau                                                 
    1.483 590% 3.5E-02 -CrCH2                                              
   17.666  30%   0.419 GPC+PCh                                             
   63.364  26%   1.504 NAA+NAAG                                            
   42.126  32%   1.000 Cr+PCr                                              
  153.333  50%   3.640 Glu+Gln                                             
    0.000 999%   0.000 Lip13a                                              
    0.000 999%   0.000 Lip13b                                              
    0.000 999%   0.000 Lip09                                               
  145.372  28%   3.451 MM09                                                
    0.000 999%   0.000 Lip20                                               
  202.260  36%   4.801 MM20                                                
   24.503  93%   0.582 MM12                                                
  323.595  18%   7.682 MM14                                                
  164.917  29%   3.915 MM17                                                
    0.000 999%   0.000 Lip13a+Lip13b                                       
  348.098  18%   8.263 MM14+Lip13a+Lip13b+MM12                             
  145.372  28%   3.451 MM09+Lip09                                          
  202.260  36%   4.801 MM20+Lip20                                          
   6 lines in following misc. output table
  FWHM = 0.038 ppm    S/N =   1                                            
  Data shift =-0.008 ppm                                                   
  Ph: 143 deg      -5.4 deg/ppm                                            
  alphaB,S = 8.5E+01,   2.6E+01                                            
   14 spline knots.   Ns = 5(1)                                            
   2 inflections.     1 extrema                                            
  498 points on ppm-axis = NY
      4.000000     3.992357     3.984714     3.977070     3.969427     3.961784     3.954141     3.946497     3.938854     3.931211
      3.923568     3.915925     3.908281     3.900638     3.892995     3.885352     3.877708     3.870065     3.862422     3.854779
      3.847136     3.839492     3.831849     3.824206     3.816563     3.808919     3.801276     3.793633     3.785990     3.778347
      3.770703     3.763060     3.755417     3.747774     3.740130     3.732487     3.724844     3.717201     3.709558     3.701914
      3.694271     3.686628     3.678985     3.671341     3.663698     3.656055     3.648412     3.640769     3.633125     3.625482
      3.617839     3.610196     3.602552     3.594909     3.587266     3.579623     3.571980     3.564336     3.556693     3.549050
      3.541407     3.533763     3.526120     3.518477     3.510834     3.503191     3.495547     3.487904     3.480261     3.472618
      3.464974     3.457331     3.449688     3.442045     3.434402     3.426758     3.419115     3.411472     3.403829     3.396185
      3.388542     3.380899     3.373256     3.365613     3.357969     3.350326     3.342683     3.335040     3.327396     3.319753
      3.312110     3.304467     3.296824     3.289180     3.281537     3.273894     3.266251     3.258607     3.250964     3.243321
      3.235678     3.228034     3.220391     3.212748     3.205105     3.197462     3.189818     3.182175     3.174532     3.166889
      3.159245     3.151602     3.143959     3.136316     3.128673     3.121029     3.113386     3.105743     3.098100     3.090456
      3.082813     3.075170     3.067527     3.059884     3.052240     3.044597     3.036954     3.029311     3.021667     3.014024
      3.006381     2.998738     2.991095     2.983451     2.975808     2.968165     2.960522     2.952878     2.945235     2.937592
      2.929949     2.922306     2.914662     2.907019     2.899376     2.891733     2.884089     2.876446     2.868803     2.861160
      2.853517     2.845873     2.838230     2.830587     2.822944     2.815300     2.807657     2.800014     2.792371     2.784728
      2.777084     2.769441     2.761798     2.754155     2.746511     2.738868     2.731225     2.723582     2.715939     2.708295
      2.700652     2.693009     2.685366     2.677722     2.670079     2.662436     2.654793     2.647150     2.639506     2.631863
      2.624220     2.616577     2.608933     2.601290     2.593647     2.586004     2.578361     2.570717     2.563074     2.555431
      2.547788     2.540144     2.532501     2.524858     2.517215     2.509572     2.501928     2.494285     2.486642     2.478999
      2.471355     2.463712     2.456069     2.448426     2.440783     2.433139     2.425496     2.417853     2.410210     2.402566
      2.394923     2.387280     2.379637     2.371994     2.364350     2.356707     2.349064     2.341421     2.333777     2.326134
      2.318491     2.310848     2.303205     2.295561     2.287918     2.280275     2.272632     2.264988     2.257345     2.249702
      2.242059     2.234416     2.226772     2.219129     2.211486     2.203843     2.196199     2.188556     2.180913     2.173270
      2.165627     2.157983     2.150340     2.142697     2.135054     2.127410     2.119767     2.112124     2.104481     2.096838
      2.089194     2.081551     2.073908     2.066265     2.058621     2.050978     2.043335     2.035692     2.028049     2.020405
      2.012762     2.005119     1.997476     1.989833     1.982190     1.974546     1.966903     1.959260     1.951617     1.943974
      1.936331     1.928688     1.921045     1.913402     1.905759     1.898115     1.890472     1.882829     1.875186     1.867543
      1.859900     1.852257     1.844614     1.836971     1.829327     1.821684     1.814041     1.806398     1.798755     1.791112
      1.783469     1.775826     1.768183     1.760540     1.752896     1.745253     1.737610     1.729967     1.722324     1.714681
      1.707038     1.699395     1.691752     1.684108     1.676465     1.668822     1.661179     1.653536     1.645893     1.638250
      1.630607     1.622964     1.615321     1.607677     1.600034     1.592391     1.584748     1.577105     1.569462     1.561819
      1.554176     1.546533     1.538890     1.531246     1.523603     1.515960     1.508317     1.500674     1.493031     1.485388
      1.477745     1.470102     1.462458     1.454815     1.447172     1.439529     1.431886     1.424243     1.416600     1.408957
      1.401314     1.393671     1.386027     1.378384     1.370741     1.363098     1.355455     1.347812     1.340169     1.332526
      1.324883     1.317240     1.309596     1.301953     1.294310     1.286667     1.279024     1.271381     1.263738     1.256095
      1.248452     1.240808     1.233165     1.225522     1.217879     1.210236     1.202593     1.194950     1.187307     1.179664
      1.172021     1.164377     1.156734     1.149091     1.141448     1.133805     1.126162     1.118519     1.110876     1.103233
      1.095590     1.087946     1.080303     1.072660     1.065017     1.057374     1.049731     1.042088     1.034445     1.026802
      1.019158     1.011515     1.003872     0.996229     0.988586     0.980943     0.973300     0.965657     0.958014     0.950371
      0.942727     0.935084     0.927441     0.919798     0.912155     0.904512     0.896869     0.889226     0.881583     0.873940
      0.866296     0.858653     0.851010     0.843367     0.835724     0.828081     0.820438     0.812795     0.805152     0.797508
      0.789865     0.782222     0.774579     0.766936     0.759293     0.751650     0.744007     0.736364     0.728721     0.721077
      0.713434     0.705791     0.698148     0.690505     0.682862     0.675219     0.667576     0.659933     0.652290     0.644646
      0.637003     0.629360     0.621717     0.614074     0.606431     0.598788     0.591145     0.583502     0.575858     0.568215
      0.560572     0.552929     0.545286     0.537643     0.530000     0.522357     0.514714     0.507071     0.499427     0.491784
      0.484141     0.476498     0.468855     0.461212     0.453569     0.445925     0.438282     0.430639     0.422996     0.415353
      0.407710     0.400067     0.392424     0.384780     0.377137     0.369494     0.361851     0.354208     0.346565     0.338922
      0.331278     0.323635     0.315992     0.308349     0.300706     0.293063     0.285420     0.277777     0.270133     0.262490
      0.254847     0.247204     0.239561     0.231918     0.224275     0.216631     0.208988     0.201345
 NY phased data points follow
   3.10583E+00  3.30936E+00  4.55938E+00  2.44551E+00  3.13143E+00  4.28902E-01 -2.89765E-01  2.61151E+00  2.56108E+00  3.44260E+00
   3.04333E+00  2.74414E+00  2.42929E+00  4.19739E+00  2.91922E+00  3.10593E+00  7.12655E-01  2.20094E+00  3.41321E+00  1.04895E+00
   2.80728E+00  3.10078E+00  2.41369E+00  3.07753E+00  3.88498E+00  8.37115E-01  3.65573E+00  3.00295E+00  1.27399E+00  3.55289E+00
   4.40018E+00  4.66547E+00  4.85561E-01  3.70658E+00  3.01137E+00  2.80095E+00  1.90615E+00  1.10375E+00  4.15995E+00  4.39616E+00
   2.42021E+00  3.47924E+00  1.38064E+00  2.08406E+00  1.02070E+00  2.89808E+00  6.92223E-01  2.43757E+00  2.67782E+00  2.00899E+00
   2.59160E+00  2.01117E+00  1.30126E+00 -3.20544E-01  1.33965E+00  8.39983E-01  4.24087E+00  3.54100E+00  3.43666E+00  3.86999E+00
   6.53998E-01  3.42629E+00  3.20373E+00  2.89846E+00  1.37588E+00  3.69697E+00  2.39293E+00  2.30224E+00  3.79570E+00  1.24065E-01
   2.23843E+00  2.52090E+00  8.57240E-01  7.07467E-01 -1.50491E+00  1.87747E+00  9.63841E-01  3.26385E-01  4.16045E-01  9.70450E-01
   1.88429E+00  6.51194E-01  1.34050E+00  7.94723E-01  2.70512E+00  9.58985E-01  8.97465E-01  9.19480E-01  2.42080E-01  1.94614E+00
   2.95841E+00  3.07648E+00  1.60873E+00  2.20719E+00  2.34126E+00  5.25787E-01  1.42653E+00  1.24431E+00 -2.15793E-01  1.06005E-01
  -1.34031E-01  1.97005E+00  2.00526E+00  3.48737E+00  2.80195E+00  4.65556E+00  3.49512E+00  1.94149E+00  1.13019E+00  5.84223E-01
   3.04198E+00  2.37011E-02  2.78816E+00  3.22319E+00  2.71555E+00  3.15445E+00 -7.87767E-01  3.29933E+00  1.40602E+00  2.20496E+00
  -4.08510E-01 -1.81619E-01  2.14063E-01  6.10522E-01 -3.91400E-01 -1.65761E-01  2.44512E+00  2.28859E+00  5.35462E+00  3.28635E+00
   2.63856E+00  1.78825E+00  1.30594E+00  1.92341E+00  1.77053E+00  3.05263E-01  1.12179E+00  4.92991E-01  1.77923E+00  2.59962E+00
   1.37553E+00  7.80116E-01  3.68279E+00  2.99741E+00 -3.92169E-01  1.61844E+00  2.84237E+00  1.17603E+00  4.42914E-01  2.83525E+00
   1.07291E+00  2.96686E-01  1.95170E+00 -1.56116E-01  5.01875E-01  6.04756E-01  1.37768E+00  1.17334E+00  1.08705E+00  1.70223E+00
   1.26128E-01  1.05686E-01  7.19588E-01  2.25657E+00  4.54282E-01  8.96574E-01 -1.19904E+00  1.00460E+00 -4.14408E-01  1.26820E+00
   1.76150E+00  6.08459E-01  1.38388E+00  2.11508E+00  1.53541E+00  8.42317E-01 -1.49495E+00  9.52077E-01  8.77677E-01  7.25956E-01
   1.84228E+00  2.04714E-01  2.07251E+00  8.33754E-01  5.69530E-01  5.34731E-01 -4.26112E-01  1.14903E+00 -5.39588E-01  5.45542E-01
   1.29961E+00  2.17453E+00  2.03684E+00  1.15794E+00 -3.43415E-01  1.83911E+00  6.64586E-01  2.69482E-02  2.55311E+00  1.32989E+00
   4.17713E-02  1.45260E+00  1.05318E+00  3.04801E+00  1.34730E+00  1.58903E+00 -6.48996E-01  2.11864E+00  1.56495E+00  2.49721E+00
  -1.05532E+00 -9.20938E-01  7.79649E-01 -3.41103E-01  2.15469E+00  1.20890E+00  1.39907E+00  2.63230E+00  2.22275E+00  9.10735E-01
   2.47752E+00  3.04333E+00 -2.60964E-01  1.73432E-02  7.93993E-01  1.39199E+00  1.19330E+00  2.53183E+00  1.40595E+00 -1.12750E+00
  -3.69120E-01  3.50230E+00  1.89692E+00  1.63417E+00  1.65475E+00 -1.07378E-01  5.46513E-01  1.29006E+00  2.28603E+00  9.27763E-01
   1.17749E+00  1.73217E+00  2.88959E+00  1.54171E+00 -4.30180E-01  1.19493E+00 -1.72775E+00  6.30767E-02  2.25420E+00  1.76476E+00
   1.19436E+00  3.21445E+00  4.27563E-01  9.34206E-01  1.99636E+00  1.28087E+00  2.91695E+00  1.78970E+00  1.54523E+00  2.62676E+00
   3.33372E+00  7.43367E+00  2.70289E+00  1.27334E+00  1.28472E+00  3.14659E+00  4.40073E-02  1.29697E+00  1.66138E+00  3.03285E+00
   1.67285E+00  6.03300E-01  1.54701E+00  6.40848E-01 -2.36132E-01  3.05418E+00 -3.82647E-02  5.07662E-01  2.43752E+00  1.33636E+00
   7.70879E-01  3.94169E-01  1.52546E+00  1.37492E-01  1.94558E+00  2.04295E+00 -1.13637E+00  2.18457E+00  2.65301E-01 -3.86762E-01
   1.09306E-01  2.61052E+00  1.24765E+00 -9.50502E-02  8.23001E-01  4.22510E+00  2.70237E+00  3.29626E+00  1.52092E+00 -1.39968E-01
   7.24396E-01  1.57275E+00  2.17052E+00  1.66035E+00  1.88704E+00 -3.75490E-01  2.87308E+00  1.71596E+00  3.73162E+00  3.84958E-01
   2.53261E+00  1.53808E+00  2.45384E+00  1.98257E+00  2.15927E+00  2.88335E+00  3.27420E+00  2.41448E+00  2.89959E+00  2.09934E+00
   1.71960E+00  9.05147E-01  2.23660E+00  2.45913E+00  1.46265E+00  2.52755E+00  2.86142E+00  2.28806E+00  1.72213E+00  3.12578E+00
   5.23698E-01  7.70156E-01  3.16220E+00  1.25806E+00  3.27336E+00  2.98159E+00  2.58529E+00  4.16456E+00  2.14800E+00  3.44895E+00
   2.35633E+00  1.65401E+00  4.02757E+00  1.36364E+00  4.11863E+00  4.60832E+00  2.21251E+00  2.87315E+00  1.23556E+00  8.39591E-01
   1.31597E+00  1.14454E+00  1.17497E+00  3.26777E-01 -3.26447E-01 -3.03226E-01  1.31571E+00 -1.29985E+00 -2.63306E-01 -1.13465E+00
  -1.16051E+00  1.22563E+00  7.02483E-01 -2.02404E+00  1.12605E+00  6.04958E-02 -8.08156E-01  9.29506E-02 -1.42535E+00 -1.94478E+00
  -1.36349E+00 -6.29966E-01  1.15061E+00 -6.27918E-01  2.10087E+00 -2.71727E-01 -1.80097E+00  4.58341E-01 -2.40544E+00  1.55151E+00
  -1.29865E+00 -9.76970E-01 -1.23724E+00  1.61159E+00  2.82529E-01 -1.19092E+00 -9.62085E-01  2.11625E+00  2.13291E+00  1.62259E+00
   1.64169E+00  6.80077E-01 -1.45258E-01  2.07429E+00  9.59050E-01  3.34086E-01 -8.49024E-01  2.56566E+00 -1.90880E-01 -7.18353E-01
   5.12525E-01  5.76624E-01  1.55466E+00 -1.15221E-01 -1.12324E+00  8.02776E-01  1.46478E+00  8.95152E-01  1.12191E+00  1.93587E+00
   1.36407E+00  2.29215E+00  5.08738E-02  7.31172E-01  1.15371E+00  1.58852E+00  1.67105E+00  1.98514E-01  2.02114E+00  3.88907E-01
   2.47679E+00  1.97482E-01 -8.89376E-01  2.92561E+00 -1.45226E+00  1.11339E+00  1.08518E+00  1.37397E+00  1.82092E+00  1.07138E+00
  -2.64456E+00 -1.79070E+00 -1.50951E+00  5.30107E-01 -7.01409E-02  1.21671E+00  1.08814E+00  3.90970E-02 -1.19775E+00 -5.31724E-01
  -4.67668E-01  5.91392E-01 -3.57290E-01  1.67958E+00 -1.51652E-01  3.86112E-01 -2.19382E+00  2.61749E-01  1.22072E+00  8.18391E-02
  -7.05918E-01  2.34763E-01  1.16814E+00 -4.90462E-01  1.18343E+00  3.81294E-01  3.65650E-01 -1.55498E+00  1.28409E+00  4.06368E-01
  -8.45085E-01 -7.67415E-01  5.13373E-01  6.68901E-01  1.11093E+00  2.26966E+00  6.12030E-01  7.74957E-01 -1.17942E+00 -8.89222E-01
  -3.15059E-01  1.31692E+00 -1.60565E+00 -3.11517E-01  8.82314E-01 -9.44929E-01  8.15068E-01  8.06058E-01 -1.11140E+00  4.25258E-01
  -2.04863E+00  5.83167E-01  2.10087E-01 -3.28134E-01 -1.12916E-02  1.08594E+00  3.03953E-01  5.35572E-01 -1.27963E+00  1.22116E+00
  -9.52833E-01  8.15066E-01  4.82756E-01 -1.96320E+00  1.26023E+00  9.36087E-01  9.78552E-01  6.76170E-01
 NY points of the fit to the data follow
   1.96405E+00  1.89330E+00  1.84951E+00  1.82741E+00  1.81610E+00  1.81092E+00  1.82299E+00  1.88283E+00  2.01628E+00  2.23053E+00
   2.51848E+00  2.81102E+00  2.96871E+00  2.88651E+00  2.61056E+00  2.29099E+00  2.03482E+00  1.87150E+00  1.80320E+00  1.82101E+00
   1.88719E+00  1.97052E+00  2.03074E+00  2.03679E+00  1.99020E+00  1.93319E+00  1.92894E+00  2.05372E+00  2.40315E+00  2.94824E+00
   3.46304E+00  3.69435E+00  3.58514E+00  3.24795E+00  2.80221E+00  2.34778E+00  1.98292E+00  1.77035E+00  1.66843E+00  1.63140E+00
   1.62868E+00  1.64085E+00  1.67907E+00  1.77503E+00  1.95455E+00  2.21665E+00  2.52905E+00  2.79862E+00  2.88254E+00  2.69547E+00
   2.30651E+00  1.89311E+00  1.59511E+00  1.44717E+00  1.42503E+00  1.48822E+00  1.59415E+00  1.71804E+00  1.85258E+00  1.98290E+00
   2.07197E+00  2.07627E+00  1.98614E+00  1.83733E+00  1.68629E+00  1.58234E+00  1.55023E+00  1.58460E+00  1.65893E+00  1.74222E+00
   1.81433E+00  1.87013E+00  1.90340E+00  1.90256E+00  1.86905E+00  1.81943E+00  1.76872E+00  1.71948E+00  1.67366E+00  1.63798E+00
   1.61376E+00  1.60034E+00  1.59272E+00  1.57815E+00  1.54235E+00  1.47567E+00  1.37485E+00  1.25191E+00  1.14394E+00  1.09623E+00
   1.12601E+00  1.21289E+00  1.32058E+00  1.41719E+00  1.48107E+00  1.50487E+00  1.49016E+00  1.44760E+00  1.41245E+00  1.46311E+00
   1.66854E+00  2.03993E+00  2.55638E+00  3.10806E+00  3.45671E+00  3.38959E+00  2.94605E+00  2.38337E+00  1.91471E+00  1.60293E+00
   1.43343E+00  1.37828E+00  1.36609E+00  1.36435E+00  1.36484E+00  1.36440E+00  1.36099E+00  1.35421E+00  1.34377E+00  1.33174E+00
   1.32616E+00  1.34065E+00  1.40294E+00  1.55903E+00  1.83353E+00  2.21782E+00  2.68055E+00  3.10842E+00  3.31315E+00  3.18341E+00
   2.81729E+00  2.42107E+00  2.10817E+00  1.85770E+00  1.61637E+00  1.36781E+00  1.14112E+00  1.01554E+00  1.02942E+00  1.16060E+00
   1.34937E+00  1.51828E+00  1.60600E+00  1.60133E+00  1.53518E+00  1.44951E+00  1.37374E+00  1.31495E+00  1.27123E+00  1.23587E+00
   1.19996E+00  1.16276E+00  1.12883E+00  1.10227E+00  1.08532E+00  1.07912E+00  1.08042E+00  1.07935E+00  1.06735E+00  1.04265E+00
   1.01148E+00  9.85822E-01  9.76735E-01  9.87329E-01  1.00668E+00  1.01835E+00  1.01324E+00  9.94890E-01  9.73535E-01  9.56761E-01
   9.45086E-01  9.34791E-01  9.21777E-01  9.01675E-01  8.73957E-01  8.42797E-01  8.17872E-01  8.08300E-01  8.12681E-01  8.17217E-01
   8.08873E-01  7.88627E-01  7.67010E-01  7.48601E-01  7.31757E-01  7.22550E-01  7.39845E-01  8.06558E-01  9.27676E-01  1.07957E+00
   1.21363E+00  1.27413E+00  1.21848E+00  1.04412E+00  7.96821E-01  5.47328E-01  3.58881E-01  2.88842E-01  3.83016E-01  6.36409E-01
   9.80433E-01  1.32526E+00  1.59614E+00  1.73843E+00  1.72904E+00  1.57144E+00  1.28107E+00  8.95590E-01  4.83246E-01  1.32333E-01
  -4.44266E-02  4.55912E-02  3.78972E-01  7.97862E-01  1.15129E+00  1.38953E+00  1.51111E+00  1.51297E+00  1.42640E+00  1.30837E+00
   1.19423E+00  1.10533E+00  1.05986E+00  1.07402E+00  1.14166E+00  1.23012E+00  1.29895E+00  1.32202E+00  1.29592E+00  1.22897E+00
   1.13770E+00  1.05073E+00  1.00610E+00  1.02923E+00  1.09791E+00  1.17141E+00  1.25558E+00  1.37905E+00  1.51351E+00  1.58850E+00
   1.57797E+00  1.48894E+00  1.32406E+00  1.11496E+00  9.56060E-01  9.13584E-01  9.63514E-01  1.05804E+00  1.17158E+00  1.29391E+00
   1.41171E+00  1.52121E+00  1.60855E+00  1.65703E+00  1.67041E+00  1.69646E+00  1.82188E+00  2.10642E+00  2.56854E+00  3.17942E+00
   3.76083E+00  4.00291E+00  3.71953E+00  3.06505E+00  2.36522E+00  1.81855E+00  1.45424E+00  1.25357E+00  1.16422E+00  1.10728E+00
   1.06210E+00  1.02704E+00  1.00211E+00  9.85573E-01  9.74520E-01  9.64717E-01  9.52722E-01  9.36990E-01  9.17952E-01  8.97248E-01
   8.77520E-01  8.61355E-01  8.50415E-01  8.45605E-01  8.47079E-01  8.54367E-01  8.66677E-01  8.83085E-01  9.03041E-01  9.26803E-01
   9.54671E-01  9.86659E-01  1.02284E+00  1.06330E+00  1.10781E+00  1.15586E+00  1.20688E+00  1.26009E+00  1.31434E+00  1.36834E+00
   1.42078E+00  1.47030E+00  1.51567E+00  1.55578E+00  1.58974E+00  1.61691E+00  1.63697E+00  1.64992E+00  1.65614E+00  1.65642E+00
   1.65190E+00  1.64407E+00  1.63467E+00  1.62568E+00  1.61921E+00  1.61746E+00  1.62264E+00  1.63703E+00  1.66299E+00  1.70329E+00
   1.76190E+00  1.84643E+00  1.97113E+00  2.13962E+00  2.32506E+00  2.48802E+00  2.57026E+00  2.48939E+00  2.20796E+00  1.81015E+00
   1.46482E+00  1.29325E+00  1.31022E+00  1.49353E+00  1.84029E+00  2.29098E+00  2.70509E+00  2.93618E+00  2.94500E+00  2.80779E+00
   2.61521E+00  2.41847E+00  2.25198E+00  2.12563E+00  2.01868E+00  1.91552E+00  1.80252E+00  1.66110E+00  1.47914E+00  1.27076E+00
   1.07547E+00  9.27607E-01  8.34851E-01  7.92926E-01  7.98700E-01  8.34806E-01  8.65844E-01  8.62611E-01  8.22445E-01  7.63432E-01
   7.02810E-01  6.48743E-01  6.06392E-01  5.74708E-01  5.49282E-01  5.27936E-01  5.09529E-01  4.93350E-01  4.78919E-01  4.65905E-01
   4.54091E-01  4.43338E-01  4.33575E-01  4.24786E-01  4.16997E-01  4.10274E-01  4.04718E-01  4.00452E-01  3.97625E-01  3.96408E-01
   3.96995E-01  3.99600E-01  4.04460E-01  4.11823E-01  4.21949E-01  4.35106E-01  4.51561E-01  4.71570E-01  4.95359E-01  5.23102E-01
   5.54909E-01  5.90796E-01  6.30669E-01  6.74295E-01  7.21285E-01  7.71071E-01  8.22910E-01  8.75883E-01  9.28911E-01  9.80780E-01
   1.03017E+00  1.07572E+00  1.11607E+00  1.14993E+00  1.17615E+00  1.19377E+00  1.20208E+00  1.20064E+00  1.18934E+00  1.16835E+00
   1.13820E+00  1.09964E+00  1.05368E+00  1.00150E+00  9.44398E-01  8.83734E-01  8.20851E-01  7.57027E-01  6.93429E-01  6.31080E-01
   5.70839E-01  5.13384E-01  4.59213E-01  4.08651E-01  3.61870E-01  3.18911E-01  2.79707E-01  2.44109E-01  2.11900E-01  1.82823E-01
   1.56603E-01  1.32957E-01  1.11610E-01  9.22963E-02  7.47668E-02  5.87934E-02  4.41745E-02  3.07332E-02  1.83152E-02  6.78312E-03
  -3.98303E-03 -1.40859E-02 -2.36101E-02 -3.26263E-02 -4.11963E-02 -4.93759E-02 -5.72135E-02 -6.47489E-02 -7.20139E-02 -7.90362E-02
  -8.58412E-02 -9.24536E-02 -9.88939E-02 -1.05178E-01 -1.11316E-01 -1.17322E-01 -1.23207E-01 -1.28985E-01 -1.34666E-01 -1.40257E-01
  -1.45762E-01 -1.51188E-01 -1.56542E-01 -1.61832E-01 -1.67062E-01 -1.72232E-01 -1.77347E-01 -1.82410E-01 -1.87430E-01 -1.92409E-01
  -1.97349E-01 -2.02250E-01 -2.07112E-01 -2.11941E-01 -2.16740E-01 -2.21512E-01 -2.26256E-01 -2.30970E-01 -2.35657E-01 -2.40322E-01
  -2.44967E-01 -2.49593E-01 -2.54196E-01 -2.58777E-01 -2.63339E-01 -2.67886E-01 -2.72418E-01 -2.76934E-01 -2.81431E-01 -2.85911E-01
  -2.90378E-01 -2.94833E-01 -2.99277E-01 -3.03705E-01 -3.08117E-01 -3.12514E-01 -3.16901E-01 -3.21278E-01
 NY background values follow
     1.681E+00    1.677E+00    1.673E+00    1.669E+00    1.665E+00    1.661E+00    1.657E+00    1.653E+00    1.649E+00    1.645E+00
     1.641E+00    1.637E+00    1.632E+00    1.628E+00    1.624E+00    1.620E+00    1.616E+00    1.612E+00    1.608E+00    1.604E+00
     1.600E+00    1.596E+00    1.592E+00    1.588E+00    1.584E+00    1.580E+00    1.575E+00    1.571E+00    1.567E+00    1.563E+00
     1.559E+00    1.555E+00    1.551E+00    1.547E+00    1.543E+00    1.539E+00    1.535E+00    1.531E+00    1.527E+00    1.523E+00
     1.518E+00    1.514E+00    1.510E+00    1.506E+00    1.502E+00    1.498E+00    1.494E+00    1.490E+00    1.486E+00    1.482E+00
     1.478E+00    1.474E+00    1.470E+00    1.466E+00    1.462E+00    1.457E+00    1.453E+00    1.449E+00    1.445E+00    1.441E+00
     1.437E+00    1.433E+00    1.429E+00    1.425E+00    1.421E+00    1.417E+00    1.413E+00    1.409E+00    1.405E+00    1.400E+00
     1.396E+00    1.392E+00    1.388E+00    1.384E+00    1.380E+00    1.376E+00    1.372E+00    1.368E+00    1.364E+00    1.360E+00
     1.356E+00    1.352E+00    1.348E+00    1.343E+00    1.339E+00    1.335E+00    1.331E+00    1.327E+00    1.323E+00    1.319E+00
     1.315E+00    1.311E+00    1.307E+00    1.303E+00    1.299E+00    1.295E+00    1.291E+00    1.286E+00    1.282E+00    1.278E+00
     1.274E+00    1.270E+00    1.266E+00    1.262E+00    1.258E+00    1.254E+00    1.250E+00    1.246E+00    1.242E+00    1.238E+00
     1.234E+00    1.229E+00    1.225E+00    1.221E+00    1.217E+00    1.213E+00    1.209E+00    1.205E+00    1.201E+00    1.197E+00
     1.193E+00    1.189E+00    1.185E+00    1.181E+00    1.177E+00    1.173E+00    1.168E+00    1.164E+00    1.160E+00    1.156E+00
     1.152E+00    1.148E+00    1.144E+00    1.140E+00    1.136E+00    1.132E+00    1.128E+00    1.124E+00    1.120E+00    1.116E+00
     1.111E+00    1.107E+00    1.103E+00    1.099E+00    1.095E+00    1.091E+00    1.087E+00    1.083E+00    1.079E+00    1.075E+00
     1.071E+00    1.067E+00    1.063E+00    1.059E+00    1.054E+00    1.050E+00    1.046E+00    1.042E+00    1.038E+00    1.034E+00
     1.030E+00    1.026E+00    1.022E+00    1.018E+00    1.014E+00    1.010E+00    1.006E+00    1.002E+00    9.975E-01    9.934E-01
     9.893E-01    9.853E-01    9.812E-01    9.771E-01    9.731E-01    9.690E-01    9.649E-01    9.609E-01    9.568E-01    9.527E-01
     9.486E-01    9.446E-01    9.405E-01    9.364E-01    9.324E-01    9.283E-01    9.242E-01    9.201E-01    9.161E-01    9.120E-01
     9.079E-01    9.039E-01    8.998E-01    8.957E-01    8.917E-01    8.876E-01    8.835E-01    8.794E-01    8.754E-01    8.713E-01
     8.672E-01    8.632E-01    8.591E-01    8.550E-01    8.510E-01    8.469E-01    8.428E-01    8.387E-01    8.347E-01    8.306E-01
     8.265E-01    8.225E-01    8.184E-01    8.143E-01    8.103E-01    8.062E-01    8.021E-01    7.980E-01    7.940E-01    7.899E-01
     7.858E-01    7.818E-01    7.777E-01    7.736E-01    7.696E-01    7.655E-01    7.614E-01    7.573E-01    7.533E-01    7.492E-01
     7.451E-01    7.411E-01    7.370E-01    7.329E-01    7.288E-01    7.248E-01    7.207E-01    7.166E-01    7.126E-01    7.085E-01
     7.044E-01    7.004E-01    6.963E-01    6.922E-01    6.881E-01    6.841E-01    6.800E-01    6.759E-01    6.719E-01    6.678E-01
     6.637E-01    6.597E-01    6.556E-01    6.515E-01    6.474E-01    6.434E-01    6.393E-01    6.352E-01    6.312E-01    6.271E-01
     6.230E-01    6.190E-01    6.149E-01    6.108E-01    6.067E-01    6.027E-01    5.986E-01    5.945E-01    5.905E-01    5.864E-01
     5.823E-01    5.783E-01    5.742E-01    5.701E-01    5.660E-01    5.620E-01    5.579E-01    5.538E-01    5.498E-01    5.457E-01
     5.416E-01    5.376E-01    5.335E-01    5.294E-01    5.253E-01    5.213E-01    5.172E-01    5.131E-01    5.091E-01    5.050E-01
     5.009E-01    4.969E-01    4.928E-01    4.887E-01    4.846E-01    4.806E-01    4.765E-01    4.724E-01    4.684E-01    4.643E-01
     4.602E-01    4.562E-01    4.521E-01    4.480E-01    4.439E-01    4.399E-01    4.358E-01    4.317E-01    4.277E-01    4.236E-01
     4.195E-01    4.155E-01    4.114E-01    4.073E-01    4.032E-01    3.992E-01    3.951E-01    3.910E-01    3.870E-01    3.829E-01
     3.788E-01    3.748E-01    3.707E-01    3.666E-01    3.625E-01    3.585E-01    3.544E-01    3.503E-01    3.463E-01    3.422E-01
     3.381E-01    3.341E-01    3.300E-01    3.259E-01    3.218E-01    3.178E-01    3.137E-01    3.096E-01    3.056E-01    3.015E-01
     2.974E-01    2.934E-01    2.893E-01    2.852E-01    2.811E-01    2.771E-01    2.730E-01    2.689E-01    2.649E-01    2.608E-01
     2.567E-01    2.527E-01    2.486E-01    2.445E-01    2.405E-01    2.364E-01    2.323E-01    2.282E-01    2.242E-01    2.201E-01
     2.160E-01    2.120E-01    2.079E-01    2.038E-01    1.998E-01    1.957E-01    1.916E-01    1.875E-01    1.835E-01    1.794E-01
     1.753E-01    1.713E-01    1.672E-01    1.631E-01    1.591E-01    1.550E-01    1.509E-01    1.468E-01    1.428E-01    1.387E-01
     1.346E-01    1.306E-01    1.265E-01    1.224E-01    1.184E-01    1.143E-01    1.102E-01    1.061E-01    1.021E-01    9.801E-02
     9.394E-02    8.987E-02    8.580E-02    8.173E-02    7.766E-02    7.359E-02    6.952E-02    6.545E-02    6.138E-02    5.731E-02
     5.324E-02    4.917E-02    4.510E-02    4.103E-02    3.696E-02    3.289E-02    2.882E-02    2.475E-02    2.068E-02    1.661E-02
     1.254E-02    8.472E-03    4.402E-03    3.326E-04   -3.737E-03   -7.807E-03   -1.188E-02   -1.595E-02   -2.002E-02   -2.409E-02
    -2.816E-02   -3.223E-02   -3.629E-02   -4.036E-02   -4.443E-02   -4.850E-02   -5.257E-02   -5.664E-02   -6.071E-02   -6.478E-02
    -6.885E-02   -7.292E-02   -7.699E-02   -8.106E-02   -8.513E-02   -8.920E-02   -9.327E-02   -9.734E-02   -1.014E-01   -1.055E-01
    -1.095E-01   -1.136E-01   -1.177E-01   -1.218E-01   -1.258E-01   -1.299E-01   -1.340E-01   -1.380E-01   -1.421E-01   -1.462E-01
    -1.502E-01   -1.543E-01   -1.584E-01   -1.625E-01   -1.665E-01   -1.706E-01   -1.747E-01   -1.787E-01   -1.828E-01   -1.869E-01
    -1.909E-01   -1.950E-01   -1.991E-01   -2.032E-01   -2.072E-01   -2.113E-01   -2.154E-01   -2.194E-01   -2.235E-01   -2.276E-01
    -2.316E-01   -2.357E-01   -2.398E-01   -2.438E-01   -2.479E-01   -2.520E-01   -2.561E-01   -2.601E-01   -2.642E-01   -2.683E-01
    -2.723E-01   -2.764E-01   -2.805E-01   -2.845E-01   -2.886E-01   -2.927E-01   -2.968E-01   -3.008E-01   -3.049E-01   -3.090E-01
    -3.130E-01   -3.171E-01   -3.212E-01   -3.252E-01   -3.293E-01   -3.334E-01   -3.375E-01   -3.415E-01
 Ala      Conc. = 5.44E+01
