 LCModel (Version 6.3-1L) Copyright: S.W. Provencher.          Ref.: Magn. Reson. Med. 30:672-679 (1993).                
 Slice#2 Row#12 Col#8  PD_24_press_1_raw_act
 36 lines in following concentration table = NCONC+1
    Conc.  %SD /Cr+PCr  Metabolite                                         
    0.000 999%   0.000 Ala                                                 
    0.000 999%   0.000 Asp                                                 
 1.25E+03   4%   1.000 Cr                                                  
    0.000 999%   0.000 PCr                                                 
   74.886 181% 6.0E-02 GABA                                                
   36.656 340% 2.9E-02 Glc                                                 
  585.672  51%   0.468 Gln                                                 
 1.45E+03  23%   1.160 Glu                                                 
  443.423   5%   0.354 GPC                                                 
    0.000 999%   0.000 PCh                                                 
  523.091  14%   0.418 GSH                                                 
 2.22E+03  11%   1.772 Ins                                                 
  262.908  62%   0.210 Lac                                                 
 1.85E+03   9%   1.477 NAA                                                 
   94.479 180% 7.5E-02 NAAG                                                
   91.713  26% 7.3E-02 Scyllo                                              
    0.000 999%   0.000 Tau                                                 
    0.000 999%   0.000 -CrCH2                                              
  443.423   5%   0.354 GPC+PCh                                             
 1.94E+03   4%   1.552 NAA+NAAG                                            
 1.25E+03   4%   1.000 Cr+PCr                                              
 2.04E+03  26%   1.628 Glu+Gln                                             
 1.84E+03  32%   1.469 Lip13a                                              
  138.219 186%   0.110 Lip13b                                              
  439.724  55%   0.351 Lip09                                               
  732.845  34%   0.585 MM09                                                
  271.928  62%   0.217 Lip20                                               
 1.50E+03  22%   1.197 MM20                                                
  286.357  62%   0.229 MM12                                                
  422.075  76%   0.337 MM14                                                
  881.051  22%   0.704 MM17                                                
 1.98E+03  24%   1.580 Lip13a+Lip13b                                       
 2.69E+03  12%   2.146 MM14+Lip13a+Lip13b+MM12                             
 1.17E+03  13%   0.937 MM09+Lip09                                          
 1.77E+03  17%   1.414 MM20+Lip20                                          
   6 lines in following misc. output table
  FWHM = 0.076 ppm    S/N =   9                                            
  Data shift = 0.000 ppm                                                   
  Ph:   1 deg       9.4 deg/ppm                                            
  alphaB,S = 5.3E+00,   4.6E+01                                            
   14 spline knots.   Ns = 9(1)                                            
  ( 8) 6 infls.   ( 1) 1 extrs.                                            
  498 points on ppm-axis = NY
      4.000000     3.992357     3.984714     3.977070     3.969427     3.961784     3.954141     3.946497     3.938854     3.931211
      3.923568     3.915925     3.908281     3.900638     3.892995     3.885352     3.877708     3.870065     3.862422     3.854779
      3.847136     3.839492     3.831849     3.824206     3.816563     3.808919     3.801276     3.793633     3.785990     3.778347
      3.770703     3.763060     3.755417     3.747774     3.740130     3.732487     3.724844     3.717201     3.709558     3.701914
      3.694271     3.686628     3.678985     3.671341     3.663698     3.656055     3.648412     3.640769     3.633125     3.625482
      3.617839     3.610196     3.602552     3.594909     3.587266     3.579623     3.571980     3.564336     3.556693     3.549050
      3.541407     3.533763     3.526120     3.518477     3.510834     3.503191     3.495547     3.487904     3.480261     3.472618
      3.464974     3.457331     3.449688     3.442045     3.434402     3.426758     3.419115     3.411472     3.403829     3.396185
      3.388542     3.380899     3.373256     3.365613     3.357969     3.350326     3.342683     3.335040     3.327396     3.319753
      3.312110     3.304467     3.296824     3.289180     3.281537     3.273894     3.266251     3.258607     3.250964     3.243321
      3.235678     3.228034     3.220391     3.212748     3.205105     3.197462     3.189818     3.182175     3.174532     3.166889
      3.159245     3.151602     3.143959     3.136316     3.128673     3.121029     3.113386     3.105743     3.098100     3.090456
      3.082813     3.075170     3.067527     3.059884     3.052240     3.044597     3.036954     3.029311     3.021667     3.014024
      3.006381     2.998738     2.991095     2.983451     2.975808     2.968165     2.960522     2.952878     2.945235     2.937592
      2.929949     2.922306     2.914662     2.907019     2.899376     2.891733     2.884089     2.876446     2.868803     2.861160
      2.853517     2.845873     2.838230     2.830587     2.822944     2.815300     2.807657     2.800014     2.792371     2.784728
      2.777084     2.769441     2.761798     2.754155     2.746511     2.738868     2.731225     2.723582     2.715939     2.708295
      2.700652     2.693009     2.685366     2.677722     2.670079     2.662436     2.654793     2.647150     2.639506     2.631863
      2.624220     2.616577     2.608933     2.601290     2.593647     2.586004     2.578361     2.570717     2.563074     2.555431
      2.547788     2.540144     2.532501     2.524858     2.517215     2.509572     2.501928     2.494285     2.486642     2.478999
      2.471355     2.463712     2.456069     2.448426     2.440783     2.433139     2.425496     2.417853     2.410210     2.402566
      2.394923     2.387280     2.379637     2.371994     2.364350     2.356707     2.349064     2.341421     2.333777     2.326134
      2.318491     2.310848     2.303205     2.295561     2.287918     2.280275     2.272632     2.264988     2.257345     2.249702
      2.242059     2.234416     2.226772     2.219129     2.211486     2.203843     2.196199     2.188556     2.180913     2.173270
      2.165627     2.157983     2.150340     2.142697     2.135054     2.127410     2.119767     2.112124     2.104481     2.096838
      2.089194     2.081551     2.073908     2.066265     2.058621     2.050978     2.043335     2.035692     2.028049     2.020405
      2.012762     2.005119     1.997476     1.989833     1.982190     1.974546     1.966903     1.959260     1.951617     1.943974
      1.936331     1.928688     1.921045     1.913402     1.905759     1.898115     1.890472     1.882829     1.875186     1.867543
      1.859900     1.852257     1.844614     1.836971     1.829327     1.821684     1.814041     1.806398     1.798755     1.791112
      1.783469     1.775826     1.768183     1.760540     1.752896     1.745253     1.737610     1.729967     1.722324     1.714681
      1.707038     1.699395     1.691752     1.684108     1.676465     1.668822     1.661179     1.653536     1.645893     1.638250
      1.630607     1.622964     1.615321     1.607677     1.600034     1.592391     1.584748     1.577105     1.569462     1.561819
      1.554176     1.546533     1.538890     1.531246     1.523603     1.515960     1.508317     1.500674     1.493031     1.485388
      1.477745     1.470102     1.462458     1.454815     1.447172     1.439529     1.431886     1.424243     1.416600     1.408957
      1.401314     1.393671     1.386027     1.378384     1.370741     1.363098     1.355455     1.347812     1.340169     1.332526
      1.324883     1.317240     1.309596     1.301953     1.294310     1.286667     1.279024     1.271381     1.263738     1.256095
      1.248452     1.240808     1.233165     1.225522     1.217879     1.210236     1.202593     1.194950     1.187307     1.179664
      1.172021     1.164377     1.156734     1.149091     1.141448     1.133805     1.126162     1.118519     1.110876     1.103233
      1.095590     1.087946     1.080303     1.072660     1.065017     1.057374     1.049731     1.042088     1.034445     1.026802
      1.019158     1.011515     1.003872     0.996229     0.988586     0.980943     0.973300     0.965657     0.958014     0.950371
      0.942727     0.935084     0.927441     0.919798     0.912155     0.904512     0.896869     0.889226     0.881583     0.873940
      0.866296     0.858653     0.851010     0.843367     0.835724     0.828081     0.820438     0.812795     0.805152     0.797508
      0.789865     0.782222     0.774579     0.766936     0.759293     0.751650     0.744007     0.736364     0.728721     0.721077
      0.713434     0.705791     0.698148     0.690505     0.682862     0.675219     0.667576     0.659933     0.652290     0.644646
      0.637003     0.629360     0.621717     0.614074     0.606431     0.598788     0.591145     0.583502     0.575858     0.568215
      0.560572     0.552929     0.545286     0.537643     0.530000     0.522357     0.514714     0.507071     0.499427     0.491784
      0.484141     0.476498     0.468855     0.461212     0.453569     0.445925     0.438282     0.430639     0.422996     0.415353
      0.407710     0.400067     0.392424     0.384780     0.377137     0.369494     0.361851     0.354208     0.346565     0.338922
      0.331278     0.323635     0.315992     0.308349     0.300706     0.293063     0.285420     0.277777     0.270133     0.262490
      0.254847     0.247204     0.239561     0.231918     0.224275     0.216631     0.208988     0.201345
 NY phased data points follow
   3.36998E+00  6.94136E+00  5.09382E+00  7.91467E+00  7.68971E+00  1.61251E+01  1.41413E+01  1.44706E+01  2.33270E+01  2.56255E+01
   2.65182E+01  3.84041E+01  3.18180E+01  3.61805E+01  3.08355E+01  2.61984E+01  2.35917E+01  2.33076E+01  1.54174E+01  2.24465E+01
   1.06665E+01  1.67900E+01  1.08182E+01  1.49623E+01  1.54720E+01  1.23853E+01  1.22288E+01  1.72552E+01  1.60132E+01  1.61671E+01
   1.64417E+01  2.11790E+01  1.74458E+01  1.49893E+01  1.16051E+01  1.96489E+01  1.45103E+01  1.55403E+01  1.43981E+01  1.73068E+01
   1.69633E+01  1.61781E+01  1.13027E+01  1.97243E+01  1.22606E+01  1.88763E+01  1.71928E+01  1.85252E+01  1.60837E+01  1.91204E+01
   1.66574E+01  1.92878E+01  1.32901E+01  1.51318E+01  1.35929E+01  1.17500E+01  1.27621E+01  1.74895E+01  1.11208E+01  1.39424E+01
   1.04267E+01  1.23449E+01  1.07043E+01  1.07565E+01  9.85471E+00  1.00896E+01  7.49537E+00  1.15939E+01  7.25333E+00  6.58593E+00
   8.47146E+00  5.89102E+00  7.34143E+00  1.08244E+01  4.10080E+00  6.48635E+00  9.33463E+00  7.83846E+00  7.04007E+00  7.17245E+00
   5.22039E+00  8.80941E+00  5.40684E+00  5.65321E+00  7.20738E+00  6.81113E+00  3.75241E+00  8.14120E+00  4.40616E+00  5.55734E+00
   9.21096E+00  7.75847E+00  9.64523E+00  6.97305E+00  5.12723E+00  1.99410E+00  1.70179E+00  1.13329E+01  8.69335E+00  1.68972E+01
   2.12324E+01  3.20817E+01  2.96579E+01  3.28672E+01  2.99965E+01  3.41273E+01  2.81962E+01  2.56378E+01  2.53272E+01  2.11949E+01
   1.69232E+01  1.41246E+01  1.22314E+01  1.08477E+01  1.01957E+01  8.86078E+00  7.50524E+00  5.75653E+00  6.36060E-01  5.70673E-01
   4.97919E+00  2.57754E+00  9.57584E+00  1.23331E+01  1.70020E+01  2.55179E+01  2.96380E+01  3.32364E+01  3.46532E+01  3.64004E+01
   2.84143E+01  3.17191E+01  2.70565E+01  2.36961E+01  2.05448E+01  2.01263E+01  1.06077E+01  1.54946E+01  1.25618E+01  5.93526E+00
   5.80316E+00  4.54629E+00  8.21309E+00  7.34754E+00  3.67630E+00  2.45741E+00  8.04684E+00  4.84918E+00  6.68320E+00  2.84881E+00
   5.10346E+00  1.45579E+00  3.04167E+00  4.01174E+00  3.57060E+00  3.34871E+00  1.87781E+00  3.13771E+00  1.36979E+00  2.42054E+00
  -6.85122E-01  1.51746E+00  7.38642E-01  2.37506E+00  2.67496E+00  2.92133E+00  3.31154E+00  2.64778E+00 -9.30873E-01 -1.44436E+00
   4.31023E-01 -1.49333E+00  9.00345E-02 -3.30777E+00 -6.91058E+00 -4.63537E+00 -5.54174E+00 -4.53313E+00 -5.87106E-01 -2.94465E+00
  -3.24953E+00 -2.12932E+00 -5.74063E+00 -1.99575E+00 -7.67527E+00 -3.97175E+00 -1.56263E+00 -9.72688E-01  3.38608E-01 -1.52229E+00
   1.76044E+00  6.85162E+00  4.91028E+00  3.89054E+00  1.88398E+00  6.16889E+00  6.30284E+00  6.57260E+00 -2.03815E+00  3.78216E+00
   3.41584E+00  5.65671E-01  1.86573E+00  5.33141E+00  3.28237E+00 -2.39643E-01  5.01715E+00  1.39663E+00 -5.01416E-01  1.35758E+00
  -3.77424E-01  5.25498E+00 -1.49409E+00  9.30485E+00  6.53098E+00  1.12679E+01  8.00444E+00  7.58896E+00  2.93468E+00  7.07308E+00
   2.80080E+00  1.65937E+00  1.32018E+00  3.62832E+00  1.35763E+00  3.21718E+00  7.23005E+00  5.12605E+00  2.52131E+00  5.13663E+00
   8.43061E+00  7.04717E+00  7.15015E+00  5.03036E+00  2.62752E+00  5.48890E+00  9.74722E+00  9.73370E+00  6.78166E+00  4.61838E+00
   4.72336E+00  2.68190E+00  4.55341E+00  4.22815E+00  9.98323E+00  1.11245E+01  7.23044E+00  9.70390E+00  7.90775E+00  8.58974E+00
   5.39812E+00  9.59343E+00  1.13204E+01  1.18604E+01  2.13822E+01  2.82222E+01  3.20291E+01  4.57065E+01  4.92000E+01  5.46829E+01
   5.90430E+01  5.29377E+01  4.74025E+01  4.30209E+01  4.11977E+01  3.95959E+01  2.60899E+01  2.78846E+01  1.75713E+01  1.45054E+01
   7.46282E+00  8.95775E+00  1.10466E+01  6.60834E+00  1.07011E+01  4.62711E+00  5.47150E+00  3.94583E+00  3.50039E+00  4.38012E+00
   3.15141E+00  4.38260E+00  3.21608E+00  4.41464E+00  2.66721E+00  2.92325E+00  2.47629E+00  3.68753E+00  4.64890E+00  2.82466E+00
   5.68315E+00  3.86510E+00  8.09918E+00  7.59478E+00  2.75314E+00  1.74363E+00  2.73896E+00  4.43997E+00  4.25315E+00  2.34387E+00
   2.52853E-01  3.00548E+00  4.25697E+00  4.57535E+00  7.86671E+00  7.10640E+00  6.57133E+00  5.41238E+00  5.29211E+00  7.53566E+00
   2.45606E+00  1.05310E+01  1.26204E+01  1.18526E+01  8.34759E+00  9.82697E+00  1.19953E+01  9.43414E+00  7.96019E+00  8.47832E+00
   6.98754E+00  9.70142E+00  9.01730E+00  6.53884E+00  4.50753E+00  9.87185E+00  3.70103E+00  1.06869E+01  1.01407E+01  7.54306E+00
   1.98204E+00  8.06045E+00  7.25276E+00  7.65414E+00  2.29933E+00  7.58992E+00  6.21733E+00  1.23704E+01  6.66823E+00  4.68253E+00
   1.20978E+01  7.71468E+00  7.77238E+00  8.59849E+00  8.55370E+00  9.42905E+00  9.41507E+00  9.79163E+00  6.79669E+00  1.37572E+01
   9.96887E+00  1.19658E+01  6.53070E+00  8.92552E+00  6.82553E+00  1.33564E+01  1.51520E+01  1.21461E+01  1.49877E+01  1.50470E+01
   1.50714E+01  1.34772E+01  1.33758E+01  1.43712E+01  9.82633E+00  1.27413E+01  9.91629E+00  1.06392E+01  1.14270E+01  1.20421E+01
   5.84010E+00  7.51868E+00  8.29059E+00  1.54062E+00  1.26046E+01  7.06920E+00  9.89365E+00  6.23843E+00  1.69721E+00  6.76897E+00
   8.08601E+00  7.49394E+00  4.48807E+00  4.98292E+00  1.02749E+01  7.64654E+00  7.73227E+00  4.60318E+00  3.75850E+00  5.55007E+00
   5.01108E+00  3.07706E+00  8.44086E+00  7.80284E+00  6.74368E+00  7.47678E+00  8.30799E+00  3.64926E+00  3.84756E+00  1.08306E+01
   1.00173E+01  9.16559E+00  7.13106E+00  8.29333E+00  1.05350E+01  1.14464E+01  8.35850E+00  6.75152E+00  1.08337E+01  1.21826E+01
   1.22707E+01  5.67075E+00  5.12095E+00  8.99914E+00  5.01054E+00  9.59448E+00  7.87143E+00  7.59780E+00  9.13054E+00  8.39792E+00
   5.08456E+00  8.04526E+00  2.22634E+00  9.52213E+00  6.66591E+00  5.21976E+00  9.98884E-01  7.20067E+00  3.77304E+00  6.96333E+00
   2.42373E+00  2.78435E+00  3.49414E+00  4.68536E+00 -1.06915E+00  2.84936E+00  6.35353E+00  1.63207E+00  6.39767E+00  2.70705E+00
  -2.37534E+00  8.17019E-01 -7.95883E-01  3.97170E+00 -1.23617E+00 -3.60038E-01 -6.85972E-01  1.57307E+00  5.57386E+00  6.52098E+00
   3.95115E+00  2.48899E+00  3.31959E+00 -2.92270E-01  3.44208E+00  3.59858E+00  2.89655E+00 -2.82760E-01  2.94089E+00  3.20102E+00
  -4.09305E-02  3.15106E+00 -3.36417E+00  1.46718E+00 -1.26869E+00  4.68010E+00  3.88140E+00  4.71722E+00 -1.09356E+00 -1.91587E-01
   2.28809E+00 -1.31415E+00  1.93553E+00  9.76370E-01 -2.06493E-01  3.83025E+00  3.88213E+00  3.15042E+00 -2.82044E-01 -2.78724E+00
   5.07889E-01  6.14734E-01  6.00603E-01  8.82731E-01  1.34811E-01  1.44710E+00 -1.97630E+00 -2.75818E-02  1.96552E+00 -4.89538E-01
   1.92639E+00  3.31286E+00  4.29972E+00  9.76256E-01 -2.04347E-02  2.30831E+00  3.14962E+00  1.30517E+00
 NY points of the fit to the data follow
   1.14593E+01  1.06939E+01  9.90968E+00  9.53000E+00  9.81514E+00  1.11452E+01  1.33995E+01  1.61525E+01  1.95443E+01  2.35995E+01
   2.72715E+01  2.96169E+01  3.06264E+01  3.00528E+01  2.80508E+01  2.60192E+01  2.46752E+01  2.31613E+01  2.08338E+01  1.83373E+01
   1.61450E+01  1.43244E+01  1.23105E+01  1.05689E+01  1.04509E+01  1.11190E+01  1.24467E+01  1.44062E+01  1.63982E+01  1.81079E+01
   1.93593E+01  1.96387E+01  1.89272E+01  1.79660E+01  1.70668E+01  1.58214E+01  1.42846E+01  1.28589E+01  1.19432E+01  1.17858E+01
   1.20726E+01  1.27991E+01  1.41336E+01  1.59917E+01  1.79757E+01  1.92202E+01  1.95113E+01  1.88180E+01  1.73814E+01  1.57944E+01
   1.45225E+01  1.36143E+01  1.27302E+01  1.17702E+01  1.11152E+01  1.10383E+01  1.10190E+01  1.07070E+01  1.05670E+01  1.06303E+01
   1.04372E+01  9.90962E+00  9.38688E+00  9.07986E+00  9.00040E+00  9.00811E+00  9.03632E+00  9.19829E+00  9.35430E+00  9.40592E+00
   9.46791E+00  9.49583E+00  9.49078E+00  9.41127E+00  9.31261E+00  9.22252E+00  9.01979E+00  8.69988E+00  8.36028E+00  8.14359E+00
   7.98301E+00  7.68516E+00  7.40839E+00  7.20770E+00  6.91645E+00  6.47948E+00  6.03280E+00  5.64072E+00  5.36222E+00  5.33414E+00
   5.48869E+00  5.58055E+00  5.49823E+00  5.30597E+00  4.95123E+00  4.73198E+00  5.77669E+00  8.26986E+00  1.18338E+01  1.63391E+01
   2.20970E+01  2.79533E+01  3.21414E+01  3.43227E+01  3.42940E+01  3.17966E+01  2.85498E+01  2.63491E+01  2.44848E+01  2.15015E+01
   1.79251E+01  1.46060E+01  1.20620E+01  9.52824E+00  6.28131E+00  4.68115E+00  4.28001E+00  4.13487E+00  4.09087E+00  4.06769E+00
   4.69113E+00  6.94236E+00  1.03958E+01  1.45073E+01  1.96834E+01  2.59009E+01  3.15159E+01  3.52156E+01  3.68820E+01  3.60590E+01
   3.31870E+01  3.02462E+01  2.80070E+01  2.51947E+01  2.12096E+01  1.70799E+01  1.37166E+01  1.13908E+01  8.76247E+00  6.25868E+00
   5.59627E+00  5.46821E+00  5.41137E+00  5.31894E+00  5.17496E+00  5.13608E+00  5.17150E+00  5.09396E+00  4.92723E+00  4.68991E+00
   4.37540E+00  4.08919E+00  3.79901E+00  3.56083E+00  3.34959E+00  3.14766E+00  2.94697E+00  2.74176E+00  2.52866E+00  2.34448E+00
   2.24491E+00  2.26362E+00  2.32337E+00  2.27594E+00  2.07360E+00  1.76747E+00  1.44054E+00  1.16799E+00  9.23866E-01  5.98203E-01
   2.42775E-01 -4.03989E-02 -3.72815E-01 -7.27397E-01 -1.02361E+00 -1.22485E+00 -1.24565E+00 -1.20913E+00 -1.25472E+00 -1.44041E+00
  -1.63794E+00 -1.68486E+00 -1.60218E+00 -1.47969E+00 -1.26223E+00 -7.86632E-01  1.16759E-02  9.47400E-01  1.88407E+00  2.67836E+00
   3.14535E+00  3.34204E+00  3.31283E+00  3.11089E+00  2.78472E+00  2.51979E+00  2.54262E+00  2.83466E+00  3.25656E+00  3.93202E+00
   4.70780E+00  5.28930E+00  5.48608E+00  5.39222E+00  5.05243E+00  4.32353E+00  3.25366E+00  2.14305E+00  1.48295E+00  1.30112E+00
   1.52863E+00  2.25009E+00  3.37034E+00  4.60756E+00  5.59431E+00  6.01651E+00  5.70736E+00  4.80270E+00  3.55813E+00  2.28690E+00
   1.45626E+00  9.07527E-01  6.86265E-01  1.02843E+00  1.69621E+00  2.39177E+00  2.72127E+00  2.87880E+00  3.34586E+00  3.90476E+00
   4.49599E+00  5.10672E+00  5.81390E+00  6.69404E+00  7.42550E+00  7.67754E+00  7.63205E+00  7.45074E+00  7.06692E+00  6.43333E+00
   5.76275E+00  5.44718E+00  5.52876E+00  5.72054E+00  5.95676E+00  6.30163E+00  6.64717E+00  6.77883E+00  6.92688E+00  7.36854E+00
   7.98613E+00  8.59069E+00  1.06999E+01  1.51614E+01  2.07148E+01  2.69319E+01  3.47377E+01  4.35073E+01  5.05277E+01  5.47516E+01
   5.60091E+01  5.33976E+01  4.84922E+01  4.43497E+01  4.12075E+01  3.67627E+01  3.09467E+01  2.52940E+01  2.08379E+01  1.70282E+01
   1.19273E+01  8.36957E+00  7.22306E+00  6.69045E+00  6.30448E+00  5.96882E+00  5.70849E+00  5.44514E+00  5.19200E+00  4.96771E+00
   4.75766E+00  4.54963E+00  4.36996E+00  4.21152E+00  4.04446E+00  3.88296E+00  3.75338E+00  3.65567E+00  3.58550E+00  3.53881E+00
   3.51414E+00  3.51684E+00  3.53625E+00  3.57079E+00  3.62822E+00  3.71183E+00  3.82335E+00  3.96807E+00  4.14871E+00  4.36587E+00
   4.61870E+00  4.90628E+00  5.22294E+00  5.56455E+00  5.92774E+00  6.30417E+00  6.68522E+00  7.06179E+00  7.42447E+00  7.76388E+00
   8.06923E+00  8.33171E+00  8.54482E+00  8.70302E+00  8.80296E+00  8.84439E+00  8.82862E+00  8.75923E+00  8.64186E+00  8.48404E+00
   8.29465E+00  8.08322E+00  7.85936E+00  7.63251E+00  7.41160E+00  7.20461E+00  7.01826E+00  6.85783E+00  6.72722E+00  6.62918E+00
   6.56545E+00  6.53702E+00  6.54420E+00  6.58695E+00  6.66539E+00  6.78036E+00  6.93396E+00  7.12998E+00  7.37948E+00  7.74933E+00
   8.25849E+00  8.79320E+00  9.30248E+00  9.80756E+00  1.02258E+01  1.03773E+01  1.02099E+01  9.87785E+00  9.53509E+00  9.32694E+00
   9.41432E+00  9.82326E+00  1.04293E+01  1.11133E+01  1.18557E+01  1.25954E+01  1.31195E+01  1.32679E+01  1.33432E+01  1.35407E+01
   1.35687E+01  1.33498E+01  1.29538E+01  1.24895E+01  1.20176E+01  1.13930E+01  1.07115E+01  1.01383E+01  9.63073E+00  9.16307E+00
   8.72561E+00  8.31393E+00  7.92602E+00  7.56135E+00  7.22036E+00  6.90413E+00  6.61396E+00  6.35119E+00  6.11703E+00  5.91260E+00
   5.73902E+00  5.59734E+00  5.48846E+00  5.41313E+00  5.37196E+00  5.36554E+00  5.39440E+00  5.45892E+00  5.55913E+00  5.69464E+00
   5.86460E+00  6.06766E+00  6.30182E+00  6.56425E+00  6.85116E+00  7.15781E+00  7.47856E+00  7.80700E+00  8.13598E+00  8.45773E+00
   8.76410E+00  9.04684E+00  9.29805E+00  9.51047E+00  9.67770E+00  9.79446E+00  9.85685E+00  9.86258E+00  9.81110E+00  9.70356E+00
   9.54266E+00  9.33246E+00  9.07821E+00  8.78615E+00  8.46318E+00  8.11651E+00  7.75331E+00  7.38042E+00  7.00424E+00  6.63054E+00
   6.26437E+00  5.90987E+00  5.57025E+00  5.24785E+00  4.94428E+00  4.66050E+00  4.39686E+00  4.15318E+00  3.92881E+00  3.72284E+00
   3.53422E+00  3.36180E+00  3.20434E+00  3.06056E+00  2.92914E+00  2.80888E+00  2.69871E+00  2.59765E+00  2.50476E+00  2.41915E+00
   2.34002E+00  2.26668E+00  2.19859E+00  2.13523E+00  2.07613E+00  2.02080E+00  1.96884E+00  1.91996E+00  1.87392E+00  1.83048E+00
   1.78936E+00  1.75032E+00  1.71318E+00  1.67782E+00  1.64414E+00  1.61199E+00  1.58122E+00  1.55167E+00  1.52329E+00  1.49603E+00
   1.46984E+00  1.44461E+00  1.42023E+00  1.39664E+00  1.37381E+00  1.35174E+00  1.33038E+00  1.30963E+00  1.28943E+00  1.26976E+00
   1.25063E+00  1.23204E+00  1.21392E+00  1.19621E+00  1.17886E+00  1.16189E+00  1.14532E+00  1.12913E+00  1.11324E+00  1.09762E+00
   1.08225E+00  1.06716E+00  1.05236E+00  1.03781E+00  1.02345E+00  1.00925E+00  9.95223E-01  9.81398E-01  9.67764E-01  9.54271E-01
   9.40867E-01  9.27542E-01  9.14323E-01  9.01223E-01  8.88209E-01  8.75223E-01  8.62225E-01  8.49221E-01
 NY background values follow
     4.519E+00    4.503E+00    4.487E+00    4.471E+00    4.456E+00    4.440E+00    4.424E+00    4.408E+00    4.392E+00    4.376E+00
     4.360E+00    4.344E+00    4.328E+00    4.312E+00    4.296E+00    4.280E+00    4.264E+00    4.248E+00    4.232E+00    4.216E+00
     4.200E+00    4.184E+00    4.168E+00    4.152E+00    4.136E+00    4.120E+00    4.104E+00    4.089E+00    4.073E+00    4.057E+00
     4.041E+00    4.025E+00    4.009E+00    3.993E+00    3.977E+00    3.961E+00    3.945E+00    3.929E+00    3.913E+00    3.897E+00
     3.881E+00    3.865E+00    3.849E+00    3.833E+00    3.817E+00    3.801E+00    3.785E+00    3.769E+00    3.753E+00    3.737E+00
     3.721E+00    3.705E+00    3.689E+00    3.673E+00    3.657E+00    3.641E+00    3.625E+00    3.609E+00    3.593E+00    3.577E+00
     3.561E+00    3.545E+00    3.529E+00    3.513E+00    3.497E+00    3.482E+00    3.466E+00    3.450E+00    3.434E+00    3.418E+00
     3.402E+00    3.387E+00    3.371E+00    3.355E+00    3.339E+00    3.323E+00    3.308E+00    3.292E+00    3.276E+00    3.261E+00
     3.245E+00    3.229E+00    3.214E+00    3.198E+00    3.183E+00    3.167E+00    3.152E+00    3.136E+00    3.121E+00    3.105E+00
     3.090E+00    3.075E+00    3.059E+00    3.044E+00    3.029E+00    3.013E+00    2.998E+00    2.983E+00    2.968E+00    2.953E+00
     2.938E+00    2.923E+00    2.908E+00    2.893E+00    2.878E+00    2.863E+00    2.848E+00    2.833E+00    2.818E+00    2.803E+00
     2.788E+00    2.774E+00    2.759E+00    2.744E+00    2.730E+00    2.715E+00    2.701E+00    2.686E+00    2.672E+00    2.657E+00
     2.643E+00    2.629E+00    2.614E+00    2.600E+00    2.586E+00    2.572E+00    2.558E+00    2.544E+00    2.530E+00    2.516E+00
     2.502E+00    2.488E+00    2.474E+00    2.460E+00    2.446E+00    2.433E+00    2.419E+00    2.405E+00    2.392E+00    2.378E+00
     2.365E+00    2.352E+00    2.338E+00    2.325E+00    2.312E+00    2.298E+00    2.285E+00    2.272E+00    2.259E+00    2.246E+00
     2.233E+00    2.220E+00    2.208E+00    2.195E+00    2.182E+00    2.169E+00    2.157E+00    2.144E+00    2.132E+00    2.119E+00
     2.107E+00    2.094E+00    2.082E+00    2.070E+00    2.058E+00    2.046E+00    2.034E+00    2.022E+00    2.010E+00    1.998E+00
     1.986E+00    1.974E+00    1.962E+00    1.951E+00    1.939E+00    1.928E+00    1.916E+00    1.905E+00    1.893E+00    1.882E+00
     1.871E+00    1.860E+00    1.849E+00    1.837E+00    1.826E+00    1.816E+00    1.805E+00    1.794E+00    1.783E+00    1.772E+00
     1.762E+00    1.751E+00    1.741E+00    1.730E+00    1.720E+00    1.709E+00    1.699E+00    1.689E+00    1.679E+00    1.668E+00
     1.658E+00    1.648E+00    1.638E+00    1.628E+00    1.618E+00    1.609E+00    1.599E+00    1.589E+00    1.579E+00    1.570E+00
     1.560E+00    1.551E+00    1.541E+00    1.532E+00    1.522E+00    1.513E+00    1.504E+00    1.494E+00    1.485E+00    1.476E+00
     1.467E+00    1.458E+00    1.449E+00    1.440E+00    1.431E+00    1.422E+00    1.413E+00    1.404E+00    1.395E+00    1.386E+00
     1.378E+00    1.369E+00    1.360E+00    1.352E+00    1.343E+00    1.335E+00    1.326E+00    1.318E+00    1.309E+00    1.301E+00
     1.292E+00    1.284E+00    1.276E+00    1.268E+00    1.260E+00    1.251E+00    1.243E+00    1.235E+00    1.227E+00    1.219E+00
     1.211E+00    1.203E+00    1.196E+00    1.188E+00    1.180E+00    1.172E+00    1.165E+00    1.157E+00    1.149E+00    1.142E+00
     1.134E+00    1.127E+00    1.119E+00    1.112E+00    1.104E+00    1.097E+00    1.090E+00    1.082E+00    1.075E+00    1.068E+00
     1.061E+00    1.053E+00    1.046E+00    1.039E+00    1.032E+00    1.025E+00    1.018E+00    1.011E+00    1.005E+00    9.977E-01
     9.908E-01    9.841E-01    9.773E-01    9.706E-01    9.640E-01    9.573E-01    9.507E-01    9.441E-01    9.376E-01    9.311E-01
     9.246E-01    9.182E-01    9.118E-01    9.055E-01    8.991E-01    8.928E-01    8.865E-01    8.803E-01    8.741E-01    8.679E-01
     8.618E-01    8.557E-01    8.496E-01    8.436E-01    8.375E-01    8.316E-01    8.256E-01    8.197E-01    8.138E-01    8.079E-01
     8.021E-01    7.963E-01    7.905E-01    7.848E-01    7.790E-01    7.734E-01    7.677E-01    7.621E-01    7.565E-01    7.509E-01
     7.453E-01    7.398E-01    7.343E-01    7.288E-01    7.234E-01    7.180E-01    7.126E-01    7.072E-01    7.019E-01    6.966E-01
     6.913E-01    6.860E-01    6.808E-01    6.756E-01    6.704E-01    6.652E-01    6.601E-01    6.550E-01    6.499E-01    6.448E-01
     6.398E-01    6.348E-01    6.298E-01    6.248E-01    6.198E-01    6.149E-01    6.100E-01    6.051E-01    6.002E-01    5.954E-01
     5.905E-01    5.857E-01    5.810E-01    5.762E-01    5.714E-01    5.667E-01    5.620E-01    5.573E-01    5.527E-01    5.480E-01
     5.434E-01    5.388E-01    5.342E-01    5.296E-01    5.250E-01    5.205E-01    5.160E-01    5.115E-01    5.070E-01    5.025E-01
     4.980E-01    4.936E-01    4.892E-01    4.848E-01    4.804E-01    4.760E-01    4.717E-01    4.673E-01    4.630E-01    4.587E-01
     4.544E-01    4.501E-01    4.458E-01    4.416E-01    4.374E-01    4.331E-01    4.289E-01    4.247E-01    4.206E-01    4.164E-01
     4.122E-01    4.081E-01    4.040E-01    3.999E-01    3.958E-01    3.917E-01    3.876E-01    3.835E-01    3.795E-01    3.754E-01
     3.714E-01    3.674E-01    3.634E-01    3.594E-01    3.554E-01    3.515E-01    3.475E-01    3.436E-01    3.396E-01    3.357E-01
     3.318E-01    3.279E-01    3.240E-01    3.201E-01    3.162E-01    3.124E-01    3.085E-01    3.047E-01    3.008E-01    2.970E-01
     2.932E-01    2.894E-01    2.856E-01    2.818E-01    2.780E-01    2.742E-01    2.704E-01    2.667E-01    2.629E-01    2.592E-01
     2.554E-01    2.517E-01    2.480E-01    2.442E-01    2.405E-01    2.368E-01    2.331E-01    2.294E-01    2.257E-01    2.220E-01
     2.184E-01    2.147E-01    2.110E-01    2.073E-01    2.037E-01    2.000E-01    1.964E-01    1.927E-01    1.891E-01    1.855E-01
     1.818E-01    1.782E-01    1.746E-01    1.709E-01    1.673E-01    1.637E-01    1.601E-01    1.565E-01    1.529E-01    1.493E-01
     1.457E-01    1.421E-01    1.385E-01    1.349E-01    1.313E-01    1.277E-01    1.241E-01    1.205E-01    1.170E-01    1.134E-01
     1.098E-01    1.062E-01    1.027E-01    9.909E-02    9.552E-02    9.195E-02    8.839E-02    8.483E-02    8.127E-02    7.771E-02
     7.416E-02    7.060E-02    6.705E-02    6.350E-02    5.995E-02    5.640E-02    5.285E-02    4.931E-02    4.576E-02    4.222E-02
     3.868E-02    3.513E-02    3.159E-02    2.805E-02    2.451E-02    2.098E-02    1.744E-02    1.390E-02
 Cr       Conc. = 1.25E+03
