 LCModel (Version 6.3-1L) Copyright: S.W. Provencher.          Ref.: Magn. Reson. Med. 30:672-679 (1993).                
 Slice#1 Row#11 Col#14  PD_24_press_1_raw_act
 36 lines in following concentration table = NCONC+1
    Conc.  %SD /Cr+PCr  Metabolite                                         
    2.024 134%   0.469 Ala                                                 
    1.102 228%   0.256 Asp                                                 
    0.000 999%   0.000 Cr                                                  
    4.313  82%   1.000 PCr                                                 
    0.251 591% 5.8E-02 GABA                                                
    0.540 290%   0.125 Glc                                                 
    2.449 174%   0.568 Gln                                                 
    0.000 999%   0.000 Glu                                                 
    0.219 864% 5.1E-02 GPC                                                 
    0.878 222%   0.204 PCh                                                 
    0.350 464% 8.1E-02 GSH                                                 
    0.000 999%   0.000 Ins                                                 
    3.726  97%   0.864 Lac                                                 
    7.193  82%   1.668 NAA                                                 
    4.248  92%   0.985 NAAG                                                
    0.138 325% 3.2E-02 Scyllo                                              
    2.098 115%   0.487 Tau                                                 
    0.000 999%   0.000 -CrCH2                                              
    1.097  90%   0.254 GPC+PCh                                             
   11.441  83%   2.653 NAA+NAAG                                            
    4.313  82%   1.000 Cr+PCr                                              
    2.449 174%   0.568 Glu+Gln                                             
 5.13E+03  18% 1.2E+03 Lip13a                                              
    0.000 999%   0.000 Lip13b                                              
 6.56E+03   8% 1.5E+03+Lip09                                               
 1.33E+03  14% 309.277 MM09                                                
    0.000 999%   0.000 Lip20                                               
  272.589  52%  63.205-MM20                                                
  518.074  21% 120.125 MM12                                                
  291.937  70%  67.691 MM14                                                
  540.290  31% 125.276 MM17                                                
 5.13E+03  18% 1.2E+03 Lip13a+Lip13b                                       
 5.94E+03  14% 1.4E+03 MM14+Lip13a+Lip13b+MM12                             
 7.90E+03   6% 1.8E+03 MM09+Lip09                                          
  272.589  52%  63.205 MM20+Lip20                                          
   6 lines in following misc. output table
  FWHM = 0.023 ppm    S/N =   8                                            
  Data shift = 0.015 ppm                                                   
  Ph:-174 deg      54.4 deg/ppm                                            
  alphaB,S = 5.9E-01,   3.7E-01                                            
   14 spline knots.   Ns = 5(1)                                            
   2 inflections.     1 extrema                                            
  498 points on ppm-axis = NY
      4.000000     3.992357     3.984714     3.977070     3.969427     3.961784     3.954141     3.946497     3.938854     3.931211
      3.923568     3.915925     3.908281     3.900638     3.892995     3.885352     3.877708     3.870065     3.862422     3.854779
      3.847136     3.839492     3.831849     3.824206     3.816563     3.808919     3.801276     3.793633     3.785990     3.778347
      3.770703     3.763060     3.755417     3.747774     3.740130     3.732487     3.724844     3.717201     3.709558     3.701914
      3.694271     3.686628     3.678985     3.671341     3.663698     3.656055     3.648412     3.640769     3.633125     3.625482
      3.617839     3.610196     3.602552     3.594909     3.587266     3.579623     3.571980     3.564336     3.556693     3.549050
      3.541407     3.533763     3.526120     3.518477     3.510834     3.503191     3.495547     3.487904     3.480261     3.472618
      3.464974     3.457331     3.449688     3.442045     3.434402     3.426758     3.419115     3.411472     3.403829     3.396185
      3.388542     3.380899     3.373256     3.365613     3.357969     3.350326     3.342683     3.335040     3.327396     3.319753
      3.312110     3.304467     3.296824     3.289180     3.281537     3.273894     3.266251     3.258607     3.250964     3.243321
      3.235678     3.228034     3.220391     3.212748     3.205105     3.197462     3.189818     3.182175     3.174532     3.166889
      3.159245     3.151602     3.143959     3.136316     3.128673     3.121029     3.113386     3.105743     3.098100     3.090456
      3.082813     3.075170     3.067527     3.059884     3.052240     3.044597     3.036954     3.029311     3.021667     3.014024
      3.006381     2.998738     2.991095     2.983451     2.975808     2.968165     2.960522     2.952878     2.945235     2.937592
      2.929949     2.922306     2.914662     2.907019     2.899376     2.891733     2.884089     2.876446     2.868803     2.861160
      2.853517     2.845873     2.838230     2.830587     2.822944     2.815300     2.807657     2.800014     2.792371     2.784728
      2.777084     2.769441     2.761798     2.754155     2.746511     2.738868     2.731225     2.723582     2.715939     2.708295
      2.700652     2.693009     2.685366     2.677722     2.670079     2.662436     2.654793     2.647150     2.639506     2.631863
      2.624220     2.616577     2.608933     2.601290     2.593647     2.586004     2.578361     2.570717     2.563074     2.555431
      2.547788     2.540144     2.532501     2.524858     2.517215     2.509572     2.501928     2.494285     2.486642     2.478999
      2.471355     2.463712     2.456069     2.448426     2.440783     2.433139     2.425496     2.417853     2.410210     2.402566
      2.394923     2.387280     2.379637     2.371994     2.364350     2.356707     2.349064     2.341421     2.333777     2.326134
      2.318491     2.310848     2.303205     2.295561     2.287918     2.280275     2.272632     2.264988     2.257345     2.249702
      2.242059     2.234416     2.226772     2.219129     2.211486     2.203843     2.196199     2.188556     2.180913     2.173270
      2.165627     2.157983     2.150340     2.142697     2.135054     2.127410     2.119767     2.112124     2.104481     2.096838
      2.089194     2.081551     2.073908     2.066265     2.058621     2.050978     2.043335     2.035692     2.028049     2.020405
      2.012762     2.005119     1.997476     1.989833     1.982190     1.974546     1.966903     1.959260     1.951617     1.943974
      1.936331     1.928688     1.921045     1.913402     1.905759     1.898115     1.890472     1.882829     1.875186     1.867543
      1.859900     1.852257     1.844614     1.836971     1.829327     1.821684     1.814041     1.806398     1.798755     1.791112
      1.783469     1.775826     1.768183     1.760540     1.752896     1.745253     1.737610     1.729967     1.722324     1.714681
      1.707038     1.699395     1.691752     1.684108     1.676465     1.668822     1.661179     1.653536     1.645893     1.638250
      1.630607     1.622964     1.615321     1.607677     1.600034     1.592391     1.584748     1.577105     1.569462     1.561819
      1.554176     1.546533     1.538890     1.531246     1.523603     1.515960     1.508317     1.500674     1.493031     1.485388
      1.477745     1.470102     1.462458     1.454815     1.447172     1.439529     1.431886     1.424243     1.416600     1.408957
      1.401314     1.393671     1.386027     1.378384     1.370741     1.363098     1.355455     1.347812     1.340169     1.332526
      1.324883     1.317240     1.309596     1.301953     1.294310     1.286667     1.279024     1.271381     1.263738     1.256095
      1.248452     1.240808     1.233165     1.225522     1.217879     1.210236     1.202593     1.194950     1.187307     1.179664
      1.172021     1.164377     1.156734     1.149091     1.141448     1.133805     1.126162     1.118519     1.110876     1.103233
      1.095590     1.087946     1.080303     1.072660     1.065017     1.057374     1.049731     1.042088     1.034445     1.026802
      1.019158     1.011515     1.003872     0.996229     0.988586     0.980943     0.973300     0.965657     0.958014     0.950371
      0.942727     0.935084     0.927441     0.919798     0.912155     0.904512     0.896869     0.889226     0.881583     0.873940
      0.866296     0.858653     0.851010     0.843367     0.835724     0.828081     0.820438     0.812795     0.805152     0.797508
      0.789865     0.782222     0.774579     0.766936     0.759293     0.751650     0.744007     0.736364     0.728721     0.721077
      0.713434     0.705791     0.698148     0.690505     0.682862     0.675219     0.667576     0.659933     0.652290     0.644646
      0.637003     0.629360     0.621717     0.614074     0.606431     0.598788     0.591145     0.583502     0.575858     0.568215
      0.560572     0.552929     0.545286     0.537643     0.530000     0.522357     0.514714     0.507071     0.499427     0.491784
      0.484141     0.476498     0.468855     0.461212     0.453569     0.445925     0.438282     0.430639     0.422996     0.415353
      0.407710     0.400067     0.392424     0.384780     0.377137     0.369494     0.361851     0.354208     0.346565     0.338922
      0.331278     0.323635     0.315992     0.308349     0.300706     0.293063     0.285420     0.277777     0.270133     0.262490
      0.254847     0.247204     0.239561     0.231918     0.224275     0.216631     0.208988     0.201345
 NY phased data points follow
  -6.05590E-01  4.11629E-01  7.89665E-01  6.29191E-01  1.93025E+00  2.32589E-01 -1.71882E+00 -1.13287E+00 -1.38837E+00  4.66864E-01
  -1.58840E-01  2.20927E+00  1.14654E-01  2.30615E-01  5.06473E-01  1.00936E+00  2.01860E+00  1.42782E+00 -2.78274E-01  9.95000E-01
  -3.56259E-01  6.49989E-01 -2.24642E+00  5.94331E-01 -2.66679E-01  1.13584E+00 -2.15187E-01  1.16993E+00 -4.91053E-01 -7.09852E-01
  -8.69724E-01  9.77622E-01  4.91263E-01  1.23207E+00  4.53157E-01  3.81741E-01  1.04097E-01  2.36893E+00 -6.02917E-02  2.04222E+00
  -2.16059E+00  1.84348E+00  1.17398E+00 -2.34062E-01  5.18513E-01  1.44712E+00  8.23950E-01  1.02634E+00  8.12604E-01  1.33252E+00
   1.03923E+00  1.66693E+00  1.62808E+00  2.21303E+00  7.34709E-01  2.16961E+00  1.57082E+00  1.16897E+00  2.84709E+00  1.56350E+00
   1.99536E+00  2.96600E+00  5.58552E-01  8.54701E-01  1.39780E+00 -3.29949E-01  2.81461E+00  4.26714E-01  2.95889E+00  6.15484E-01
   5.48121E-01  8.14741E-01  1.46666E+00  6.72247E-01  1.50261E+00  4.95007E-01  1.55486E+00  2.75826E+00  1.06871E+00 -2.62421E-01
  -4.22120E-01  9.17848E-01 -3.34595E-01  2.06060E+00  1.24669E+00  1.14289E+00  1.53905E+00  1.02232E+00  2.12598E+00  2.44527E+00
   3.39710E-01  2.62110E+00  7.73715E-01  9.98719E-01  2.84555E-01  9.30957E-01  1.19125E+00 -8.90838E-03 -4.86894E-01  1.19574E+00
   1.25751E+00 -4.74147E-01 -2.69769E-01  1.03290E+00  3.19038E+00  2.95927E+00  2.59725E+00  2.50369E+00  1.33747E+00  3.29712E+00
   2.05263E+00  2.44526E+00  2.39901E+00  1.94289E+00  2.62960E+00  1.01397E+00  2.48336E-02  2.52045E+00  2.08884E+00  2.35956E+00
   1.71628E+00  2.86728E+00  1.26515E+00  9.23394E-01  3.76210E-01 -3.31799E-01 -1.31144E+00  1.17483E+00  1.79640E+00  1.60668E+00
   2.39067E+00  4.16015E-01  1.35116E+00  2.04634E+00  2.88193E-02  2.27092E+00  5.46544E-01  1.74658E+00  2.58899E+00  1.37883E+00
   2.80773E+00  2.07499E+00  1.37061E+00  1.34180E+00  9.43744E-01  1.75559E+00  4.48843E-01  2.24297E+00  2.58384E+00  1.17897E+00
   1.79521E+00  1.69956E+00  1.49796E+00 -1.79104E-01  1.51806E+00  3.39462E+00  1.95640E+00  3.01923E+00  1.02823E+00  1.29472E+00
   1.43697E+00  1.66052E+00  1.18706E+00  1.42422E+00  4.87849E-01  1.41314E+00  2.80842E+00  3.03044E+00  3.20456E+00  2.80519E+00
   2.31033E+00  1.79634E+00  6.72552E-01  2.65503E+00  7.58028E-01  2.86441E+00  2.70053E+00  4.54811E-01  1.30800E+00  3.63996E+00
   2.85239E+00  1.49624E+00  1.94085E+00  2.56476E+00  1.31382E+00  2.90399E+00  1.16425E+00  2.23845E+00  1.08582E+00  6.67369E-01
   1.44402E+00  1.56624E+00  2.05839E+00  2.15098E+00  2.72132E+00  2.30327E+00  2.23510E-01  2.84432E+00  4.16256E+00  2.52744E+00
   3.83148E+00  2.87842E+00  2.75429E+00  8.89281E-02  2.01673E+00  1.88156E+00  2.96662E+00  8.75989E-01  3.11269E+00  1.41022E+00
   1.62126E+00  1.85128E+00  1.72123E-01  3.13536E+00  2.12091E+00  2.34233E+00  1.19557E+00  1.60622E+00  2.81126E+00  2.14531E+00
   2.27963E+00  4.72604E+00  3.99328E+00  3.89380E+00  1.94660E+00  3.19081E+00  3.16669E+00  3.95517E+00  4.02938E+00  1.26893E+00
   4.44768E+00  7.61535E-01  3.12311E+00  2.78077E+00  2.99993E+00  4.25783E+00  2.13919E+00  1.82333E+00  2.55415E+00  2.29821E+00
   2.19110E+00  3.29228E+00  1.94150E+00  3.53400E+00  3.18911E+00  1.68595E+00  4.09248E+00  3.30606E+00  3.28251E+00  4.15946E+00
   4.75546E+00  3.16474E+00  2.56064E+00  3.34471E+00  1.61818E+00  2.49234E+00  4.67967E+00  2.84987E+00  1.76199E+00  1.09019E+00
   3.28525E+00  7.19833E+00  7.73015E+00  4.26026E+00  4.75326E+00  5.13607E+00  4.02214E+00  6.20590E+00  3.33730E+00  5.30832E+00
   4.74305E+00  4.25345E+00  5.79429E+00  5.70447E+00  4.17231E+00  5.41234E+00  3.96242E+00  4.14770E+00  2.82142E+00  3.96061E+00
   3.00138E+00  3.88951E+00  3.48593E+00  6.78052E+00  5.35339E+00  5.32405E+00  6.34668E+00  3.16531E+00  5.20209E+00  3.92171E+00
   2.47947E+00  3.48768E+00  4.16943E+00  4.19607E+00  4.38557E+00  4.82975E+00  3.25431E+00  6.31584E+00  3.40661E+00  5.19553E+00
   5.67174E+00  4.80445E+00  3.89006E+00  3.91731E+00  4.42447E+00  4.07581E+00  4.18980E+00  4.15068E+00  3.47029E+00  4.67224E+00
   4.98359E+00  4.50615E+00  4.21582E+00  3.98450E+00  6.14061E+00  6.00815E+00  3.80717E+00  5.06455E+00  5.37623E+00  4.52161E+00
   6.53303E+00  4.98937E+00  4.79148E+00  4.79848E+00  5.77146E+00  5.63993E+00  5.72643E+00  5.84482E+00  6.62574E+00  4.39207E+00
   4.81893E+00  3.51390E+00  5.84892E+00  4.29667E+00  4.00977E+00  4.57942E+00  2.72809E+00  4.25586E+00  5.32340E+00  4.49337E+00
   5.20132E+00  3.52997E+00  4.88364E+00  1.62544E+00  3.62494E+00  5.06703E+00  5.23950E+00  3.79380E+00  4.17481E+00  4.69524E+00
   3.68659E+00  3.27454E+00  2.29565E+00  2.81695E+00  2.63965E+00 -1.09232E-01  5.28774E+00  3.14449E+00  6.92443E-01  1.30390E+00
   1.32326E+00  7.86374E-01  5.70898E-01  2.53840E+00 -1.05256E+00  1.67066E-01  3.38101E-01  1.43147E+00 -1.26723E+00 -2.11042E+00
  -3.35164E+00 -3.92476E+00 -3.33410E+00 -5.53539E+00 -4.19207E+00 -4.22840E+00 -5.22857E+00 -6.59103E+00 -7.50486E+00 -6.40370E+00
  -8.91196E+00 -8.09478E+00 -7.70513E+00 -8.99183E+00 -1.16788E+01 -1.07364E+01 -1.05336E+01 -1.08077E+01 -1.22265E+01 -1.15099E+01
  -1.23445E+01 -1.35044E+01 -1.46253E+01 -1.34585E+01 -1.54184E+01 -1.47898E+01 -1.64521E+01 -1.62815E+01 -1.56147E+01 -1.65155E+01
  -1.37549E+01 -1.63661E+01 -1.66977E+01 -1.66104E+01 -1.74280E+01 -1.52070E+01 -1.66413E+01 -1.80382E+01 -1.77187E+01 -1.79034E+01
  -1.88142E+01 -1.95515E+01 -1.86011E+01 -1.86472E+01 -1.96395E+01 -2.04013E+01 -1.88668E+01 -1.84321E+01 -1.90874E+01 -2.08680E+01
  -1.91975E+01 -1.89200E+01 -1.83175E+01 -1.75475E+01 -2.05015E+01 -1.91624E+01 -1.89768E+01 -1.91567E+01 -1.99057E+01 -1.92472E+01
  -1.92479E+01 -1.99019E+01 -1.86859E+01 -1.83241E+01 -1.78300E+01 -1.80319E+01 -1.64509E+01 -1.83160E+01 -1.61741E+01 -1.73197E+01
  -1.77612E+01 -1.62661E+01 -1.60039E+01 -1.41375E+01 -1.49687E+01 -1.53926E+01 -1.53990E+01 -1.38989E+01 -1.26392E+01 -1.34090E+01
  -1.15116E+01 -1.27553E+01 -1.11484E+01 -1.18940E+01 -1.08741E+01 -1.08542E+01 -9.19735E+00 -1.13844E+01 -8.70279E+00 -1.12157E+01
  -7.44802E+00 -9.08305E+00 -6.85130E+00 -7.76859E+00 -6.23360E+00 -6.73655E+00 -5.87411E+00 -4.49438E+00 -5.71758E+00 -3.51654E+00
  -3.10143E+00 -4.83655E+00 -3.75135E+00 -2.61435E+00 -2.53988E+00 -3.10574E+00 -2.24153E+00 -2.47507E+00 -1.94342E+00 -2.90152E+00
   9.49023E-02  9.93557E-01  2.72610E+00  1.05604E-01  1.74348E+00  2.37090E+00  1.71863E+00  1.27799E+00 -9.85781E-02  3.00242E+00
   3.71398E+00  4.21548E+00  2.90999E+00  2.95999E+00  3.93145E+00  4.59009E+00  4.85624E+00  4.69296E+00
 NY points of the fit to the data follow
   9.16528E-01  9.81975E-01  1.04235E+00  1.14680E+00  1.17525E+00  7.51523E-01  7.77679E-02 -4.92429E-01 -5.37481E-01  2.88072E-01
   1.42417E+00  1.79585E+00  1.25662E+00  7.61976E-01  7.28265E-01  8.26701E-01  8.96326E-01  9.24097E-01  8.76489E-01  7.81033E-01
   6.95735E-01  6.47266E-01  6.75067E-01  7.68828E-01  9.08096E-01  1.04147E+00  1.04488E+00  8.84678E-01  6.75285E-01  5.85837E-01
   6.25675E-01  6.94891E-01  7.62966E-01  8.55231E-01  9.44800E-01  9.40782E-01  8.59674E-01  7.82005E-01  7.56714E-01  7.93594E-01
   8.51077E-01  8.70044E-01  8.46308E-01  8.34093E-01  8.44851E-01  8.48286E-01  8.46591E-01  8.54280E-01  8.56866E-01  8.49012E-01
   8.44405E-01  8.45108E-01  8.45483E-01  8.56381E-01  8.79646E-01  8.96648E-01  9.02092E-01  9.02349E-01  8.98799E-01  8.96284E-01
   9.02446E-01  9.08717E-01  8.93894E-01  8.75886E-01  8.66641E-01  8.75584E-01  9.25140E-01  9.85176E-01  1.01292E+00  1.02559E+00
   1.02228E+00  9.41789E-01  8.29371E-01  7.66429E-01  7.80819E-01  9.17030E-01  1.14307E+00  1.26721E+00  1.18790E+00  1.04159E+00
   9.54694E-01  9.29548E-01  9.39282E-01  9.68326E-01  9.71006E-01  9.75417E-01  1.05345E+00  1.14708E+00  1.14520E+00  1.08296E+00
   1.08903E+00  1.19525E+00  1.33178E+00  1.39894E+00  1.31531E+00  1.17026E+00  1.13000E+00  1.25462E+00  1.38340E+00  1.06044E+00
   3.64568E-01 -3.01749E-01 -3.17543E-01  6.80191E-01  1.95444E+00  2.32453E+00  1.69386E+00  1.13143E+00  1.11929E+00  1.25835E+00
   1.29535E+00  1.28562E+00  1.28833E+00  1.30181E+00  1.31460E+00  1.32995E+00  1.35255E+00  1.38241E+00  1.42288E+00  1.48169E+00
   1.57810E+00  1.73282E+00  1.58870E+00  7.43255E-01 -3.01489E-01 -9.41175E-01 -5.28112E-01  1.08305E+00  2.61533E+00  2.64403E+00
   1.60137E+00  1.00983E+00  1.09602E+00  1.24214E+00  1.28268E+00  1.28049E+00  1.24920E+00  1.21188E+00  1.19727E+00  1.20957E+00
   1.24043E+00  1.26379E+00  1.25428E+00  1.23293E+00  1.23251E+00  1.26497E+00  1.31013E+00  1.33483E+00  1.32870E+00  1.32021E+00
   1.35015E+00  1.40270E+00  1.44531E+00  1.45341E+00  1.39969E+00  1.32458E+00  1.32779E+00  1.44466E+00  1.60179E+00  1.71018E+00
   1.68275E+00  1.52492E+00  1.39885E+00  1.41936E+00  1.55054E+00  1.69462E+00  1.77998E+00  1.77175E+00  1.71524E+00  1.65790E+00
   1.61133E+00  1.64840E+00  1.80757E+00  1.96112E+00  1.98317E+00  1.86908E+00  1.71942E+00  1.70105E+00  1.87777E+00  2.08861E+00
   2.11726E+00  1.97054E+00  1.83091E+00  1.84914E+00  1.99400E+00  2.11580E+00  2.08600E+00  1.93969E+00  1.85731E+00  1.94336E+00
   2.10334E+00  2.21916E+00  2.28177E+00  2.29830E+00  2.28130E+00  2.27021E+00  2.30685E+00  2.33359E+00  2.29052E+00  2.21188E+00
   2.17703E+00  2.20068E+00  2.25050E+00  2.33852E+00  2.48574E+00  2.67211E+00  2.84640E+00  2.92032E+00  2.87750E+00  2.73892E+00
   2.55998E+00  2.50175E+00  2.60876E+00  2.71758E+00  2.72565E+00  2.73970E+00  2.81773E+00  2.87644E+00  2.89321E+00  2.90613E+00
   2.92272E+00  2.93851E+00  2.95629E+00  2.98857E+00  3.03678E+00  3.07964E+00  3.12273E+00  3.17483E+00  3.22663E+00  3.26995E+00
   3.27769E+00  3.25345E+00  3.24553E+00  3.29276E+00  3.37946E+00  3.42739E+00  3.37573E+00  3.28324E+00  3.30116E+00  3.43416E+00
   3.57891E+00  3.66967E+00  3.65975E+00  3.56710E+00  3.51631E+00  3.57277E+00  3.64205E+00  3.66495E+00  3.68358E+00  3.74761E+00
   3.85207E+00  3.55701E+00  2.75959E+00  2.03709E+00  1.96615E+00  2.74337E+00  3.24352E+00  2.68186E+00  1.13501E+00  5.91422E-01
   2.82536E+00  5.82801E+00  6.41361E+00  4.69988E+00  3.46380E+00  3.57590E+00  3.92617E+00  4.04719E+00  4.09379E+00  4.13321E+00
   4.18051E+00  4.24770E+00  4.34192E+00  4.44956E+00  4.55293E+00  4.64669E+00  4.71720E+00  4.75539E+00  4.78353E+00  4.82559E+00
   4.87681E+00  4.91441E+00  4.94210E+00  4.97549E+00  5.00572E+00  5.01477E+00  5.00580E+00  4.98538E+00  4.94644E+00  4.88495E+00
   4.80806E+00  4.73120E+00  4.66752E+00  4.61070E+00  4.54417E+00  4.46799E+00  4.39450E+00  4.32709E+00  4.25930E+00  4.19287E+00
   4.14136E+00  4.11493E+00  4.10869E+00  4.11434E+00  4.13284E+00  4.16674E+00  4.21527E+00  4.27725E+00  4.35110E+00  4.43494E+00
   4.52665E+00  4.62397E+00  4.72461E+00  4.82608E+00  4.92582E+00  5.02154E+00  5.11137E+00  5.19342E+00  5.26563E+00  5.32573E+00
   5.36986E+00  5.38486E+00  5.31596E+00  5.17713E+00  5.15034E+00  5.30324E+00  5.61854E+00  5.93817E+00  5.96478E+00  5.67700E+00
   5.40735E+00  5.26575E+00  5.07864E+00  4.74072E+00  4.44824E+00  4.48370E+00  4.79296E+00  4.98308E+00  4.83154E+00  4.57515E+00
   4.41917E+00  4.27473E+00  3.95716E+00  3.57219E+00  3.45929E+00  3.71174E+00  4.27378E+00  4.77023E+00  4.66103E+00  4.03279E+00
   3.40313E+00  2.97950E+00  2.48597E+00  1.84833E+00  1.55764E+00  1.87990E+00  2.31131E+00  2.18548E+00  1.60714E+00  1.10928E+00
   7.82241E-01  4.58735E-01  1.00428E-01 -2.72648E-01 -6.55099E-01 -1.04362E+00 -1.43461E+00 -1.82456E+00 -2.21051E+00 -2.59044E+00
  -2.96342E+00 -3.32964E+00 -3.69055E+00 -4.04895E+00 -4.40914E+00 -4.77661E+00 -5.15766E+00 -5.55875E+00 -5.98595E+00 -6.44454E+00
  -6.93849E+00 -7.46999E+00 -8.03885E+00 -8.64228E+00 -9.27486E+00 -9.92878E+00 -1.05943E+01 -1.12603E+01 -1.19147E+01 -1.25451E+01
  -1.31400E+01 -1.36893E+01 -1.41850E+01 -1.46217E+01 -1.49966E+01 -1.53099E+01 -1.55644E+01 -1.57657E+01 -1.59214E+01 -1.60406E+01
  -1.61331E+01 -1.62091E+01 -1.62785E+01 -1.63504E+01 -1.64329E+01 -1.65325E+01 -1.66538E+01 -1.67997E+01 -1.69715E+01 -1.71689E+01
  -1.73901E+01 -1.76318E+01 -1.78900E+01 -1.81596E+01 -1.84352E+01 -1.87110E+01 -1.89811E+01 -1.92397E+01 -1.94812E+01 -1.97004E+01
  -1.98926E+01 -2.00537E+01 -2.01804E+01 -2.02697E+01 -2.03195E+01 -2.03285E+01 -2.02959E+01 -2.02218E+01 -2.01066E+01 -1.99512E+01
  -1.97573E+01 -1.95267E+01 -1.92617E+01 -1.89649E+01 -1.86388E+01 -1.82864E+01 -1.79105E+01 -1.75139E+01 -1.70996E+01 -1.66703E+01
  -1.62286E+01 -1.57769E+01 -1.53177E+01 -1.48530E+01 -1.43849E+01 -1.39151E+01 -1.34452E+01 -1.29764E+01 -1.25101E+01 -1.20474E+01
  -1.15891E+01 -1.11359E+01 -1.06885E+01 -1.02474E+01 -9.81292E+00 -9.38549E+00 -8.96530E+00 -8.55245E+00 -8.14702E+00 -7.74907E+00
  -7.35863E+00 -6.97566E+00 -6.60006E+00 -6.23167E+00 -5.87037E+00 -5.51605E+00 -5.16859E+00 -4.82781E+00 -4.49350E+00 -4.16544E+00
  -3.84348E+00 -3.52747E+00 -3.21725E+00 -2.91260E+00 -2.61331E+00 -2.31919E+00 -2.03011E+00 -1.74592E+00 -1.46646E+00 -1.19153E+00
  -9.20947E-01 -6.54570E-01 -3.92293E-01 -1.33995E-01  1.20470E-01  3.71282E-01  6.18576E-01  8.62452E-01  1.10299E+00  1.34028E+00
   1.57448E+00  1.80571E+00  2.03409E+00  2.25966E+00  2.48249E+00  2.70267E+00  2.92033E+00  3.13557E+00
 NY background values follow
    -2.902E+00   -2.911E+00   -2.920E+00   -2.930E+00   -2.939E+00   -2.948E+00   -2.957E+00   -2.965E+00   -2.974E+00   -2.983E+00
    -2.991E+00   -2.999E+00   -3.008E+00   -3.016E+00   -3.024E+00   -3.032E+00   -3.040E+00   -3.048E+00   -3.055E+00   -3.063E+00
    -3.070E+00   -3.078E+00   -3.085E+00   -3.092E+00   -3.099E+00   -3.106E+00   -3.113E+00   -3.120E+00   -3.127E+00   -3.133E+00
    -3.140E+00   -3.146E+00   -3.153E+00   -3.159E+00   -3.165E+00   -3.171E+00   -3.177E+00   -3.183E+00   -3.189E+00   -3.195E+00
    -3.201E+00   -3.207E+00   -3.212E+00   -3.218E+00   -3.223E+00   -3.228E+00   -3.234E+00   -3.239E+00   -3.244E+00   -3.249E+00
    -3.254E+00   -3.259E+00   -3.264E+00   -3.269E+00   -3.274E+00   -3.278E+00   -3.283E+00   -3.288E+00   -3.292E+00   -3.296E+00
    -3.301E+00   -3.305E+00   -3.309E+00   -3.314E+00   -3.318E+00   -3.322E+00   -3.326E+00   -3.330E+00   -3.334E+00   -3.338E+00
    -3.342E+00   -3.346E+00   -3.350E+00   -3.353E+00   -3.357E+00   -3.361E+00   -3.364E+00   -3.368E+00   -3.371E+00   -3.375E+00
    -3.378E+00   -3.382E+00   -3.385E+00   -3.389E+00   -3.392E+00   -3.395E+00   -3.399E+00   -3.402E+00   -3.405E+00   -3.408E+00
    -3.412E+00   -3.415E+00   -3.418E+00   -3.421E+00   -3.424E+00   -3.427E+00   -3.430E+00   -3.433E+00   -3.437E+00   -3.440E+00
    -3.443E+00   -3.446E+00   -3.449E+00   -3.452E+00   -3.455E+00   -3.457E+00   -3.460E+00   -3.463E+00   -3.466E+00   -3.469E+00
    -3.472E+00   -3.475E+00   -3.478E+00   -3.481E+00   -3.483E+00   -3.486E+00   -3.489E+00   -3.492E+00   -3.495E+00   -3.497E+00
    -3.500E+00   -3.503E+00   -3.506E+00   -3.508E+00   -3.511E+00   -3.514E+00   -3.516E+00   -3.519E+00   -3.522E+00   -3.524E+00
    -3.527E+00   -3.530E+00   -3.532E+00   -3.535E+00   -3.538E+00   -3.540E+00   -3.543E+00   -3.545E+00   -3.548E+00   -3.551E+00
    -3.553E+00   -3.556E+00   -3.558E+00   -3.561E+00   -3.563E+00   -3.566E+00   -3.568E+00   -3.571E+00   -3.573E+00   -3.575E+00
    -3.578E+00   -3.580E+00   -3.582E+00   -3.584E+00   -3.587E+00   -3.589E+00   -3.591E+00   -3.593E+00   -3.595E+00   -3.597E+00
    -3.599E+00   -3.601E+00   -3.602E+00   -3.604E+00   -3.606E+00   -3.607E+00   -3.609E+00   -3.610E+00   -3.612E+00   -3.613E+00
    -3.614E+00   -3.615E+00   -3.616E+00   -3.617E+00   -3.618E+00   -3.619E+00   -3.620E+00   -3.621E+00   -3.621E+00   -3.622E+00
    -3.622E+00   -3.622E+00   -3.622E+00   -3.622E+00   -3.622E+00   -3.622E+00   -3.622E+00   -3.621E+00   -3.620E+00   -3.620E+00
    -3.619E+00   -3.618E+00   -3.617E+00   -3.616E+00   -3.614E+00   -3.613E+00   -3.611E+00   -3.609E+00   -3.607E+00   -3.605E+00
    -3.603E+00   -3.600E+00   -3.597E+00   -3.595E+00   -3.592E+00   -3.589E+00   -3.585E+00   -3.582E+00   -3.578E+00   -3.574E+00
    -3.570E+00   -3.566E+00   -3.561E+00   -3.556E+00   -3.552E+00   -3.547E+00   -3.541E+00   -3.536E+00   -3.530E+00   -3.524E+00
    -3.518E+00   -3.511E+00   -3.505E+00   -3.498E+00   -3.491E+00   -3.483E+00   -3.476E+00   -3.468E+00   -3.460E+00   -3.451E+00
    -3.443E+00   -3.434E+00   -3.424E+00   -3.415E+00   -3.405E+00   -3.395E+00   -3.385E+00   -3.375E+00   -3.364E+00   -3.353E+00
    -3.342E+00   -3.330E+00   -3.319E+00   -3.307E+00   -3.294E+00   -3.282E+00   -3.269E+00   -3.256E+00   -3.243E+00   -3.229E+00
    -3.215E+00   -3.201E+00   -3.187E+00   -3.172E+00   -3.157E+00   -3.142E+00   -3.126E+00   -3.110E+00   -3.094E+00   -3.078E+00
    -3.062E+00   -3.045E+00   -3.027E+00   -3.010E+00   -2.992E+00   -2.974E+00   -2.956E+00   -2.938E+00   -2.919E+00   -2.900E+00
    -2.880E+00   -2.861E+00   -2.841E+00   -2.820E+00   -2.800E+00   -2.779E+00   -2.758E+00   -2.737E+00   -2.715E+00   -2.693E+00
    -2.671E+00   -2.648E+00   -2.625E+00   -2.602E+00   -2.579E+00   -2.555E+00   -2.531E+00   -2.507E+00   -2.482E+00   -2.457E+00
    -2.432E+00   -2.406E+00   -2.380E+00   -2.354E+00   -2.328E+00   -2.301E+00   -2.274E+00   -2.246E+00   -2.219E+00   -2.191E+00
    -2.162E+00   -2.133E+00   -2.104E+00   -2.075E+00   -2.045E+00   -2.015E+00   -1.985E+00   -1.954E+00   -1.923E+00   -1.892E+00
    -1.860E+00   -1.828E+00   -1.796E+00   -1.763E+00   -1.730E+00   -1.696E+00   -1.663E+00   -1.629E+00   -1.594E+00   -1.559E+00
    -1.524E+00   -1.489E+00   -1.453E+00   -1.417E+00   -1.380E+00   -1.343E+00   -1.306E+00   -1.269E+00   -1.231E+00   -1.192E+00
    -1.154E+00   -1.115E+00   -1.076E+00   -1.036E+00   -9.959E-01   -9.556E-01   -9.149E-01   -8.738E-01   -8.325E-01   -7.907E-01
    -7.487E-01   -7.063E-01   -6.635E-01   -6.204E-01   -5.770E-01   -5.332E-01   -4.890E-01   -4.446E-01   -3.997E-01   -3.546E-01
    -3.090E-01   -2.632E-01   -2.170E-01   -1.705E-01   -1.236E-01   -7.635E-02   -2.878E-02    1.913E-02    6.738E-02    1.160E-01
     1.649E-01    2.142E-01    2.638E-01    3.137E-01    3.640E-01    4.147E-01    4.657E-01    5.170E-01    5.687E-01    6.207E-01
     6.731E-01    7.258E-01    7.789E-01    8.324E-01    8.862E-01    9.404E-01    9.949E-01    1.050E+00    1.105E+00    1.161E+00
     1.217E+00    1.273E+00    1.330E+00    1.387E+00    1.445E+00    1.502E+00    1.561E+00    1.619E+00    1.678E+00    1.738E+00
     1.798E+00    1.858E+00    1.919E+00    1.980E+00    2.041E+00    2.103E+00    2.165E+00    2.228E+00    2.291E+00    2.354E+00
     2.418E+00    2.482E+00    2.547E+00    2.612E+00    2.677E+00    2.743E+00    2.810E+00    2.876E+00    2.943E+00    3.011E+00
     3.079E+00    3.148E+00    3.216E+00    3.286E+00    3.355E+00    3.426E+00    3.496E+00    3.567E+00    3.639E+00    3.711E+00
     3.783E+00    3.856E+00    3.929E+00    4.003E+00    4.077E+00    4.152E+00    4.227E+00    4.302E+00    4.378E+00    4.455E+00
     4.531E+00    4.609E+00    4.686E+00    4.765E+00    4.843E+00    4.923E+00    5.002E+00    5.082E+00    5.163E+00    5.244E+00
     5.326E+00    5.407E+00    5.490E+00    5.573E+00    5.656E+00    5.740E+00    5.825E+00    5.909E+00    5.995E+00    6.081E+00
     6.167E+00    6.254E+00    6.341E+00    6.429E+00    6.517E+00    6.606E+00    6.695E+00    6.785E+00    6.875E+00    6.965E+00
     7.056E+00    7.148E+00    7.240E+00    7.332E+00    7.425E+00    7.518E+00    7.612E+00    7.706E+00    7.800E+00    7.895E+00
     7.990E+00    8.085E+00    8.181E+00    8.277E+00    8.374E+00    8.471E+00    8.568E+00    8.665E+00    8.763E+00    8.861E+00
     8.960E+00    9.059E+00    9.158E+00    9.257E+00    9.357E+00    9.457E+00    9.557E+00    9.657E+00    9.758E+00    9.859E+00
     9.960E+00    1.006E+01    1.016E+01    1.026E+01    1.037E+01    1.047E+01    1.057E+01    1.067E+01
 Ala      Conc. = 2.02E+00
