 LCModel (Version 6.3-1L) Copyright: S.W. Provencher.          Ref.: Magn. Reson. Med. 30:672-679 (1993).                
 Slice#1 Row#11 Col#13  PD_24_press_1_raw_act
 36 lines in following concentration table = NCONC+1
    Conc.  %SD /Cr+PCr  Metabolite                                         
   30.901 177%   0.000 Ala                                                 
    4.531  86%   0.000 Asp                                                 
    0.000 999%   0.000 Cr                                                  
    0.000 999%   0.000 PCr                                                 
    2.693  87%   0.000 GABA                                                
    2.707  86%   0.000 Glc                                                 
  100.421 103%   0.000 Gln                                                 
   94.416 126%   0.000 Glu                                                 
   12.478 332%   0.000 GPC                                                 
    0.828 999%   0.000 PCh                                                 
   54.124  51%   0.000 GSH                                                 
    0.000 999%   0.000 Ins                                                 
    0.000 999%   0.000 Lac                                                 
   40.069  66%   0.000 NAA                                                 
   11.134 241%   0.000 NAAG                                                
    0.998  78%   0.000 Scyllo                                              
    4.459  87%   0.000 Tau                                                 
    0.141 999%   0.000 -CrCH2                                              
   13.306  52%   0.000 GPC+PCh                                             
   51.203  52%   0.000 NAA+NAAG                                            
    0.000 999%   0.000 Cr+PCr                                              
  194.837  93%   0.000 Glu+Gln                                             
 4.92E+03  18%   0.000 Lip13a                                              
   96.211  80%   0.000 Lip13b                                              
 2.29E+03  16%   0.000 Lip09                                               
    0.000 999%   0.000 MM09                                                
  596.126  35%   0.000 Lip20                                               
    0.000 999%   0.000 MM20                                                
 1.42E+03  20%   0.000+MM12                                                
  674.634  40%   0.000 MM14                                                
 1.10E+03  25%   0.000 MM17                                                
 5.01E+03  17%   0.000 Lip13a+Lip13b                                       
 7.11E+03  10%   0.000 MM14+Lip13a+Lip13b+MM12                             
 2.29E+03  16%   0.000 MM09+Lip09                                          
  596.126  35%   0.000 MM20+Lip20                                          
   6 lines in following misc. output table
  FWHM = 0.076 ppm    S/N =   7                                            
  Data shift =-0.084 ppm                                                   
  Ph: 107 deg     -37.4 deg/ppm                                            
  alphaB,S = 9.4E-01,   6.3E+00                                            
   14 spline knots.   Ns = 5(1)                                            
  (11) 5 infls.   ( 9) 3 extrs.                                            
  498 points on ppm-axis = NY
      4.000000     3.992357     3.984714     3.977070     3.969427     3.961784     3.954141     3.946497     3.938854     3.931211
      3.923568     3.915925     3.908281     3.900638     3.892995     3.885352     3.877708     3.870065     3.862422     3.854779
      3.847136     3.839492     3.831849     3.824206     3.816563     3.808919     3.801276     3.793633     3.785990     3.778347
      3.770703     3.763060     3.755417     3.747774     3.740130     3.732487     3.724844     3.717201     3.709558     3.701914
      3.694271     3.686628     3.678985     3.671341     3.663698     3.656055     3.648412     3.640769     3.633125     3.625482
      3.617839     3.610196     3.602552     3.594909     3.587266     3.579623     3.571980     3.564336     3.556693     3.549050
      3.541407     3.533763     3.526120     3.518477     3.510834     3.503191     3.495547     3.487904     3.480261     3.472618
      3.464974     3.457331     3.449688     3.442045     3.434402     3.426758     3.419115     3.411472     3.403829     3.396185
      3.388542     3.380899     3.373256     3.365613     3.357969     3.350326     3.342683     3.335040     3.327396     3.319753
      3.312110     3.304467     3.296824     3.289180     3.281537     3.273894     3.266251     3.258607     3.250964     3.243321
      3.235678     3.228034     3.220391     3.212748     3.205105     3.197462     3.189818     3.182175     3.174532     3.166889
      3.159245     3.151602     3.143959     3.136316     3.128673     3.121029     3.113386     3.105743     3.098100     3.090456
      3.082813     3.075170     3.067527     3.059884     3.052240     3.044597     3.036954     3.029311     3.021667     3.014024
      3.006381     2.998738     2.991095     2.983451     2.975808     2.968165     2.960522     2.952878     2.945235     2.937592
      2.929949     2.922306     2.914662     2.907019     2.899376     2.891733     2.884089     2.876446     2.868803     2.861160
      2.853517     2.845873     2.838230     2.830587     2.822944     2.815300     2.807657     2.800014     2.792371     2.784728
      2.777084     2.769441     2.761798     2.754155     2.746511     2.738868     2.731225     2.723582     2.715939     2.708295
      2.700652     2.693009     2.685366     2.677722     2.670079     2.662436     2.654793     2.647150     2.639506     2.631863
      2.624220     2.616577     2.608933     2.601290     2.593647     2.586004     2.578361     2.570717     2.563074     2.555431
      2.547788     2.540144     2.532501     2.524858     2.517215     2.509572     2.501928     2.494285     2.486642     2.478999
      2.471355     2.463712     2.456069     2.448426     2.440783     2.433139     2.425496     2.417853     2.410210     2.402566
      2.394923     2.387280     2.379637     2.371994     2.364350     2.356707     2.349064     2.341421     2.333777     2.326134
      2.318491     2.310848     2.303205     2.295561     2.287918     2.280275     2.272632     2.264988     2.257345     2.249702
      2.242059     2.234416     2.226772     2.219129     2.211486     2.203843     2.196199     2.188556     2.180913     2.173270
      2.165627     2.157983     2.150340     2.142697     2.135054     2.127410     2.119767     2.112124     2.104481     2.096838
      2.089194     2.081551     2.073908     2.066265     2.058621     2.050978     2.043335     2.035692     2.028049     2.020405
      2.012762     2.005119     1.997476     1.989833     1.982190     1.974546     1.966903     1.959260     1.951617     1.943974
      1.936331     1.928688     1.921045     1.913402     1.905759     1.898115     1.890472     1.882829     1.875186     1.867543
      1.859900     1.852257     1.844614     1.836971     1.829327     1.821684     1.814041     1.806398     1.798755     1.791112
      1.783469     1.775826     1.768183     1.760540     1.752896     1.745253     1.737610     1.729967     1.722324     1.714681
      1.707038     1.699395     1.691752     1.684108     1.676465     1.668822     1.661179     1.653536     1.645893     1.638250
      1.630607     1.622964     1.615321     1.607677     1.600034     1.592391     1.584748     1.577105     1.569462     1.561819
      1.554176     1.546533     1.538890     1.531246     1.523603     1.515960     1.508317     1.500674     1.493031     1.485388
      1.477745     1.470102     1.462458     1.454815     1.447172     1.439529     1.431886     1.424243     1.416600     1.408957
      1.401314     1.393671     1.386027     1.378384     1.370741     1.363098     1.355455     1.347812     1.340169     1.332526
      1.324883     1.317240     1.309596     1.301953     1.294310     1.286667     1.279024     1.271381     1.263738     1.256095
      1.248452     1.240808     1.233165     1.225522     1.217879     1.210236     1.202593     1.194950     1.187307     1.179664
      1.172021     1.164377     1.156734     1.149091     1.141448     1.133805     1.126162     1.118519     1.110876     1.103233
      1.095590     1.087946     1.080303     1.072660     1.065017     1.057374     1.049731     1.042088     1.034445     1.026802
      1.019158     1.011515     1.003872     0.996229     0.988586     0.980943     0.973300     0.965657     0.958014     0.950371
      0.942727     0.935084     0.927441     0.919798     0.912155     0.904512     0.896869     0.889226     0.881583     0.873940
      0.866296     0.858653     0.851010     0.843367     0.835724     0.828081     0.820438     0.812795     0.805152     0.797508
      0.789865     0.782222     0.774579     0.766936     0.759293     0.751650     0.744007     0.736364     0.728721     0.721077
      0.713434     0.705791     0.698148     0.690505     0.682862     0.675219     0.667576     0.659933     0.652290     0.644646
      0.637003     0.629360     0.621717     0.614074     0.606431     0.598788     0.591145     0.583502     0.575858     0.568215
      0.560572     0.552929     0.545286     0.537643     0.530000     0.522357     0.514714     0.507071     0.499427     0.491784
      0.484141     0.476498     0.468855     0.461212     0.453569     0.445925     0.438282     0.430639     0.422996     0.415353
      0.407710     0.400067     0.392424     0.384780     0.377137     0.369494     0.361851     0.354208     0.346565     0.338922
      0.331278     0.323635     0.315992     0.308349     0.300706     0.293063     0.285420     0.277777     0.270133     0.262490
      0.254847     0.247204     0.239561     0.231918     0.224275     0.216631     0.208988     0.201345
 NY phased data points follow
  -2.64880E+00 -2.64891E+00 -4.86769E+00 -2.62076E+00 -5.01327E+00 -3.69195E+00 -2.34880E+00 -3.19929E+00 -3.28544E+00 -1.69600E+00
  -3.75079E+00 -2.02636E+00 -2.26587E-01 -2.29274E+00 -4.34697E+00 -3.29301E+00 -1.82919E+00 -3.30814E+00 -6.48214E-01 -2.31567E+00
  -1.71162E+00 -2.17899E+00 -3.23280E+00 -4.08039E+00 -2.29474E+00 -1.99534E+00 -2.01758E+00 -1.24718E+00 -7.05415E-01 -2.46670E+00
  -1.10715E+00 -1.78298E+00 -6.54860E-01 -1.52100E+00 -2.29750E-01 -1.63362E+00 -1.85995E+00 -2.56781E+00 -1.69667E+00  5.59722E-01
  -8.48013E-01 -7.91018E-01 -1.91047E+00 -1.03203E+00 -1.48721E+00 -1.56901E+00 -2.26465E+00 -1.79022E+00 -4.66857E-01 -2.87360E-01
  -1.46758E+00 -1.23879E+00 -1.39278E+00  1.28050E+00 -5.59201E+00 -8.44948E-01  1.22505E-01 -2.11408E+00  2.71745E-01 -2.68854E+00
  -2.02436E+00 -1.27485E+00 -1.73236E+00 -1.07374E-01 -1.88359E+00 -2.27339E+00 -1.68163E+00 -1.61812E+00 -1.52715E+00 -3.74958E+00
  -3.99605E-01 -1.32642E+00 -7.93344E-01 -2.08331E+00 -1.59209E+00  3.86539E-02 -6.11695E-01 -1.44186E+00 -8.36204E-01 -2.67927E+00
  -4.34525E-01 -1.95887E+00  1.97703E+00 -1.10813E+00  1.27631E+00 -1.41583E+00 -1.35076E+00 -1.16829E+00  1.49090E+00 -1.43517E+00
   6.41356E-01  6.73381E-02 -5.43210E-04  3.17313E-01 -1.12977E+00 -4.72619E-01 -4.28832E-01  4.64918E-01 -2.16936E-01  1.12567E-01
   8.11144E-01  5.82861E-01  9.74621E-01 -2.41652E-01 -7.79039E-01  4.14937E-01  6.12737E-01 -2.84511E-01  2.30615E+00 -4.85769E-01
   8.53159E-01 -7.95210E-03  4.58662E-01 -2.14926E+00  1.91330E+00 -1.00901E+00 -1.20214E+00 -2.58223E+00 -9.89062E-01  1.22420E+00
  -1.52245E+00  7.50125E-01 -1.11497E+00 -1.60933E+00  1.00028E+00  1.21876E-01  1.07790E+00  2.51902E-02  2.21860E-01  1.40295E+00
   1.82261E+00 -5.40471E-01 -1.24236E+00 -1.31959E-01  1.20735E+00  7.02848E-01  1.24558E+00  9.01964E-02 -1.79637E-01  1.93180E+00
   1.82633E+00 -7.92969E-01  1.56997E+00  1.28713E-01  1.31799E+00  1.47304E+00  7.96985E-01  2.32728E+00  1.57818E+00  1.43762E+00
   1.34030E+00  1.49843E+00 -9.66980E-02  1.09909E+00  3.20354E-01  1.83739E-01  1.13727E+00 -1.42716E-01  2.01464E+00  2.08130E+00
   1.79906E+00  5.55167E-01  1.13145E+00  1.97484E+00  1.64320E+00  1.22249E+00  2.00528E+00  3.15214E+00 -3.59157E-01  2.24242E-01
   8.54621E-02  1.33798E-01  6.44573E-01  2.03931E-01  1.28315E+00  6.16773E-01  6.42503E-01  1.00997E+00  1.71460E+00  1.90969E+00
   1.08037E+00 -3.41640E-01  1.81824E+00  7.96605E-01  1.19190E+00 -5.56103E-01  2.45540E+00 -1.00328E+00  1.92855E+00  3.81112E-02
   1.91380E+00  1.73100E+00  3.23069E+00  4.64228E-01  1.51642E+00  1.13903E+00  1.39356E+00  1.70842E+00  2.33291E+00  3.26094E+00
   3.36782E+00  1.93215E+00  2.67717E+00  3.15046E+00  3.43975E+00  1.88260E+00  1.79863E+00  1.51949E+00  3.27109E+00  1.71052E+00
   4.63792E+00  7.13554E-01  7.25214E-01 -1.29956E+00  2.14969E+00 -1.32601E+00  1.63226E+00  3.18583E+00  1.79420E+00  1.75879E+00
   1.09039E+00  1.25764E+00  1.82411E+00  2.96045E+00  1.52455E+00  3.16825E+00  2.36741E+00  1.45369E+00  2.19186E+00  3.43295E+00
   3.22949E+00  1.95497E+00  5.24967E+00  3.32545E+00  4.25728E+00  2.86029E+00  1.68199E+00  8.27027E-01  2.01346E+00  3.33383E+00
   2.90965E+00  1.97371E+00  2.87159E+00  3.06698E+00  4.35518E-01  1.85263E+00  1.89612E+00  2.88567E+00  2.00535E+00  1.55488E+00
   4.07771E+00  3.92507E+00  2.28448E+00  3.51368E+00  4.08647E+00  3.31792E+00  4.88034E+00  2.57889E+00  4.22939E+00  6.12386E+00
   3.95334E+00  3.25916E+00  4.62451E+00  4.19198E+00  4.40448E+00  2.83548E+00  5.62454E+00  3.84342E+00  6.48103E+00  4.10965E+00
   2.53649E+00  1.46669E+00  3.44829E+00  5.41051E+00  5.42522E+00  3.20440E+00  2.70170E+00  3.85532E+00  3.47736E+00  4.75641E+00
   4.61313E+00  3.99768E+00  6.95736E+00  5.50439E+00  4.42901E+00  5.78398E+00  5.39026E+00  3.15163E+00  5.00812E+00  2.84981E+00
   2.88252E+00  4.34654E+00  6.21545E+00  6.36288E+00  4.94835E+00  4.55534E+00  7.95184E+00  5.43098E+00  4.85113E+00  4.29579E+00
   4.97175E+00  8.08662E+00  5.96023E+00  6.47991E+00  7.02224E+00  8.97297E+00  6.87638E+00  6.61690E+00  7.39760E+00  5.87120E+00
   5.39550E+00  6.40386E+00  7.97745E+00  6.80082E+00  8.59139E+00  7.45413E+00  8.42325E+00  7.58438E+00  8.71479E+00  8.19481E+00
   9.24714E+00  8.34217E+00  7.43427E+00  9.54953E+00  9.75586E+00  9.23316E+00  8.65333E+00  1.08429E+01  8.93314E+00  8.63365E+00
   9.74250E+00  9.80724E+00  8.32692E+00  1.03519E+01  9.39844E+00  1.02641E+01  8.49576E+00  1.03036E+01  1.11432E+01  9.39890E+00
   8.87456E+00  1.19834E+01  1.04689E+01  1.07977E+01  1.13234E+01  1.19295E+01  1.15407E+01  1.30877E+01  1.38121E+01  1.30991E+01
   1.38337E+01  1.49540E+01  1.54104E+01  1.49654E+01  1.47365E+01  1.57654E+01  1.66582E+01  1.59155E+01  1.70863E+01  1.82637E+01
   1.76150E+01  1.69627E+01  1.77181E+01  1.56951E+01  1.82519E+01  1.70987E+01  1.80752E+01  1.65708E+01  1.65481E+01  1.87142E+01
   1.95182E+01  1.71949E+01  1.90701E+01  1.87930E+01  1.95952E+01  1.73295E+01  2.00943E+01  1.78911E+01  1.69964E+01  1.72732E+01
   1.79408E+01  1.71322E+01  1.66282E+01  1.47724E+01  1.47607E+01  1.58857E+01  1.59889E+01  1.32116E+01  1.37660E+01  1.32654E+01
   1.34908E+01  1.13701E+01  1.34400E+01  1.04480E+01  1.13431E+01  1.20564E+01  1.27098E+01  8.86670E+00  8.98737E+00  9.19901E+00
   1.05295E+01  9.46343E+00  9.27065E+00  9.08455E+00  6.66119E+00  7.60428E+00  7.56496E+00  6.71755E+00  6.35720E+00  6.59172E+00
   5.31567E+00  7.19186E+00  4.37625E+00  6.30201E+00  6.00114E+00  6.15652E+00  6.08921E+00  4.62395E+00  4.90932E+00  5.09588E+00
   5.16802E+00  5.53898E+00  4.65552E+00  4.39121E+00  3.95110E+00  2.45680E+00  3.27539E+00  2.91264E+00  1.23506E+00  1.25160E+00
   2.16640E+00  3.09416E+00  3.84229E-01  1.19514E+00  2.42868E+00  2.08760E+00  2.53779E+00  1.46331E+00  7.49921E-01  1.10988E+00
   4.77024E-01  1.20746E+00 -1.29361E-01 -2.24815E+00 -1.73188E+00 -3.24478E-01 -4.90189E+00 -1.72488E+00 -2.34252E+00 -6.76835E-01
  -2.16467E+00 -2.64202E+00 -3.24116E+00 -4.01954E+00 -4.67812E+00 -4.30153E+00 -2.50830E+00 -3.41001E+00 -4.11930E+00 -5.01304E+00
  -3.69740E+00 -3.67238E+00 -4.53867E+00 -4.42253E+00 -3.98311E+00 -3.62000E+00 -4.82775E+00 -4.46461E+00 -4.79564E+00 -5.05782E+00
  -3.15151E+00 -4.97423E+00 -5.59802E+00 -5.82709E+00 -4.89402E+00 -6.49189E+00 -7.23268E+00 -5.68234E+00 -3.75389E+00 -4.91299E+00
  -5.23114E+00 -6.46168E+00 -7.59483E+00 -6.20511E+00 -6.27203E+00 -5.24817E+00 -6.10440E+00 -6.19104E+00 -5.70252E+00 -5.13386E+00
  -3.81631E+00 -4.56385E+00 -4.74428E+00 -6.95382E+00 -5.79559E+00 -5.55516E+00 -5.82963E+00 -6.29362E+00
 NY points of the fit to the data follow
  -2.93621E+00 -2.90213E+00 -2.86540E+00 -2.82868E+00 -2.79432E+00 -2.76567E+00 -2.73900E+00 -2.70701E+00 -2.66848E+00 -2.62775E+00
  -2.58952E+00 -2.55865E+00 -2.53293E+00 -2.51068E+00 -2.48768E+00 -2.46303E+00 -2.42426E+00 -2.36357E+00 -2.29931E+00 -2.25318E+00
  -2.20115E+00 -2.18024E+00 -2.21027E+00 -2.26676E+00 -2.25239E+00 -2.00152E+00 -1.64874E+00 -1.24704E+00 -1.05187E+00 -1.18820E+00
  -1.32847E+00 -1.33773E+00 -1.26912E+00 -1.16094E+00 -9.06305E-01 -8.03846E-01 -1.13058E+00 -1.29892E+00 -1.45376E+00 -1.70683E+00
  -1.88960E+00 -1.91665E+00 -1.82675E+00 -1.72148E+00 -1.57596E+00 -1.49911E+00 -1.51745E+00 -1.51053E+00 -1.49505E+00 -1.50683E+00
  -1.51535E+00 -1.50193E+00 -1.49271E+00 -1.48393E+00 -1.46028E+00 -1.43741E+00 -1.43041E+00 -1.42251E+00 -1.41045E+00 -1.39589E+00
  -1.37988E+00 -1.36441E+00 -1.34663E+00 -1.32720E+00 -1.30578E+00 -1.28631E+00 -1.26859E+00 -1.24891E+00 -1.22712E+00 -1.20484E+00
  -1.17855E+00 -1.14959E+00 -1.12536E+00 -1.10367E+00 -1.08465E+00 -1.07372E+00 -1.05691E+00 -1.02903E+00 -1.00021E+00 -9.73158E-01
  -9.45279E-01 -9.20371E-01 -8.98867E-01 -8.71677E-01 -8.44270E-01 -8.28076E-01 -8.13787E-01 -7.86387E-01 -7.53654E-01 -7.28254E-01
  -7.08548E-01 -6.95978E-01 -7.00588E-01 -6.98247E-01 -6.73927E-01 -6.46161E-01 -6.13064E-01 -5.27913E-01 -2.53924E-01  8.43741E-02
   3.70152E-01  4.90449E-01  3.32855E-01  1.53653E-01  2.51509E-01  5.10578E-01  6.93397E-01  8.08762E-01  7.50436E-01  2.97485E-01
  -5.46727E-02 -1.35663E-01 -1.48298E-01 -1.41352E-01 -1.30902E-01 -1.21103E-01 -1.10763E-01 -1.00259E-01 -8.48504E-02 -5.66269E-02
  -1.98584E-02  1.21428E-02  4.14287E-02  6.69880E-02  8.55814E-02  1.16196E-01  1.73771E-01  2.45869E-01  3.47713E-01  4.65718E-01
   5.28582E-01  5.19543E-01  4.45780E-01  3.55989E-01  3.73856E-01  4.98321E-01  6.39678E-01  7.59444E-01  8.04397E-01  7.24872E-01
   6.17370E-01  6.41110E-01  7.57207E-01  9.23074E-01  1.10036E+00  1.20228E+00  1.24597E+00  1.23822E+00  1.19493E+00  1.18927E+00
   1.20291E+00  1.22758E+00  1.25544E+00  1.29119E+00  1.32693E+00  1.34195E+00  1.34359E+00  1.34380E+00  1.34926E+00  1.36335E+00
   1.39797E+00  1.43407E+00  1.43822E+00  1.42044E+00  1.39435E+00  1.36942E+00  1.36107E+00  1.36964E+00  1.37570E+00  1.37148E+00
   1.35186E+00  1.30803E+00  1.26457E+00  1.23813E+00  1.22528E+00  1.22532E+00  1.21920E+00  1.18776E+00  1.14124E+00  1.10562E+00
   1.08086E+00  1.06981E+00  1.06050E+00  1.04416E+00  1.04042E+00  1.07889E+00  1.15178E+00  1.24142E+00  1.30120E+00  1.28650E+00
   1.22387E+00  1.16853E+00  1.12344E+00  1.11008E+00  1.13207E+00  1.15484E+00  1.20576E+00  1.26718E+00  1.26718E+00  1.24850E+00
   1.29603E+00  1.35970E+00  1.44704E+00  1.60845E+00  1.71948E+00  1.60290E+00  1.46078E+00  1.38849E+00  1.35661E+00  1.46270E+00
   1.60374E+00  1.59462E+00  1.51698E+00  1.55301E+00  1.60477E+00  1.64806E+00  1.90080E+00  2.12049E+00  2.14840E+00  2.14839E+00
   2.19009E+00  2.23950E+00  2.19048E+00  2.11856E+00  2.05424E+00  2.02458E+00  2.03817E+00  2.09233E+00  2.26307E+00  2.49099E+00
   2.63882E+00  2.67778E+00  2.69386E+00  2.66918E+00  2.64923E+00  2.68310E+00  2.70607E+00  2.71741E+00  2.71379E+00  2.70758E+00
   2.65182E+00  2.63539E+00  2.79604E+00  2.88877E+00  2.79430E+00  2.70659E+00  2.68974E+00  2.65735E+00  2.68014E+00  2.90130E+00
   3.11426E+00  3.27425E+00  3.39637E+00  3.49582E+00  3.53498E+00  3.66340E+00  3.99875E+00  4.37450E+00  4.67784E+00  4.65480E+00
   4.38048E+00  4.22522E+00  4.26226E+00  4.35880E+00  4.45198E+00  4.50545E+00  4.18544E+00  3.62249E+00  3.39115E+00  3.31068E+00
   3.25453E+00  3.22857E+00  3.22658E+00  3.20975E+00  3.20066E+00  3.21253E+00  3.24291E+00  3.28752E+00  3.34689E+00  3.41046E+00
   3.47453E+00  3.54730E+00  3.63200E+00  3.73089E+00  3.84452E+00  3.97111E+00  4.11194E+00  4.26898E+00  4.43545E+00  4.60835E+00
   4.78754E+00  4.97200E+00  5.15810E+00  5.34566E+00  5.53381E+00  5.71936E+00  5.89945E+00  6.07268E+00  6.23569E+00  6.38650E+00
   6.52415E+00  6.64781E+00  6.75704E+00  6.85166E+00  6.93266E+00  7.00166E+00  7.05893E+00  7.10616E+00  7.14598E+00  7.18070E+00
   7.21329E+00  7.24680E+00  7.28389E+00  7.32728E+00  7.37934E+00  7.44217E+00  7.51754E+00  7.60695E+00  7.71173E+00  7.83349E+00
   7.97541E+00  8.14680E+00  8.36653E+00  8.57657E+00  8.71577E+00  8.79314E+00  8.80845E+00  8.85971E+00  9.02148E+00  9.19401E+00
   9.31473E+00  9.46167E+00  9.60396E+00  9.69018E+00  9.79657E+00  9.93550E+00  1.00664E+01  1.02818E+01  1.05468E+01  1.08243E+01
   1.11357E+01  1.13525E+01  1.14224E+01  1.15482E+01  1.17370E+01  1.19711E+01  1.22474E+01  1.25663E+01  1.29275E+01  1.33280E+01
   1.37610E+01  1.42154E+01  1.46768E+01  1.51288E+01  1.55558E+01  1.59448E+01  1.62882E+01  1.65845E+01  1.68385E+01  1.70591E+01
   1.72581E+01  1.74464E+01  1.76327E+01  1.78214E+01  1.80121E+01  1.82005E+01  1.83787E+01  1.85372E+01  1.86657E+01  1.87547E+01
   1.87960E+01  1.87833E+01  1.87126E+01  1.85822E+01  1.83927E+01  1.81465E+01  1.78481E+01  1.75035E+01  1.71198E+01  1.67051E+01
   1.62680E+01  1.58171E+01  1.53607E+01  1.49066E+01  1.44619E+01  1.40322E+01  1.36223E+01  1.32354E+01  1.28737E+01  1.25378E+01
   1.22275E+01  1.19415E+01  1.16776E+01  1.14330E+01  1.12046E+01  1.09888E+01  1.07821E+01  1.05808E+01  1.03816E+01  1.01813E+01
   9.97697E+00  9.76636E+00  9.54742E+00  9.31863E+00  9.07890E+00  8.82762E+00  8.56456E+00  8.28989E+00  8.00412E+00  7.70802E+00
   7.40265E+00  7.08924E+00  6.76917E+00  6.44388E+00  6.11487E+00  5.78365E+00  5.45170E+00  5.12043E+00  4.79115E+00  4.46507E+00
   4.14327E+00  3.82671E+00  3.51621E+00  3.21247E+00  2.91604E+00  2.62734E+00  2.34669E+00  2.07430E+00  1.81029E+00  1.55469E+00
   1.30746E+00  1.06850E+00  8.37635E-01  6.14691E-01  3.99442E-01  1.91637E-01 -9.00046E-03 -2.02756E-01 -3.89919E-01 -5.70771E-01
  -7.45603E-01 -9.14700E-01 -1.07835E+00 -1.23683E+00 -1.39039E+00 -1.53929E+00 -1.68377E+00 -1.82406E+00 -1.96039E+00 -2.09297E+00
  -2.22199E+00 -2.34764E+00 -2.47009E+00 -2.58952E+00 -2.70609E+00 -2.81996E+00 -2.93124E+00 -3.04008E+00 -3.14660E+00 -3.25092E+00
  -3.35316E+00 -3.45342E+00 -3.55178E+00 -3.64834E+00 -3.74320E+00 -3.83644E+00 -3.92813E+00 -4.01834E+00 -4.10714E+00 -4.19459E+00
  -4.28075E+00 -4.36570E+00 -4.44947E+00 -4.53212E+00 -4.61368E+00 -4.69422E+00 -4.77377E+00 -4.85238E+00 -4.93008E+00 -5.00690E+00
  -5.08288E+00 -5.15806E+00 -5.23246E+00 -5.30612E+00 -5.37906E+00 -5.45130E+00 -5.52287E+00 -5.59380E+00 -5.66411E+00 -5.73381E+00
  -5.80293E+00 -5.87148E+00 -5.93949E+00 -6.00697E+00 -6.07394E+00 -6.14042E+00 -6.20640E+00 -6.27191E+00
 NY background values follow
    -2.646E+00   -2.621E+00   -2.596E+00   -2.571E+00   -2.546E+00   -2.521E+00   -2.496E+00   -2.471E+00   -2.446E+00   -2.421E+00
    -2.396E+00   -2.371E+00   -2.346E+00   -2.322E+00   -2.297E+00   -2.272E+00   -2.247E+00   -2.222E+00   -2.197E+00   -2.172E+00
    -2.147E+00   -2.122E+00   -2.098E+00   -2.073E+00   -2.048E+00   -2.023E+00   -1.998E+00   -1.974E+00   -1.949E+00   -1.924E+00
    -1.900E+00   -1.875E+00   -1.850E+00   -1.826E+00   -1.801E+00   -1.777E+00   -1.752E+00   -1.728E+00   -1.704E+00   -1.679E+00
    -1.655E+00   -1.631E+00   -1.606E+00   -1.582E+00   -1.558E+00   -1.534E+00   -1.510E+00   -1.486E+00   -1.462E+00   -1.438E+00
    -1.414E+00   -1.390E+00   -1.366E+00   -1.343E+00   -1.319E+00   -1.296E+00   -1.272E+00   -1.248E+00   -1.225E+00   -1.202E+00
    -1.178E+00   -1.155E+00   -1.132E+00   -1.109E+00   -1.086E+00   -1.063E+00   -1.040E+00   -1.017E+00   -9.944E-01   -9.717E-01
    -9.491E-01   -9.265E-01   -9.040E-01   -8.816E-01   -8.593E-01   -8.371E-01   -8.149E-01   -7.929E-01   -7.709E-01   -7.490E-01
    -7.271E-01   -7.054E-01   -6.837E-01   -6.622E-01   -6.407E-01   -6.193E-01   -5.980E-01   -5.768E-01   -5.557E-01   -5.347E-01
    -5.138E-01   -4.929E-01   -4.722E-01   -4.516E-01   -4.310E-01   -4.106E-01   -3.903E-01   -3.700E-01   -3.499E-01   -3.299E-01
    -3.099E-01   -2.901E-01   -2.704E-01   -2.507E-01   -2.312E-01   -2.117E-01   -1.924E-01   -1.731E-01   -1.540E-01   -1.350E-01
    -1.160E-01   -9.719E-02   -7.845E-02   -5.982E-02   -4.128E-02   -2.285E-02   -4.524E-03    1.370E-02    3.183E-02    4.985E-02
     6.777E-02    8.558E-02    1.033E-01    1.209E-01    1.384E-01    1.558E-01    1.731E-01    1.903E-01    2.074E-01    2.244E-01
     2.412E-01    2.580E-01    2.747E-01    2.912E-01    3.077E-01    3.241E-01    3.403E-01    3.564E-01    3.725E-01    3.884E-01
     4.042E-01    4.199E-01    4.355E-01    4.509E-01    4.662E-01    4.815E-01    4.966E-01    5.115E-01    5.264E-01    5.411E-01
     5.556E-01    5.701E-01    5.844E-01    5.986E-01    6.126E-01    6.265E-01    6.402E-01    6.539E-01    6.673E-01    6.806E-01
     6.938E-01    7.068E-01    7.197E-01    7.324E-01    7.449E-01    7.573E-01    7.695E-01    7.816E-01    7.935E-01    8.052E-01
     8.168E-01    8.282E-01    8.394E-01    8.505E-01    8.613E-01    8.720E-01    8.826E-01    8.929E-01    9.030E-01    9.130E-01
     9.228E-01    9.324E-01    9.418E-01    9.510E-01    9.600E-01    9.688E-01    9.775E-01    9.859E-01    9.941E-01    1.002E+00
     1.010E+00    1.018E+00    1.025E+00    1.032E+00    1.039E+00    1.046E+00    1.053E+00    1.059E+00    1.065E+00    1.071E+00
     1.077E+00    1.083E+00    1.088E+00    1.093E+00    1.098E+00    1.103E+00    1.107E+00    1.111E+00    1.115E+00    1.119E+00
     1.123E+00    1.126E+00    1.129E+00    1.132E+00    1.134E+00    1.137E+00    1.139E+00    1.141E+00    1.143E+00    1.144E+00
     1.145E+00    1.146E+00    1.147E+00    1.147E+00    1.148E+00    1.148E+00    1.147E+00    1.147E+00    1.146E+00    1.145E+00
     1.144E+00    1.142E+00    1.140E+00    1.138E+00    1.136E+00    1.134E+00    1.131E+00    1.128E+00    1.125E+00    1.121E+00
     1.117E+00    1.113E+00    1.109E+00    1.104E+00    1.099E+00    1.094E+00    1.089E+00    1.083E+00    1.077E+00    1.071E+00
     1.065E+00    1.058E+00    1.051E+00    1.044E+00    1.036E+00    1.028E+00    1.020E+00    1.012E+00    1.003E+00    9.944E-01
     9.852E-01    9.758E-01    9.661E-01    9.561E-01    9.458E-01    9.352E-01    9.244E-01    9.133E-01    9.019E-01    8.902E-01
     8.783E-01    8.660E-01    8.535E-01    8.407E-01    8.276E-01    8.143E-01    8.006E-01    7.867E-01    7.725E-01    7.580E-01
     7.432E-01    7.282E-01    7.128E-01    6.972E-01    6.814E-01    6.652E-01    6.488E-01    6.321E-01    6.152E-01    5.979E-01
     5.804E-01    5.627E-01    5.446E-01    5.263E-01    5.078E-01    4.890E-01    4.699E-01    4.505E-01    4.309E-01    4.110E-01
     3.909E-01    3.705E-01    3.498E-01    3.289E-01    3.077E-01    2.863E-01    2.646E-01    2.427E-01    2.205E-01    1.981E-01
     1.754E-01    1.524E-01    1.292E-01    1.058E-01    8.207E-02    5.813E-02    3.395E-02    9.513E-03   -1.516E-02   -4.009E-02
    -6.525E-02   -9.066E-02   -1.163E-01   -1.422E-01   -1.683E-01   -1.947E-01   -2.213E-01   -2.481E-01   -2.752E-01   -3.025E-01
    -3.300E-01   -3.577E-01   -3.857E-01   -4.139E-01   -4.424E-01   -4.711E-01   -5.000E-01   -5.291E-01   -5.584E-01   -5.880E-01
    -6.178E-01   -6.478E-01   -6.780E-01   -7.084E-01   -7.391E-01   -7.700E-01   -8.010E-01   -8.323E-01   -8.638E-01   -8.956E-01
    -9.275E-01   -9.596E-01   -9.920E-01   -1.025E+00   -1.057E+00   -1.090E+00   -1.123E+00   -1.157E+00   -1.190E+00   -1.224E+00
    -1.258E+00   -1.292E+00   -1.327E+00   -1.361E+00   -1.396E+00   -1.431E+00   -1.466E+00   -1.501E+00   -1.537E+00   -1.573E+00
    -1.608E+00   -1.645E+00   -1.681E+00   -1.717E+00   -1.754E+00   -1.791E+00   -1.828E+00   -1.865E+00   -1.903E+00   -1.940E+00
    -1.978E+00   -2.016E+00   -2.054E+00   -2.092E+00   -2.131E+00   -2.170E+00   -2.208E+00   -2.248E+00   -2.287E+00   -2.326E+00
    -2.366E+00   -2.406E+00   -2.446E+00   -2.486E+00   -2.526E+00   -2.566E+00   -2.607E+00   -2.648E+00   -2.689E+00   -2.730E+00
    -2.772E+00   -2.813E+00   -2.855E+00   -2.897E+00   -2.939E+00   -2.981E+00   -3.023E+00   -3.066E+00   -3.109E+00   -3.151E+00
    -3.195E+00   -3.238E+00   -3.281E+00   -3.325E+00   -3.368E+00   -3.412E+00   -3.456E+00   -3.500E+00   -3.544E+00   -3.589E+00
    -3.633E+00   -3.678E+00   -3.723E+00   -3.768E+00   -3.813E+00   -3.858E+00   -3.903E+00   -3.949E+00   -3.994E+00   -4.040E+00
    -4.086E+00   -4.132E+00   -4.178E+00   -4.224E+00   -4.270E+00   -4.316E+00   -4.363E+00   -4.409E+00   -4.456E+00   -4.503E+00
    -4.549E+00   -4.596E+00   -4.643E+00   -4.690E+00   -4.737E+00   -4.784E+00   -4.832E+00   -4.879E+00   -4.926E+00   -4.974E+00
    -5.021E+00   -5.069E+00   -5.117E+00   -5.164E+00   -5.212E+00   -5.260E+00   -5.308E+00   -5.356E+00   -5.404E+00   -5.452E+00
    -5.500E+00   -5.548E+00   -5.596E+00   -5.644E+00   -5.692E+00   -5.741E+00   -5.789E+00   -5.837E+00   -5.886E+00   -5.934E+00
    -5.982E+00   -6.031E+00   -6.079E+00   -6.128E+00   -6.176E+00   -6.224E+00   -6.273E+00   -6.321E+00   -6.370E+00   -6.418E+00
    -6.467E+00   -6.515E+00   -6.564E+00   -6.613E+00   -6.661E+00   -6.710E+00   -6.758E+00   -6.807E+00   -6.855E+00   -6.903E+00
    -6.952E+00   -7.000E+00   -7.049E+00   -7.097E+00   -7.146E+00   -7.194E+00   -7.242E+00   -7.291E+00
 Ala      Conc. = 3.09E+01
