 LCModel (Version 6.3-1L) Copyright: S.W. Provencher.          Ref.: Magn. Reson. Med. 30:672-679 (1993).                
 Slice#3 Row#5 Col#9  PD_24_press_1_raw_act
 36 lines in following concentration table = NCONC+1
    Conc.  %SD /Cr+PCr  Metabolite                                         
    0.000 999%   0.000 Ala                                                 
  148.441 157% 7.2E-02 Asp                                                 
  965.776  21%   0.466 Cr                                                  
 1.10E+03  18%   0.534 PCr                                                 
    0.000 999%   0.000 GABA                                                
    0.000 999%   0.000 Glc                                                 
  633.255  31%   0.306 Gln                                                 
 1.59E+03  14%   0.769 Glu                                                 
  775.861   3%   0.375 GPC                                                 
    0.000 999%   0.000 PCh                                                 
  470.024  14%   0.227 GSH                                                 
 1.05E+03  23%   0.506 Ins                                                 
    0.000 999%   0.000 Lac                                                 
 2.29E+03   3%   1.104 NAA                                                 
    0.000 999%   0.000 NAAG                                                
  122.527  22% 5.9E-02 Scyllo                                              
    0.000 999%   0.000 Tau                                                 
    0.000 999%   0.000 -CrCH2                                              
  775.861   3%   0.375 GPC+PCh                                             
 2.29E+03   3%   1.104 NAA+NAAG                                            
 2.07E+03   3%   1.000 Cr+PCr                                              
 2.23E+03  14%   1.075 Glu+Gln                                             
    0.000 999%   0.000 Lip13a                                              
  365.755  28%   0.177 Lip13b                                              
   15.905 560% 7.7E-03 Lip09                                               
 1.22E+03  16%   0.587 MM09                                                
   75.502  82% 3.6E-02 Lip20                                               
 3.05E+03  11%   1.473 MM20                                                
  349.212  33%   0.169 MM12                                                
    0.000 999%   0.000 MM14                                                
  859.363  24%   0.415 MM17                                                
  365.755  28%   0.177 Lip13a+Lip13b                                       
  714.968  20%   0.345 MM14+Lip13a+Lip13b+MM12                             
 1.23E+03  15%   0.595 MM09+Lip09                                          
 3.12E+03  10%   1.509 MM20+Lip20                                          
   6 lines in following misc. output table
  FWHM = 0.054 ppm    S/N =  12                                            
  Data shift = 0.000 ppm                                                   
  Ph:  -5 deg      -1.2 deg/ppm                                            
  alphaB,S = 8.7E-01,   1.0E+02                                            
   14 spline knots.   Ns = 6(1)                                            
  ( 8) 4 infls.   ( 4) 1 extrs.                                            
  498 points on ppm-axis = NY
      4.000000     3.992357     3.984714     3.977070     3.969427     3.961784     3.954141     3.946497     3.938854     3.931211
      3.923568     3.915925     3.908281     3.900638     3.892995     3.885352     3.877708     3.870065     3.862422     3.854779
      3.847136     3.839492     3.831849     3.824206     3.816563     3.808919     3.801276     3.793633     3.785990     3.778347
      3.770703     3.763060     3.755417     3.747774     3.740130     3.732487     3.724844     3.717201     3.709558     3.701914
      3.694271     3.686628     3.678985     3.671341     3.663698     3.656055     3.648412     3.640769     3.633125     3.625482
      3.617839     3.610196     3.602552     3.594909     3.587266     3.579623     3.571980     3.564336     3.556693     3.549050
      3.541407     3.533763     3.526120     3.518477     3.510834     3.503191     3.495547     3.487904     3.480261     3.472618
      3.464974     3.457331     3.449688     3.442045     3.434402     3.426758     3.419115     3.411472     3.403829     3.396185
      3.388542     3.380899     3.373256     3.365613     3.357969     3.350326     3.342683     3.335040     3.327396     3.319753
      3.312110     3.304467     3.296824     3.289180     3.281537     3.273894     3.266251     3.258607     3.250964     3.243321
      3.235678     3.228034     3.220391     3.212748     3.205105     3.197462     3.189818     3.182175     3.174532     3.166889
      3.159245     3.151602     3.143959     3.136316     3.128673     3.121029     3.113386     3.105743     3.098100     3.090456
      3.082813     3.075170     3.067527     3.059884     3.052240     3.044597     3.036954     3.029311     3.021667     3.014024
      3.006381     2.998738     2.991095     2.983451     2.975808     2.968165     2.960522     2.952878     2.945235     2.937592
      2.929949     2.922306     2.914662     2.907019     2.899376     2.891733     2.884089     2.876446     2.868803     2.861160
      2.853517     2.845873     2.838230     2.830587     2.822944     2.815300     2.807657     2.800014     2.792371     2.784728
      2.777084     2.769441     2.761798     2.754155     2.746511     2.738868     2.731225     2.723582     2.715939     2.708295
      2.700652     2.693009     2.685366     2.677722     2.670079     2.662436     2.654793     2.647150     2.639506     2.631863
      2.624220     2.616577     2.608933     2.601290     2.593647     2.586004     2.578361     2.570717     2.563074     2.555431
      2.547788     2.540144     2.532501     2.524858     2.517215     2.509572     2.501928     2.494285     2.486642     2.478999
      2.471355     2.463712     2.456069     2.448426     2.440783     2.433139     2.425496     2.417853     2.410210     2.402566
      2.394923     2.387280     2.379637     2.371994     2.364350     2.356707     2.349064     2.341421     2.333777     2.326134
      2.318491     2.310848     2.303205     2.295561     2.287918     2.280275     2.272632     2.264988     2.257345     2.249702
      2.242059     2.234416     2.226772     2.219129     2.211486     2.203843     2.196199     2.188556     2.180913     2.173270
      2.165627     2.157983     2.150340     2.142697     2.135054     2.127410     2.119767     2.112124     2.104481     2.096838
      2.089194     2.081551     2.073908     2.066265     2.058621     2.050978     2.043335     2.035692     2.028049     2.020405
      2.012762     2.005119     1.997476     1.989833     1.982190     1.974546     1.966903     1.959260     1.951617     1.943974
      1.936331     1.928688     1.921045     1.913402     1.905759     1.898115     1.890472     1.882829     1.875186     1.867543
      1.859900     1.852257     1.844614     1.836971     1.829327     1.821684     1.814041     1.806398     1.798755     1.791112
      1.783469     1.775826     1.768183     1.760540     1.752896     1.745253     1.737610     1.729967     1.722324     1.714681
      1.707038     1.699395     1.691752     1.684108     1.676465     1.668822     1.661179     1.653536     1.645893     1.638250
      1.630607     1.622964     1.615321     1.607677     1.600034     1.592391     1.584748     1.577105     1.569462     1.561819
      1.554176     1.546533     1.538890     1.531246     1.523603     1.515960     1.508317     1.500674     1.493031     1.485388
      1.477745     1.470102     1.462458     1.454815     1.447172     1.439529     1.431886     1.424243     1.416600     1.408957
      1.401314     1.393671     1.386027     1.378384     1.370741     1.363098     1.355455     1.347812     1.340169     1.332526
      1.324883     1.317240     1.309596     1.301953     1.294310     1.286667     1.279024     1.271381     1.263738     1.256095
      1.248452     1.240808     1.233165     1.225522     1.217879     1.210236     1.202593     1.194950     1.187307     1.179664
      1.172021     1.164377     1.156734     1.149091     1.141448     1.133805     1.126162     1.118519     1.110876     1.103233
      1.095590     1.087946     1.080303     1.072660     1.065017     1.057374     1.049731     1.042088     1.034445     1.026802
      1.019158     1.011515     1.003872     0.996229     0.988586     0.980943     0.973300     0.965657     0.958014     0.950371
      0.942727     0.935084     0.927441     0.919798     0.912155     0.904512     0.896869     0.889226     0.881583     0.873940
      0.866296     0.858653     0.851010     0.843367     0.835724     0.828081     0.820438     0.812795     0.805152     0.797508
      0.789865     0.782222     0.774579     0.766936     0.759293     0.751650     0.744007     0.736364     0.728721     0.721077
      0.713434     0.705791     0.698148     0.690505     0.682862     0.675219     0.667576     0.659933     0.652290     0.644646
      0.637003     0.629360     0.621717     0.614074     0.606431     0.598788     0.591145     0.583502     0.575858     0.568215
      0.560572     0.552929     0.545286     0.537643     0.530000     0.522357     0.514714     0.507071     0.499427     0.491784
      0.484141     0.476498     0.468855     0.461212     0.453569     0.445925     0.438282     0.430639     0.422996     0.415353
      0.407710     0.400067     0.392424     0.384780     0.377137     0.369494     0.361851     0.354208     0.346565     0.338922
      0.331278     0.323635     0.315992     0.308349     0.300706     0.293063     0.285420     0.277777     0.270133     0.262490
      0.254847     0.247204     0.239561     0.231918     0.224275     0.216631     0.208988     0.201345
 NY phased data points follow
   3.35050E+01  3.77921E+01  3.13356E+01  3.30286E+01  3.53130E+01  3.77290E+01  4.44762E+01  5.27590E+01  5.84323E+01  7.16357E+01
   7.91986E+01  8.90024E+01  9.01653E+01  8.34954E+01  7.41215E+01  6.62471E+01  5.50777E+01  5.04269E+01  4.03407E+01  4.00079E+01
   3.41876E+01  3.60105E+01  3.06297E+01  2.87066E+01  2.91768E+01  3.34409E+01  3.12734E+01  3.03681E+01  2.91078E+01  4.25513E+01
   4.21095E+01  4.32919E+01  4.12717E+01  3.91586E+01  3.01406E+01  3.59753E+01  2.89114E+01  3.11463E+01  3.18828E+01  2.83137E+01
   2.71549E+01  2.72688E+01  2.22603E+01  2.60127E+01  2.83748E+01  2.96867E+01  3.46132E+01  3.95960E+01  3.78019E+01  3.86041E+01
   3.08103E+01  3.07646E+01  2.64507E+01  2.88480E+01  2.11752E+01  2.21662E+01  2.73596E+01  2.45248E+01  2.57375E+01  2.52900E+01
   2.32203E+01  1.81030E+01  1.63243E+01  1.52223E+01  9.92376E+00  1.38177E+01  6.69471E+00  9.34134E+00  1.22672E+01  8.01612E+00
   1.21452E+01  1.53977E+01  9.22436E+00  1.38980E+01  1.21130E+01  1.01110E+01  1.51101E+01  1.11873E+01  1.23782E+01  9.99477E+00
   1.19161E+01  8.74499E+00  1.19053E+01  1.15614E+01  1.26358E+01  1.56463E+01  1.40304E+01  1.25718E+01  1.62675E+01  1.20732E+01
   1.94917E+01  1.68234E+01  1.51686E+01  1.74019E+01  1.02934E+01  1.04338E+01  4.58200E+00  4.11786E+00  6.00228E+00  1.47995E+01
   2.80858E+01  5.19098E+01  6.62233E+01  8.59089E+01  8.51092E+01  7.63975E+01  6.87320E+01  6.03605E+01  4.65759E+01  3.52280E+01
   3.17863E+01  2.08417E+01  1.72566E+01  1.65684E+01  1.45523E+01  1.35288E+01  1.23183E+01  1.20118E+01  8.00806E+00  9.37656E+00
   4.12394E+00  1.12146E+00  4.97500E+00  1.37390E+01  2.26654E+01  4.42621E+01  6.52371E+01  6.83036E+01  7.18215E+01  7.43416E+01
   7.28849E+01  5.36604E+01  4.15111E+01  3.16511E+01  2.74774E+01  2.21847E+01  1.32646E+01  1.31477E+01  1.28861E+01  2.63222E+00
   8.25387E+00  1.02261E+01  7.18119E+00  6.27502E+00  7.06287E+00  7.57541E+00  6.60038E+00  3.52000E+00  5.96784E+00  2.63490E+00
   4.06028E+00  2.14466E+00  1.35812E+00  5.74562E+00  3.13125E-01  2.85093E+00  3.79177E+00  6.10385E+00  5.32330E+00  1.34147E+00
  -2.70378E+00 -2.16186E+00 -5.60507E+00  1.26904E+00  1.18331E+00  3.16199E+00  5.29094E+00  4.83749E+00 -3.20641E+00 -3.75980E-01
   4.08546E-01 -1.34513E+00 -3.69426E+00 -3.38105E+00 -2.96359E+00 -2.83721E+00 -1.91735E+00 -3.54178E+00 -3.81896E+00 -1.33601E+00
  -3.09360E+00 -2.80229E+00 -8.21422E+00 -4.70518E+00 -7.01520E+00 -2.36956E+00 -4.16478E+00 -2.04484E+00 -1.40110E+00 -2.52795E+00
   3.23416E+00  9.14713E+00  1.12637E+01  1.05475E+01  1.38355E+01  1.41641E+01  8.16094E+00  1.23991E+01  7.36441E+00  5.75126E+00
   4.07295E+00 -6.53216E-01  9.94320E+00  8.87198E+00  1.20155E+01  1.04336E+01  5.24128E+00  2.20316E+00 -1.08323E+00  1.55462E+00
  -4.25295E+00  1.34102E+00  4.47952E+00  5.42773E+00  1.29515E+01  2.13368E+01  1.95612E+01  2.29158E+01  1.71066E+01  1.36361E+01
   7.76293E+00  4.22505E+00  2.10890E+00  2.38755E+00  1.11246E+01  9.39286E+00  1.10217E+01  1.11254E+01  1.30424E+01  1.33019E+01
   1.83856E+01  1.74434E+01  1.03614E+01  1.34451E+01  1.51262E+01  1.64540E+01  1.57569E+01  1.62264E+01  1.38172E+01  1.35925E+01
   1.21865E+01  9.90357E+00  1.19826E+01  1.11935E+01  1.29297E+01  1.74578E+01  2.07559E+01  1.84120E+01  2.01470E+01  2.13908E+01
   2.04400E+01  2.43491E+01  2.16782E+01  1.82014E+01  1.67008E+01  2.12828E+01  2.46461E+01  4.32669E+01  6.02731E+01  8.22585E+01
   9.20760E+01  9.71838E+01  8.97990E+01  7.57933E+01  5.93115E+01  5.12825E+01  4.12388E+01  3.06238E+01  2.40311E+01  1.76313E+01
   1.59030E+01  1.27323E+01  8.13875E+00  9.39718E+00  1.13713E+01  1.04798E+01  1.02824E+01  1.05183E+01  1.19343E+01  9.28108E+00
   7.83002E+00  7.36386E+00  8.67506E+00  4.35400E+00  6.51409E+00  1.48699E+00  9.62459E-01  7.10626E+00  7.88862E+00  9.28487E+00
   7.19289E+00  5.11786E+00  6.82249E+00  1.07542E+01  7.40322E+00  7.24171E+00  4.11790E+00  7.94466E+00  9.77748E+00  9.01835E+00
   6.08984E+00  9.06793E+00  6.81474E+00  5.11355E+00  8.83319E+00  7.49732E+00  8.44219E+00  8.93095E+00  7.07184E+00  1.17755E+01
   9.39242E+00  3.47418E+00  7.25191E+00  5.97599E+00  9.62090E+00  6.30114E+00  6.59826E+00  8.44465E+00  8.62198E+00  1.03686E+01
   4.35111E+00  6.44474E+00  3.18061E+00  1.01927E+01  4.73977E+00  6.46691E+00  5.25662E+00  4.97041E+00  4.18165E+00  4.11219E+00
   6.24952E+00  1.16997E+00  7.36859E-01  1.14357E+00 -4.75577E-01 -4.37018E-02 -2.13062E+00 -7.87849E-01  1.03253E-01 -1.86254E+00
  -4.36001E+00 -6.12437E+00 -3.92807E+00  1.57356E+00 -3.30236E+00 -1.71199E+00  1.32617E+00  6.35243E+00  3.06138E+00  3.27637E+00
   2.39054E+00  2.38656E+00  7.82031E+00  7.12566E+00  6.50487E+00  1.02792E+01  1.38383E+00  5.08444E+00  1.06862E+00  5.61768E+00
   3.86776E-01  6.91421E+00  3.45828E+00  8.10555E+00  2.48895E+00  3.55532E+00  6.25877E+00  2.53507E-01 -1.17028E+00  1.07778E+00
   8.11850E-01 -2.25524E+00 -2.07325E+00  5.30050E-01  1.54163E+00 -1.17002E+00 -1.26952E+00  3.04150E+00 -2.20996E+00 -3.08099E-01
  -4.62047E+00 -3.15245E+00 -3.03809E+00  2.52089E-01 -2.71241E+00 -2.02042E+00 -2.51216E+00  1.50490E+00  7.33509E-01 -1.50079E+00
  -2.88529E+00  3.76406E+00  5.78815E-01 -2.26793E+00  4.99425E+00  3.78981E+00  1.90793E+00  4.98084E+00 -2.11365E-01  1.87698E+00
   3.58630E+00  1.45720E+00  3.54540E+00  3.99475E+00 -5.72731E-01  4.37307E+00  3.65112E+00  7.38972E+00  6.07752E+00  6.13243E+00
   5.73762E+00  4.91206E+00  4.24142E+00  4.17579E+00  2.96267E+00  3.79589E-01  2.57798E+00  2.90677E+00  1.11243E+00 -5.40928E-01
   1.66045E+00 -1.98167E-01 -2.97337E-01 -1.07240E+00 -2.80286E+00 -1.21397E+00  1.54940E-01  1.55204E+00 -3.05275E-01 -8.68380E-01
  -5.68226E+00 -4.00087E+00 -2.21671E+00 -4.08447E+00 -6.61408E-01 -1.22999E+00 -8.16364E-01 -1.86909E+00 -5.75609E+00  7.01826E-01
  -4.69154E+00 -2.10145E+00 -3.57055E+00 -3.13732E-01 -1.39391E+00 -1.29518E-01  1.01897E-01 -1.93961E+00 -5.51328E+00  2.22838E+00
  -7.31083E+00 -1.99138E+00 -5.55747E+00 -3.29059E-01 -2.58100E+00 -2.69813E+00  3.74728E-01 -2.95204E+00 -2.15424E+00 -2.01328E+00
  -4.03842E+00 -1.01750E+00 -3.37487E+00  5.68799E-01 -4.83999E+00 -4.59058E+00  8.42110E-01 -6.57013E+00 -4.31040E+00 -2.87589E+00
  -2.35005E+00 -2.11585E+00 -6.01409E+00 -7.70515E+00  9.95154E-02 -3.41541E+00  4.46210E-01 -5.04040E+00 -4.95382E-01 -4.46946E+00
  -7.07364E+00 -4.87705E+00 -5.05219E+00 -2.89983E+00 -6.48110E+00 -5.24017E+00 -3.58955E+00 -3.45162E+00 -3.87494E+00 -6.92965E-01
  -2.06731E+00 -6.22965E-01  8.82904E-02  2.02986E-01 -4.43369E+00 -4.61048E+00  5.22856E-01 -2.46344E-01
 NY points of the fit to the data follow
   3.55718E+01  3.48646E+01  3.44266E+01  3.42242E+01  3.43228E+01  3.51989E+01  3.89749E+01  4.71754E+01  5.86654E+01  7.04857E+01
   7.94014E+01  8.33288E+01  8.19615E+01  7.65854E+01  6.93167E+01  6.20673E+01  5.54176E+01  4.86574E+01  4.21644E+01  3.80788E+01
   3.62255E+01  3.50304E+01  3.39841E+01  3.27507E+01  3.11306E+01  2.97430E+01  2.96041E+01  3.10405E+01  3.36989E+01  3.68517E+01
   3.96991E+01  4.14386E+01  4.15273E+01  4.00436E+01  3.75253E+01  3.48178E+01  3.20823E+01  2.93113E+01  2.73530E+01  2.65700E+01
   2.63656E+01  2.63437E+01  2.67405E+01  2.80147E+01  2.98959E+01  3.17989E+01  3.31717E+01  3.34765E+01  3.28436E+01  3.14945E+01
   2.95079E+01  2.74384E+01  2.57831E+01  2.42274E+01  2.25787E+01  2.14882E+01  2.12875E+01  2.15431E+01  2.17831E+01  2.18929E+01
   2.16855E+01  2.10484E+01  2.00196E+01  1.88218E+01  1.77747E+01  1.69767E+01  1.63677E+01  1.60339E+01  1.59970E+01  1.61491E+01
   1.63652E+01  1.64699E+01  1.63880E+01  1.61026E+01  1.56434E+01  1.51134E+01  1.45945E+01  1.41334E+01  1.36838E+01  1.32356E+01
   1.28725E+01  1.25675E+01  1.26429E+01  1.33766E+01  1.45482E+01  1.56869E+01  1.63370E+01  1.62640E+01  1.55091E+01  1.43493E+01
   1.31339E+01  1.21724E+01  1.15252E+01  1.09081E+01  1.01185E+01  9.56511E+00  9.23484E+00  8.70432E+00  9.23499E+00  1.57636E+01
   3.01772E+01  4.95776E+01  6.85061E+01  8.16835E+01  8.61969E+01  8.20770E+01  7.17991E+01  5.91392E+01  4.73146E+01  3.68164E+01
   2.59106E+01  1.59147E+01  1.14141E+01  9.91240E+00  9.17690E+00  8.71210E+00  8.37010E+00  8.09272E+00  7.86818E+00  7.71158E+00
   7.64356E+00  7.62938E+00  8.96146E+00  1.49030E+01  2.74422E+01  4.45522E+01  6.16930E+01  7.42143E+01  7.92956E+01  7.68133E+01
   6.87681E+01  5.81361E+01  4.74399E+01  3.72199E+01  2.65104E+01  1.66155E+01  1.04888E+01  8.09981E+00  7.32379E+00  7.28160E+00
   7.49847E+00  7.75744E+00  8.04881E+00  8.19562E+00  8.09357E+00  7.81423E+00  7.37996E+00  6.82676E+00  6.26148E+00  5.70019E+00
   5.24754E+00  4.85779E+00  4.52069E+00  4.26040E+00  4.10920E+00  4.04886E+00  3.94207E+00  3.62849E+00  3.07500E+00  2.38720E+00
   1.84573E+00  1.69475E+00  1.91226E+00  2.29524E+00  2.61284E+00  2.70450E+00  2.52851E+00  2.20566E+00  1.90232E+00  1.60372E+00
   1.24756E+00  7.93800E-01  1.04789E-01 -6.07661E-01 -1.11821E+00 -1.35072E+00 -1.30316E+00 -1.15599E+00 -1.04162E+00 -9.79919E-01
  -9.37897E-01 -8.83916E-01 -8.32198E-01 -8.45532E-01 -9.39054E-01 -1.01968E+00 -6.39127E-01  4.52248E-01  2.14337E+00  3.93512E+00
   5.32330E+00  6.11484E+00  6.37444E+00  6.18609E+00  5.63657E+00  4.84687E+00  4.09191E+00  3.78903E+00  4.02223E+00  4.86273E+00
   6.29756E+00  8.05646E+00  9.71338E+00  1.08315E+01  1.10850E+01  1.02573E+01  8.33615E+00  5.84565E+00  3.46293E+00  1.69355E+00
   8.13780E-01  1.20689E+00  3.31406E+00  6.68774E+00  1.03447E+01  1.33212E+01  1.49293E+01  1.46609E+01  1.21240E+01  8.17386E+00
   4.17954E+00  1.09118E+00 -5.62062E-01 -5.51517E-01  1.28532E+00  4.39492E+00  7.56047E+00  1.00155E+01  1.15982E+01  1.25711E+01
   1.29020E+01  1.24488E+01  1.18017E+01  1.17816E+01  1.24953E+01  1.37005E+01  1.50115E+01  1.60102E+01  1.63605E+01  1.58394E+01
   1.45518E+01  1.32359E+01  1.25283E+01  1.25197E+01  1.30777E+01  1.41464E+01  1.54730E+01  1.66024E+01  1.73492E+01  1.78531E+01
   1.82581E+01  1.85387E+01  1.87860E+01  1.90202E+01  1.90451E+01  2.03249E+01  2.79363E+01  4.32335E+01  6.28197E+01  8.10297E+01
   9.27519E+01  9.54095E+01  8.94549E+01  7.77283E+01  6.41667E+01  5.18727E+01  4.08156E+01  2.91060E+01  1.88484E+01  1.44463E+01
   1.27076E+01  1.16809E+01  1.10691E+01  1.07333E+01  1.04515E+01  1.01932E+01  9.90633E+00  9.56055E+00  9.17699E+00  8.78856E+00
   8.38518E+00  7.98397E+00  7.63690E+00  7.36215E+00  7.13995E+00  6.95125E+00  6.79059E+00  6.66275E+00  6.56546E+00  6.48295E+00
   6.42224E+00  6.39084E+00  6.39015E+00  6.41950E+00  6.47828E+00  6.56642E+00  6.68074E+00  6.81539E+00  6.96806E+00  7.13602E+00
   7.31375E+00  7.49548E+00  7.67462E+00  7.84338E+00  7.99352E+00  8.11746E+00  8.20865E+00  8.26168E+00  8.27218E+00  8.23660E+00
   8.15248E+00  8.01984E+00  7.84080E+00  7.61805E+00  7.35557E+00  7.05838E+00  6.73267E+00  6.38527E+00  6.02320E+00  5.65327E+00
   5.28184E+00  4.91467E+00  4.55688E+00  4.21271E+00  3.88542E+00  3.57722E+00  3.28942E+00  3.02267E+00  2.77700E+00  2.55194E+00
   2.34652E+00  2.15946E+00  1.98934E+00  1.83480E+00  1.69457E+00  1.56750E+00  1.45261E+00  1.34932E+00  1.25775E+00  1.17902E+00
   1.11566E+00  1.07204E+00  1.05498E+00  1.07425E+00  1.14262E+00  1.27526E+00  1.48787E+00  1.79389E+00  2.20052E+00  2.70460E+00
   3.28891E+00  3.92032E+00  4.55104E+00  5.12337E+00  5.57779E+00  5.86271E+00  5.94377E+00  5.81021E+00  5.47686E+00  4.98104E+00
   4.37535E+00  3.71810E+00  3.06383E+00  2.45589E+00  1.92256E+00  1.47660E+00  1.11776E+00  8.36704E-01  6.19302E-01  4.50263E-01
   3.15717E-01  2.04636E-01  1.09248E-01  2.47720E-02 -5.12004E-02 -1.19365E-01 -1.79260E-01 -2.29675E-01 -2.68963E-01 -2.95268E-01
  -3.06675E-01 -3.01272E-01 -2.77149E-01 -2.32403E-01 -1.65172E-01 -7.36997E-02  4.35996E-02  1.88095E-01  3.60888E-01  5.62724E-01
   7.93843E-01  1.05383E+00  1.34147E+00  1.65467E+00  1.99037E+00  2.34445E+00  2.71168E+00  3.08576E+00  3.45937E+00  3.82441E+00
   4.17223E+00  4.49389E+00  4.78052E+00  5.02363E+00  5.21558E+00  5.34994E+00  5.42179E+00  5.42799E+00  5.36730E+00  5.24047E+00
   5.05018E+00  4.80098E+00  4.49902E+00  4.15167E+00  3.76723E+00  3.35450E+00  2.92242E+00  2.47973E+00  2.03462E+00  1.59447E+00
   1.16565E+00  7.53438E-01  3.62007E-01 -5.60081E-03 -3.47403E-01 -6.62392E-01 -9.50380E-01 -1.21184E+00 -1.44775E+00 -1.65947E+00
  -1.84865E+00 -2.01707E+00 -2.16659E+00 -2.29905E+00 -2.41618E+00 -2.51964E+00 -2.61098E+00 -2.69160E+00 -2.76277E+00 -2.82558E+00
  -2.88103E+00 -2.92995E+00 -2.97314E+00 -3.01125E+00 -3.04486E+00 -3.07448E+00 -3.10052E+00 -3.12337E+00 -3.14339E+00 -3.16086E+00
  -3.17606E+00 -3.18918E+00 -3.20043E+00 -3.20999E+00 -3.21800E+00 -3.22461E+00 -3.22991E+00 -3.23399E+00 -3.23695E+00 -3.23889E+00
  -3.23988E+00 -3.23998E+00 -3.23924E+00 -3.23771E+00 -3.23543E+00 -3.23248E+00 -3.22889E+00 -3.22469E+00 -3.21991E+00 -3.21458E+00
  -3.20872E+00 -3.20239E+00 -3.19560E+00 -3.18835E+00 -3.18067E+00 -3.17256E+00 -3.16407E+00 -3.15522E+00 -3.14602E+00 -3.13646E+00
  -3.12656E+00 -3.11634E+00 -3.10583E+00 -3.09502E+00 -3.08392E+00 -3.07253E+00 -3.06085E+00 -3.04890E+00 -3.03670E+00 -3.02425E+00
  -3.01153E+00 -2.99854E+00 -2.98528E+00 -2.97178E+00 -2.95804E+00 -2.94403E+00 -2.92973E+00 -2.91513E+00
 NY background values follow
     3.369E+01    3.338E+01    3.308E+01    3.277E+01    3.246E+01    3.215E+01    3.185E+01    3.154E+01    3.123E+01    3.092E+01
     3.061E+01    3.030E+01    2.999E+01    2.969E+01    2.938E+01    2.907E+01    2.876E+01    2.846E+01    2.815E+01    2.784E+01
     2.753E+01    2.723E+01    2.692E+01    2.662E+01    2.631E+01    2.601E+01    2.571E+01    2.540E+01    2.510E+01    2.480E+01
     2.450E+01    2.420E+01    2.390E+01    2.360E+01    2.331E+01    2.301E+01    2.272E+01    2.242E+01    2.213E+01    2.184E+01
     2.155E+01    2.126E+01    2.097E+01    2.068E+01    2.040E+01    2.011E+01    1.983E+01    1.955E+01    1.927E+01    1.899E+01
     1.871E+01    1.844E+01    1.817E+01    1.789E+01    1.762E+01    1.735E+01    1.709E+01    1.682E+01    1.656E+01    1.630E+01
     1.604E+01    1.578E+01    1.552E+01    1.527E+01    1.502E+01    1.477E+01    1.452E+01    1.427E+01    1.403E+01    1.379E+01
     1.355E+01    1.331E+01    1.307E+01    1.284E+01    1.261E+01    1.238E+01    1.215E+01    1.193E+01    1.171E+01    1.149E+01
     1.127E+01    1.106E+01    1.084E+01    1.064E+01    1.043E+01    1.022E+01    1.002E+01    9.824E+00    9.627E+00    9.434E+00
     9.243E+00    9.055E+00    8.869E+00    8.687E+00    8.507E+00    8.330E+00    8.156E+00    7.984E+00    7.815E+00    7.649E+00
     7.486E+00    7.326E+00    7.168E+00    7.013E+00    6.860E+00    6.711E+00    6.564E+00    6.420E+00    6.279E+00    6.140E+00
     6.004E+00    5.871E+00    5.741E+00    5.613E+00    5.488E+00    5.365E+00    5.246E+00    5.129E+00    5.014E+00    4.903E+00
     4.794E+00    4.688E+00    4.584E+00    4.483E+00    4.385E+00    4.290E+00    4.197E+00    4.107E+00    4.019E+00    3.935E+00
     3.852E+00    3.773E+00    3.696E+00    3.622E+00    3.550E+00    3.481E+00    3.415E+00    3.351E+00    3.290E+00    3.232E+00
     3.176E+00    3.122E+00    3.071E+00    3.023E+00    2.977E+00    2.934E+00    2.892E+00    2.854E+00    2.817E+00    2.783E+00
     2.752E+00    2.722E+00    2.695E+00    2.670E+00    2.648E+00    2.627E+00    2.609E+00    2.593E+00    2.579E+00    2.567E+00
     2.558E+00    2.550E+00    2.544E+00    2.541E+00    2.539E+00    2.539E+00    2.542E+00    2.546E+00    2.552E+00    2.560E+00
     2.570E+00    2.582E+00    2.595E+00    2.610E+00    2.627E+00    2.646E+00    2.667E+00    2.689E+00    2.713E+00    2.738E+00
     2.765E+00    2.794E+00    2.824E+00    2.856E+00    2.889E+00    2.924E+00    2.959E+00    2.996E+00    3.035E+00    3.074E+00
     3.114E+00    3.155E+00    3.197E+00    3.240E+00    3.283E+00    3.327E+00    3.371E+00    3.417E+00    3.462E+00    3.508E+00
     3.554E+00    3.600E+00    3.647E+00    3.693E+00    3.739E+00    3.786E+00    3.832E+00    3.878E+00    3.923E+00    3.969E+00
     4.014E+00    4.058E+00    4.102E+00    4.145E+00    4.187E+00    4.228E+00    4.269E+00    4.309E+00    4.347E+00    4.385E+00
     4.421E+00    4.456E+00    4.490E+00    4.523E+00    4.554E+00    4.583E+00    4.611E+00    4.637E+00    4.662E+00    4.685E+00
     4.706E+00    4.726E+00    4.744E+00    4.760E+00    4.775E+00    4.788E+00    4.800E+00    4.810E+00    4.819E+00    4.826E+00
     4.831E+00    4.835E+00    4.838E+00    4.838E+00    4.838E+00    4.836E+00    4.832E+00    4.827E+00    4.821E+00    4.813E+00
     4.804E+00    4.793E+00    4.781E+00    4.767E+00    4.752E+00    4.736E+00    4.718E+00    4.699E+00    4.679E+00    4.657E+00
     4.634E+00    4.609E+00    4.584E+00    4.556E+00    4.528E+00    4.498E+00    4.467E+00    4.435E+00    4.402E+00    4.367E+00
     4.331E+00    4.294E+00    4.255E+00    4.216E+00    4.175E+00    4.133E+00    4.090E+00    4.045E+00    4.000E+00    3.954E+00
     3.906E+00    3.858E+00    3.808E+00    3.757E+00    3.706E+00    3.653E+00    3.600E+00    3.545E+00    3.490E+00    3.434E+00
     3.376E+00    3.318E+00    3.260E+00    3.200E+00    3.139E+00    3.078E+00    3.016E+00    2.953E+00    2.890E+00    2.826E+00
     2.761E+00    2.695E+00    2.629E+00    2.562E+00    2.495E+00    2.427E+00    2.358E+00    2.289E+00    2.220E+00    2.149E+00
     2.079E+00    2.008E+00    1.936E+00    1.864E+00    1.791E+00    1.719E+00    1.645E+00    1.572E+00    1.498E+00    1.424E+00
     1.349E+00    1.274E+00    1.199E+00    1.124E+00    1.049E+00    9.731E-01    8.974E-01    8.217E-01    7.458E-01    6.699E-01
     5.940E-01    5.181E-01    4.422E-01    3.664E-01    2.907E-01    2.150E-01    1.396E-01    6.423E-02   -1.090E-02   -8.581E-02
    -1.605E-01   -2.349E-01   -3.090E-01   -3.828E-01   -4.562E-01   -5.293E-01   -6.019E-01   -6.741E-01   -7.459E-01   -8.172E-01
    -8.880E-01   -9.583E-01   -1.028E+00   -1.097E+00   -1.166E+00   -1.233E+00   -1.301E+00   -1.367E+00   -1.433E+00   -1.498E+00
    -1.562E+00   -1.626E+00   -1.688E+00   -1.750E+00   -1.811E+00   -1.871E+00   -1.931E+00   -1.989E+00   -2.047E+00   -2.103E+00
    -2.159E+00   -2.214E+00   -2.268E+00   -2.321E+00   -2.373E+00   -2.424E+00   -2.475E+00   -2.524E+00   -2.573E+00   -2.620E+00
    -2.667E+00   -2.713E+00   -2.757E+00   -2.801E+00   -2.844E+00   -2.885E+00   -2.926E+00   -2.966E+00   -3.005E+00   -3.043E+00
    -3.079E+00   -3.115E+00   -3.150E+00   -3.184E+00   -3.216E+00   -3.248E+00   -3.279E+00   -3.308E+00   -3.337E+00   -3.364E+00
    -3.390E+00   -3.416E+00   -3.440E+00   -3.463E+00   -3.485E+00   -3.506E+00   -3.525E+00   -3.544E+00   -3.561E+00   -3.578E+00
    -3.593E+00   -3.608E+00   -3.621E+00   -3.633E+00   -3.644E+00   -3.655E+00   -3.664E+00   -3.672E+00   -3.680E+00   -3.686E+00
    -3.692E+00   -3.697E+00   -3.701E+00   -3.704E+00   -3.707E+00   -3.709E+00   -3.710E+00   -3.710E+00   -3.710E+00   -3.708E+00
    -3.707E+00   -3.704E+00   -3.701E+00   -3.698E+00   -3.694E+00   -3.689E+00   -3.684E+00   -3.678E+00   -3.672E+00   -3.665E+00
    -3.658E+00   -3.650E+00   -3.642E+00   -3.634E+00   -3.625E+00   -3.616E+00   -3.607E+00   -3.597E+00   -3.587E+00   -3.577E+00
    -3.566E+00   -3.556E+00   -3.545E+00   -3.534E+00   -3.522E+00   -3.511E+00   -3.499E+00   -3.488E+00   -3.476E+00   -3.464E+00
    -3.452E+00   -3.439E+00   -3.427E+00   -3.414E+00   -3.401E+00   -3.388E+00   -3.375E+00   -3.362E+00   -3.348E+00   -3.335E+00
    -3.321E+00   -3.307E+00   -3.294E+00   -3.279E+00   -3.265E+00   -3.251E+00   -3.237E+00   -3.222E+00   -3.208E+00   -3.193E+00
    -3.178E+00   -3.163E+00   -3.148E+00   -3.133E+00   -3.118E+00   -3.103E+00   -3.087E+00   -3.072E+00   -3.056E+00   -3.041E+00
    -3.025E+00   -3.009E+00   -2.993E+00   -2.978E+00   -2.962E+00   -2.946E+00   -2.929E+00   -2.913E+00
 Asp      Conc. = 1.48E+02
