 LCModel (Version 6.3-1L) Copyright: S.W. Provencher.          Ref.: Magn. Reson. Med. 30:672-679 (1993).                
 Slice#3 Row#10 Col#9  PD_24_press_1_raw_act
 36 lines in following concentration table = NCONC+1
    Conc.  %SD /Cr+PCr  Metabolite                                         
   41.104 206% 2.1E-02 Ala                                                 
    0.000 999%   0.000 Asp                                                 
  871.677  20%   0.455 Cr                                                  
 1.05E+03  17%   0.545 PCr                                                 
    0.000 999%   0.000 GABA                                                
    0.000 999%   0.000 Glc                                                 
  258.850  67%   0.135 Gln                                                 
 1.69E+03  12%   0.884 Glu                                                 
  699.570   3%   0.365 GPC                                                 
    0.000 999%   0.000 PCh                                                 
  489.479  13%   0.255 GSH                                                 
 1.01E+03  20%   0.529 Ins                                                 
  171.534  54% 8.9E-02 Lac                                                 
 2.10E+03   5%   1.097 NAA                                                 
  485.197  18%   0.253 NAAG                                                
   43.327  55% 2.3E-02 Scyllo                                              
    0.000 999%   0.000 Tau                                                 
    0.000 999%   0.000 -CrCH2                                              
  699.570   3%   0.365 GPC+PCh                                             
 2.59E+03   3%   1.350 NAA+NAAG                                            
 1.92E+03   3%   1.000 Cr+PCr                                              
 1.95E+03  14%   1.019 Glu+Gln                                             
    0.000 999%   0.000 Lip13a                                              
  179.540  56% 9.4E-02 Lip13b                                              
   11.054 847% 5.8E-03 Lip09                                               
 1.25E+03  15%   0.650 MM09                                                
   35.072 186% 1.8E-02 Lip20                                               
 2.90E+03  12%   1.512 MM20                                                
  409.346  34%   0.214 MM12                                                
    0.000 999%   0.000 MM14                                                
  690.776  31%   0.360 MM17                                                
  179.540  56% 9.4E-02 Lip13a+Lip13b                                       
  588.886  25%   0.307 MM14+Lip13a+Lip13b+MM12                             
 1.26E+03  14%   0.656 MM09+Lip09                                          
 2.93E+03  12%   1.531 MM20+Lip20                                          
   6 lines in following misc. output table
  FWHM = 0.046 ppm    S/N =  14                                            
  Data shift = 0.023 ppm                                                   
  Ph:   7 deg      -0.8 deg/ppm                                            
  alphaB,S = 1.2E+00,   9.1E+01                                            
   14 spline knots.   Ns = 6(1)                                            
  ( 9) 2 infls.   ( 5) 1 extrs.                                            
  498 points on ppm-axis = NY
      4.000000     3.992357     3.984714     3.977070     3.969427     3.961784     3.954141     3.946497     3.938854     3.931211
      3.923568     3.915925     3.908281     3.900638     3.892995     3.885352     3.877708     3.870065     3.862422     3.854779
      3.847136     3.839492     3.831849     3.824206     3.816563     3.808919     3.801276     3.793633     3.785990     3.778347
      3.770703     3.763060     3.755417     3.747774     3.740130     3.732487     3.724844     3.717201     3.709558     3.701914
      3.694271     3.686628     3.678985     3.671341     3.663698     3.656055     3.648412     3.640769     3.633125     3.625482
      3.617839     3.610196     3.602552     3.594909     3.587266     3.579623     3.571980     3.564336     3.556693     3.549050
      3.541407     3.533763     3.526120     3.518477     3.510834     3.503191     3.495547     3.487904     3.480261     3.472618
      3.464974     3.457331     3.449688     3.442045     3.434402     3.426758     3.419115     3.411472     3.403829     3.396185
      3.388542     3.380899     3.373256     3.365613     3.357969     3.350326     3.342683     3.335040     3.327396     3.319753
      3.312110     3.304467     3.296824     3.289180     3.281537     3.273894     3.266251     3.258607     3.250964     3.243321
      3.235678     3.228034     3.220391     3.212748     3.205105     3.197462     3.189818     3.182175     3.174532     3.166889
      3.159245     3.151602     3.143959     3.136316     3.128673     3.121029     3.113386     3.105743     3.098100     3.090456
      3.082813     3.075170     3.067527     3.059884     3.052240     3.044597     3.036954     3.029311     3.021667     3.014024
      3.006381     2.998738     2.991095     2.983451     2.975808     2.968165     2.960522     2.952878     2.945235     2.937592
      2.929949     2.922306     2.914662     2.907019     2.899376     2.891733     2.884089     2.876446     2.868803     2.861160
      2.853517     2.845873     2.838230     2.830587     2.822944     2.815300     2.807657     2.800014     2.792371     2.784728
      2.777084     2.769441     2.761798     2.754155     2.746511     2.738868     2.731225     2.723582     2.715939     2.708295
      2.700652     2.693009     2.685366     2.677722     2.670079     2.662436     2.654793     2.647150     2.639506     2.631863
      2.624220     2.616577     2.608933     2.601290     2.593647     2.586004     2.578361     2.570717     2.563074     2.555431
      2.547788     2.540144     2.532501     2.524858     2.517215     2.509572     2.501928     2.494285     2.486642     2.478999
      2.471355     2.463712     2.456069     2.448426     2.440783     2.433139     2.425496     2.417853     2.410210     2.402566
      2.394923     2.387280     2.379637     2.371994     2.364350     2.356707     2.349064     2.341421     2.333777     2.326134
      2.318491     2.310848     2.303205     2.295561     2.287918     2.280275     2.272632     2.264988     2.257345     2.249702
      2.242059     2.234416     2.226772     2.219129     2.211486     2.203843     2.196199     2.188556     2.180913     2.173270
      2.165627     2.157983     2.150340     2.142697     2.135054     2.127410     2.119767     2.112124     2.104481     2.096838
      2.089194     2.081551     2.073908     2.066265     2.058621     2.050978     2.043335     2.035692     2.028049     2.020405
      2.012762     2.005119     1.997476     1.989833     1.982190     1.974546     1.966903     1.959260     1.951617     1.943974
      1.936331     1.928688     1.921045     1.913402     1.905759     1.898115     1.890472     1.882829     1.875186     1.867543
      1.859900     1.852257     1.844614     1.836971     1.829327     1.821684     1.814041     1.806398     1.798755     1.791112
      1.783469     1.775826     1.768183     1.760540     1.752896     1.745253     1.737610     1.729967     1.722324     1.714681
      1.707038     1.699395     1.691752     1.684108     1.676465     1.668822     1.661179     1.653536     1.645893     1.638250
      1.630607     1.622964     1.615321     1.607677     1.600034     1.592391     1.584748     1.577105     1.569462     1.561819
      1.554176     1.546533     1.538890     1.531246     1.523603     1.515960     1.508317     1.500674     1.493031     1.485388
      1.477745     1.470102     1.462458     1.454815     1.447172     1.439529     1.431886     1.424243     1.416600     1.408957
      1.401314     1.393671     1.386027     1.378384     1.370741     1.363098     1.355455     1.347812     1.340169     1.332526
      1.324883     1.317240     1.309596     1.301953     1.294310     1.286667     1.279024     1.271381     1.263738     1.256095
      1.248452     1.240808     1.233165     1.225522     1.217879     1.210236     1.202593     1.194950     1.187307     1.179664
      1.172021     1.164377     1.156734     1.149091     1.141448     1.133805     1.126162     1.118519     1.110876     1.103233
      1.095590     1.087946     1.080303     1.072660     1.065017     1.057374     1.049731     1.042088     1.034445     1.026802
      1.019158     1.011515     1.003872     0.996229     0.988586     0.980943     0.973300     0.965657     0.958014     0.950371
      0.942727     0.935084     0.927441     0.919798     0.912155     0.904512     0.896869     0.889226     0.881583     0.873940
      0.866296     0.858653     0.851010     0.843367     0.835724     0.828081     0.820438     0.812795     0.805152     0.797508
      0.789865     0.782222     0.774579     0.766936     0.759293     0.751650     0.744007     0.736364     0.728721     0.721077
      0.713434     0.705791     0.698148     0.690505     0.682862     0.675219     0.667576     0.659933     0.652290     0.644646
      0.637003     0.629360     0.621717     0.614074     0.606431     0.598788     0.591145     0.583502     0.575858     0.568215
      0.560572     0.552929     0.545286     0.537643     0.530000     0.522357     0.514714     0.507071     0.499427     0.491784
      0.484141     0.476498     0.468855     0.461212     0.453569     0.445925     0.438282     0.430639     0.422996     0.415353
      0.407710     0.400067     0.392424     0.384780     0.377137     0.369494     0.361851     0.354208     0.346565     0.338922
      0.331278     0.323635     0.315992     0.308349     0.300706     0.293063     0.285420     0.277777     0.270133     0.262490
      0.254847     0.247204     0.239561     0.231918     0.224275     0.216631     0.208988     0.201345
 NY phased data points follow
   1.40931E+01  1.58232E+01  1.66518E+01  1.97990E+01  2.76687E+01  3.14716E+01  4.39010E+01  4.89416E+01  5.88686E+01  6.89856E+01
   7.33394E+01  7.07368E+01  6.35125E+01  5.64784E+01  4.49957E+01  3.81420E+01  2.74561E+01  2.70585E+01  2.44812E+01  1.61003E+01
   2.28094E+01  2.33011E+01  2.13460E+01  2.11541E+01  2.34633E+01  2.49587E+01  2.33629E+01  2.01528E+01  2.18752E+01  2.56018E+01
   3.03272E+01  3.04612E+01  3.11908E+01  2.69287E+01  1.94767E+01  2.16672E+01  2.10946E+01  1.85589E+01  2.16007E+01  2.07915E+01
   1.86767E+01  1.67557E+01  1.83075E+01  2.16376E+01  2.14238E+01  2.13390E+01  2.84146E+01  2.89025E+01  2.89714E+01  2.71114E+01
   1.81860E+01  1.62805E+01  1.63669E+01  1.66551E+01  1.51603E+01  1.59267E+01  1.53607E+01  1.84624E+01  1.94827E+01  1.42807E+01
   1.76999E+01  7.24525E+00  6.38942E+00  5.81676E+00  2.77686E+00  2.73696E+00  3.10750E+00  2.26187E+00  5.85230E+00  3.12376E+00
   3.84375E+00  1.01966E+01  6.60736E+00  8.48951E+00  6.00846E+00  3.95373E+00  4.93288E+00  6.58634E+00  5.64726E+00  5.89277E+00
   6.00010E+00  4.40375E+00  6.38638E+00  7.80954E+00  5.58274E+00  9.58218E+00  8.06145E+00  4.48234E+00  5.91081E+00  5.97500E+00
   8.50405E+00  9.12672E+00  9.55651E+00  5.63282E+00  9.80875E+00  9.16258E+00  1.09244E+01  5.47526E+00  8.60825E+00  2.27809E+01
   4.07825E+01  6.56924E+01  7.96557E+01  8.32226E+01  7.30567E+01  6.22619E+01  4.51950E+01  3.22409E+01  2.26015E+01  1.48529E+01
   1.51267E+01  7.21714E+00  1.25769E+01  4.84396E+00  5.17907E+00  6.87842E+00  6.70084E+00  3.29036E+00  7.20711E+00  5.56401E+00
   8.14146E+00  5.94085E+00  1.37772E+01  2.03375E+01  3.81982E+01  5.50320E+01  6.96372E+01  7.21446E+01  6.77989E+01  5.52888E+01
   4.55996E+01  3.33939E+01  2.65000E+01  1.57462E+01  1.34756E+01  9.52586E+00  3.91788E+00  2.67318E+00  6.54242E+00  3.24602E+00
   1.22849E+00  3.86193E+00  6.28369E+00  7.11533E+00 -5.15595E-02  5.26784E+00  4.55114E+00  2.83762E+00  5.67911E+00  2.95989E+00
  -1.02801E-01  9.10380E-01  2.74471E+00 -2.26261E+00  1.64051E+00 -4.56456E-01  1.11600E+00  7.15588E-01  9.54590E-01 -1.04294E+00
  -3.94788E+00 -7.31534E+00 -1.79777E+00 -5.05951E+00 -3.80219E+00  7.41354E-02  3.03756E+00 -1.74152E+00 -8.74800E-01 -5.93800E+00
  -5.64111E+00 -7.23760E+00 -4.12259E+00 -1.19466E+01 -9.41143E+00 -6.61007E+00 -1.37603E+01 -7.85388E+00 -2.30697E+00 -5.39687E+00
  -1.04638E+01 -1.04686E+01 -1.06922E+01 -1.25456E+01 -1.21041E+01 -9.60722E+00 -5.19709E+00 -5.67772E+00 -3.51029E-01  1.67557E+00
   6.44432E+00  6.28070E+00  8.36991E+00  7.49499E+00  7.13483E+00  7.35674E+00  1.14175E+01  3.57474E+00 -3.43614E-02 -2.38842E+00
   2.61960E+00  5.80234E-01  2.40952E+00  6.60822E+00  4.04175E+00  3.16817E+00  3.42594E+00  2.28044E+00 -6.19220E-01 -2.47770E-01
  -1.96499E+00 -3.32514E+00 -5.11838E-01  4.55152E+00  1.14685E+01  1.75512E+01  1.92793E+01  1.05288E+01  8.38109E+00  4.29563E+00
  -1.38744E-01 -4.42856E+00 -5.02136E+00 -2.46188E+00  1.76015E+00  1.06686E+01  5.80695E+00  8.47155E+00  1.36767E+01  1.16552E+01
   1.06952E+01  8.49933E+00  7.91078E+00  8.02939E+00  8.66195E+00  6.96921E+00  7.80780E+00  1.07291E+01  9.36030E+00  5.00597E+00
   4.38015E+00  1.63376E+00  2.76354E+00  4.32508E+00  6.43868E+00  7.04796E+00  1.36672E+01  1.14456E+01  1.31518E+01  1.05068E+01
   1.53536E+01  2.04114E+01  1.71925E+01  2.64048E+01  3.33542E+01  3.80718E+01  4.34663E+01  5.54067E+01  7.77970E+01  9.61443E+01
   1.02807E+02  9.19547E+01  7.11814E+01  5.12343E+01  4.19944E+01  2.59531E+01  2.00658E+01  1.65124E+01  1.11591E+01  5.62044E+00
   1.11145E+01  7.53297E+00  1.14963E+01  5.69469E+00  5.50905E+00  1.01005E+01  6.85539E+00  9.82076E+00  5.62426E+00  7.18606E+00
   8.62932E+00  5.52897E+00  4.38458E+00  2.00679E+00  5.12006E+00  6.07880E+00  7.25875E+00  1.79298E-01  5.26380E+00  2.00786E+00
   5.42335E+00  5.06411E+00  3.99865E+00  3.74360E+00  2.33379E+00  7.77006E-01 -1.62328E-01  2.03974E-01  1.09004E+00  2.58318E+00
   8.15912E+00  1.24436E+00  2.11001E+00  3.38833E+00  4.63182E+00  5.52190E+00  8.35546E+00  2.92466E+00  6.87713E+00  4.22602E+00
   3.02804E+00  4.18547E+00  4.98544E+00  4.49916E+00  1.58604E+00  6.32871E+00  8.11906E+00  4.77471E+00  6.51274E+00  5.75573E+00
   8.34390E-01  9.17662E-01  4.83950E+00  2.85156E+00  2.75128E+00  7.29753E+00  5.45926E+00 -3.07824E+00  6.00864E+00 -1.29640E+00
  -2.71316E+00  1.61358E+00  8.53702E-01  5.70254E+00 -2.65255E+00  1.26219E+00  1.96758E-01  4.22886E+00  1.29801E+00 -2.89821E+00
   3.17448E+00 -2.61245E+00 -9.13114E-02 -1.38971E+00 -1.83501E-01 -4.50870E+00  3.78763E+00 -3.01591E+00 -4.91979E+00 -3.96655E+00
  -2.83715E+00 -1.89646E+00 -2.80773E+00  3.36427E+00  3.21123E+00  1.57774E+00  1.94178E+00  9.07518E+00  8.69416E+00  1.06963E+01
   7.25429E+00  5.71978E+00  7.16656E+00  5.56747E+00  4.42931E+00  5.55111E+00  2.76490E+00  5.83852E+00  5.57867E+00  5.26435E+00
   4.65404E+00  8.45288E-01  6.33248E+00  3.72693E+00  5.17661E+00  1.93177E+00  7.58181E+00  5.73104E+00  2.42625E+00  2.53142E+00
   4.76419E-01  4.76556E+00  1.94722E+00  4.81359E+00  4.22867E+00  3.67487E+00  3.33057E+00  5.34489E+00  4.73436E+00  4.53399E+00
   2.95577E+00  4.77050E+00  6.64719E+00  4.27663E+00  7.01557E+00  7.37734E+00  8.28477E+00  7.60941E+00  7.90261E+00  8.45229E+00
   8.60730E+00  8.98035E+00  4.72949E+00  7.06102E+00  7.78778E+00  9.49373E+00  9.75593E+00  9.62328E+00  1.06442E+01  1.25647E+01
   9.97543E+00  1.16222E+01  8.57126E+00  3.27338E+00  5.66438E+00  7.46937E+00  6.26078E+00  3.17490E+00  4.11112E+00  3.07763E+00
   3.34122E+00  5.62684E+00  5.03771E+00  4.43454E+00  5.49817E+00  2.92661E+00  5.05826E+00  2.66472E+00  4.30895E+00  3.10416E+00
   8.25859E-01  7.37807E+00  5.67024E+00 -1.27166E+00  4.59255E+00  1.76029E+00  7.09736E+00  3.36711E+00  4.90703E+00  1.83297E+00
   5.31646E+00  1.17291E+00  3.97101E+00  1.92317E+00  4.57021E+00  1.16634E-01  4.01589E+00  2.01242E+00  4.84091E+00 -1.38392E+00
   4.27236E+00  5.49960E+00 -1.07365E+00  2.98730E+00  2.75673E+00 -3.50155E+00  5.06071E+00  3.18560E+00  1.42567E+00  1.97025E+00
   8.55819E-01  7.53686E-02  2.74089E-01  1.23814E+00  6.13232E+00  1.48110E+00  6.31883E+00 -1.11847E+00  1.74213E+00  4.59724E+00
  -3.09023E+00  2.07282E+00  1.39967E+00  3.44725E-01  1.10806E+00  1.12416E+00  2.95055E+00  1.24753E+00  3.68110E+00  1.17694E+00
   9.76002E-01  5.31965E+00 -9.64768E-01  1.82262E+00  1.89671E+00 -1.27871E-01  3.48005E+00  1.73022E-01  5.25114E+00  1.64512E+00
   3.72379E-02  1.96883E+00  2.00280E+00  9.93331E-01  9.35406E-01 -7.12061E-02 -8.71936E-01  3.00536E+00
 NY points of the fit to the data follow
   2.08374E+01  2.07563E+01  2.10658E+01  2.19359E+01  2.39756E+01  2.80706E+01  3.51918E+01  4.55565E+01  5.72939E+01  6.65247E+01
   6.96965E+01  6.61204E+01  5.81682E+01  4.91593E+01  4.12559E+01  3.50595E+01  3.02433E+01  2.63299E+01  2.35305E+01  2.19598E+01
   2.11037E+01  2.04605E+01  1.98159E+01  1.91031E+01  1.83979E+01  1.79551E+01  1.82690E+01  2.00191E+01  2.33017E+01  2.71510E+01
   3.01118E+01  3.12768E+01  3.05875E+01  2.84415E+01  2.54221E+01  2.22138E+01  1.93581E+01  1.72034E+01  1.60597E+01  1.59150E+01
   1.62908E+01  1.70117E+01  1.80331E+01  1.94929E+01  2.13793E+01  2.33415E+01  2.45945E+01  2.44064E+01  2.29245E+01  2.07819E+01
   1.85577E+01  1.66336E+01  1.51605E+01  1.40556E+01  1.32978E+01  1.30298E+01  1.32449E+01  1.37184E+01  1.41979E+01  1.44013E+01
   1.40784E+01  1.32317E+01  1.20840E+01  1.09686E+01  1.01625E+01  9.75314E+00  9.67293E+00  9.83473E+00  1.01462E+01  1.05074E+01
   1.08076E+01  1.09022E+01  1.07357E+01  1.03650E+01  9.90848E+00  9.47931E+00  9.11444E+00  8.82075E+00  8.56696E+00  8.34320E+00
   8.20349E+00  8.17017E+00  8.25367E+00  8.40663E+00  8.44893E+00  8.14226E+00  7.41948E+00  6.50521E+00  5.75846E+00  5.40994E+00
   5.46418E+00  5.78368E+00  6.20341E+00  6.57305E+00  6.82895E+00  6.97936E+00  7.25193E+00  8.89565E+00  1.40243E+01  2.48988E+01
   4.25222E+01  6.33275E+01  7.94057E+01  8.39197E+01  7.62859E+01  6.17238E+01  4.63701E+01  3.34557E+01  2.35771E+01  1.62171E+01
   1.03331E+01  6.64983E+00  5.55475E+00  5.20468E+00  5.05025E+00  4.98101E+00  4.96196E+00  4.98232E+00  5.06921E+00  5.32270E+00
   6.05957E+00  8.24458E+00  1.35041E+01  2.36082E+01  3.92136E+01  5.74433E+01  7.19158E+01  7.68500E+01  7.13216E+01  5.93497E+01
   4.61642E+01  3.47791E+01  2.56762E+01  1.81566E+01  1.14824E+01  6.38044E+00  3.69504E+00  2.65385E+00  2.66701E+00  3.35991E+00
   4.26033E+00  4.94213E+00  5.23791E+00  5.14952E+00  4.77379E+00  4.29320E+00  3.81329E+00  3.35214E+00  2.92938E+00  2.49084E+00
   2.05035E+00  1.61085E+00  1.21173E+00  9.46451E-01  8.82844E-01  9.68948E-01  1.02598E+00  8.26094E-01  2.49386E-01 -5.37008E-01
  -1.14160E+00 -1.23211E+00 -8.34043E-01 -3.50115E-01 -2.39589E-01 -6.57530E-01 -1.41271E+00 -2.15772E+00 -2.64492E+00 -2.90965E+00
  -3.09877E+00 -3.38866E+00 -3.91905E+00 -4.59480E+00 -5.16701E+00 -5.35823E+00 -5.07816E+00 -4.61523E+00 -4.39167E+00 -4.50621E+00
  -4.69506E+00 -4.68009E+00 -4.46381E+00 -4.26706E+00 -4.21745E+00 -4.06255E+00 -3.27502E+00 -1.68182E+00  4.45665E-01  2.51407E+00
   3.97776E+00  4.60778E+00  4.43514E+00  3.69365E+00  2.66216E+00  1.50346E+00  4.69620E-01 -6.42354E-02  1.17966E-01  9.87785E-01
   2.34478E+00  3.90167E+00  5.30381E+00  6.17600E+00  6.16988E+00  5.22584E+00  3.44252E+00  1.16626E+00 -1.03877E+00 -2.64865E+00
  -3.20331E+00 -2.33480E+00  1.58076E-01  3.92926E+00  7.90187E+00  1.05405E+01  1.07145E+01  8.42379E+00  4.34048E+00 -5.21574E-01
  -5.04314E+00 -8.06629E+00 -8.59697E+00 -6.59854E+00 -2.92577E+00  1.14024E+00  4.44851E+00  6.59499E+00  7.55386E+00  7.56185E+00
   7.04555E+00  6.50403E+00  6.45818E+00  7.14040E+00  8.27974E+00  9.47032E+00  1.02787E+01  1.02777E+01  9.34381E+00  7.75149E+00
   6.05920E+00  4.94603E+00  4.91602E+00  6.03614E+00  7.87235E+00  9.78776E+00  1.12759E+01  1.20829E+01  1.22462E+01  1.22236E+01
   1.28968E+01  1.50154E+01  1.90499E+01  2.45666E+01  3.07402E+01  3.75802E+01  4.67611E+01  6.10089E+01  7.92296E+01  9.44469E+01
   9.88887E+01  9.06283E+01  7.43398E+01  5.67197E+01  4.19486E+01  3.05425E+01  2.19132E+01  1.48585E+01  9.82729E+00  7.91031E+00
   7.06390E+00  6.59930E+00  6.38381E+00  6.28496E+00  6.11111E+00  5.81979E+00  5.44478E+00  5.04282E+00  4.65269E+00  4.31035E+00
   4.03455E+00  3.82801E+00  3.68030E+00  3.56341E+00  3.44026E+00  3.29672E+00  3.14424E+00  3.00451E+00  2.90423E+00  2.85963E+00
   2.87770E+00  2.94984E+00  3.04784E+00  3.14729E+00  3.23985E+00  3.32413E+00  3.40460E+00  3.49336E+00  3.60140E+00  3.73552E+00
   3.89548E+00  4.06858E+00  4.24063E+00  4.40019E+00  4.53851E+00  4.65110E+00  4.73479E+00  4.78515E+00  4.80324E+00  4.78886E+00
   4.74142E+00  4.66183E+00  4.55263E+00  4.41706E+00  4.25903E+00  4.08276E+00  3.89307E+00  3.69557E+00  3.49653E+00  3.30267E+00
   3.12245E+00  2.96829E+00  2.84832E+00  2.75941E+00  2.67371E+00  2.53211E+00  2.28389E+00  1.93610E+00  1.55335E+00  1.21395E+00
   9.67403E-01  8.36106E-01  8.43981E-01  9.93616E-01  1.23426E+00  1.48974E+00  1.68286E+00  1.78914E+00  1.84750E+00  1.90510E+00
   2.00580E+00  2.20266E+00  2.51735E+00  2.93838E+00  3.35456E+00  3.49835E+00  3.14588E+00  2.32873E+00  1.33554E+00  5.29726E-01
   1.46088E-01  3.06185E-01  1.07751E+00  2.35197E+00  3.80019E+00  5.08094E+00  5.92670E+00  6.29334E+00  6.33146E+00  6.16917E+00
   5.88760E+00  5.52325E+00  5.08155E+00  4.66679E+00  4.32052E+00  4.02681E+00  3.78232E+00  3.58527E+00  3.43140E+00  3.31410E+00
   3.22575E+00  3.15917E+00  3.10880E+00  3.07102E+00  3.04393E+00  3.02695E+00  3.02049E+00  3.02587E+00  3.04516E+00  3.08082E+00
   3.13529E+00  3.21077E+00  3.30930E+00  3.43296E+00  3.58378E+00  3.76350E+00  3.97328E+00  4.21359E+00  4.48439E+00  4.78509E+00
   5.11444E+00  5.47012E+00  5.84858E+00  6.24510E+00  6.65402E+00  7.06881E+00  7.48208E+00  7.88553E+00  8.27017E+00  8.62683E+00
   8.94671E+00  9.22167E+00  9.44440E+00  9.60867E+00  9.70967E+00  9.74450E+00  9.71234E+00  9.61443E+00  9.45375E+00  9.23483E+00
   8.96369E+00  8.64770E+00  8.29518E+00  7.91488E+00  7.51543E+00  7.10510E+00  6.69164E+00  6.28220E+00  5.88304E+00  5.49925E+00
   5.13464E+00  4.79195E+00  4.47302E+00  4.17899E+00  3.91019E+00  3.66618E+00  3.44589E+00  3.24795E+00  3.07090E+00  2.91324E+00
   2.77336E+00  2.64945E+00  2.53973E+00  2.44263E+00  2.35681E+00  2.28112E+00  2.21437E+00  2.15540E+00  2.10315E+00  2.05685E+00
   2.01593E+00  1.97985E+00  1.94801E+00  1.91977E+00  1.89468E+00  1.87246E+00  1.85294E+00  1.83586E+00  1.82085E+00  1.80759E+00
   1.79591E+00  1.78575E+00  1.77709E+00  1.76975E+00  1.76347E+00  1.75809E+00  1.75361E+00  1.75006E+00  1.74742E+00  1.74552E+00
   1.74417E+00  1.74332E+00  1.74305E+00  1.74341E+00  1.74435E+00  1.74569E+00  1.74733E+00  1.74929E+00  1.75167E+00  1.75451E+00
   1.75770E+00  1.76110E+00  1.76467E+00  1.76850E+00  1.77268E+00  1.77720E+00  1.78192E+00  1.78674E+00  1.79167E+00  1.79685E+00
   1.80232E+00  1.80802E+00  1.81380E+00  1.81964E+00  1.82561E+00  1.83182E+00  1.83828E+00  1.84487E+00  1.85150E+00  1.85818E+00
   1.86503E+00  1.87211E+00  1.87940E+00  1.88676E+00  1.89414E+00  1.90162E+00  1.90931E+00  1.91725E+00
 NY background values follow
     1.758E+01    1.743E+01    1.728E+01    1.712E+01    1.697E+01    1.682E+01    1.666E+01    1.651E+01    1.636E+01    1.620E+01
     1.605E+01    1.590E+01    1.574E+01    1.559E+01    1.543E+01    1.528E+01    1.513E+01    1.497E+01    1.482E+01    1.467E+01
     1.451E+01    1.436E+01    1.421E+01    1.406E+01    1.390E+01    1.375E+01    1.360E+01    1.345E+01    1.330E+01    1.314E+01
     1.299E+01    1.284E+01    1.269E+01    1.254E+01    1.239E+01    1.224E+01    1.209E+01    1.194E+01    1.179E+01    1.164E+01
     1.149E+01    1.135E+01    1.120E+01    1.105E+01    1.090E+01    1.076E+01    1.061E+01    1.047E+01    1.032E+01    1.018E+01
     1.003E+01    9.890E+00    9.747E+00    9.605E+00    9.463E+00    9.322E+00    9.181E+00    9.041E+00    8.902E+00    8.763E+00
     8.625E+00    8.488E+00    8.351E+00    8.215E+00    8.080E+00    7.946E+00    7.812E+00    7.679E+00    7.547E+00    7.416E+00
     7.285E+00    7.155E+00    7.026E+00    6.898E+00    6.771E+00    6.645E+00    6.520E+00    6.395E+00    6.272E+00    6.149E+00
     6.028E+00    5.907E+00    5.787E+00    5.669E+00    5.551E+00    5.435E+00    5.319E+00    5.205E+00    5.092E+00    4.980E+00
     4.869E+00    4.759E+00    4.650E+00    4.542E+00    4.436E+00    4.330E+00    4.226E+00    4.123E+00    4.021E+00    3.920E+00
     3.821E+00    3.722E+00    3.625E+00    3.529E+00    3.434E+00    3.340E+00    3.247E+00    3.155E+00    3.065E+00    2.975E+00
     2.887E+00    2.800E+00    2.714E+00    2.629E+00    2.546E+00    2.463E+00    2.382E+00    2.302E+00    2.222E+00    2.144E+00
     2.068E+00    1.992E+00    1.917E+00    1.844E+00    1.772E+00    1.701E+00    1.631E+00    1.562E+00    1.494E+00    1.428E+00
     1.362E+00    1.298E+00    1.235E+00    1.173E+00    1.112E+00    1.052E+00    9.939E-01    9.365E-01    8.802E-01    8.250E-01
     7.710E-01    7.181E-01    6.663E-01    6.156E-01    5.660E-01    5.175E-01    4.701E-01    4.237E-01    3.785E-01    3.343E-01
     2.911E-01    2.491E-01    2.081E-01    1.681E-01    1.292E-01    9.130E-02    5.445E-02    1.862E-02   -1.618E-02   -4.997E-02
    -8.275E-02   -1.145E-01   -1.453E-01   -1.751E-01   -2.039E-01   -2.317E-01   -2.586E-01   -2.844E-01   -3.093E-01   -3.333E-01
    -3.563E-01   -3.783E-01   -3.994E-01   -4.196E-01   -4.389E-01   -4.572E-01   -4.746E-01   -4.911E-01   -5.066E-01   -5.213E-01
    -5.351E-01   -5.480E-01   -5.600E-01   -5.711E-01   -5.814E-01   -5.909E-01   -5.996E-01   -6.076E-01   -6.148E-01   -6.212E-01
    -6.269E-01   -6.320E-01   -6.364E-01   -6.402E-01   -6.433E-01   -6.458E-01   -6.478E-01   -6.492E-01   -6.501E-01   -6.505E-01
    -6.504E-01   -6.498E-01   -6.488E-01   -6.473E-01   -6.455E-01   -6.432E-01   -6.407E-01   -6.378E-01   -6.345E-01   -6.310E-01
    -6.272E-01   -6.232E-01   -6.189E-01   -6.144E-01   -6.098E-01   -6.050E-01   -6.000E-01   -5.950E-01   -5.898E-01   -5.846E-01
    -5.793E-01   -5.740E-01   -5.687E-01   -5.634E-01   -5.581E-01   -5.529E-01   -5.478E-01   -5.428E-01   -5.378E-01   -5.330E-01
    -5.283E-01   -5.237E-01   -5.191E-01   -5.147E-01   -5.104E-01   -5.061E-01   -5.020E-01   -4.980E-01   -4.940E-01   -4.902E-01
    -4.864E-01   -4.828E-01   -4.793E-01   -4.758E-01   -4.724E-01   -4.692E-01   -4.660E-01   -4.630E-01   -4.600E-01   -4.571E-01
    -4.543E-01   -4.517E-01   -4.491E-01   -4.466E-01   -4.442E-01   -4.419E-01   -4.397E-01   -4.376E-01   -4.355E-01   -4.336E-01
    -4.318E-01   -4.301E-01   -4.284E-01   -4.269E-01   -4.254E-01   -4.240E-01   -4.228E-01   -4.216E-01   -4.205E-01   -4.195E-01
    -4.186E-01   -4.178E-01   -4.170E-01   -4.164E-01   -4.158E-01   -4.154E-01   -4.150E-01   -4.146E-01   -4.144E-01   -4.141E-01
    -4.140E-01   -4.139E-01   -4.138E-01   -4.138E-01   -4.138E-01   -4.139E-01   -4.139E-01   -4.140E-01   -4.141E-01   -4.143E-01
    -4.144E-01   -4.145E-01   -4.147E-01   -4.148E-01   -4.149E-01   -4.150E-01   -4.151E-01   -4.152E-01   -4.152E-01   -4.152E-01
    -4.152E-01   -4.151E-01   -4.150E-01   -4.148E-01   -4.146E-01   -4.143E-01   -4.139E-01   -4.135E-01   -4.130E-01   -4.124E-01
    -4.118E-01   -4.110E-01   -4.102E-01   -4.092E-01   -4.082E-01   -4.070E-01   -4.057E-01   -4.044E-01   -4.029E-01   -4.012E-01
    -3.995E-01   -3.976E-01   -3.956E-01   -3.935E-01   -3.912E-01   -3.888E-01   -3.863E-01   -3.836E-01   -3.808E-01   -3.778E-01
    -3.747E-01   -3.714E-01   -3.680E-01   -3.644E-01   -3.607E-01   -3.568E-01   -3.527E-01   -3.485E-01   -3.441E-01   -3.395E-01
    -3.348E-01   -3.299E-01   -3.248E-01   -3.195E-01   -3.141E-01   -3.084E-01   -3.026E-01   -2.966E-01   -2.904E-01   -2.840E-01
    -2.774E-01   -2.706E-01   -2.636E-01   -2.564E-01   -2.490E-01   -2.414E-01   -2.336E-01   -2.256E-01   -2.173E-01   -2.088E-01
    -2.002E-01   -1.912E-01   -1.821E-01   -1.727E-01   -1.632E-01   -1.534E-01   -1.433E-01   -1.331E-01   -1.227E-01   -1.121E-01
    -1.013E-01   -9.028E-02   -7.909E-02   -6.772E-02   -5.617E-02   -4.445E-02   -3.256E-02   -2.050E-02   -8.290E-03    4.081E-03
     1.660E-02    2.928E-02    4.209E-02    5.504E-02    6.813E-02    8.135E-02    9.469E-02    1.082E-01    1.217E-01    1.354E-01
     1.493E-01    1.632E-01    1.772E-01    1.913E-01    2.055E-01    2.198E-01    2.342E-01    2.486E-01    2.631E-01    2.777E-01
     2.924E-01    3.071E-01    3.219E-01    3.368E-01    3.516E-01    3.666E-01    3.816E-01    3.966E-01    4.116E-01    4.267E-01
     4.418E-01    4.569E-01    4.721E-01    4.872E-01    5.024E-01    5.176E-01    5.328E-01    5.480E-01    5.632E-01    5.785E-01
     5.937E-01    6.089E-01    6.241E-01    6.393E-01    6.544E-01    6.696E-01    6.847E-01    6.998E-01    7.149E-01    7.300E-01
     7.450E-01    7.600E-01    7.750E-01    7.899E-01    8.047E-01    8.196E-01    8.343E-01    8.490E-01    8.637E-01    8.783E-01
     8.928E-01    9.073E-01    9.217E-01    9.361E-01    9.503E-01    9.645E-01    9.786E-01    9.927E-01    1.007E+00    1.020E+00
     1.034E+00    1.048E+00    1.061E+00    1.075E+00    1.088E+00    1.102E+00    1.115E+00    1.128E+00    1.141E+00    1.154E+00
     1.167E+00    1.179E+00    1.192E+00    1.205E+00    1.217E+00    1.230E+00    1.242E+00    1.255E+00    1.267E+00    1.279E+00
     1.291E+00    1.303E+00    1.315E+00    1.327E+00    1.339E+00    1.351E+00    1.363E+00    1.375E+00    1.387E+00    1.399E+00
     1.410E+00    1.422E+00    1.434E+00    1.446E+00    1.457E+00    1.469E+00    1.480E+00    1.492E+00    1.504E+00    1.515E+00
     1.527E+00    1.538E+00    1.550E+00    1.562E+00    1.573E+00    1.585E+00    1.596E+00    1.608E+00
 Ala      Conc. = 4.11E+01
