 LCModel (Version 6.3-1L) Copyright: S.W. Provencher.          Ref.: Magn. Reson. Med. 30:672-679 (1993).                
 Slice#1 Row#2 Col#1  PD_24_press_1_raw_act
 36 lines in following concentration table = NCONC+1
    Conc.  %SD /Cr+PCr  Metabolite                                         
   73.706  51%  17.127 Ala                                                 
    3.859 136%   0.897 Asp                                                 
    4.304 374%   1.000 Cr                                                  
    0.000 999%   0.000 PCr                                                 
    2.329 135%   0.541 GABA                                                
    2.563 123%   0.595 Glc                                                 
   14.181 507%   3.295 Gln                                                 
    0.764 999%   0.177 Glu                                                 
    0.000 999%   0.000 GPC                                                 
   18.000  35%   4.183 PCh                                                 
   23.549 103%   5.472 GSH                                                 
   57.099 127%  13.268 Ins                                                 
   87.724  52%  20.384 Lac                                                 
   21.311  85%   4.952 NAA                                                 
    0.000 999%   0.000 NAAG                                                
    0.841 125%   0.195 Scyllo                                              
    4.639 112%   1.078 Tau                                                 
    0.785 803%   0.182 -CrCH2                                              
   18.000  35%   4.183 GPC+PCh                                             
   21.311  85%   4.952 NAA+NAAG                                            
    4.304 374%   1.000 Cr+PCr                                              
   14.945 711%   3.473 Glu+Gln                                             
    0.000 999%   0.000 Lip13a                                              
  268.686  33%  62.433 Lip13b                                              
   74.817  36%  17.385 Lip09                                               
   30.131 114%   7.001 MM09                                                
   38.946  42%   9.050 Lip20                                               
    0.000 999%   0.000 MM20                                                
    2.935 699%   0.682 MM12                                                
  106.746  67%  24.804 MM14                                                
    2.940 999%   0.683 MM17                                                
  268.686  33%  62.433 Lip13a+Lip13b                                       
  378.367  22%  87.919 MM14+Lip13a+Lip13b+MM12                             
  104.948  33%  24.386 MM09+Lip09                                          
   38.946  42%   9.050 MM20+Lip20                                          
   6 lines in following misc. output table
  FWHM = 0.054 ppm    S/N =   1                                            
  Data shift =-0.008 ppm                                                   
  Ph: -90 deg      -6.1 deg/ppm                                            
  alphaB,S = 8.5E+01,   2.6E+01                                            
   14 spline knots.   Ns = 5(1)                                            
   2 inflections.     1 extrema                                            
  498 points on ppm-axis = NY
      4.000000     3.992357     3.984714     3.977070     3.969427     3.961784     3.954141     3.946497     3.938854     3.931211
      3.923568     3.915925     3.908281     3.900638     3.892995     3.885352     3.877708     3.870065     3.862422     3.854779
      3.847136     3.839492     3.831849     3.824206     3.816563     3.808919     3.801276     3.793633     3.785990     3.778347
      3.770703     3.763060     3.755417     3.747774     3.740130     3.732487     3.724844     3.717201     3.709558     3.701914
      3.694271     3.686628     3.678985     3.671341     3.663698     3.656055     3.648412     3.640769     3.633125     3.625482
      3.617839     3.610196     3.602552     3.594909     3.587266     3.579623     3.571980     3.564336     3.556693     3.549050
      3.541407     3.533763     3.526120     3.518477     3.510834     3.503191     3.495547     3.487904     3.480261     3.472618
      3.464974     3.457331     3.449688     3.442045     3.434402     3.426758     3.419115     3.411472     3.403829     3.396185
      3.388542     3.380899     3.373256     3.365613     3.357969     3.350326     3.342683     3.335040     3.327396     3.319753
      3.312110     3.304467     3.296824     3.289180     3.281537     3.273894     3.266251     3.258607     3.250964     3.243321
      3.235678     3.228034     3.220391     3.212748     3.205105     3.197462     3.189818     3.182175     3.174532     3.166889
      3.159245     3.151602     3.143959     3.136316     3.128673     3.121029     3.113386     3.105743     3.098100     3.090456
      3.082813     3.075170     3.067527     3.059884     3.052240     3.044597     3.036954     3.029311     3.021667     3.014024
      3.006381     2.998738     2.991095     2.983451     2.975808     2.968165     2.960522     2.952878     2.945235     2.937592
      2.929949     2.922306     2.914662     2.907019     2.899376     2.891733     2.884089     2.876446     2.868803     2.861160
      2.853517     2.845873     2.838230     2.830587     2.822944     2.815300     2.807657     2.800014     2.792371     2.784728
      2.777084     2.769441     2.761798     2.754155     2.746511     2.738868     2.731225     2.723582     2.715939     2.708295
      2.700652     2.693009     2.685366     2.677722     2.670079     2.662436     2.654793     2.647150     2.639506     2.631863
      2.624220     2.616577     2.608933     2.601290     2.593647     2.586004     2.578361     2.570717     2.563074     2.555431
      2.547788     2.540144     2.532501     2.524858     2.517215     2.509572     2.501928     2.494285     2.486642     2.478999
      2.471355     2.463712     2.456069     2.448426     2.440783     2.433139     2.425496     2.417853     2.410210     2.402566
      2.394923     2.387280     2.379637     2.371994     2.364350     2.356707     2.349064     2.341421     2.333777     2.326134
      2.318491     2.310848     2.303205     2.295561     2.287918     2.280275     2.272632     2.264988     2.257345     2.249702
      2.242059     2.234416     2.226772     2.219129     2.211486     2.203843     2.196199     2.188556     2.180913     2.173270
      2.165627     2.157983     2.150340     2.142697     2.135054     2.127410     2.119767     2.112124     2.104481     2.096838
      2.089194     2.081551     2.073908     2.066265     2.058621     2.050978     2.043335     2.035692     2.028049     2.020405
      2.012762     2.005119     1.997476     1.989833     1.982190     1.974546     1.966903     1.959260     1.951617     1.943974
      1.936331     1.928688     1.921045     1.913402     1.905759     1.898115     1.890472     1.882829     1.875186     1.867543
      1.859900     1.852257     1.844614     1.836971     1.829327     1.821684     1.814041     1.806398     1.798755     1.791112
      1.783469     1.775826     1.768183     1.760540     1.752896     1.745253     1.737610     1.729967     1.722324     1.714681
      1.707038     1.699395     1.691752     1.684108     1.676465     1.668822     1.661179     1.653536     1.645893     1.638250
      1.630607     1.622964     1.615321     1.607677     1.600034     1.592391     1.584748     1.577105     1.569462     1.561819
      1.554176     1.546533     1.538890     1.531246     1.523603     1.515960     1.508317     1.500674     1.493031     1.485388
      1.477745     1.470102     1.462458     1.454815     1.447172     1.439529     1.431886     1.424243     1.416600     1.408957
      1.401314     1.393671     1.386027     1.378384     1.370741     1.363098     1.355455     1.347812     1.340169     1.332526
      1.324883     1.317240     1.309596     1.301953     1.294310     1.286667     1.279024     1.271381     1.263738     1.256095
      1.248452     1.240808     1.233165     1.225522     1.217879     1.210236     1.202593     1.194950     1.187307     1.179664
      1.172021     1.164377     1.156734     1.149091     1.141448     1.133805     1.126162     1.118519     1.110876     1.103233
      1.095590     1.087946     1.080303     1.072660     1.065017     1.057374     1.049731     1.042088     1.034445     1.026802
      1.019158     1.011515     1.003872     0.996229     0.988586     0.980943     0.973300     0.965657     0.958014     0.950371
      0.942727     0.935084     0.927441     0.919798     0.912155     0.904512     0.896869     0.889226     0.881583     0.873940
      0.866296     0.858653     0.851010     0.843367     0.835724     0.828081     0.820438     0.812795     0.805152     0.797508
      0.789865     0.782222     0.774579     0.766936     0.759293     0.751650     0.744007     0.736364     0.728721     0.721077
      0.713434     0.705791     0.698148     0.690505     0.682862     0.675219     0.667576     0.659933     0.652290     0.644646
      0.637003     0.629360     0.621717     0.614074     0.606431     0.598788     0.591145     0.583502     0.575858     0.568215
      0.560572     0.552929     0.545286     0.537643     0.530000     0.522357     0.514714     0.507071     0.499427     0.491784
      0.484141     0.476498     0.468855     0.461212     0.453569     0.445925     0.438282     0.430639     0.422996     0.415353
      0.407710     0.400067     0.392424     0.384780     0.377137     0.369494     0.361851     0.354208     0.346565     0.338922
      0.331278     0.323635     0.315992     0.308349     0.300706     0.293063     0.285420     0.277777     0.270133     0.262490
      0.254847     0.247204     0.239561     0.231918     0.224275     0.216631     0.208988     0.201345
 NY phased data points follow
   2.27867E+00  2.00407E+00  3.63533E-01  2.14737E+00  6.51911E-01  2.48281E+00  6.16914E-01 -1.97357E-02  7.99038E-01 -1.68173E+00
   1.70473E+00  1.55971E+00 -4.48966E-01  2.32489E-01  2.16790E+00  2.58409E+00  1.90210E+00 -2.41729E+00 -4.91073E-02  3.34304E+00
   8.58243E-01  1.89399E+00  2.17695E+00  1.29904E+00 -1.82032E+00  2.33501E+00  1.72727E+00  2.04116E+00  1.06488E+00 -7.37048E-02
   3.29468E-02  8.76437E-01  1.78158E+00  2.18542E+00 -3.30441E-01  1.15288E+00  1.71981E+00 -5.13300E-02 -1.93852E+00  9.67634E-01
   2.46999E-01  1.97568E-01  2.42675E+00  7.03080E-01 -6.33667E-01  1.03269E-01  1.66571E-01  1.04500E-01  2.80092E+00 -5.03749E-01
  -6.73921E-01  1.38493E+00  7.33256E-01  7.60590E-01  1.66547E+00  2.00949E+00 -9.16211E-02  4.99553E-01  3.28486E-01  4.13461E-01
   4.91918E-01  1.03804E+00 -6.08375E-02  8.46743E-01  1.89970E+00  1.19750E+00 -5.77004E-01  6.66137E-01  7.12289E-01  2.94345E+00
   1.34733E+00  2.08573E+00  2.71271E+00  4.96993E-01  1.98890E+00  3.19626E+00  1.14607E+00  1.94591E+00 -3.26933E-02  3.06199E-02
   1.11757E+00 -2.15125E+00  1.02116E+00 -2.28329E-01  5.32952E-01  6.37989E-01  3.10584E+00 -8.66383E-01  4.66082E-01  1.67839E+00
  -7.80870E-01  1.82143E+00  2.05058E+00 -1.23699E+00  1.93836E+00  1.11681E+00  4.67606E-01  4.14782E-01  1.02040E+00 -3.60041E-01
   8.36201E-01  7.99656E-01  2.26618E+00  4.02290E+00  1.35975E+00  2.26972E+00  2.31061E+00  1.42471E+00 -2.67719E-01  1.91743E+00
   1.10659E+00  4.63779E+00  3.06398E-01  1.87256E+00  1.65141E-02 -1.00942E+00  1.71361E+00  2.72896E-01  4.29315E-01  6.80264E-01
  -6.74978E-01  1.87579E+00  1.42823E-01  1.05319E+00  1.47861E+00  1.83815E-01 -9.75525E-01  1.33351E+00 -2.58605E-01 -1.22190E+00
   3.83010E+00  1.09693E+00  2.11894E+00 -7.15079E-01  1.38778E+00 -9.15923E-01  5.84185E-01  2.13370E+00  2.29970E+00 -5.84035E-01
   4.85428E-01  3.52317E+00  2.27475E+00 -1.66120E+00 -4.69234E-02 -4.22157E-01  6.88842E-01  8.47096E-01  5.36534E-01  1.81152E-01
   1.18802E+00  1.33554E+00 -2.05035E-01  3.36567E+00  8.45794E-01  1.12895E-01 -5.74110E-01  2.76851E+00  9.82201E-01  1.62385E+00
  -2.43660E+00  7.62474E-01 -6.33808E-01  2.01144E+00  1.29943E+00  1.40151E+00 -6.62856E-01  7.61404E-01  2.08839E+00  2.90025E-01
   5.25569E-01 -2.39855E-01 -1.61183E+00  2.00958E+00  1.04961E+00 -8.29882E-01 -8.04284E-01  5.42678E-02  8.41841E-01 -9.56843E-01
   3.91055E-01 -7.66845E-01 -1.92048E-01  9.09115E-01 -6.37858E-01 -2.95333E-01  2.34019E+00  2.09159E+00  1.24590E+00 -7.23510E-01
  -3.91046E-01 -8.26296E-02  7.09816E-01 -6.37274E-01 -2.77364E-01  2.92317E+00 -1.42139E-01  1.24106E+00  2.85702E-01 -2.56596E+00
  -1.89106E+00  1.68046E+00  6.06187E-02  2.84472E-01 -1.63572E+00  1.46119E+00 -9.66055E-01 -2.42816E-01 -3.98118E-01  1.64830E-01
   4.10215E-01 -3.78248E-01  7.04771E-01 -5.07794E-01  4.52822E-01 -2.79837E-01 -2.56909E+00  5.15253E-01  3.67439E+00 -7.88133E-01
   9.16419E-01 -1.31825E+00 -2.27919E+00  8.51137E-01  2.18426E-01  7.61474E-01 -1.21629E+00 -6.98438E-01 -2.02149E+00  7.99448E-01
   1.49429E+00 -3.29464E+00  8.68480E-01  1.62179E+00 -9.77076E-01 -2.59313E+00  1.57681E+00 -1.44222E+00  2.62956E-01  2.79825E+00
   1.60992E+00 -1.43270E+00 -2.07479E+00 -1.78680E+00 -6.07644E-01  5.99569E-01 -2.12607E+00 -1.97043E+00  2.67499E+00  2.21090E+00
   1.50696E+00  7.58729E-01  8.32067E-01 -1.72172E+00 -2.16416E+00  1.08791E+00  5.12263E-01  1.15762E+00  1.59994E+00 -3.66157E-01
   1.47678E+00 -8.06176E-02  3.33871E+00  9.57778E-01 -5.72253E-01  8.84447E-01  1.93052E+00 -2.25629E-01  1.71916E+00  5.64406E-01
  -3.16335E-01  9.69569E-01 -1.45004E+00  1.35391E+00  1.40100E+00  1.77899E+00 -1.76675E+00  1.72263E+00 -1.23983E+00 -4.69940E-01
   8.09705E-01 -8.20417E-01 -5.22604E-01 -2.67878E-01  1.81714E+00  1.11163E+00  1.64112E-01 -6.43056E-01 -1.33614E-02  4.49620E-01
   4.62077E-01  2.91668E+00  1.22504E-01  6.96559E-01  8.27337E-02  1.59615E+00 -6.05072E-01 -7.25354E-01 -1.41808E+00  1.56329E+00
  -5.40538E-01 -1.50147E+00  1.16026E+00 -1.11169E+00  3.00348E-01  4.67291E-01 -2.65482E-01  2.90708E+00 -6.88502E-01  8.22903E-01
   1.00615E+00  9.75918E-01  1.31396E+00 -2.19845E-01  3.05835E-01 -1.03476E-01 -3.53566E-01 -7.27000E-01  1.41612E+00  3.43669E+00
   1.07230E+00 -3.90223E-01  1.49155E+00  1.51715E+00  6.53277E-01 -5.73458E-01  2.11314E+00  1.16029E+00  4.29996E-01  4.41153E-02
  -1.92282E+00  7.48700E-01  2.40183E-01  2.97775E+00  1.07516E+00  1.03635E+00  3.60789E+00  8.87465E-01  2.89048E+00  1.66627E+00
   3.05187E+00  2.63325E+00  2.50050E-01  3.26541E+00  1.79932E+00  5.05917E+00  9.37946E-01  2.39299E+00  3.19315E+00  1.12242E+00
   1.14180E+00  2.10257E+00  1.87449E+00  2.57180E+00  2.48585E+00  3.42120E+00  3.84069E+00  3.04249E+00  2.38140E+00  1.52485E+00
   3.94061E+00  1.03999E+00  3.11984E+00  3.48591E-01  9.00911E-01 -4.05861E-03  1.16753E+00  1.30405E+00 -7.98547E-01  9.52045E-01
   2.89707E-01 -4.01968E-01  4.21103E-01 -2.12349E+00 -1.98081E+00 -3.73674E+00 -1.70359E+00  4.10112E-02  1.63613E+00 -1.52170E+00
  -1.60462E+00  1.45004E+00  1.13314E+00 -3.66677E+00 -2.10010E+00 -2.95251E+00 -1.69669E+00  1.79931E+00  1.17881E+00  8.73574E-01
   6.19353E-01 -3.76584E-01 -4.70169E-02  1.06687E+00  2.23569E+00  3.16601E+00  1.59754E+00  9.64908E-01  1.30910E+00 -1.52006E-01
   1.78275E-01  1.58134E-01 -1.78037E+00  4.79873E-01  1.11832E+00 -1.82911E-01  1.54442E+00  1.66849E+00 -5.21676E-01  2.77793E+00
   3.45576E+00  1.47630E+00 -1.15150E+00  8.70991E-02  3.97075E-01  3.45074E-01  1.88716E-01  2.53576E-01  2.56973E-01  1.71674E+00
   4.18044E-01  1.05088E+00 -1.39952E+00  2.66059E+00 -8.12827E-01  2.88384E+00  1.24015E+00 -1.11036E-01  1.85588E+00  1.51948E+00
  -2.03195E-01  6.48274E-01  8.11578E-01 -5.49331E-01  1.57056E+00  1.25081E+00  1.82328E+00  2.44701E+00  1.59789E+00 -2.81524E+00
   5.78430E-01 -1.97035E+00  2.76256E+00  3.36443E-01  4.45749E-01 -1.02878E-01  3.04301E+00 -6.03172E-01 -4.16941E-01 -5.51680E-01
   5.38071E-01  5.83243E-01  4.01550E-01  5.05850E-01 -6.79034E-01  1.11856E-02  7.88587E-01  1.12070E+00 -5.86572E-01  6.08068E-01
  -1.19815E+00 -1.05020E+00  9.67568E-02 -3.62780E-01 -2.30785E+00 -3.35412E+00 -2.50305E-01  8.37032E-01 -5.68505E-02  1.46870E+00
   1.38279E-01  6.45211E-01  6.26854E-01 -1.43218E+00  9.20885E-02 -9.56908E-01 -2.70077E-01  6.91591E-01 -1.03680E+00  1.34153E-02
  -8.34084E-01  6.53311E-01 -1.69974E+00  2.69454E-01 -3.73834E-01  1.47132E+00 -8.47824E-01 -7.78083E-01 -5.99735E-01 -1.71807E+00
  -1.57666E+00  1.08453E+00 -2.56801E+00  1.26545E+00  8.33648E-02  2.74570E-01  6.42414E-01  1.23679E+00
 NY points of the fit to the data follow
   6.77765E-01  6.64277E-01  6.63122E-01  6.70893E-01  6.77556E-01  6.76468E-01  6.78874E-01  6.91872E-01  7.10516E-01  7.28414E-01
   7.41361E-01  7.46768E-01  7.39811E-01  7.15056E-01  6.79780E-01  6.46065E-01  6.24097E-01  6.21808E-01  6.45490E-01  6.93905E-01
   7.60457E-01  8.16012E-01  8.34420E-01  8.12439E-01  7.69714E-01  7.57382E-01  7.91617E-01  8.47621E-01  9.19728E-01  1.00586E+00
   1.08656E+00  1.13710E+00  1.15040E+00  1.12478E+00  1.06997E+00  9.89057E-01  8.91468E-01  8.09374E-01  7.36617E-01  6.63021E-01
   6.04694E-01  5.73572E-01  5.87104E-01  6.59399E-01  7.73952E-01  8.92416E-01  9.77784E-01  1.00870E+00  9.86242E-01  9.21105E-01
   8.26541E-01  7.25514E-01  6.38649E-01  5.77949E-01  5.58859E-01  5.85734E-01  6.38985E-01  6.97178E-01  7.44154E-01  7.71561E-01
   7.76902E-01  7.60036E-01  7.27116E-01  6.88106E-01  6.52931E-01  6.27055E-01  6.16362E-01  6.26116E-01  6.50797E-01  6.80706E-01
   7.06491E-01  7.24698E-01  7.33329E-01  7.31307E-01  7.20264E-01  7.02329E-01  6.81317E-01  6.59881E-01  6.40439E-01  6.27084E-01
   6.19161E-01  6.15974E-01  6.11920E-01  5.98974E-01  5.72668E-01  5.37043E-01  5.00154E-01  4.69368E-01  4.50298E-01  4.47185E-01
   4.60065E-01  4.86307E-01  5.20323E-01  5.54365E-01  5.79968E-01  5.93750E-01  6.01113E-01  6.22289E-01  7.34619E-01  1.03451E+00
   1.44719E+00  1.84702E+00  2.14287E+00  2.29110E+00  2.27300E+00  2.08807E+00  1.77380E+00  1.40122E+00  1.04174E+00  7.40420E-01
   5.47383E-01  4.86294E-01  4.71088E-01  4.65120E-01  4.61388E-01  4.57258E-01  4.51645E-01  4.45242E-01  4.38974E-01  4.34359E-01
   4.33934E-01  4.41090E-01  4.64157E-01  5.02991E-01  5.46699E-01  5.85598E-01  6.14341E-01  6.31352E-01  6.41094E-01  6.47898E-01
   6.44392E-01  6.22781E-01  5.82092E-01  5.25812E-01  4.67215E-01  4.17216E-01  3.83066E-01  3.75322E-01  3.93491E-01  4.29844E-01
   4.75931E-01  5.21749E-01  5.52674E-01  5.62982E-01  5.56302E-01  5.37851E-01  5.15214E-01  4.94461E-01  4.77391E-01  4.65537E-01
   4.55218E-01  4.45998E-01  4.39054E-01  4.35009E-01  4.33180E-01  4.32115E-01  4.30152E-01  4.26213E-01  4.20849E-01  4.15414E-01
   4.11705E-01  4.09437E-01  4.07732E-01  4.06842E-01  4.06431E-01  4.05390E-01  4.02931E-01  3.98805E-01  3.93259E-01  3.87319E-01
   3.80948E-01  3.72725E-01  3.62718E-01  3.52510E-01  3.43596E-01  3.36309E-01  3.29204E-01  3.22021E-01  3.15860E-01  3.11752E-01
   3.07620E-01  3.01104E-01  2.91788E-01  2.81958E-01  2.77143E-01  2.84270E-01  3.06931E-01  3.43522E-01  3.85456E-01  4.21610E-01
   4.43856E-01  4.46406E-01  4.23501E-01  3.74341E-01  3.14114E-01  2.62655E-01  2.33886E-01  2.33663E-01  2.60679E-01  3.08030E-01
   3.64097E-01  4.15283E-01  4.51463E-01  4.67052E-01  4.59065E-01  4.25758E-01  3.80917E-01  3.39774E-01  3.09128E-01  2.91558E-01
   2.87651E-01  2.96957E-01  3.16582E-01  3.40589E-01  3.63345E-01  3.82209E-01  3.95587E-01  4.01498E-01  4.04266E-01  4.08327E-01
   4.12959E-01  4.17362E-01  4.21242E-01  4.24225E-01  4.25323E-01  4.22605E-01  4.11531E-01  3.89220E-01  3.62055E-01  3.39228E-01
   3.26112E-01  3.23785E-01  3.37247E-01  3.70139E-01  4.10858E-01  4.43646E-01  4.60566E-01  4.58776E-01  4.34025E-01  3.88271E-01
   3.36209E-01  2.95121E-01  2.73049E-01  2.69727E-01  2.85099E-01  3.15892E-01  3.50892E-01  3.81561E-01  4.04696E-01  4.18609E-01
   4.23221E-01  4.21942E-01  4.19965E-01  4.23236E-01  4.40049E-01  5.06589E-01  6.45544E-01  8.14633E-01  9.64782E-01  1.06420E+00
   1.09916E+00  1.06532E+00  9.67423E-01  8.24768E-01  6.67351E-01  5.21101E-01  4.02039E-01  3.32213E-01  3.09211E-01  2.98913E-01
   2.91914E-01  2.87099E-01  2.84131E-01  2.82317E-01  2.80923E-01  2.79483E-01  2.77511E-01  2.74700E-01  2.71252E-01  2.67448E-01
   2.63771E-01  2.60798E-01  2.58821E-01  2.57982E-01  2.58268E-01  2.59402E-01  2.61074E-01  2.63063E-01  2.65152E-01  2.67220E-01
   2.69262E-01  2.71296E-01  2.73458E-01  2.75908E-01  2.78697E-01  2.81849E-01  2.85424E-01  2.89453E-01  2.93913E-01  2.98809E-01
   3.04183E-01  3.10052E-01  3.16457E-01  3.23462E-01  3.31157E-01  3.39659E-01  3.49106E-01  3.59651E-01  3.71468E-01  3.84758E-01
   3.99775E-01  4.16824E-01  4.36269E-01  4.58546E-01  4.84200E-01  5.13966E-01  5.48883E-01  5.90488E-01  6.41222E-01  7.05414E-01
   7.92120E-01  9.23952E-01  1.11893E+00  1.28711E+00  1.33599E+00  1.24209E+00  1.02528E+00  7.18041E-01  3.51750E-01 -2.20822E-02
  -2.62350E-01 -2.64159E-01 -4.41909E-02  3.33523E-01  7.95300E-01  1.22057E+00  1.54455E+00  1.74884E+00  1.83913E+00  1.85063E+00
   1.82826E+00  1.82928E+00  1.96690E+00  2.20344E+00  2.37826E+00  2.42099E+00  2.33449E+00  2.14959E+00  1.89660E+00  1.62336E+00
   1.48276E+00  1.59346E+00  1.92894E+00  2.39633E+00  2.90688E+00  3.32907E+00  3.54699E+00  3.54077E+00  3.33042E+00  2.96987E+00
   2.51939E+00  2.03640E+00  1.61655E+00  1.28817E+00  1.02307E+00  8.09015E-01  6.39042E-01  5.06728E-01  4.05660E-01  3.29711E-01
   2.73385E-01  2.32027E-01  2.01896E-01  1.80126E-01  1.64617E-01  1.53884E-01  1.46895E-01  1.42946E-01  1.41568E-01  1.42466E-01
   1.45481E-01  1.50543E-01  1.57634E-01  1.66768E-01  1.77988E-01  1.91353E-01  2.06940E-01  2.24809E-01  2.44994E-01  2.67485E-01
   2.92225E-01  3.19103E-01  3.47937E-01  3.78458E-01  4.10297E-01  4.42990E-01  4.75986E-01  5.08658E-01  5.40312E-01  5.70201E-01
   5.97551E-01  6.21597E-01  6.41623E-01  6.56989E-01  6.67161E-01  6.71731E-01  6.70445E-01  6.63219E-01  6.50150E-01  6.31504E-01
   6.07700E-01  5.79290E-01  5.46932E-01  5.11365E-01  4.73377E-01  4.33762E-01  3.93291E-01  3.52678E-01  3.12572E-01  2.73536E-01
   2.36040E-01  2.00445E-01  1.67014E-01  1.35912E-01  1.07222E-01  8.09595E-02  5.70782E-02  3.54816E-02  1.60362E-02 -1.41436E-03
  -1.70354E-02 -3.09954E-02 -4.34628E-02 -5.46034E-02 -6.45740E-02 -7.35173E-02 -8.15593E-02 -8.88126E-02 -9.53789E-02 -1.01351E-01
  -1.06809E-01 -1.11820E-01 -1.16439E-01 -1.20716E-01 -1.24695E-01 -1.28416E-01 -1.31911E-01 -1.35207E-01 -1.38324E-01 -1.41283E-01
  -1.44103E-01 -1.46803E-01 -1.49394E-01 -1.51886E-01 -1.54288E-01 -1.56609E-01 -1.58859E-01 -1.61047E-01 -1.63178E-01 -1.65254E-01
  -1.67279E-01 -1.69261E-01 -1.71204E-01 -1.73112E-01 -1.74986E-01 -1.76828E-01 -1.78639E-01 -1.80425E-01 -1.82189E-01 -1.83932E-01
  -1.85653E-01 -1.87353E-01 -1.89035E-01 -1.90701E-01 -1.92353E-01 -1.93991E-01 -1.95614E-01 -1.97222E-01 -1.98818E-01 -2.00405E-01
  -2.01981E-01 -2.03547E-01 -2.05100E-01 -2.06643E-01 -2.08178E-01 -2.09705E-01 -2.11223E-01 -2.12731E-01 -2.14228E-01 -2.15717E-01
  -2.17198E-01 -2.18670E-01 -2.20133E-01 -2.21584E-01 -2.23024E-01 -2.24454E-01 -2.25873E-01 -2.27279E-01
 NY background values follow
     6.154E-01    6.137E-01    6.121E-01    6.104E-01    6.088E-01    6.071E-01    6.055E-01    6.039E-01    6.022E-01    6.006E-01
     5.989E-01    5.973E-01    5.956E-01    5.940E-01    5.923E-01    5.907E-01    5.890E-01    5.874E-01    5.857E-01    5.841E-01
     5.824E-01    5.808E-01    5.791E-01    5.775E-01    5.758E-01    5.742E-01    5.725E-01    5.709E-01    5.692E-01    5.676E-01
     5.659E-01    5.643E-01    5.627E-01    5.610E-01    5.594E-01    5.577E-01    5.561E-01    5.544E-01    5.528E-01    5.511E-01
     5.495E-01    5.478E-01    5.462E-01    5.445E-01    5.429E-01    5.412E-01    5.396E-01    5.379E-01    5.363E-01    5.346E-01
     5.330E-01    5.313E-01    5.297E-01    5.280E-01    5.264E-01    5.247E-01    5.231E-01    5.214E-01    5.198E-01    5.182E-01
     5.165E-01    5.149E-01    5.132E-01    5.116E-01    5.099E-01    5.083E-01    5.066E-01    5.050E-01    5.033E-01    5.017E-01
     5.000E-01    4.984E-01    4.967E-01    4.951E-01    4.934E-01    4.918E-01    4.901E-01    4.885E-01    4.868E-01    4.852E-01
     4.835E-01    4.819E-01    4.802E-01    4.786E-01    4.769E-01    4.753E-01    4.736E-01    4.720E-01    4.704E-01    4.687E-01
     4.671E-01    4.654E-01    4.638E-01    4.621E-01    4.605E-01    4.588E-01    4.572E-01    4.555E-01    4.539E-01    4.522E-01
     4.506E-01    4.489E-01    4.473E-01    4.456E-01    4.440E-01    4.423E-01    4.407E-01    4.390E-01    4.374E-01    4.357E-01
     4.341E-01    4.325E-01    4.308E-01    4.292E-01    4.275E-01    4.259E-01    4.242E-01    4.226E-01    4.209E-01    4.193E-01
     4.176E-01    4.160E-01    4.143E-01    4.127E-01    4.110E-01    4.094E-01    4.077E-01    4.061E-01    4.044E-01    4.028E-01
     4.011E-01    3.995E-01    3.979E-01    3.962E-01    3.946E-01    3.929E-01    3.913E-01    3.896E-01    3.880E-01    3.863E-01
     3.847E-01    3.830E-01    3.814E-01    3.797E-01    3.781E-01    3.764E-01    3.748E-01    3.732E-01    3.715E-01    3.699E-01
     3.682E-01    3.666E-01    3.649E-01    3.633E-01    3.616E-01    3.600E-01    3.583E-01    3.567E-01    3.550E-01    3.534E-01
     3.517E-01    3.501E-01    3.485E-01    3.468E-01    3.452E-01    3.435E-01    3.419E-01    3.402E-01    3.386E-01    3.369E-01
     3.353E-01    3.336E-01    3.320E-01    3.303E-01    3.287E-01    3.271E-01    3.254E-01    3.238E-01    3.221E-01    3.205E-01
     3.188E-01    3.172E-01    3.155E-01    3.139E-01    3.122E-01    3.106E-01    3.090E-01    3.073E-01    3.057E-01    3.040E-01
     3.024E-01    3.007E-01    2.991E-01    2.974E-01    2.958E-01    2.942E-01    2.925E-01    2.909E-01    2.892E-01    2.876E-01
     2.859E-01    2.843E-01    2.826E-01    2.810E-01    2.794E-01    2.777E-01    2.761E-01    2.744E-01    2.728E-01    2.711E-01
     2.695E-01    2.678E-01    2.662E-01    2.646E-01    2.629E-01    2.613E-01    2.596E-01    2.580E-01    2.563E-01    2.547E-01
     2.531E-01    2.514E-01    2.498E-01    2.481E-01    2.465E-01    2.448E-01    2.432E-01    2.416E-01    2.399E-01    2.383E-01
     2.366E-01    2.350E-01    2.333E-01    2.317E-01    2.301E-01    2.284E-01    2.268E-01    2.251E-01    2.235E-01    2.218E-01
     2.202E-01    2.186E-01    2.169E-01    2.153E-01    2.136E-01    2.120E-01    2.104E-01    2.087E-01    2.071E-01    2.054E-01
     2.038E-01    2.022E-01    2.005E-01    1.989E-01    1.972E-01    1.956E-01    1.939E-01    1.923E-01    1.907E-01    1.890E-01
     1.874E-01    1.857E-01    1.841E-01    1.825E-01    1.808E-01    1.792E-01    1.775E-01    1.759E-01    1.743E-01    1.726E-01
     1.710E-01    1.693E-01    1.677E-01    1.661E-01    1.644E-01    1.628E-01    1.612E-01    1.595E-01    1.579E-01    1.562E-01
     1.546E-01    1.530E-01    1.513E-01    1.497E-01    1.480E-01    1.464E-01    1.448E-01    1.431E-01    1.415E-01    1.399E-01
     1.382E-01    1.366E-01    1.349E-01    1.333E-01    1.317E-01    1.300E-01    1.284E-01    1.268E-01    1.251E-01    1.235E-01
     1.218E-01    1.202E-01    1.186E-01    1.169E-01    1.153E-01    1.137E-01    1.120E-01    1.104E-01    1.087E-01    1.071E-01
     1.055E-01    1.038E-01    1.022E-01    1.006E-01    9.893E-02    9.730E-02    9.566E-02    9.403E-02    9.239E-02    9.076E-02
     8.912E-02    8.749E-02    8.585E-02    8.422E-02    8.258E-02    8.095E-02    7.931E-02    7.768E-02    7.605E-02    7.441E-02
     7.278E-02    7.114E-02    6.951E-02    6.788E-02    6.624E-02    6.461E-02    6.298E-02    6.134E-02    5.971E-02    5.808E-02
     5.644E-02    5.481E-02    5.318E-02    5.155E-02    4.991E-02    4.828E-02    4.665E-02    4.502E-02    4.338E-02    4.175E-02
     4.012E-02    3.849E-02    3.686E-02    3.523E-02    3.359E-02    3.196E-02    3.033E-02    2.870E-02    2.707E-02    2.544E-02
     2.381E-02    2.218E-02    2.055E-02    1.892E-02    1.729E-02    1.566E-02    1.403E-02    1.240E-02    1.077E-02    9.137E-03
     7.508E-03    5.878E-03    4.249E-03    2.620E-03    9.908E-04   -6.381E-04   -2.267E-03   -3.896E-03   -5.524E-03   -7.153E-03
    -8.781E-03   -1.041E-02   -1.204E-02   -1.367E-02   -1.529E-02   -1.692E-02   -1.855E-02   -2.018E-02   -2.180E-02   -2.343E-02
    -2.506E-02   -2.668E-02   -2.831E-02   -2.994E-02   -3.156E-02   -3.319E-02   -3.482E-02   -3.644E-02   -3.807E-02   -3.970E-02
    -4.132E-02   -4.295E-02   -4.457E-02   -4.620E-02   -4.782E-02   -4.945E-02   -5.107E-02   -5.270E-02   -5.432E-02   -5.595E-02
    -5.757E-02   -5.920E-02   -6.082E-02   -6.244E-02   -6.407E-02   -6.569E-02   -6.732E-02   -6.894E-02   -7.056E-02   -7.219E-02
    -7.381E-02   -7.543E-02   -7.705E-02   -7.868E-02   -8.030E-02   -8.192E-02   -8.354E-02   -8.517E-02   -8.679E-02   -8.841E-02
    -9.003E-02   -9.165E-02   -9.328E-02   -9.490E-02   -9.652E-02   -9.814E-02   -9.976E-02   -1.014E-01   -1.030E-01   -1.046E-01
    -1.062E-01   -1.079E-01   -1.095E-01   -1.111E-01   -1.127E-01   -1.143E-01   -1.160E-01   -1.176E-01   -1.192E-01   -1.208E-01
    -1.224E-01   -1.241E-01   -1.257E-01   -1.273E-01   -1.289E-01   -1.305E-01   -1.321E-01   -1.338E-01   -1.354E-01   -1.370E-01
    -1.386E-01   -1.402E-01   -1.419E-01   -1.435E-01   -1.451E-01   -1.467E-01   -1.483E-01   -1.499E-01   -1.516E-01   -1.532E-01
    -1.548E-01   -1.564E-01   -1.580E-01   -1.596E-01   -1.612E-01   -1.629E-01   -1.645E-01   -1.661E-01   -1.677E-01   -1.693E-01
    -1.709E-01   -1.725E-01   -1.742E-01   -1.758E-01   -1.774E-01   -1.790E-01   -1.806E-01   -1.822E-01   -1.838E-01   -1.855E-01
    -1.871E-01   -1.887E-01   -1.903E-01   -1.919E-01   -1.935E-01   -1.951E-01   -1.967E-01   -1.984E-01
 Ala      Conc. = 7.37E+01
