 LCModel (Version 6.3-1L) Copyright: S.W. Provencher.          Ref.: Magn. Reson. Med. 30:672-679 (1993).                
 Slice#3 Row#6 Col#9  PD_24_press_1_raw_act
 36 lines in following concentration table = NCONC+1
    Conc.  %SD /Cr+PCr  Metabolite                                         
    0.000 999%   0.000 Ala                                                 
  206.138 127% 9.8E-02 Asp                                                 
  492.811  44%   0.235 Cr                                                  
 1.61E+03  14%   0.765 PCr                                                 
    0.000 999%   0.000 GABA                                                
    0.000 999%   0.000 Glc                                                 
  755.164  35%   0.359 Gln                                                 
 1.80E+03  16%   0.857 Glu                                                 
  803.418   3%   0.382 GPC                                                 
    0.000 999%   0.000 PCh                                                 
  469.482  17%   0.223 GSH                                                 
  807.913  37%   0.385 Ins                                                 
    0.000 999%   0.000 Lac                                                 
 2.43E+03   4%   1.157 NAA                                                 
   69.884 155% 3.3E-02 NAAG                                                
   86.778  37% 4.1E-02 Scyllo                                              
    0.000 999%   0.000 Tau                                                 
    0.000 999%   0.000 -CrCH2                                              
  803.418   3%   0.382 GPC+PCh                                             
 2.50E+03   3%   1.191 NAA+NAAG                                            
 2.10E+03   3%   1.000 Cr+PCr                                              
 2.56E+03  16%   1.216 Glu+Gln                                             
    0.000 999%   0.000 Lip13a                                              
  351.187  33%   0.167 Lip13b                                              
   71.286  84% 3.4E-02 Lip09                                               
 1.14E+03  17%   0.545 MM09                                                
   60.409  66% 2.9E-02 Lip20                                               
 2.67E+03  13%   1.269 MM20                                                
  278.758  40%   0.133 MM12                                                
  433.787  60%   0.206 MM14                                                
  774.528  26%   0.369 MM17                                                
  351.187  33%   0.167 Lip13a+Lip13b                                       
 1.06E+03  31%   0.506 MM14+Lip13a+Lip13b+MM12                             
 1.22E+03  16%   0.579 MM09+Lip09                                          
 2.73E+03  13%   1.297 MM20+Lip20                                          
   6 lines in following misc. output table
  FWHM = 0.061 ppm    S/N =  10                                            
  Data shift = 0.008 ppm                                                   
  Ph: -11 deg       0.1 deg/ppm                                            
  alphaB,S = 6.1E-01,   1.9E+02                                            
   14 spline knots.   Ns = 7(1)                                            
  ( 9) 2 infls.   ( 5) 1 extrs.                                            
  498 points on ppm-axis = NY
      4.000000     3.992357     3.984714     3.977070     3.969427     3.961784     3.954141     3.946497     3.938854     3.931211
      3.923568     3.915925     3.908281     3.900638     3.892995     3.885352     3.877708     3.870065     3.862422     3.854779
      3.847136     3.839492     3.831849     3.824206     3.816563     3.808919     3.801276     3.793633     3.785990     3.778347
      3.770703     3.763060     3.755417     3.747774     3.740130     3.732487     3.724844     3.717201     3.709558     3.701914
      3.694271     3.686628     3.678985     3.671341     3.663698     3.656055     3.648412     3.640769     3.633125     3.625482
      3.617839     3.610196     3.602552     3.594909     3.587266     3.579623     3.571980     3.564336     3.556693     3.549050
      3.541407     3.533763     3.526120     3.518477     3.510834     3.503191     3.495547     3.487904     3.480261     3.472618
      3.464974     3.457331     3.449688     3.442045     3.434402     3.426758     3.419115     3.411472     3.403829     3.396185
      3.388542     3.380899     3.373256     3.365613     3.357969     3.350326     3.342683     3.335040     3.327396     3.319753
      3.312110     3.304467     3.296824     3.289180     3.281537     3.273894     3.266251     3.258607     3.250964     3.243321
      3.235678     3.228034     3.220391     3.212748     3.205105     3.197462     3.189818     3.182175     3.174532     3.166889
      3.159245     3.151602     3.143959     3.136316     3.128673     3.121029     3.113386     3.105743     3.098100     3.090456
      3.082813     3.075170     3.067527     3.059884     3.052240     3.044597     3.036954     3.029311     3.021667     3.014024
      3.006381     2.998738     2.991095     2.983451     2.975808     2.968165     2.960522     2.952878     2.945235     2.937592
      2.929949     2.922306     2.914662     2.907019     2.899376     2.891733     2.884089     2.876446     2.868803     2.861160
      2.853517     2.845873     2.838230     2.830587     2.822944     2.815300     2.807657     2.800014     2.792371     2.784728
      2.777084     2.769441     2.761798     2.754155     2.746511     2.738868     2.731225     2.723582     2.715939     2.708295
      2.700652     2.693009     2.685366     2.677722     2.670079     2.662436     2.654793     2.647150     2.639506     2.631863
      2.624220     2.616577     2.608933     2.601290     2.593647     2.586004     2.578361     2.570717     2.563074     2.555431
      2.547788     2.540144     2.532501     2.524858     2.517215     2.509572     2.501928     2.494285     2.486642     2.478999
      2.471355     2.463712     2.456069     2.448426     2.440783     2.433139     2.425496     2.417853     2.410210     2.402566
      2.394923     2.387280     2.379637     2.371994     2.364350     2.356707     2.349064     2.341421     2.333777     2.326134
      2.318491     2.310848     2.303205     2.295561     2.287918     2.280275     2.272632     2.264988     2.257345     2.249702
      2.242059     2.234416     2.226772     2.219129     2.211486     2.203843     2.196199     2.188556     2.180913     2.173270
      2.165627     2.157983     2.150340     2.142697     2.135054     2.127410     2.119767     2.112124     2.104481     2.096838
      2.089194     2.081551     2.073908     2.066265     2.058621     2.050978     2.043335     2.035692     2.028049     2.020405
      2.012762     2.005119     1.997476     1.989833     1.982190     1.974546     1.966903     1.959260     1.951617     1.943974
      1.936331     1.928688     1.921045     1.913402     1.905759     1.898115     1.890472     1.882829     1.875186     1.867543
      1.859900     1.852257     1.844614     1.836971     1.829327     1.821684     1.814041     1.806398     1.798755     1.791112
      1.783469     1.775826     1.768183     1.760540     1.752896     1.745253     1.737610     1.729967     1.722324     1.714681
      1.707038     1.699395     1.691752     1.684108     1.676465     1.668822     1.661179     1.653536     1.645893     1.638250
      1.630607     1.622964     1.615321     1.607677     1.600034     1.592391     1.584748     1.577105     1.569462     1.561819
      1.554176     1.546533     1.538890     1.531246     1.523603     1.515960     1.508317     1.500674     1.493031     1.485388
      1.477745     1.470102     1.462458     1.454815     1.447172     1.439529     1.431886     1.424243     1.416600     1.408957
      1.401314     1.393671     1.386027     1.378384     1.370741     1.363098     1.355455     1.347812     1.340169     1.332526
      1.324883     1.317240     1.309596     1.301953     1.294310     1.286667     1.279024     1.271381     1.263738     1.256095
      1.248452     1.240808     1.233165     1.225522     1.217879     1.210236     1.202593     1.194950     1.187307     1.179664
      1.172021     1.164377     1.156734     1.149091     1.141448     1.133805     1.126162     1.118519     1.110876     1.103233
      1.095590     1.087946     1.080303     1.072660     1.065017     1.057374     1.049731     1.042088     1.034445     1.026802
      1.019158     1.011515     1.003872     0.996229     0.988586     0.980943     0.973300     0.965657     0.958014     0.950371
      0.942727     0.935084     0.927441     0.919798     0.912155     0.904512     0.896869     0.889226     0.881583     0.873940
      0.866296     0.858653     0.851010     0.843367     0.835724     0.828081     0.820438     0.812795     0.805152     0.797508
      0.789865     0.782222     0.774579     0.766936     0.759293     0.751650     0.744007     0.736364     0.728721     0.721077
      0.713434     0.705791     0.698148     0.690505     0.682862     0.675219     0.667576     0.659933     0.652290     0.644646
      0.637003     0.629360     0.621717     0.614074     0.606431     0.598788     0.591145     0.583502     0.575858     0.568215
      0.560572     0.552929     0.545286     0.537643     0.530000     0.522357     0.514714     0.507071     0.499427     0.491784
      0.484141     0.476498     0.468855     0.461212     0.453569     0.445925     0.438282     0.430639     0.422996     0.415353
      0.407710     0.400067     0.392424     0.384780     0.377137     0.369494     0.361851     0.354208     0.346565     0.338922
      0.331278     0.323635     0.315992     0.308349     0.300706     0.293063     0.285420     0.277777     0.270133     0.262490
      0.254847     0.247204     0.239561     0.231918     0.224275     0.216631     0.208988     0.201345
 NY phased data points follow
   4.22727E+01  4.71016E+01  4.05117E+01  3.87756E+01  4.00236E+01  5.15692E+01  5.42098E+01  6.42238E+01  7.42159E+01  8.51381E+01
   9.20649E+01  9.29419E+01  9.80296E+01  8.65829E+01  7.52290E+01  7.40915E+01  6.15774E+01  5.08837E+01  4.80704E+01  4.87895E+01
   3.91644E+01  3.96516E+01  3.93208E+01  3.44086E+01  4.08947E+01  4.01508E+01  3.66943E+01  3.55921E+01  4.51274E+01  4.70127E+01
   4.86321E+01  4.99710E+01  4.42068E+01  3.93244E+01  3.69438E+01  3.83919E+01  3.56646E+01  3.80887E+01  3.28262E+01  3.68998E+01
   3.23158E+01  2.89118E+01  2.96692E+01  3.35378E+01  3.31741E+01  4.22227E+01  4.65318E+01  4.05880E+01  4.20877E+01  3.61232E+01
   3.82406E+01  3.33706E+01  3.40891E+01  3.44350E+01  2.50602E+01  3.08528E+01  2.87647E+01  3.34979E+01  3.04313E+01  2.97562E+01
   3.04151E+01  2.14649E+01  2.11765E+01  2.13869E+01  2.25398E+01  1.86159E+01  1.52356E+01  1.56034E+01  9.99274E+00  1.60431E+01
   1.73592E+01  1.23291E+01  1.77525E+01  1.65919E+01  1.19706E+01  1.67463E+01  1.55390E+01  1.80048E+01  1.54250E+01  1.49938E+01
   1.46677E+01  1.41206E+01  1.62075E+01  1.84583E+01  1.39759E+01  2.25597E+01  1.54679E+01  1.63730E+01  1.82116E+01  2.12681E+01
   2.06265E+01  1.64335E+01  1.93772E+01  1.45923E+01  1.42502E+01  1.76632E+01  1.38834E+01  1.10192E+01  1.89534E+01  2.96534E+01
   4.66435E+01  6.30661E+01  8.08377E+01  8.67234E+01  7.92598E+01  8.15842E+01  6.75468E+01  6.21827E+01  4.64853E+01  4.86904E+01
   2.98285E+01  2.40249E+01  2.20069E+01  2.05199E+01  2.10396E+01  1.51912E+01  1.61604E+01  1.25033E+01  1.06440E+01  8.46088E+00
   3.69260E+00  1.10082E+01  1.31562E+01  2.25352E+01  3.12161E+01  5.45479E+01  6.01665E+01  6.76282E+01  7.41774E+01  7.46858E+01
   6.15489E+01  6.00325E+01  4.80525E+01  3.54072E+01  2.96626E+01  2.61279E+01  1.72087E+01  1.88246E+01  1.75107E+01  1.45007E+01
   1.38922E+01  1.55193E+01  1.30508E+01  9.15128E+00  1.09843E+01  1.09001E+01  1.02810E+01  6.34969E+00  4.63267E+00  8.24307E+00
   1.33907E+01  9.64995E+00  8.54502E+00  7.14074E+00  3.56299E+00  6.43523E+00  6.18739E+00  6.81546E+00  9.07500E+00 -7.53156E-02
   2.39942E+00  1.14281E+00  1.50505E+00  7.01049E+00  6.16539E+00  1.70816E+00  8.33274E+00  2.63939E+00  5.08897E-01  3.64680E+00
   2.18271E+00  5.37044E+00  7.55199E-01  1.94477E+00 -1.06688E+00  1.98954E+00 -3.41317E+00 -1.10285E+00  1.96554E+00  5.36445E-02
   9.61021E-01 -7.16304E+00 -4.88835E+00 -3.10125E-01 -1.59371E+00 -7.83252E-01 -4.88391E+00 -1.21188E+00  1.71760E+00  3.74568E+00
   5.95083E+00  1.04317E+01  9.88912E+00  1.27132E+01  1.67180E+01  1.44551E+01  1.43684E+01  1.21865E+01  6.66326E+00  7.62957E+00
   3.20259E+00  1.36956E+01  1.07999E+01  1.04697E+01  1.55511E+01  1.20297E+01  9.98796E+00  9.30929E+00  4.12135E+00  7.34816E+00
   2.72263E+00  3.46926E+00  6.92232E+00  1.25195E+01  2.03960E+01  1.66194E+01  2.57435E+01  2.16061E+01  2.17385E+01  1.25996E+01
   1.14669E+01  8.55096E+00  3.70046E+00  1.03725E+01  7.80033E+00  1.07703E+01  1.48979E+01  1.47489E+01  1.48700E+01  2.17284E+01
   1.99721E+01  1.12230E+01  1.55343E+01  2.02726E+01  2.00119E+01  1.91195E+01  1.84081E+01  1.68325E+01  1.93088E+01  1.37564E+01
   1.46343E+01  1.55712E+01  1.19793E+01  1.31579E+01  1.69593E+01  1.91561E+01  1.86772E+01  1.92001E+01  1.56315E+01  1.84016E+01
   2.17491E+01  2.07518E+01  2.29815E+01  2.31345E+01  2.73672E+01  2.53456E+01  3.32360E+01  5.21216E+01  6.46308E+01  8.65049E+01
   9.97012E+01  9.44134E+01  9.09335E+01  8.11522E+01  6.69395E+01  5.29640E+01  3.62411E+01  3.25601E+01  2.57343E+01  2.24205E+01
   1.75721E+01  1.61412E+01  1.08374E+01  1.96881E+01  1.11787E+01  1.53187E+01  1.14997E+01  1.08795E+01  1.15118E+01  1.38076E+01
   7.90992E+00  1.60711E+01  1.16590E+01  1.54208E+01  5.45563E+00  4.96515E+00  1.02499E+01  1.10366E+01  1.14134E+01  8.09003E+00
   1.00055E+01  1.07813E+01  1.36080E+01  1.34540E+01  9.68706E+00  7.55879E+00  9.64954E+00  8.40185E+00  6.97520E+00  7.09007E+00
   6.85429E+00  1.26634E+01  8.84704E+00  1.05013E+01  5.43007E+00  9.92641E+00  9.68760E+00  9.55523E+00  9.20655E+00  1.08116E+01
   3.81715E+00  8.83733E+00  9.28815E+00  1.18120E+01  5.69738E+00  1.25520E+01  1.21718E+01  7.50867E+00  1.23662E+01  6.75741E+00
   1.15267E+01  1.04746E+01  9.11927E+00  9.96591E+00  1.00166E+01  9.92855E+00  5.57721E+00  1.39623E+01  6.39889E+00  8.72301E+00
   4.40798E+00  9.62781E-01  6.28882E+00  6.81625E+00  6.56500E+00  6.13318E+00  1.44216E+00  8.45514E+00  3.73776E+00 -2.57198E+00
  -3.37473E+00 -1.50354E+00 -5.72123E+00  2.25804E+00  3.78439E+00 -5.56677E-01  1.47916E-01 -1.80488E+00  1.80601E+00 -3.57962E+00
   4.30048E+00  4.89317E+00  9.34842E+00  5.40554E+00  1.27831E+01  1.21650E+01  1.28942E+01  1.59262E+00  8.17467E+00  5.43147E+00
   4.40722E+00  1.25439E+00  4.16828E+00 -3.97405E-01 -3.01289E+00  5.51744E+00 -1.60700E+00  3.06557E-01 -4.64241E-01  5.13080E-01
  -5.60851E+00  1.12596E+00 -4.33050E+00  4.73070E+00  5.30225E+00 -2.20766E+00  3.60382E+00  2.32499E+00 -8.56855E-01 -5.48463E+00
  -2.37705E+00 -3.82860E+00  6.18256E+00  3.26055E+00 -1.74104E+00  4.22822E+00  5.95051E+00  6.66384E+00  4.10066E+00 -2.15049E+00
   1.31864E+00 -1.69783E+00  1.76185E-01 -4.70101E-01  2.68864E+00 -5.36911E+00  5.72361E+00  4.79265E+00 -1.04061E+00  9.55104E+00
   2.04809E+00  3.09164E+00  1.18589E+00  4.88826E+00  6.02081E+00  6.63982E+00  7.85424E+00  3.25678E+00  8.75046E+00  6.70750E+00
   5.38155E+00  4.44605E+00  1.18916E+00  2.47394E+00  3.87930E+00  6.74979E+00  6.69337E+00  3.11923E-01 -3.61925E-02  4.26344E+00
   1.84627E-01  3.12025E+00  1.12662E+00  2.73093E+00  4.72580E-01 -3.38593E-01  1.96459E+00  2.12359E+00 -1.46270E+00 -4.66388E+00
  -2.19395E+00 -2.11992E+00 -2.71445E+00 -2.49795E+00  3.83229E+00 -2.82383E+00  2.03490E-01 -2.02784E+00 -6.50211E-01  4.87113E-01
   4.76090E-01 -4.78322E+00  3.74787E-02  1.38822E-01  3.65307E+00 -3.92241E-01 -2.82910E+00 -4.31309E+00  3.58549E-01 -6.36326E+00
  -5.36311E+00 -4.07131E+00 -1.15209E+00 -1.29599E-02 -2.04799E+00  1.51904E+00 -2.22373E+00 -4.28983E+00 -4.11973E+00 -2.61067E+00
  -1.86769E+00 -9.00628E+00  1.21975E-01 -5.24771E-02 -3.53590E+00  3.35429E+00 -1.85294E+00 -2.19850E+00 -8.30884E-01 -5.37745E+00
  -2.52640E+00 -1.82750E+00 -4.84339E+00  4.54083E+00 -3.87102E+00  2.40504E+00 -4.81568E+00 -1.28881E+00 -1.70259E+00 -3.64906E+00
  -8.68152E+00  1.15873E+00 -4.66652E-01 -6.11569E-02 -8.08795E+00 -2.21539E+00 -8.00877E-01  5.30230E-01 -3.26337E+00  4.04921E+00
   3.19606E+00  4.48737E+00  3.68538E+00 -1.66637E+00 -2.34359E+00  4.25993E-01  2.34637E+00  5.92658E+00
 NY points of the fit to the data follow
   4.21623E+01  4.16257E+01  4.14094E+01  4.15078E+01  4.26470E+01  4.61939E+01  5.28396E+01  6.20374E+01  7.20701E+01  8.06475E+01
   8.58439E+01  8.69344E+01  8.44085E+01  7.93734E+01  7.30407E+01  6.63565E+01  5.97974E+01  5.35342E+01  4.80089E+01  4.43209E+01
   4.24918E+01  4.13320E+01  4.02580E+01  3.90491E+01  3.79450E+01  3.73767E+01  3.77022E+01  3.90115E+01  4.10774E+01  4.34078E+01
   4.53996E+01  4.65567E+01  4.65568E+01  4.53417E+01  4.32481E+01  4.07392E+01  3.81941E+01  3.58232E+01  3.40324E+01  3.31288E+01
   3.27785E+01  3.28934E+01  3.35167E+01  3.45600E+01  3.57828E+01  3.68317E+01  3.74351E+01  3.74056E+01  3.67586E+01  3.57052E+01
   3.43447E+01  3.28220E+01  3.13493E+01  2.99968E+01  2.87397E+01  2.77537E+01  2.72326E+01  2.70331E+01  2.68737E+01  2.66133E+01
   2.61854E+01  2.55455E+01  2.47332E+01  2.38510E+01  2.30267E+01  2.23445E+01  2.18241E+01  2.14663E+01  2.12787E+01  2.12144E+01
   2.11912E+01  2.11270E+01  2.09558E+01  2.06679E+01  2.02832E+01  1.98393E+01  1.93839E+01  1.89411E+01  1.85228E+01  1.81247E+01
   1.78058E+01  1.77276E+01  1.79566E+01  1.84223E+01  1.89413E+01  1.92906E+01  1.92950E+01  1.89130E+01  1.82491E+01  1.74582E+01
   1.66877E+01  1.60294E+01  1.54862E+01  1.50006E+01  1.45435E+01  1.42004E+01  1.41589E+01  1.56329E+01  2.10606E+01  3.17507E+01
   4.67688E+01  6.31537E+01  7.70213E+01  8.51538E+01  8.63815E+01  8.15916E+01  7.26771E+01  6.17480E+01  5.04833E+01  3.97204E+01
   2.97372E+01  2.12632E+01  1.61642E+01  1.43230E+01  1.35144E+01  1.30112E+01  1.26415E+01  1.23526E+01  1.21408E+01  1.20338E+01
   1.21781E+01  1.32393E+01  1.69231E+01  2.48205E+01  3.68896E+01  5.12168E+01  6.46940E+01  7.42612E+01  7.81640E+01  7.64280E+01
   7.03027E+01  6.14448E+01  5.13562E+01  4.10542E+01  3.11166E+01  2.22427E+01  1.57194E+01  1.25612E+01  1.16109E+01  1.13893E+01
   1.14286E+01  1.15390E+01  1.16601E+01  1.17318E+01  1.16462E+01  1.13863E+01  1.09806E+01  1.04615E+01  9.90469E+00  9.36456E+00
   8.88818E+00  8.49746E+00  8.17271E+00  7.92623E+00  7.76185E+00  7.62237E+00  7.38889E+00  6.98446E+00  6.43205E+00  5.86483E+00
   5.46270E+00  5.32780E+00  5.43159E+00  5.64219E+00  5.80646E+00  5.83061E+00  5.70092E+00  5.46923E+00  5.20271E+00  4.91764E+00
   4.52887E+00  3.96456E+00  3.28290E+00  2.62160E+00  2.17110E+00  1.96443E+00  1.91502E+00  1.94382E+00  1.98300E+00  2.01573E+00
   2.06382E+00  2.12028E+00  2.14801E+00  2.17136E+00  2.28380E+00  2.60350E+00  3.28136E+00  4.44541E+00  5.92857E+00  7.40348E+00
   8.52207E+00  9.12019E+00  9.22568E+00  8.94289E+00  8.41788E+00  7.83064E+00  7.35143E+00  7.19009E+00  7.56438E+00  8.51525E+00
   9.94880E+00  1.16114E+01  1.31153E+01  1.40836E+01  1.41533E+01  1.31484E+01  1.12430E+01  8.79292E+00  6.34222E+00  4.46033E+00
   3.72535E+00  4.47128E+00  6.61265E+00  9.70680E+00  1.29664E+01  1.55306E+01  1.66924E+01  1.60756E+01  1.37462E+01  1.02376E+01
   6.64761E+00  3.91342E+00  2.51058E+00  2.60593E+00  4.08492E+00  6.60683E+00  9.39747E+00  1.17586E+01  1.34699E+01  1.45573E+01
   1.50764E+01  1.50869E+01  1.48498E+01  1.47998E+01  1.51546E+01  1.57770E+01  1.64591E+01  1.69101E+01  1.69181E+01  1.64636E+01
   1.56750E+01  1.48403E+01  1.43333E+01  1.43286E+01  1.47316E+01  1.53536E+01  1.60998E+01  1.68245E+01  1.74170E+01  1.79431E+01
   1.85710E+01  1.93717E+01  2.02466E+01  2.11659E+01  2.30042E+01  2.82322E+01  3.84990E+01  5.33370E+01  7.00619E+01  8.47279E+01
   9.37062E+01  9.53534E+01  9.03769E+01  8.07232E+01  6.87035E+01  5.62847E+01  4.44444E+01  3.33735E+01  2.36056E+01  1.70409E+01
   1.44979E+01  1.34467E+01  1.28519E+01  1.25031E+01  1.22606E+01  1.20113E+01  1.17425E+01  1.14376E+01  1.10987E+01  1.07433E+01
   1.03871E+01  1.00372E+01  9.71721E+00  9.45027E+00  9.23286E+00  9.04942E+00  8.89042E+00  8.75518E+00  8.64516E+00  8.55693E+00
   8.48638E+00  8.43981E+00  8.42018E+00  8.42608E+00  8.45452E+00  8.50369E+00  8.57181E+00  8.65619E+00  8.75451E+00  8.86512E+00
   8.98482E+00  9.10972E+00  9.23474E+00  9.35367E+00  9.46017E+00  9.54861E+00  9.61423E+00  9.65291E+00  9.66111E+00  9.63692E+00
   9.57940E+00  9.48872E+00  9.36662E+00  9.21563E+00  9.03863E+00  8.83935E+00  8.62208E+00  8.39155E+00  8.15254E+00  7.90953E+00
   7.66653E+00  7.42698E+00  7.19367E+00  6.96870E+00  6.75338E+00  6.54819E+00  6.35288E+00  6.16671E+00  5.98856E+00  5.81706E+00
   5.65063E+00  5.48759E+00  5.32636E+00  5.16564E+00  5.00449E+00  4.84238E+00  4.67914E+00  4.51522E+00  4.35186E+00  4.19145E+00
   4.03784E+00  3.89674E+00  3.77620E+00  3.68703E+00  3.64285E+00  3.65941E+00  3.75284E+00  3.93683E+00  4.21889E+00  4.59635E+00
   5.05289E+00  5.55691E+00  6.06273E+00  6.51528E+00  6.85787E+00  7.04164E+00  7.03439E+00  6.82673E+00  6.43374E+00  5.89196E+00
   5.25236E+00  4.57111E+00  3.90049E+00  3.28181E+00  2.74166E+00  2.29168E+00  1.93093E+00  1.64980E+00  1.43413E+00  1.26868E+00
   1.13965E+00  1.03596E+00  9.49727E-01  8.75997E-01  8.12118E-01  7.57109E-01  7.11123E-01  6.75080E-01  6.50386E-01  6.38710E-01
   6.41820E-01  6.61513E-01  6.99611E-01  7.57973E-01  8.38458E-01  9.42832E-01  1.07267E+00  1.22932E+00  1.41381E+00  1.62680E+00
   1.86843E+00  2.13811E+00  2.43440E+00  2.75490E+00  3.09624E+00  3.45397E+00  3.82253E+00  4.19526E+00  4.56456E+00  4.92206E+00
   5.25897E+00  5.56633E+00  5.83537E+00  6.05783E+00  6.22642E+00  6.33519E+00  6.37986E+00  6.35801E+00  6.26917E+00  6.11483E+00
   5.89845E+00  5.62530E+00  5.30212E+00  4.93681E+00  4.53801E+00  4.11469E+00  3.67586E+00  3.23019E+00  2.78567E+00  2.34940E+00
   1.92736E+00  1.52440E+00  1.14427E+00  7.89570E-01  4.61898E-01  1.61883E-01 -1.10632E-01 -3.56404E-01 -5.76626E-01 -7.72813E-01
  -9.46717E-01 -1.10023E+00 -1.23526E+00 -1.35365E+00 -1.45713E+00 -1.54731E+00 -1.62570E+00 -1.69368E+00 -1.75246E+00 -1.80311E+00
  -1.84652E+00 -1.88350E+00 -1.91478E+00 -1.94102E+00 -1.96274E+00 -1.98040E+00 -1.99437E+00 -2.00501E+00 -2.01266E+00 -2.01760E+00
  -2.02005E+00 -2.02020E+00 -2.01821E+00 -2.01426E+00 -2.00851E+00 -2.00110E+00 -1.99212E+00 -1.98165E+00 -1.96979E+00 -1.95665E+00
  -1.94232E+00 -1.92687E+00 -1.91033E+00 -1.89274E+00 -1.87418E+00 -1.85471E+00 -1.83441E+00 -1.81329E+00 -1.79137E+00 -1.76869E+00
  -1.74529E+00 -1.72124E+00 -1.69657E+00 -1.67127E+00 -1.64535E+00 -1.61886E+00 -1.59184E+00 -1.56432E+00 -1.53633E+00 -1.50786E+00
  -1.47892E+00 -1.44954E+00 -1.41978E+00 -1.38964E+00 -1.35913E+00 -1.32823E+00 -1.29697E+00 -1.26539E+00 -1.23350E+00 -1.20133E+00
  -1.16884E+00 -1.13603E+00 -1.10294E+00 -1.06958E+00 -1.03597E+00 -1.00209E+00 -9.67917E-01 -9.33438E-01
 NY background values follow
     4.065E+01    4.033E+01    4.000E+01    3.967E+01    3.934E+01    3.901E+01    3.868E+01    3.835E+01    3.803E+01    3.770E+01
     3.737E+01    3.704E+01    3.671E+01    3.638E+01    3.605E+01    3.572E+01    3.540E+01    3.507E+01    3.474E+01    3.441E+01
     3.409E+01    3.376E+01    3.343E+01    3.311E+01    3.278E+01    3.246E+01    3.213E+01    3.181E+01    3.149E+01    3.117E+01
     3.085E+01    3.053E+01    3.021E+01    2.989E+01    2.957E+01    2.925E+01    2.894E+01    2.862E+01    2.831E+01    2.800E+01
     2.769E+01    2.738E+01    2.707E+01    2.676E+01    2.646E+01    2.615E+01    2.585E+01    2.555E+01    2.524E+01    2.495E+01
     2.465E+01    2.435E+01    2.406E+01    2.376E+01    2.347E+01    2.318E+01    2.290E+01    2.261E+01    2.233E+01    2.204E+01
     2.176E+01    2.148E+01    2.121E+01    2.093E+01    2.066E+01    2.039E+01    2.012E+01    1.985E+01    1.959E+01    1.932E+01
     1.906E+01    1.881E+01    1.855E+01    1.829E+01    1.804E+01    1.779E+01    1.755E+01    1.730E+01    1.706E+01    1.682E+01
     1.658E+01    1.635E+01    1.612E+01    1.589E+01    1.566E+01    1.543E+01    1.521E+01    1.499E+01    1.478E+01    1.456E+01
     1.435E+01    1.414E+01    1.394E+01    1.374E+01    1.354E+01    1.334E+01    1.315E+01    1.296E+01    1.277E+01    1.258E+01
     1.240E+01    1.222E+01    1.204E+01    1.187E+01    1.170E+01    1.153E+01    1.136E+01    1.120E+01    1.104E+01    1.088E+01
     1.073E+01    1.057E+01    1.042E+01    1.028E+01    1.013E+01    9.993E+00    9.854E+00    9.719E+00    9.586E+00    9.456E+00
     9.328E+00    9.204E+00    9.082E+00    8.962E+00    8.846E+00    8.732E+00    8.621E+00    8.512E+00    8.406E+00    8.303E+00
     8.203E+00    8.105E+00    8.010E+00    7.918E+00    7.828E+00    7.741E+00    7.656E+00    7.575E+00    7.495E+00    7.419E+00
     7.345E+00    7.274E+00    7.205E+00    7.138E+00    7.074E+00    7.013E+00    6.954E+00    6.897E+00    6.843E+00    6.791E+00
     6.742E+00    6.695E+00    6.650E+00    6.607E+00    6.567E+00    6.529E+00    6.493E+00    6.459E+00    6.427E+00    6.398E+00
     6.370E+00    6.345E+00    6.322E+00    6.300E+00    6.281E+00    6.264E+00    6.249E+00    6.235E+00    6.224E+00    6.214E+00
     6.206E+00    6.201E+00    6.196E+00    6.194E+00    6.194E+00    6.195E+00    6.198E+00    6.203E+00    6.209E+00    6.217E+00
     6.226E+00    6.238E+00    6.250E+00    6.265E+00    6.280E+00    6.297E+00    6.316E+00    6.335E+00    6.356E+00    6.378E+00
     6.401E+00    6.425E+00    6.449E+00    6.475E+00    6.501E+00    6.528E+00    6.556E+00    6.584E+00    6.613E+00    6.642E+00
     6.672E+00    6.701E+00    6.732E+00    6.762E+00    6.792E+00    6.822E+00    6.853E+00    6.883E+00    6.913E+00    6.943E+00
     6.972E+00    7.001E+00    7.030E+00    7.058E+00    7.085E+00    7.112E+00    7.138E+00    7.164E+00    7.188E+00    7.212E+00
     7.235E+00    7.257E+00    7.277E+00    7.296E+00    7.315E+00    7.331E+00    7.347E+00    7.361E+00    7.373E+00    7.385E+00
     7.394E+00    7.403E+00    7.409E+00    7.415E+00    7.419E+00    7.421E+00    7.422E+00    7.422E+00    7.420E+00    7.417E+00
     7.413E+00    7.407E+00    7.399E+00    7.390E+00    7.380E+00    7.368E+00    7.355E+00    7.341E+00    7.325E+00    7.308E+00
     7.289E+00    7.269E+00    7.247E+00    7.224E+00    7.200E+00    7.174E+00    7.147E+00    7.118E+00    7.088E+00    7.057E+00
     7.024E+00    6.990E+00    6.955E+00    6.918E+00    6.879E+00    6.840E+00    6.799E+00    6.756E+00    6.712E+00    6.667E+00
     6.620E+00    6.572E+00    6.523E+00    6.472E+00    6.420E+00    6.367E+00    6.312E+00    6.256E+00    6.199E+00    6.140E+00
     6.081E+00    6.020E+00    5.958E+00    5.895E+00    5.830E+00    5.765E+00    5.699E+00    5.631E+00    5.563E+00    5.493E+00
     5.423E+00    5.351E+00    5.279E+00    5.206E+00    5.132E+00    5.057E+00    4.981E+00    4.904E+00    4.827E+00    4.749E+00
     4.670E+00    4.590E+00    4.509E+00    4.428E+00    4.346E+00    4.264E+00    4.181E+00    4.097E+00    4.013E+00    3.928E+00
     3.843E+00    3.757E+00    3.671E+00    3.584E+00    3.497E+00    3.409E+00    3.321E+00    3.233E+00    3.144E+00    3.055E+00
     2.966E+00    2.877E+00    2.787E+00    2.697E+00    2.607E+00    2.517E+00    2.427E+00    2.336E+00    2.246E+00    2.156E+00
     2.066E+00    1.976E+00    1.886E+00    1.796E+00    1.707E+00    1.618E+00    1.529E+00    1.440E+00    1.352E+00    1.264E+00
     1.176E+00    1.089E+00    1.003E+00    9.167E-01    8.313E-01    7.464E-01    6.621E-01    5.785E-01    4.956E-01    4.134E-01
     3.320E-01    2.513E-01    1.715E-01    9.258E-02    1.454E-02   -6.257E-02   -1.387E-01   -2.139E-01   -2.880E-01   -3.610E-01
    -4.329E-01   -5.037E-01   -5.733E-01   -6.418E-01   -7.090E-01   -7.751E-01   -8.399E-01   -9.036E-01   -9.661E-01   -1.027E+00
    -1.088E+00   -1.147E+00   -1.204E+00   -1.261E+00   -1.316E+00   -1.370E+00   -1.423E+00   -1.475E+00   -1.526E+00   -1.576E+00
    -1.624E+00   -1.671E+00   -1.717E+00   -1.762E+00   -1.805E+00   -1.848E+00   -1.889E+00   -1.929E+00   -1.968E+00   -2.006E+00
    -2.042E+00   -2.078E+00   -2.112E+00   -2.145E+00   -2.177E+00   -2.207E+00   -2.237E+00   -2.265E+00   -2.292E+00   -2.318E+00
    -2.343E+00   -2.367E+00   -2.389E+00   -2.411E+00   -2.431E+00   -2.450E+00   -2.468E+00   -2.485E+00   -2.500E+00   -2.514E+00
    -2.528E+00   -2.540E+00   -2.551E+00   -2.561E+00   -2.570E+00   -2.577E+00   -2.584E+00   -2.590E+00   -2.595E+00   -2.598E+00
    -2.601E+00   -2.603E+00   -2.603E+00   -2.603E+00   -2.602E+00   -2.600E+00   -2.597E+00   -2.593E+00   -2.588E+00   -2.582E+00
    -2.576E+00   -2.568E+00   -2.560E+00   -2.551E+00   -2.541E+00   -2.530E+00   -2.519E+00   -2.507E+00   -2.494E+00   -2.480E+00
    -2.465E+00   -2.450E+00   -2.434E+00   -2.418E+00   -2.401E+00   -2.383E+00   -2.364E+00   -2.345E+00   -2.325E+00   -2.305E+00
    -2.284E+00   -2.262E+00   -2.240E+00   -2.217E+00   -2.194E+00   -2.170E+00   -2.146E+00   -2.121E+00   -2.096E+00   -2.070E+00
    -2.044E+00   -2.017E+00   -1.990E+00   -1.962E+00   -1.934E+00   -1.906E+00   -1.877E+00   -1.848E+00   -1.819E+00   -1.789E+00
    -1.758E+00   -1.728E+00   -1.697E+00   -1.666E+00   -1.634E+00   -1.602E+00   -1.570E+00   -1.538E+00   -1.505E+00   -1.472E+00
    -1.439E+00   -1.406E+00   -1.372E+00   -1.339E+00   -1.305E+00   -1.271E+00   -1.236E+00   -1.202E+00   -1.168E+00   -1.133E+00
    -1.098E+00   -1.063E+00   -1.029E+00   -9.936E-01   -9.586E-01   -9.236E-01   -8.885E-01   -8.534E-01
 Asp      Conc. = 2.06E+02
