 LCModel (Version 6.3-1L) Copyright: S.W. Provencher.          Ref.: Magn. Reson. Med. 30:672-679 (1993).                
 Slice#1 Row#10 Col#7  PD_24_press_1_raw_act
 36 lines in following concentration table = NCONC+1
    Conc.  %SD /Cr+PCr  Metabolite                                         
    2.325 999% 2.6E-03 Ala                                                 
   14.545 999% 1.6E-02 Asp                                                 
  264.775  80%   0.293 Cr                                                  
  639.111  34%   0.707 PCr                                                 
   21.167 531% 2.3E-02 GABA                                                
   80.812 140% 8.9E-02 Glc                                                 
  748.519  31%   0.828 Gln                                                 
 1.08E+03  24%   1.197 Glu                                                 
  352.718   6%   0.390 GPC                                                 
    0.000 999%   0.000 PCh                                                 
  289.048  26%   0.320 GSH                                                 
  981.565  24%   1.086 Ins                                                 
    0.000 999%   0.000 Lac                                                 
 1.80E+03   6%   1.995 NAA                                                 
   53.496 232% 5.9E-02 NAAG                                                
   71.220  35% 7.9E-02 Scyllo                                              
   95.936 171%   0.106 Tau                                                 
  254.013  41%   0.281 -CrCH2                                              
  352.718   6%   0.390 GPC+PCh                                             
 1.86E+03   5%   2.054 NAA+NAAG                                            
  903.885   7%   1.000 Cr+PCr                                              
 1.83E+03  20%   2.025 Glu+Gln                                             
 2.10E+03  24%   2.322 Lip13a                                              
    0.000 999%   0.000 Lip13b                                              
  169.659 146%   0.188 Lip09                                               
  997.297  26%   1.103 MM09                                                
  352.184  53%   0.390 Lip20                                               
 1.81E+03  20%   2.002 MM20                                                
  326.271  39%   0.361 MM12                                                
  955.054  34%   1.057 MM14                                                
  708.524  25%   0.784 MM17                                                
 2.10E+03  24%   2.322 Lip13a+Lip13b                                       
 3.38E+03  11%   3.740 MM14+Lip13a+Lip13b+MM12                             
 1.17E+03  15%   1.291 MM09+Lip09                                          
 2.16E+03  16%   2.391 MM20+Lip20                                          
   6 lines in following misc. output table
  FWHM = 0.046 ppm    S/N =   9                                            
  Data shift = 0.008 ppm                                                   
  Ph: -15 deg      -0.3 deg/ppm                                            
  alphaB,S = 8.5E+01,   1.0E+02                                            
   14 spline knots.   Ns = 6(1)                                            
   2 inflections.     1 extrema                                            
  498 points on ppm-axis = NY
      4.000000     3.992357     3.984714     3.977070     3.969427     3.961784     3.954141     3.946497     3.938854     3.931211
      3.923568     3.915925     3.908281     3.900638     3.892995     3.885352     3.877708     3.870065     3.862422     3.854779
      3.847136     3.839492     3.831849     3.824206     3.816563     3.808919     3.801276     3.793633     3.785990     3.778347
      3.770703     3.763060     3.755417     3.747774     3.740130     3.732487     3.724844     3.717201     3.709558     3.701914
      3.694271     3.686628     3.678985     3.671341     3.663698     3.656055     3.648412     3.640769     3.633125     3.625482
      3.617839     3.610196     3.602552     3.594909     3.587266     3.579623     3.571980     3.564336     3.556693     3.549050
      3.541407     3.533763     3.526120     3.518477     3.510834     3.503191     3.495547     3.487904     3.480261     3.472618
      3.464974     3.457331     3.449688     3.442045     3.434402     3.426758     3.419115     3.411472     3.403829     3.396185
      3.388542     3.380899     3.373256     3.365613     3.357969     3.350326     3.342683     3.335040     3.327396     3.319753
      3.312110     3.304467     3.296824     3.289180     3.281537     3.273894     3.266251     3.258607     3.250964     3.243321
      3.235678     3.228034     3.220391     3.212748     3.205105     3.197462     3.189818     3.182175     3.174532     3.166889
      3.159245     3.151602     3.143959     3.136316     3.128673     3.121029     3.113386     3.105743     3.098100     3.090456
      3.082813     3.075170     3.067527     3.059884     3.052240     3.044597     3.036954     3.029311     3.021667     3.014024
      3.006381     2.998738     2.991095     2.983451     2.975808     2.968165     2.960522     2.952878     2.945235     2.937592
      2.929949     2.922306     2.914662     2.907019     2.899376     2.891733     2.884089     2.876446     2.868803     2.861160
      2.853517     2.845873     2.838230     2.830587     2.822944     2.815300     2.807657     2.800014     2.792371     2.784728
      2.777084     2.769441     2.761798     2.754155     2.746511     2.738868     2.731225     2.723582     2.715939     2.708295
      2.700652     2.693009     2.685366     2.677722     2.670079     2.662436     2.654793     2.647150     2.639506     2.631863
      2.624220     2.616577     2.608933     2.601290     2.593647     2.586004     2.578361     2.570717     2.563074     2.555431
      2.547788     2.540144     2.532501     2.524858     2.517215     2.509572     2.501928     2.494285     2.486642     2.478999
      2.471355     2.463712     2.456069     2.448426     2.440783     2.433139     2.425496     2.417853     2.410210     2.402566
      2.394923     2.387280     2.379637     2.371994     2.364350     2.356707     2.349064     2.341421     2.333777     2.326134
      2.318491     2.310848     2.303205     2.295561     2.287918     2.280275     2.272632     2.264988     2.257345     2.249702
      2.242059     2.234416     2.226772     2.219129     2.211486     2.203843     2.196199     2.188556     2.180913     2.173270
      2.165627     2.157983     2.150340     2.142697     2.135054     2.127410     2.119767     2.112124     2.104481     2.096838
      2.089194     2.081551     2.073908     2.066265     2.058621     2.050978     2.043335     2.035692     2.028049     2.020405
      2.012762     2.005119     1.997476     1.989833     1.982190     1.974546     1.966903     1.959260     1.951617     1.943974
      1.936331     1.928688     1.921045     1.913402     1.905759     1.898115     1.890472     1.882829     1.875186     1.867543
      1.859900     1.852257     1.844614     1.836971     1.829327     1.821684     1.814041     1.806398     1.798755     1.791112
      1.783469     1.775826     1.768183     1.760540     1.752896     1.745253     1.737610     1.729967     1.722324     1.714681
      1.707038     1.699395     1.691752     1.684108     1.676465     1.668822     1.661179     1.653536     1.645893     1.638250
      1.630607     1.622964     1.615321     1.607677     1.600034     1.592391     1.584748     1.577105     1.569462     1.561819
      1.554176     1.546533     1.538890     1.531246     1.523603     1.515960     1.508317     1.500674     1.493031     1.485388
      1.477745     1.470102     1.462458     1.454815     1.447172     1.439529     1.431886     1.424243     1.416600     1.408957
      1.401314     1.393671     1.386027     1.378384     1.370741     1.363098     1.355455     1.347812     1.340169     1.332526
      1.324883     1.317240     1.309596     1.301953     1.294310     1.286667     1.279024     1.271381     1.263738     1.256095
      1.248452     1.240808     1.233165     1.225522     1.217879     1.210236     1.202593     1.194950     1.187307     1.179664
      1.172021     1.164377     1.156734     1.149091     1.141448     1.133805     1.126162     1.118519     1.110876     1.103233
      1.095590     1.087946     1.080303     1.072660     1.065017     1.057374     1.049731     1.042088     1.034445     1.026802
      1.019158     1.011515     1.003872     0.996229     0.988586     0.980943     0.973300     0.965657     0.958014     0.950371
      0.942727     0.935084     0.927441     0.919798     0.912155     0.904512     0.896869     0.889226     0.881583     0.873940
      0.866296     0.858653     0.851010     0.843367     0.835724     0.828081     0.820438     0.812795     0.805152     0.797508
      0.789865     0.782222     0.774579     0.766936     0.759293     0.751650     0.744007     0.736364     0.728721     0.721077
      0.713434     0.705791     0.698148     0.690505     0.682862     0.675219     0.667576     0.659933     0.652290     0.644646
      0.637003     0.629360     0.621717     0.614074     0.606431     0.598788     0.591145     0.583502     0.575858     0.568215
      0.560572     0.552929     0.545286     0.537643     0.530000     0.522357     0.514714     0.507071     0.499427     0.491784
      0.484141     0.476498     0.468855     0.461212     0.453569     0.445925     0.438282     0.430639     0.422996     0.415353
      0.407710     0.400067     0.392424     0.384780     0.377137     0.369494     0.361851     0.354208     0.346565     0.338922
      0.331278     0.323635     0.315992     0.308349     0.300706     0.293063     0.285420     0.277777     0.270133     0.262490
      0.254847     0.247204     0.239561     0.231918     0.224275     0.216631     0.208988     0.201345
 NY phased data points follow
  -3.14697E+00 -7.51419E+00 -2.56998E+00 -9.47544E+00  3.52052E+00  2.74804E+00  1.01326E+01 -2.54599E+00  1.04982E+01  7.16468E+00
   1.58156E+01  7.76009E+00  1.57419E+01  3.08517E+00  7.55936E+00 -6.79573E+00  7.60492E+00 -4.42917E+00 -2.88051E+00 -4.72245E+00
   2.25550E+00 -3.07024E+00  2.49847E+00 -6.79243E+00 -2.39057E+00 -2.54471E+00  3.49308E-01 -6.84906E+00  7.58237E+00  2.20245E+00
   1.02829E+01  1.06158E+00  7.84944E+00 -6.96564E-01  6.45532E+00 -2.21520E+00  4.12775E+00 -6.30049E+00  1.77322E+00 -7.36180E+00
  -2.61952E+00  5.69871E+00  7.87517E+00  4.65856E-01  8.66148E+00  3.28333E+00  7.15522E+00  2.64599E+00  8.85206E+00  4.53572E+00
   3.87526E+00 -5.79412E+00  4.47309E+00 -4.22753E+00  8.69041E+00 -1.31131E+00  1.25914E+00 -2.09652E+00 -2.96645E+00  1.52646E+00
   1.59054E+00 -6.16815E+00  1.95357E+00 -1.14289E+01 -3.81457E+00 -2.74194E+00 -2.99367E+00 -7.83490E+00  5.49308E-01 -2.16084E+00
  -4.04594E+00 -1.22038E+01  2.69512E-01 -5.42271E+00 -7.08614E-02 -7.79485E+00  8.49197E+00 -8.34744E+00 -3.31458E+00 -3.68539E+00
  -3.34443E+00 -4.70544E+00  2.32416E+00 -8.80512E+00 -3.51771E-01 -4.52059E+00 -1.20469E+00 -1.80148E+00  3.54675E+00 -2.82371E+00
   2.85793E+00 -5.67626E+00  1.74369E+00  9.72468E-01  4.13060E+00  5.65752E-01 -3.69649E+00 -5.15852E+00  7.96403E+00  7.91102E+00
   1.54455E+01  2.53944E+01  2.95078E+01  2.68640E+01  3.87907E+01  1.94743E+01  1.65071E+01  8.41061E+00  4.50367E+00 -7.45342E-01
  -3.37141E+00 -1.99486E+00  1.10599E+00 -3.50722E+00  4.84613E+00 -9.68646E+00 -3.60901E+00 -6.60211E+00  3.15302E+00 -3.17676E+00
   1.45187E+00  4.61198E+00  8.40553E+00  1.90772E+00  2.15318E+01  1.57113E+01  3.01754E+01  2.78484E+01  3.34344E+01  2.20423E+01
   1.89600E+01  5.51660E+00  4.16668E+00  4.01488E+00  6.03909E+00 -3.72794E-01  2.11719E+00 -3.89823E+00 -3.25206E+00 -2.93429E+00
   2.11964E+00 -3.35498E+00  3.87484E+00 -5.39298E+00 -6.76654E-01 -7.16705E+00 -5.33121E+00 -1.08107E+01 -4.47002E+00 -5.71416E+00
  -4.41053E+00 -3.93259E+00  7.58830E-01 -4.65323E+00 -1.80153E+00 -5.47332E+00  1.56207E+00 -4.74271E+00  5.96778E+00 -5.67831E+00
  -2.94350E+00 -3.50168E+00 -5.59413E+00 -7.04125E+00  3.00357E+00 -3.17179E-01 -3.59491E-01 -9.98993E+00 -5.28093E+00 -4.84702E+00
  -6.36451E+00 -1.05392E+01 -7.50032E+00 -1.49263E+01 -6.39835E+00 -2.01416E+01 -1.32821E+01 -1.37790E+01 -1.22377E+01 -1.26156E+01
  -4.37349E+00 -1.00865E+01 -1.76058E+00 -1.40662E+01 -4.95471E+00 -9.98104E+00 -5.76918E+00 -5.45843E+00 -9.67203E+00 -6.40693E+00
  -7.33088E+00 -4.97104E+00 -7.04502E+00 -4.91777E+00 -7.71981E+00 -5.24578E+00 -8.05681E+00 -9.45218E+00 -9.31438E+00 -1.28232E+01
  -5.91435E+00 -8.04221E+00 -3.67846E+00 -3.23208E+00  1.22451E+00 -2.05179E+00  9.87732E-01 -5.42127E+00 -5.05049E+00 -8.96201E+00
  -5.79767E+00 -8.12562E+00 -3.95585E+00 -1.40448E+00  3.07973E+00  2.30547E+00  8.73051E+00  8.72796E+00  1.93686E+00 -1.33424E+00
  -4.84432E+00 -1.01226E+01 -1.20867E+00 -8.02918E+00  2.43962E+00  2.25364E+00  8.85254E+00  2.36974E+00 -1.16544E+00  4.50046E+00
   5.64207E+00  2.81608E+00  7.28715E+00  2.58978E+00  3.51527E+00 -2.36173E-01  2.78462E+00  5.84193E-01  4.68904E-01 -3.08580E+00
   6.95441E+00 -1.43510E+00  1.04612E+00 -1.15708E+00  2.98901E+00  5.96083E-01  6.15730E+00  6.28416E+00  1.87957E+00  7.52677E+00
   5.84831E+00  4.20729E+00  5.67109E+00  1.18769E+01  1.58003E+01  2.26643E+01  3.27996E+01  3.81163E+01  5.32748E+01  6.32752E+01
   7.10686E+01  6.88520E+01  5.91385E+01  3.96431E+01  2.72118E+01  1.18175E+01  1.31291E+01  8.65455E+00  6.07979E+00 -1.43649E-01
   7.69652E+00  1.25088E+00 -1.10908E+00  6.92656E+00  1.11435E+00 -3.19242E+00  1.90536E+00 -2.04273E+00  4.14509E+00 -2.06175E+00
  -1.88422E+00  5.85360E-01  3.85889E+00 -2.78523E+00 -2.09104E+00 -3.99828E+00 -2.99531E+00 -4.72722E+00  3.02669E+00 -3.48350E+00
  -5.91113E-01 -2.94568E+00  2.69206E+00  2.94254E-01 -5.97657E+00  4.99051E+00  1.55248E+00 -1.51703E+00 -1.50825E+00 -2.30704E+00
   1.10087E-01 -1.41381E+00  3.00601E+00  5.59369E+00  3.43625E+00  6.19377E+00  8.85539E+00  3.68744E+00  5.05306E+00  3.37941E+00
   3.55379E+00  6.54060E-01  1.52530E+00  2.67062E+00  8.63263E-01  5.23276E+00  8.05273E+00 -4.17502E-01  3.25067E+00  4.87325E+00
   3.83393E+00  3.72645E-01  7.08951E+00 -3.28500E+00  4.20754E+00  1.23258E+00  9.37804E+00  1.14314E+00  5.53900E+00 -3.95137E+00
   6.57809E-01  2.60390E+00  7.78081E+00  5.87116E+00  3.39432E+00  8.66065E+00  9.04997E+00 -2.84953E+00  4.70758E+00  3.51488E+00
   6.00165E+00  1.72823E+00  4.10489E+00  1.04871E+01  9.13789E+00  7.37576E+00  1.52573E+01  1.20231E+01  8.60485E+00  8.64833E+00
   1.14674E+01  7.86578E+00  1.19732E+01  4.62195E+00  7.94847E+00  7.18927E+00  1.24381E+01  4.92268E+00  8.63495E+00  7.33426E+00
   4.51640E+00 -4.62264E-01  1.72387E+00  5.10205E+00  1.25273E+01  3.13174E+00  9.79471E+00  4.17015E+00  5.33254E+00  6.74695E+00
   9.13957E+00  5.42873E+00  1.00005E+01  1.60091E+00  8.81973E+00  5.09641E+00  4.80036E+00  4.71072E+00  3.28430E+00  4.47927E+00
   4.46775E-01  4.54478E+00  1.37380E+00  6.30647E-01  5.64441E+00 -1.22731E+00  3.26086E+00  4.53637E+00 -5.49338E-01  9.79945E-01
   4.47353E+00 -2.28458E-01  7.78701E-01  6.23664E+00  3.58034E-01  1.42165E+00  6.71847E+00  2.64618E+00  4.04750E+00  1.94749E+00
   5.96382E+00  4.61357E+00  5.06228E+00 -9.42163E-02  4.23327E+00  3.84613E+00  8.67093E+00  4.08812E+00  7.13110E+00  7.91717E+00
   1.01304E+01  5.02331E+00  6.76708E+00  6.82656E+00  2.71669E+00  4.31338E+00  3.50251E-01 -2.46530E+00 -7.62181E-01 -5.76677E-01
   5.71571E+00 -2.25752E+00 -6.37664E+00  5.96478E-01 -8.93118E-01  1.61791E-01  5.21261E+00 -2.82158E+00 -6.10054E+00  2.21209E+00
  -3.80829E+00 -2.00081E+00 -1.70881E+00 -1.51565E-01 -4.03987E+00 -2.28955E+00  4.08243E-01 -2.46104E+00 -2.80560E+00 -1.28948E+00
  -5.98343E+00 -5.42445E+00 -4.76895E+00 -7.19206E+00 -2.83330E+00 -1.78166E+00 -5.58270E+00 -1.97651E+00 -2.41454E+00 -2.20445E+00
  -2.22065E+00 -9.61979E-01  3.25862E+00 -5.54603E+00 -3.67400E+00 -2.88632E+00  6.05596E-01  1.44117E+00 -6.82430E-01 -1.49653E+00
   1.07387E-01  1.02683E+00  2.05495E-02 -1.66915E+00 -5.51804E+00  1.73790E-01 -2.27834E-01  2.78279E-01 -4.61008E-01 -9.46749E-01
   3.06432E+00 -1.51891E+00  4.07983E+00 -2.56026E+00 -3.42385E+00 -4.74563E+00 -3.14219E+00 -1.34014E+00 -5.19078E+00 -1.70483E+00
   4.40758E-01 -6.62723E+00  1.26430E+00 -6.10900E+00 -2.03662E+00 -4.60694E+00 -3.17386E+00  2.07811E+00 -1.78723E+00 -2.32396E+00
  -9.32112E-01 -4.89466E+00 -4.23937E-01 -7.24337E+00  2.43675E+00 -8.42080E+00  3.95072E+00  1.56352E+00
 NY points of the fit to the data follow
  -3.62897E+00 -3.74797E+00 -3.56335E+00 -2.78574E+00 -1.29532E+00  8.08866E-01  3.45881E+00  6.35661E+00  9.09347E+00  1.11772E+01
   1.20835E+01  1.15067E+01  9.59166E+00  6.91507E+00  4.20494E+00  1.97970E+00  3.94168E-01 -5.72291E-01 -1.13592E+00 -1.45148E+00
  -1.55831E+00 -1.65666E+00 -1.90968E+00 -2.21004E+00 -2.23419E+00 -2.01849E+00 -1.50058E+00 -4.06365E-01  1.29994E+00  3.38386E+00
   5.37509E+00  6.69433E+00  6.80223E+00  5.63707E+00  3.65736E+00  1.29859E+00 -1.00226E+00 -2.71311E+00 -3.50181E+00 -3.52972E+00
  -2.88398E+00 -1.59400E+00  1.31784E-02  1.59905E+00  3.06425E+00  4.36091E+00  5.22417E+00  5.31347E+00  4.46638E+00  2.78536E+00
   7.52774E-01 -1.05250E+00 -2.29053E+00 -2.90181E+00 -2.98359E+00 -2.63601E+00 -2.05258E+00 -1.45048E+00 -9.60646E-01 -6.96577E-01
  -7.57385E-01 -1.16641E+00 -1.84735E+00 -2.57951E+00 -3.14288E+00 -3.38344E+00 -3.27510E+00 -2.92072E+00 -2.48073E+00 -2.04894E+00
  -1.67769E+00 -1.42437E+00 -1.31580E+00 -1.35485E+00 -1.51565E+00 -1.74782E+00 -2.01206E+00 -2.28414E+00 -2.56252E+00 -2.78399E+00
  -2.81826E+00 -2.57029E+00 -2.21399E+00 -1.85321E+00 -1.51599E+00 -1.29051E+00 -1.29548E+00 -1.60470E+00 -2.19230E+00 -2.88055E+00
  -3.39534E+00 -3.62708E+00 -3.64219E+00 -3.58259E+00 -3.53080E+00 -3.40883E+00 -2.75176E+00 -1.01371E-01  4.49178E+00  1.02108E+01
   1.67893E+01  2.36466E+01  2.93344E+01  3.20107E+01  3.03816E+01  2.46318E+01  1.67496E+01  9.29456E+00  3.81732E+00  3.08000E-01
  -1.87484E+00 -2.85027E+00 -3.14293E+00 -3.25682E+00 -3.31654E+00 -3.35179E+00 -3.36118E+00 -3.33941E+00 -3.25788E+00 -3.02393E+00
  -2.21465E+00  3.84396E-01  4.72259E+00  1.00093E+01  1.59551E+01  2.20616E+01  2.71133E+01  2.95863E+01  2.83795E+01  2.35805E+01
   1.68417E+01  1.03398E+01  5.37156E+00  1.91713E+00 -5.70389E-01 -2.10323E+00 -2.90953E+00 -3.25654E+00 -3.16782E+00 -2.74668E+00
  -2.20024E+00 -1.73321E+00 -1.47895E+00 -1.48823E+00 -1.70105E+00 -2.00273E+00 -2.30456E+00 -2.55609E+00 -2.76002E+00 -2.93580E+00
  -3.08133E+00 -3.20455E+00 -3.30036E+00 -3.35608E+00 -3.39107E+00 -3.49556E+00 -3.67691E+00 -3.90773E+00 -4.17287E+00 -4.41004E+00
  -4.60880E+00 -4.71175E+00 -4.63173E+00 -4.39520E+00 -4.17230E+00 -4.16255E+00 -4.45317E+00 -4.95264E+00 -5.48171E+00 -5.95019E+00
  -6.37438E+00 -6.77456E+00 -7.09961E+00 -7.34207E+00 -7.54214E+00 -7.70973E+00 -7.74359E+00 -7.57549E+00 -7.28794E+00 -7.06672E+00
  -7.04129E+00 -7.20845E+00 -7.35271E+00 -7.29020E+00 -7.03917E+00 -6.62077E+00 -5.96015E+00 -5.01301E+00 -3.84787E+00 -2.68520E+00
  -1.78610E+00 -1.38876E+00 -1.60398E+00 -2.26139E+00 -3.10417E+00 -3.91501E+00 -4.43633E+00 -4.46232E+00 -3.91036E+00 -2.81775E+00
  -1.30020E+00  3.16740E-01  1.65383E+00  2.35255E+00  2.02256E+00  5.87859E-01 -1.61085E+00 -4.19158E+00 -6.63491E+00 -8.30466E+00
  -8.57441E+00 -7.35640E+00 -4.94446E+00 -1.89792E+00  1.01418E+00  2.96024E+00  3.34221E+00  2.09684E+00 -3.05031E-01 -3.05391E+00
  -5.37427E+00 -6.73592E+00 -6.85671E+00 -5.72978E+00 -3.60303E+00 -1.18104E+00  8.13000E-01  2.02943E+00  2.49217E+00  2.41329E+00
   1.95509E+00  1.38516E+00  1.07070E+00  1.11470E+00  1.40323E+00  1.85587E+00  2.39797E+00  2.81277E+00  3.06439E+00  3.15511E+00
   3.01634E+00  2.65477E+00  2.25880E+00  2.01405E+00  1.97181E+00  2.18765E+00  2.65051E+00  3.21503E+00  3.76323E+00  4.35802E+00
   5.16594E+00  6.16803E+00  7.37742E+00  9.27219E+00  1.39748E+01  2.20780E+01  3.18082E+01  4.25303E+01  5.37111E+01  6.33986E+01
   6.85899E+01  6.67328E+01  5.73985E+01  4.33680E+01  2.91741E+01  1.81111E+01  1.07210E+01  5.89378E+00  3.23953E+00  2.17476E+00
   1.59585E+00  1.22629E+00  1.01570E+00  9.05654E-01  8.22955E-01  7.12074E-01  5.38777E-01  3.06229E-01  4.37238E-02 -2.15320E-01
  -4.47971E-01 -6.35160E-01 -7.66452E-01 -8.46776E-01 -8.89476E-01 -9.08457E-01 -9.10619E-01 -8.94810E-01 -8.58931E-01 -8.00408E-01
  -7.14334E-01 -5.98412E-01 -4.53616E-01 -2.82884E-01 -8.86272E-02  1.26714E-01  3.59899E-01  6.08559E-01  8.69960E-01  1.13965E+00
   1.41243E+00  1.68217E+00  1.94120E+00  2.18172E+00  2.39668E+00  2.58057E+00  2.72942E+00  2.84081E+00  2.91409E+00  2.95032E+00
   2.95180E+00  2.92255E+00  2.86753E+00  2.79271E+00  2.70495E+00  2.61174E+00  2.52050E+00  2.43836E+00  2.37157E+00  2.32575E+00
   2.30572E+00  2.31556E+00  2.35618E+00  2.42679E+00  2.52648E+00  2.65329E+00  2.80392E+00  2.97493E+00  3.16356E+00  3.36974E+00
   3.59437E+00  3.83609E+00  4.09176E+00  4.35750E+00  4.62901E+00  4.90229E+00  5.17258E+00  5.43604E+00  5.69130E+00  5.93947E+00
   6.18250E+00  6.42178E+00  6.65724E+00  6.88875E+00  7.11565E+00  7.33623E+00  7.54827E+00  7.74931E+00  7.93643E+00  8.10646E+00
   8.25574E+00  8.38042E+00  8.47652E+00  8.54040E+00  8.56875E+00  8.55889E+00  8.50867E+00  8.41677E+00  8.28272E+00  8.10719E+00
   7.89179E+00  7.63910E+00  7.35238E+00  7.03568E+00  6.69361E+00  6.33140E+00  5.95448E+00  5.56841E+00  5.17857E+00  4.79029E+00
   4.40856E+00  4.03821E+00  3.68351E+00  3.34831E+00  3.03582E+00  2.74900E+00  2.49033E+00  2.26206E+00  2.06596E+00  1.90354E+00
   1.77600E+00  1.68451E+00  1.63005E+00  1.61351E+00  1.63547E+00  1.69630E+00  1.79605E+00  1.93451E+00  2.11095E+00  2.32404E+00
   2.57155E+00  2.85042E+00  3.15659E+00  3.48509E+00  3.82980E+00  4.18359E+00  4.53828E+00  4.88506E+00  5.21463E+00  5.51768E+00
   5.78496E+00  6.00787E+00  6.17867E+00  6.29113E+00  6.34065E+00  6.32461E+00  6.24230E+00  6.09510E+00  5.88625E+00  5.62097E+00
   5.30591E+00  4.94896E+00  4.55862E+00  4.14385E+00  3.71351E+00  3.27625E+00  2.83997E+00  2.41170E+00  1.99728E+00  1.60149E+00
   1.22789E+00  8.79104E-01  5.56585E-01  2.60948E-01 -8.09296E-03 -2.51303E-01 -4.69955E-01 -6.65512E-01 -8.39777E-01 -9.94595E-01
  -1.13194E+00 -1.25359E+00 -1.36129E+00 -1.45654E+00 -1.54088E+00 -1.61563E+00 -1.68205E+00 -1.74111E+00 -1.79373E+00 -1.84061E+00
  -1.88253E+00 -1.92007E+00 -1.95383E+00 -1.98415E+00 -2.01142E+00 -2.03593E+00 -2.05807E+00 -2.07807E+00 -2.09619E+00 -2.11253E+00
  -2.12727E+00 -2.14054E+00 -2.15255E+00 -2.16340E+00 -2.17319E+00 -2.18193E+00 -2.18973E+00 -2.19667E+00 -2.20291E+00 -2.20843E+00
  -2.21331E+00 -2.21751E+00 -2.22114E+00 -2.22422E+00 -2.22687E+00 -2.22905E+00 -2.23078E+00 -2.23204E+00 -2.23295E+00 -2.23350E+00
  -2.23377E+00 -2.23370E+00 -2.23330E+00 -2.23256E+00 -2.23158E+00 -2.23036E+00 -2.22893E+00 -2.22722E+00 -2.22527E+00 -2.22307E+00
  -2.22072E+00 -2.21819E+00 -2.21548E+00 -2.21253E+00 -2.20939E+00 -2.20605E+00 -2.20261E+00 -2.19900E+00 -2.19522E+00 -2.19122E+00
  -2.18706E+00 -2.18273E+00 -2.17830E+00 -2.17368E+00 -2.16888E+00 -2.16383E+00 -2.15863E+00 -2.15323E+00
 NY background values follow
    -5.681E+00   -5.674E+00   -5.667E+00   -5.660E+00   -5.653E+00   -5.646E+00   -5.639E+00   -5.632E+00   -5.625E+00   -5.618E+00
    -5.611E+00   -5.604E+00   -5.597E+00   -5.590E+00   -5.583E+00   -5.576E+00   -5.569E+00   -5.562E+00   -5.555E+00   -5.548E+00
    -5.541E+00   -5.534E+00   -5.527E+00   -5.520E+00   -5.514E+00   -5.507E+00   -5.500E+00   -5.493E+00   -5.486E+00   -5.479E+00
    -5.472E+00   -5.465E+00   -5.458E+00   -5.451E+00   -5.444E+00   -5.437E+00   -5.430E+00   -5.423E+00   -5.416E+00   -5.409E+00
    -5.402E+00   -5.395E+00   -5.388E+00   -5.381E+00   -5.374E+00   -5.367E+00   -5.360E+00   -5.353E+00   -5.346E+00   -5.339E+00
    -5.332E+00   -5.325E+00   -5.318E+00   -5.311E+00   -5.304E+00   -5.297E+00   -5.290E+00   -5.283E+00   -5.276E+00   -5.269E+00
    -5.262E+00   -5.255E+00   -5.249E+00   -5.242E+00   -5.235E+00   -5.228E+00   -5.221E+00   -5.214E+00   -5.207E+00   -5.200E+00
    -5.193E+00   -5.186E+00   -5.179E+00   -5.172E+00   -5.165E+00   -5.158E+00   -5.151E+00   -5.144E+00   -5.137E+00   -5.130E+00
    -5.123E+00   -5.116E+00   -5.109E+00   -5.102E+00   -5.095E+00   -5.088E+00   -5.081E+00   -5.074E+00   -5.067E+00   -5.060E+00
    -5.053E+00   -5.046E+00   -5.039E+00   -5.032E+00   -5.025E+00   -5.018E+00   -5.011E+00   -5.004E+00   -4.997E+00   -4.990E+00
    -4.983E+00   -4.976E+00   -4.969E+00   -4.962E+00   -4.955E+00   -4.948E+00   -4.941E+00   -4.934E+00   -4.927E+00   -4.920E+00
    -4.913E+00   -4.906E+00   -4.899E+00   -4.892E+00   -4.885E+00   -4.878E+00   -4.871E+00   -4.864E+00   -4.857E+00   -4.850E+00
    -4.843E+00   -4.836E+00   -4.829E+00   -4.822E+00   -4.815E+00   -4.808E+00   -4.801E+00   -4.794E+00   -4.787E+00   -4.780E+00
    -4.773E+00   -4.766E+00   -4.759E+00   -4.752E+00   -4.745E+00   -4.738E+00   -4.731E+00   -4.724E+00   -4.717E+00   -4.710E+00
    -4.703E+00   -4.696E+00   -4.689E+00   -4.682E+00   -4.675E+00   -4.668E+00   -4.661E+00   -4.654E+00   -4.647E+00   -4.640E+00
    -4.633E+00   -4.626E+00   -4.619E+00   -4.612E+00   -4.605E+00   -4.598E+00   -4.591E+00   -4.584E+00   -4.577E+00   -4.570E+00
    -4.563E+00   -4.556E+00   -4.549E+00   -4.542E+00   -4.535E+00   -4.528E+00   -4.521E+00   -4.514E+00   -4.507E+00   -4.500E+00
    -4.493E+00   -4.486E+00   -4.479E+00   -4.472E+00   -4.465E+00   -4.458E+00   -4.450E+00   -4.443E+00   -4.436E+00   -4.429E+00
    -4.422E+00   -4.415E+00   -4.408E+00   -4.401E+00   -4.394E+00   -4.387E+00   -4.380E+00   -4.373E+00   -4.366E+00   -4.359E+00
    -4.352E+00   -4.345E+00   -4.338E+00   -4.331E+00   -4.324E+00   -4.317E+00   -4.310E+00   -4.303E+00   -4.296E+00   -4.289E+00
    -4.282E+00   -4.275E+00   -4.268E+00   -4.261E+00   -4.254E+00   -4.247E+00   -4.240E+00   -4.233E+00   -4.226E+00   -4.219E+00
    -4.212E+00   -4.205E+00   -4.198E+00   -4.191E+00   -4.184E+00   -4.177E+00   -4.170E+00   -4.162E+00   -4.155E+00   -4.148E+00
    -4.141E+00   -4.134E+00   -4.127E+00   -4.120E+00   -4.113E+00   -4.106E+00   -4.099E+00   -4.092E+00   -4.085E+00   -4.078E+00
    -4.071E+00   -4.064E+00   -4.057E+00   -4.050E+00   -4.043E+00   -4.036E+00   -4.029E+00   -4.022E+00   -4.015E+00   -4.008E+00
    -4.001E+00   -3.994E+00   -3.987E+00   -3.980E+00   -3.973E+00   -3.966E+00   -3.959E+00   -3.951E+00   -3.944E+00   -3.937E+00
    -3.930E+00   -3.923E+00   -3.916E+00   -3.909E+00   -3.902E+00   -3.895E+00   -3.888E+00   -3.881E+00   -3.874E+00   -3.867E+00
    -3.860E+00   -3.853E+00   -3.846E+00   -3.839E+00   -3.832E+00   -3.825E+00   -3.818E+00   -3.811E+00   -3.804E+00   -3.797E+00
    -3.790E+00   -3.783E+00   -3.775E+00   -3.768E+00   -3.761E+00   -3.754E+00   -3.747E+00   -3.740E+00   -3.733E+00   -3.726E+00
    -3.719E+00   -3.712E+00   -3.705E+00   -3.698E+00   -3.691E+00   -3.684E+00   -3.677E+00   -3.670E+00   -3.663E+00   -3.656E+00
    -3.649E+00   -3.642E+00   -3.635E+00   -3.628E+00   -3.621E+00   -3.613E+00   -3.606E+00   -3.599E+00   -3.592E+00   -3.585E+00
    -3.578E+00   -3.571E+00   -3.564E+00   -3.557E+00   -3.550E+00   -3.543E+00   -3.536E+00   -3.529E+00   -3.522E+00   -3.515E+00
    -3.508E+00   -3.501E+00   -3.494E+00   -3.487E+00   -3.480E+00   -3.473E+00   -3.466E+00   -3.458E+00   -3.451E+00   -3.444E+00
    -3.437E+00   -3.430E+00   -3.423E+00   -3.416E+00   -3.409E+00   -3.402E+00   -3.395E+00   -3.388E+00   -3.381E+00   -3.374E+00
    -3.367E+00   -3.360E+00   -3.353E+00   -3.346E+00   -3.339E+00   -3.332E+00   -3.325E+00   -3.317E+00   -3.310E+00   -3.303E+00
    -3.296E+00   -3.289E+00   -3.282E+00   -3.275E+00   -3.268E+00   -3.261E+00   -3.254E+00   -3.247E+00   -3.240E+00   -3.233E+00
    -3.226E+00   -3.219E+00   -3.212E+00   -3.205E+00   -3.198E+00   -3.191E+00   -3.184E+00   -3.176E+00   -3.169E+00   -3.162E+00
    -3.155E+00   -3.148E+00   -3.141E+00   -3.134E+00   -3.127E+00   -3.120E+00   -3.113E+00   -3.106E+00   -3.099E+00   -3.092E+00
    -3.085E+00   -3.078E+00   -3.071E+00   -3.064E+00   -3.057E+00   -3.050E+00   -3.042E+00   -3.035E+00   -3.028E+00   -3.021E+00
    -3.014E+00   -3.007E+00   -3.000E+00   -2.993E+00   -2.986E+00   -2.979E+00   -2.972E+00   -2.965E+00   -2.958E+00   -2.951E+00
    -2.944E+00   -2.937E+00   -2.930E+00   -2.923E+00   -2.916E+00   -2.908E+00   -2.901E+00   -2.894E+00   -2.887E+00   -2.880E+00
    -2.873E+00   -2.866E+00   -2.859E+00   -2.852E+00   -2.845E+00   -2.838E+00   -2.831E+00   -2.824E+00   -2.817E+00   -2.810E+00
    -2.803E+00   -2.796E+00   -2.789E+00   -2.781E+00   -2.774E+00   -2.767E+00   -2.760E+00   -2.753E+00   -2.746E+00   -2.739E+00
    -2.732E+00   -2.725E+00   -2.718E+00   -2.711E+00   -2.704E+00   -2.697E+00   -2.690E+00   -2.683E+00   -2.676E+00   -2.669E+00
    -2.662E+00   -2.655E+00   -2.647E+00   -2.640E+00   -2.633E+00   -2.626E+00   -2.619E+00   -2.612E+00   -2.605E+00   -2.598E+00
    -2.591E+00   -2.584E+00   -2.577E+00   -2.570E+00   -2.563E+00   -2.556E+00   -2.549E+00   -2.542E+00   -2.535E+00   -2.528E+00
    -2.520E+00   -2.513E+00   -2.506E+00   -2.499E+00   -2.492E+00   -2.485E+00   -2.478E+00   -2.471E+00   -2.464E+00   -2.457E+00
    -2.450E+00   -2.443E+00   -2.436E+00   -2.429E+00   -2.422E+00   -2.415E+00   -2.408E+00   -2.401E+00   -2.394E+00   -2.386E+00
    -2.379E+00   -2.372E+00   -2.365E+00   -2.358E+00   -2.351E+00   -2.344E+00   -2.337E+00   -2.330E+00   -2.323E+00   -2.316E+00
    -2.309E+00   -2.302E+00   -2.295E+00   -2.288E+00   -2.281E+00   -2.274E+00   -2.267E+00   -2.260E+00   -2.252E+00   -2.245E+00
    -2.238E+00   -2.231E+00   -2.224E+00   -2.217E+00   -2.210E+00   -2.203E+00   -2.196E+00   -2.189E+00
 Ala      Conc. = 2.32E+00
