 LCModel (Version 6.3-1L) Copyright: S.W. Provencher.          Ref.: Magn. Reson. Med. 30:672-679 (1993).                
 Slice#3 Row#9 Col#10  PD_24_press_1_raw_act
 36 lines in following concentration table = NCONC+1
    Conc.  %SD /Cr+PCr  Metabolite                                         
  227.043  39%   0.128 Ala                                                 
    0.000 999%   0.000 Asp                                                 
  990.794  17%   0.558 Cr                                                  
  784.080  21%   0.442 PCr                                                 
    0.000 999%   0.000 GABA                                                
   29.791 503% 1.7E-02 Glc                                                 
  562.289  31%   0.317 Gln                                                 
 1.71E+03  12%   0.963 Glu                                                 
  680.660   3%   0.383 GPC                                                 
    0.000 999%   0.000 PCh                                                 
  543.234  12%   0.306 GSH                                                 
 1.38E+03  15%   0.775 Ins                                                 
   41.343 253% 2.3E-02 Lac                                                 
 2.19E+03   4%   1.236 NAA                                                 
  273.517  32%   0.154 NAAG                                                
  117.385  20% 6.6E-02 Scyllo                                              
    0.000 999%   0.000 Tau                                                 
    0.000 999%   0.000 -CrCH2                                              
  680.660   3%   0.383 GPC+PCh                                             
 2.47E+03   3%   1.390 NAA+NAAG                                            
 1.77E+03   3%   1.000 Cr+PCr                                              
 2.27E+03  12%   1.280 Glu+Gln                                             
 1.22E+03  60%   0.685 Lip13a                                              
  258.070  69%   0.145 Lip13b                                              
  295.880  90%   0.167 Lip09                                               
 1.67E+03  19%   0.942 MM09                                                
   86.054 207% 4.8E-02 Lip20                                               
 2.56E+03  14%   1.443 MM20                                                
  622.637  40%   0.351 MM12                                                
 2.47E+03  21%   1.390 MM14                                                
 1.29E+03  23%   0.728 MM17                                                
 1.47E+03  44%   0.831 Lip13a+Lip13b                                       
 4.56E+03  10%   2.571 MM14+Lip13a+Lip13b+MM12                             
 1.97E+03  10%   1.109 MM09+Lip09                                          
 2.65E+03  13%   1.492 MM20+Lip20                                          
   6 lines in following misc. output table
  FWHM = 0.046 ppm    S/N =  14                                            
  Data shift = 0.015 ppm                                                   
  Ph:  -8 deg      -5.9 deg/ppm                                            
  alphaB,S = 1.9E+00,   1.0E+02                                            
   14 spline knots.   Ns = 6(1)                                            
  (11) 2 infls.   ( 5) 1 extrs.                                            
  498 points on ppm-axis = NY
      4.000000     3.992357     3.984714     3.977070     3.969427     3.961784     3.954141     3.946497     3.938854     3.931211
      3.923568     3.915925     3.908281     3.900638     3.892995     3.885352     3.877708     3.870065     3.862422     3.854779
      3.847136     3.839492     3.831849     3.824206     3.816563     3.808919     3.801276     3.793633     3.785990     3.778347
      3.770703     3.763060     3.755417     3.747774     3.740130     3.732487     3.724844     3.717201     3.709558     3.701914
      3.694271     3.686628     3.678985     3.671341     3.663698     3.656055     3.648412     3.640769     3.633125     3.625482
      3.617839     3.610196     3.602552     3.594909     3.587266     3.579623     3.571980     3.564336     3.556693     3.549050
      3.541407     3.533763     3.526120     3.518477     3.510834     3.503191     3.495547     3.487904     3.480261     3.472618
      3.464974     3.457331     3.449688     3.442045     3.434402     3.426758     3.419115     3.411472     3.403829     3.396185
      3.388542     3.380899     3.373256     3.365613     3.357969     3.350326     3.342683     3.335040     3.327396     3.319753
      3.312110     3.304467     3.296824     3.289180     3.281537     3.273894     3.266251     3.258607     3.250964     3.243321
      3.235678     3.228034     3.220391     3.212748     3.205105     3.197462     3.189818     3.182175     3.174532     3.166889
      3.159245     3.151602     3.143959     3.136316     3.128673     3.121029     3.113386     3.105743     3.098100     3.090456
      3.082813     3.075170     3.067527     3.059884     3.052240     3.044597     3.036954     3.029311     3.021667     3.014024
      3.006381     2.998738     2.991095     2.983451     2.975808     2.968165     2.960522     2.952878     2.945235     2.937592
      2.929949     2.922306     2.914662     2.907019     2.899376     2.891733     2.884089     2.876446     2.868803     2.861160
      2.853517     2.845873     2.838230     2.830587     2.822944     2.815300     2.807657     2.800014     2.792371     2.784728
      2.777084     2.769441     2.761798     2.754155     2.746511     2.738868     2.731225     2.723582     2.715939     2.708295
      2.700652     2.693009     2.685366     2.677722     2.670079     2.662436     2.654793     2.647150     2.639506     2.631863
      2.624220     2.616577     2.608933     2.601290     2.593647     2.586004     2.578361     2.570717     2.563074     2.555431
      2.547788     2.540144     2.532501     2.524858     2.517215     2.509572     2.501928     2.494285     2.486642     2.478999
      2.471355     2.463712     2.456069     2.448426     2.440783     2.433139     2.425496     2.417853     2.410210     2.402566
      2.394923     2.387280     2.379637     2.371994     2.364350     2.356707     2.349064     2.341421     2.333777     2.326134
      2.318491     2.310848     2.303205     2.295561     2.287918     2.280275     2.272632     2.264988     2.257345     2.249702
      2.242059     2.234416     2.226772     2.219129     2.211486     2.203843     2.196199     2.188556     2.180913     2.173270
      2.165627     2.157983     2.150340     2.142697     2.135054     2.127410     2.119767     2.112124     2.104481     2.096838
      2.089194     2.081551     2.073908     2.066265     2.058621     2.050978     2.043335     2.035692     2.028049     2.020405
      2.012762     2.005119     1.997476     1.989833     1.982190     1.974546     1.966903     1.959260     1.951617     1.943974
      1.936331     1.928688     1.921045     1.913402     1.905759     1.898115     1.890472     1.882829     1.875186     1.867543
      1.859900     1.852257     1.844614     1.836971     1.829327     1.821684     1.814041     1.806398     1.798755     1.791112
      1.783469     1.775826     1.768183     1.760540     1.752896     1.745253     1.737610     1.729967     1.722324     1.714681
      1.707038     1.699395     1.691752     1.684108     1.676465     1.668822     1.661179     1.653536     1.645893     1.638250
      1.630607     1.622964     1.615321     1.607677     1.600034     1.592391     1.584748     1.577105     1.569462     1.561819
      1.554176     1.546533     1.538890     1.531246     1.523603     1.515960     1.508317     1.500674     1.493031     1.485388
      1.477745     1.470102     1.462458     1.454815     1.447172     1.439529     1.431886     1.424243     1.416600     1.408957
      1.401314     1.393671     1.386027     1.378384     1.370741     1.363098     1.355455     1.347812     1.340169     1.332526
      1.324883     1.317240     1.309596     1.301953     1.294310     1.286667     1.279024     1.271381     1.263738     1.256095
      1.248452     1.240808     1.233165     1.225522     1.217879     1.210236     1.202593     1.194950     1.187307     1.179664
      1.172021     1.164377     1.156734     1.149091     1.141448     1.133805     1.126162     1.118519     1.110876     1.103233
      1.095590     1.087946     1.080303     1.072660     1.065017     1.057374     1.049731     1.042088     1.034445     1.026802
      1.019158     1.011515     1.003872     0.996229     0.988586     0.980943     0.973300     0.965657     0.958014     0.950371
      0.942727     0.935084     0.927441     0.919798     0.912155     0.904512     0.896869     0.889226     0.881583     0.873940
      0.866296     0.858653     0.851010     0.843367     0.835724     0.828081     0.820438     0.812795     0.805152     0.797508
      0.789865     0.782222     0.774579     0.766936     0.759293     0.751650     0.744007     0.736364     0.728721     0.721077
      0.713434     0.705791     0.698148     0.690505     0.682862     0.675219     0.667576     0.659933     0.652290     0.644646
      0.637003     0.629360     0.621717     0.614074     0.606431     0.598788     0.591145     0.583502     0.575858     0.568215
      0.560572     0.552929     0.545286     0.537643     0.530000     0.522357     0.514714     0.507071     0.499427     0.491784
      0.484141     0.476498     0.468855     0.461212     0.453569     0.445925     0.438282     0.430639     0.422996     0.415353
      0.407710     0.400067     0.392424     0.384780     0.377137     0.369494     0.361851     0.354208     0.346565     0.338922
      0.331278     0.323635     0.315992     0.308349     0.300706     0.293063     0.285420     0.277777     0.270133     0.262490
      0.254847     0.247204     0.239561     0.231918     0.224275     0.216631     0.208988     0.201345
 NY phased data points follow
   1.77826E+01  1.33269E+01  1.66557E+01  1.93016E+01  1.73224E+01  2.27819E+01  3.11100E+01  3.69783E+01  4.40649E+01  5.19572E+01
   5.68793E+01  5.69142E+01  5.79819E+01  4.94877E+01  4.26855E+01  3.64525E+01  2.78787E+01  2.40814E+01  2.00243E+01  1.61370E+01
   1.87935E+01  2.24953E+01  1.91603E+01  2.18629E+01  1.91979E+01  2.51940E+01  2.68014E+01  2.22023E+01  2.00613E+01  2.59063E+01
   2.55860E+01  2.74492E+01  2.41817E+01  2.40553E+01  2.25963E+01  2.00588E+01  2.34836E+01  1.87955E+01  2.23274E+01  2.25879E+01
   1.92159E+01  1.76477E+01  1.84432E+01  1.77140E+01  1.86504E+01  1.97187E+01  2.29003E+01  3.02025E+01  2.45953E+01  2.85713E+01
   2.51079E+01  1.64944E+01  1.75947E+01  1.64606E+01  1.37400E+01  1.90931E+01  1.58238E+01  2.04083E+01  1.94180E+01  1.67859E+01
   1.24020E+01  1.25527E+01  7.95635E+00  6.53200E+00  1.92412E+00  1.47280E+00  6.18182E+00  2.41505E+00  2.48153E+00  4.03195E+00
   3.67154E+00  5.79529E+00  5.12369E+00  9.21654E+00  5.40221E+00  6.32661E+00  7.36826E+00  4.43802E+00  5.29775E+00  6.45410E+00
   8.61716E+00  6.47105E+00  6.07653E+00  7.33019E+00  1.20935E+01  7.89227E+00  9.85091E+00  1.15260E+01  8.45617E+00  8.66303E+00
   1.16502E+01  1.37332E+01  1.44072E+01  1.23474E+01  8.18881E+00  1.10486E+01  6.90954E+00  1.06302E+01  1.23676E+01  1.96855E+01
   2.90096E+01  4.70608E+01  6.75902E+01  7.57379E+01  7.22773E+01  6.49411E+01  5.11310E+01  3.65911E+01  2.87945E+01  2.03141E+01
   1.84003E+01  1.44287E+01  1.05818E+01  8.11796E+00  4.38741E+00  5.06281E+00  6.38861E+00  7.10698E+00  5.71011E+00  6.11920E+00
   6.36318E+00  5.05411E+00  4.04232E+00  1.56491E+01  2.69547E+01  4.75662E+01  6.17867E+01  7.16747E+01  7.04423E+01  5.87755E+01
   4.56273E+01  3.93689E+01  2.79245E+01  2.08194E+01  1.49585E+01  8.45277E+00  7.30577E+00  6.45091E+00  2.63946E+00  7.34698E+00
   7.39496E+00  2.77229E+00  6.28614E+00  4.44037E+00  5.14698E+00  2.52431E+00  4.50933E+00  4.90943E-02  2.11390E+00  3.89576E+00
  -1.89682E+00 -6.20690E-01 -9.32605E-01  1.53613E+00  3.11607E+00  1.13284E-01 -5.93402E-01 -4.83472E+00  6.37855E-01  3.23820E+00
  -1.46786E+00 -2.12938E+00 -3.32106E+00 -2.71918E+00 -3.74428E+00  3.62664E-01 -1.13676E-01 -3.64898E+00 -1.74643E+00 -6.95393E+00
  -6.66042E+00 -5.89294E+00 -8.22782E+00 -8.57155E+00 -1.20405E+01 -1.15414E+01 -1.00828E+01 -9.60495E+00 -1.00474E+01 -4.20893E+00
  -8.61461E+00 -9.19846E+00 -1.21013E+01 -1.22519E+01 -1.13841E+01 -9.32275E+00 -8.91188E+00 -6.29496E+00 -9.26890E+00 -6.69507E+00
  -4.30008E+00  2.22506E+00  7.09173E-01  3.53266E+00  1.25710E+00  2.27290E+00  4.43668E+00 -1.09546E-01 -4.46277E+00 -4.98944E+00
  -3.06063E+00  7.42247E-01 -2.63984E+00  6.22948E+00  1.89385E+00  5.23580E+00  1.65322E+00 -1.51173E+00 -5.61408E-01 -5.51122E+00
  -3.74354E+00 -6.07941E+00 -4.02102E+00  1.73637E+00  8.29958E+00  9.06497E+00  1.34570E+01  1.30284E+01  1.10517E+01  4.12656E+00
  -3.85754E-01 -4.18444E+00 -8.47503E+00 -7.48376E+00 -2.47222E+00 -1.35410E+00  4.28242E+00  3.74605E+00  4.57981E+00  9.49937E+00
   7.56496E+00  5.13848E+00  2.08659E+00  3.75342E+00  6.01924E+00  3.88282E+00  2.71071E+00  1.83627E+00  3.09086E+00  3.15457E+00
  -9.42780E-01  2.90938E+00  1.26300E+00  1.34072E+00  3.34708E+00  2.06711E+00  5.29934E+00  6.31450E+00  9.98806E+00  1.15211E+01
   1.29568E+01  1.70867E+01  1.61137E+01  1.75595E+01  1.96705E+01  2.61006E+01  3.05491E+01  3.53513E+01  5.93784E+01  8.27757E+01
   9.53564E+01  1.01234E+02  8.13650E+01  6.14108E+01  4.52181E+01  3.17406E+01  2.18345E+01  1.54578E+01  8.43466E+00  7.32413E+00
   4.82655E+00  2.26819E+00  3.61715E+00  4.55330E+00  3.22105E+00  3.16270E+00  2.61547E+00  7.52676E-01  5.19464E+00  1.48846E+00
   2.04467E+00  5.85080E-01  3.26049E+00  7.69309E-01 -8.85513E-01  4.01499E+00  1.45817E+00  2.11016E+00  1.87182E+00  4.30707E+00
   3.85663E+00  4.72114E+00  7.50662E-01 -1.14212E+00 -1.88883E+00  1.17873E+00 -8.94803E-01 -7.30704E-02 -1.60109E+00  3.10773E+00
   1.41880E+00  3.81778E+00  2.27991E+00  6.97333E+00  2.69653E+00  5.42845E+00  8.19622E+00  1.04818E+01  7.63361E+00  1.22414E+01
   4.65904E+00  1.24030E+01  9.01158E+00  1.30082E+01  1.05392E+01  1.07128E+01  9.78835E+00  1.15841E+01  1.12755E+01  1.12728E+01
   1.28428E+01  1.05713E+01  9.96453E+00  1.64154E+01  1.11566E+01  1.60214E+01  1.03107E+01  1.23421E+01  7.08026E+00  1.10885E+01
   4.22916E+00  1.28306E+01  1.05175E+01  1.03603E+01  1.25993E+01  1.35793E+01  1.43241E+01  1.46635E+01  1.72740E+01  1.26383E+01
   1.69627E+01  9.44569E+00  1.12453E+01  1.16664E+01  1.53415E+01  1.13200E+01  2.08460E+01  1.82043E+01  1.62452E+01  1.39403E+01
   1.22842E+01  1.50988E+01  1.50839E+01  1.30980E+01  1.67765E+01  1.58555E+01  1.20379E+01  1.59705E+01  1.04491E+01  1.28249E+01
   1.37274E+01  1.61342E+01  7.60863E+00  8.15061E+00  5.24619E+00  7.84922E+00  8.01478E+00  1.12889E+01  7.19299E+00  5.29589E+00
   8.73271E+00  8.26484E+00  7.61182E+00  8.56059E+00  7.08470E+00  7.17434E+00  1.04085E+01  8.66502E+00  7.68991E+00  8.78799E+00
   8.22476E+00  1.00323E+01  2.24886E+00  9.82756E+00  5.93096E+00  8.16305E+00  1.08448E+01  1.01581E+01  9.65711E+00  1.10238E+01
   9.12046E+00  1.04375E+01  1.13735E+01  9.05815E+00  9.99949E+00  1.40797E+01  1.04756E+01  1.25258E+01  8.89220E+00  1.11329E+01
   1.71681E+01  1.12575E+01  8.82951E+00  1.21787E+01  9.71776E+00  1.07077E+01  1.24639E+01  1.47292E+01  8.22810E+00  1.22595E+01
   9.24853E+00  1.09519E+01  1.28202E+01  1.05610E+01  8.56256E+00  8.65381E+00  8.51267E+00  9.45862E+00  7.86509E+00  7.19511E+00
   7.05991E+00  7.40080E+00  4.70177E+00  4.43051E+00  5.03008E+00  4.72270E+00  5.10448E+00  2.96311E+00  1.78679E+00  6.51098E+00
   2.44353E+00  1.76683E+00  9.98838E-01  2.15149E+00  3.71646E-01  4.88005E+00  4.42503E+00  4.52070E+00  2.60253E+00  3.86955E+00
  -4.97811E-01  1.63095E+00  2.00374E+00  5.79664E+00  3.26162E+00  5.20763E+00  2.92500E+00  3.73360E+00  2.50858E+00  2.73504E+00
  -2.34049E+00  7.49567E+00 -7.62330E-01  4.16272E+00  4.20671E+00  3.85610E+00 -8.73699E-02  1.42222E+00  1.14585E+00  3.19512E+00
   2.54238E+00  4.14944E+00 -8.15154E-01  2.14332E+00  3.71397E+00  6.65707E+00  2.92453E+00  6.43462E+00 -1.05333E+00  2.75656E+00
   1.87624E+00  5.61766E+00  3.10603E+00  2.58219E+00  3.13396E+00  1.74630E+00  2.05251E+00  2.63287E+00  2.48039E+00  2.65601E+00
   4.09704E+00  5.13866E+00  6.90232E+00  4.11331E+00  2.27929E-01  4.12468E+00 -2.00033E-01  3.47858E+00  4.67529E+00  2.08385E+00
   3.39579E+00  1.31748E+00  3.31944E+00  1.73627E+00  1.10049E+00  3.23046E+00  4.93570E+00  3.80751E+00
 NY points of the fit to the data follow
   1.69303E+01  1.65325E+01  1.65753E+01  1.72634E+01  1.89905E+01  2.21650E+01  2.75511E+01  3.49808E+01  4.34622E+01  5.14015E+01
   5.67068E+01  5.77792E+01  5.45400E+01  4.82859E+01  4.10459E+01  3.44039E+01  2.88914E+01  2.47948E+01  2.17653E+01  1.93139E+01
   1.81199E+01  1.75378E+01  1.70457E+01  1.66443E+01  1.65090E+01  1.67488E+01  1.77753E+01  1.98798E+01  2.26345E+01  2.51733E+01
   2.67763E+01  2.72106E+01  2.67004E+01  2.55188E+01  2.36776E+01  2.12421E+01  1.83563E+01  1.57746E+01  1.43178E+01  1.35983E+01
   1.34794E+01  1.40222E+01  1.50937E+01  1.66792E+01  1.88521E+01  2.15568E+01  2.40538E+01  2.52095E+01  2.44670E+01  2.21703E+01
   1.92047E+01  1.65211E+01  1.45203E+01  1.30061E+01  1.18500E+01  1.13186E+01  1.15588E+01  1.22866E+01  1.31607E+01  1.38856E+01
   1.40814E+01  1.35463E+01  1.23920E+01  1.10132E+01  9.86288E+00  9.16936E+00  8.91654E+00  9.02683E+00  9.40646E+00  9.93209E+00
   1.04981E+01  1.09076E+01  1.10252E+01  1.08187E+01  1.03790E+01  9.88573E+00  9.45325E+00  9.10953E+00  8.80639E+00  8.51872E+00
   8.34051E+00  8.34699E+00  8.56792E+00  9.07779E+00  9.98609E+00  1.10568E+01  1.17101E+01  1.14973E+01  1.04493E+01  9.06758E+00
   7.97466E+00  7.44289E+00  7.33176E+00  7.33754E+00  7.25864E+00  7.26672E+00  7.52038E+00  8.71583E+00  1.21475E+01  1.90787E+01
   3.14127E+01  4.86281E+01  6.57311E+01  7.59674E+01  7.54703E+01  6.56356E+01  5.17956E+01  3.89316E+01  2.88791E+01  2.08154E+01
   1.34815E+01  8.14761E+00  6.20946E+00  5.57109E+00  5.27460E+00  5.10294E+00  4.98577E+00  4.89936E+00  4.87274E+00  4.99028E+00
   5.48716E+00  7.19438E+00  1.10871E+01  1.81146E+01  2.99705E+01  4.61207E+01  6.18889E+01  7.11233E+01  7.04242E+01  6.13543E+01
   4.90187E+01  3.77394E+01  2.86493E+01  2.05992E+01  1.25076E+01  6.23190E+00  3.59646E+00  2.90336E+00  3.22977E+00  4.03405E+00
   4.82720E+00  5.36557E+00  5.52991E+00  5.29931E+00  4.85286E+00  4.34291E+00  3.81409E+00  3.31792E+00  2.82116E+00  2.36669E+00
   1.95974E+00  1.56943E+00  1.22444E+00  9.83819E-01  8.83998E-01  8.80402E-01  8.84015E-01  7.52735E-01  3.14425E-01 -3.97728E-01
  -1.12098E+00 -1.50233E+00 -1.33986E+00 -8.25346E-01 -4.31008E-01 -5.27651E-01 -1.12000E+00 -1.88889E+00 -2.48322E+00 -2.88114E+00
  -3.22392E+00 -3.63444E+00 -4.20120E+00 -4.87589E+00 -5.54794E+00 -6.01639E+00 -6.02815E+00 -5.64155E+00 -5.25436E+00 -5.20744E+00
  -5.45551E+00 -5.70869E+00 -5.74234E+00 -5.58240E+00 -5.47911E+00 -5.41958E+00 -4.83343E+00 -3.39326E+00 -1.25790E+00  9.06496E-01
   2.34468E+00  2.78653E+00  2.32609E+00  1.30035E+00  1.17385E-01 -9.93960E-01 -1.79911E+00 -1.98446E+00 -1.49495E+00 -4.35786E-01
   1.02741E+00  2.67312E+00  4.21845E+00  5.35003E+00  5.62823E+00  4.78615E+00  2.83936E+00  9.90225E-02 -2.81975E+00 -5.15197E+00
  -6.33873E+00 -6.06372E+00 -4.20362E+00 -8.80312E-01  3.30801E+00  7.12281E+00  9.12055E+00  8.59334E+00  5.64345E+00  1.25893E+00
  -3.38092E+00 -7.37440E+00 -9.72041E+00 -9.69896E+00 -7.38371E+00 -3.63180E+00 -3.51652E-02  2.54972E+00  3.99296E+00  4.57102E+00
   4.60792E+00  4.35662E+00  4.21896E+00  4.55305E+00  5.27973E+00  6.07941E+00  6.67389E+00  6.81453E+00  6.40995E+00  5.47193E+00
   4.18274E+00  2.99119E+00  2.44947E+00  2.85448E+00  4.02833E+00  5.60753E+00  7.06826E+00  7.99453E+00  8.38982E+00  8.54410E+00
   8.91899E+00  9.77602E+00  1.15544E+01  1.44990E+01  1.86989E+01  2.43572E+01  3.16603E+01  4.36201E+01  6.18145E+01  8.16274E+01
   9.45703E+01  9.46590E+01  8.24367E+01  6.46169E+01  4.82742E+01  3.57959E+01  2.59618E+01  1.65538E+01  8.84521E+00  5.97023E+00
   4.81428E+00  4.08962E+00  3.67369E+00  3.51579E+00  3.41528E+00  3.25987E+00  3.02202E+00  2.71500E+00  2.37801E+00  2.05201E+00
   1.74858E+00  1.47407E+00  1.25958E+00  1.11541E+00  1.00538E+00  9.00600E-01  8.01227E-01  7.20274E-01  6.72271E-01  6.61070E-01
   6.97262E-01  7.91782E-01  9.34179E-01  1.10955E+00  1.31392E+00  1.54988E+00  1.82320E+00  2.13956E+00  2.50360E+00  2.92177E+00
   3.39862E+00  3.92809E+00  4.49910E+00  5.09874E+00  5.71445E+00  6.33476E+00  6.94736E+00  7.53892E+00  8.10048E+00  8.62186E+00
   9.09310E+00  9.50717E+00  9.86104E+00  1.01542E+01  1.03891E+01  1.05712E+01  1.07096E+01  1.08178E+01  1.09138E+01  1.10213E+01
   1.11772E+01  1.14360E+01  1.18036E+01  1.22880E+01  1.28263E+01  1.31489E+01  1.29379E+01  1.21039E+01  1.08701E+01  9.67884E+00
   8.87738E+00  8.58100E+00  8.86980E+00  9.78265E+00  1.12044E+01  1.28625E+01  1.42178E+01  1.49426E+01  1.51573E+01  1.51157E+01
   1.49975E+01  1.48339E+01  1.45604E+01  1.43001E+01  1.41930E+01  1.41571E+01  1.41089E+01  1.40112E+01  1.38868E+01  1.38047E+01
   1.38206E+01  1.39427E+01  1.41530E+01  1.44083E+01  1.46355E+01  1.47563E+01  1.46814E+01  1.43583E+01  1.38345E+01  1.31904E+01
   1.24935E+01  1.17823E+01  1.10759E+01  1.04209E+01  9.84695E+00  9.34524E+00  8.90586E+00  8.51920E+00  8.17618E+00  7.86907E+00
   7.59194E+00  7.34109E+00  7.11517E+00  6.91491E+00  6.74239E+00  6.60017E+00  6.49089E+00  6.41726E+00  6.38221E+00  6.38870E+00
   6.43926E+00  6.53562E+00  6.67870E+00  6.86888E+00  7.10607E+00  7.38943E+00  7.71691E+00  8.08503E+00  8.48909E+00  8.92342E+00
   9.38145E+00  9.85545E+00  1.03364E+01  1.08143E+01  1.12784E+01  1.17183E+01  1.21235E+01  1.24842E+01  1.27907E+01  1.30346E+01
   1.32092E+01  1.33097E+01  1.33336E+01  1.32799E+01  1.31496E+01  1.29457E+01  1.26732E+01  1.23390E+01  1.19510E+01  1.15177E+01
   1.10480E+01  1.05512E+01  1.00367E+01  9.51350E+00  8.98968E+00  8.47221E+00  7.96708E+00  7.47944E+00  7.01362E+00  6.57282E+00
   6.15906E+00  5.77329E+00  5.41587E+00  5.08677E+00  4.78557E+00  4.51128E+00  4.26236E+00  4.03703E+00  3.83365E+00  3.65071E+00
   3.48671E+00  3.33997E+00  3.20868E+00  3.09123E+00  2.98634E+00  2.89298E+00  2.81010E+00  2.73652E+00  2.67110E+00  2.61295E+00
   2.56151E+00  2.51632E+00  2.47678E+00  2.44217E+00  2.41184E+00  2.38545E+00  2.36285E+00  2.34382E+00  2.32796E+00  2.31479E+00
   2.30401E+00  2.29555E+00  2.28943E+00  2.28551E+00  2.28345E+00  2.28294E+00  2.28389E+00  2.28638E+00  2.29045E+00  2.29591E+00
   2.30246E+00  2.30995E+00  2.31842E+00  2.32801E+00  2.33870E+00  2.35028E+00  2.36252E+00  2.37536E+00  2.38894E+00  2.40338E+00
   2.41858E+00  2.43432E+00  2.45044E+00  2.46703E+00  2.48424E+00  2.50212E+00  2.52051E+00  2.53920E+00  2.55814E+00  2.57747E+00
   2.59733E+00  2.61769E+00  2.63834E+00  2.65914E+00  2.68014E+00  2.70150E+00  2.72333E+00  2.74549E+00  2.76777E+00  2.79013E+00
   2.81269E+00  2.83560E+00  2.85888E+00  2.88233E+00  2.90580E+00  2.92933E+00  2.95309E+00  2.97719E+00
 NY background values follow
     1.255E+01    1.246E+01    1.237E+01    1.228E+01    1.218E+01    1.209E+01    1.200E+01    1.191E+01    1.182E+01    1.172E+01
     1.163E+01    1.154E+01    1.145E+01    1.135E+01    1.126E+01    1.117E+01    1.108E+01    1.098E+01    1.089E+01    1.080E+01
     1.071E+01    1.062E+01    1.052E+01    1.043E+01    1.034E+01    1.025E+01    1.015E+01    1.006E+01    9.970E+00    9.878E+00
     9.786E+00    9.694E+00    9.602E+00    9.510E+00    9.418E+00    9.327E+00    9.235E+00    9.143E+00    9.052E+00    8.960E+00
     8.869E+00    8.777E+00    8.686E+00    8.595E+00    8.503E+00    8.412E+00    8.321E+00    8.230E+00    8.140E+00    8.049E+00
     7.958E+00    7.868E+00    7.777E+00    7.687E+00    7.597E+00    7.506E+00    7.417E+00    7.327E+00    7.237E+00    7.147E+00
     7.058E+00    6.969E+00    6.880E+00    6.791E+00    6.702E+00    6.614E+00    6.525E+00    6.437E+00    6.349E+00    6.261E+00
     6.174E+00    6.086E+00    5.999E+00    5.912E+00    5.825E+00    5.739E+00    5.652E+00    5.566E+00    5.480E+00    5.395E+00
     5.310E+00    5.224E+00    5.140E+00    5.055E+00    4.971E+00    4.887E+00    4.803E+00    4.720E+00    4.637E+00    4.554E+00
     4.471E+00    4.389E+00    4.307E+00    4.225E+00    4.144E+00    4.063E+00    3.983E+00    3.902E+00    3.822E+00    3.743E+00
     3.663E+00    3.584E+00    3.506E+00    3.427E+00    3.350E+00    3.272E+00    3.195E+00    3.118E+00    3.041E+00    2.965E+00
     2.889E+00    2.814E+00    2.739E+00    2.664E+00    2.590E+00    2.516E+00    2.443E+00    2.370E+00    2.297E+00    2.225E+00
     2.153E+00    2.081E+00    2.010E+00    1.939E+00    1.869E+00    1.799E+00    1.730E+00    1.661E+00    1.592E+00    1.524E+00
     1.456E+00    1.389E+00    1.322E+00    1.255E+00    1.189E+00    1.124E+00    1.059E+00    9.941E-01    9.299E-01    8.661E-01
     8.028E-01    7.400E-01    6.777E-01    6.158E-01    5.544E-01    4.935E-01    4.331E-01    3.731E-01    3.137E-01    2.547E-01
     1.963E-01    1.383E-01    8.084E-02    2.389E-02   -3.255E-02   -8.847E-02   -1.439E-01   -1.988E-01   -2.531E-01   -3.070E-01
    -3.603E-01   -4.130E-01   -4.653E-01   -5.169E-01   -5.681E-01   -6.187E-01   -6.687E-01   -7.182E-01   -7.671E-01   -8.155E-01
    -8.633E-01   -9.105E-01   -9.572E-01   -1.003E+00   -1.049E+00   -1.094E+00   -1.138E+00   -1.182E+00   -1.225E+00   -1.267E+00
    -1.309E+00   -1.351E+00   -1.391E+00   -1.432E+00   -1.471E+00   -1.510E+00   -1.548E+00   -1.586E+00   -1.623E+00   -1.660E+00
    -1.696E+00   -1.732E+00   -1.766E+00   -1.801E+00   -1.835E+00   -1.868E+00   -1.900E+00   -1.933E+00   -1.964E+00   -1.995E+00
    -2.026E+00   -2.056E+00   -2.085E+00   -2.114E+00   -2.142E+00   -2.170E+00   -2.198E+00   -2.224E+00   -2.251E+00   -2.276E+00
    -2.302E+00   -2.327E+00   -2.351E+00   -2.375E+00   -2.398E+00   -2.421E+00   -2.443E+00   -2.465E+00   -2.487E+00   -2.508E+00
    -2.528E+00   -2.548E+00   -2.568E+00   -2.587E+00   -2.606E+00   -2.624E+00   -2.642E+00   -2.659E+00   -2.676E+00   -2.693E+00
    -2.709E+00   -2.724E+00   -2.740E+00   -2.754E+00   -2.769E+00   -2.783E+00   -2.796E+00   -2.809E+00   -2.822E+00   -2.834E+00
    -2.846E+00   -2.857E+00   -2.868E+00   -2.879E+00   -2.889E+00   -2.899E+00   -2.908E+00   -2.917E+00   -2.926E+00   -2.934E+00
    -2.942E+00   -2.949E+00   -2.956E+00   -2.963E+00   -2.969E+00   -2.975E+00   -2.980E+00   -2.985E+00   -2.990E+00   -2.994E+00
    -2.998E+00   -3.001E+00   -3.004E+00   -3.007E+00   -3.009E+00   -3.011E+00   -3.013E+00   -3.014E+00   -3.015E+00   -3.015E+00
    -3.015E+00   -3.015E+00   -3.015E+00   -3.014E+00   -3.012E+00   -3.010E+00   -3.008E+00   -3.006E+00   -3.003E+00   -3.000E+00
    -2.997E+00   -2.993E+00   -2.989E+00   -2.984E+00   -2.979E+00   -2.974E+00   -2.969E+00   -2.963E+00   -2.957E+00   -2.950E+00
    -2.943E+00   -2.936E+00   -2.929E+00   -2.921E+00   -2.913E+00   -2.905E+00   -2.896E+00   -2.887E+00   -2.878E+00   -2.868E+00
    -2.858E+00   -2.848E+00   -2.837E+00   -2.827E+00   -2.816E+00   -2.804E+00   -2.793E+00   -2.781E+00   -2.768E+00   -2.756E+00
    -2.743E+00   -2.730E+00   -2.717E+00   -2.703E+00   -2.690E+00   -2.675E+00   -2.661E+00   -2.647E+00   -2.632E+00   -2.617E+00
    -2.601E+00   -2.586E+00   -2.570E+00   -2.554E+00   -2.537E+00   -2.521E+00   -2.504E+00   -2.487E+00   -2.469E+00   -2.452E+00
    -2.434E+00   -2.416E+00   -2.398E+00   -2.380E+00   -2.361E+00   -2.342E+00   -2.323E+00   -2.304E+00   -2.284E+00   -2.264E+00
    -2.244E+00   -2.224E+00   -2.204E+00   -2.183E+00   -2.163E+00   -2.142E+00   -2.121E+00   -2.099E+00   -2.078E+00   -2.056E+00
    -2.034E+00   -2.012E+00   -1.990E+00   -1.967E+00   -1.945E+00   -1.922E+00   -1.899E+00   -1.876E+00   -1.853E+00   -1.829E+00
    -1.806E+00   -1.782E+00   -1.758E+00   -1.734E+00   -1.710E+00   -1.685E+00   -1.661E+00   -1.636E+00   -1.611E+00   -1.586E+00
    -1.561E+00   -1.536E+00   -1.511E+00   -1.485E+00   -1.459E+00   -1.433E+00   -1.407E+00   -1.381E+00   -1.355E+00   -1.329E+00
    -1.302E+00   -1.276E+00   -1.249E+00   -1.222E+00   -1.195E+00   -1.168E+00   -1.141E+00   -1.113E+00   -1.086E+00   -1.058E+00
    -1.030E+00   -1.003E+00   -9.746E-01   -9.466E-01   -9.184E-01   -8.901E-01   -8.617E-01   -8.333E-01   -8.047E-01   -7.760E-01
    -7.472E-01   -7.183E-01   -6.893E-01   -6.602E-01   -6.310E-01   -6.017E-01   -5.723E-01   -5.429E-01   -5.133E-01   -4.837E-01
    -4.540E-01   -4.242E-01   -3.943E-01   -3.643E-01   -3.342E-01   -3.041E-01   -2.739E-01   -2.436E-01   -2.133E-01   -1.828E-01
    -1.523E-01   -1.218E-01   -9.113E-02   -6.043E-02   -2.967E-02    1.163E-03    3.205E-02    6.300E-02    9.401E-02    1.251E-01
     1.562E-01    1.874E-01    2.186E-01    2.499E-01    2.812E-01    3.126E-01    3.440E-01    3.755E-01    4.070E-01    4.385E-01
     4.701E-01    5.018E-01    5.334E-01    5.651E-01    5.969E-01    6.286E-01    6.604E-01    6.923E-01    7.241E-01    7.560E-01
     7.879E-01    8.198E-01    8.518E-01    8.838E-01    9.158E-01    9.478E-01    9.798E-01    1.012E+00    1.044E+00    1.076E+00
     1.108E+00    1.140E+00    1.172E+00    1.205E+00    1.237E+00    1.269E+00    1.301E+00    1.333E+00    1.365E+00    1.398E+00
     1.430E+00    1.462E+00    1.494E+00    1.527E+00    1.559E+00    1.591E+00    1.624E+00    1.656E+00    1.688E+00    1.720E+00
     1.753E+00    1.785E+00    1.817E+00    1.850E+00    1.882E+00    1.914E+00    1.947E+00    1.979E+00    2.011E+00    2.044E+00
     2.076E+00    2.108E+00    2.140E+00    2.173E+00    2.205E+00    2.237E+00    2.270E+00    2.302E+00
 Ala      Conc. = 2.27E+02
