 LCModel (Version 6.3-1L) Copyright: S.W. Provencher.          Ref.: Magn. Reson. Med. 30:672-679 (1993).                
 Slice#3 Row#4 Col#6  PD_24_press_1_raw_act
 36 lines in following concentration table = NCONC+1
    Conc.  %SD /Cr+PCr  Metabolite                                         
   30.386 320% 1.7E-02 Ala                                                 
    0.000 999%   0.000 Asp                                                 
  636.582  28%   0.352 Cr                                                  
 1.17E+03  15%   0.648 PCr                                                 
    0.000 999%   0.000 GABA                                                
    0.000 999%   0.000 Glc                                                 
  669.547  29%   0.370 Gln                                                 
 1.57E+03  14%   0.868 Glu                                                 
  582.098   3%   0.322 GPC                                                 
    0.000 999%   0.000 PCh                                                 
  416.341  15%   0.230 GSH                                                 
  255.325  80%   0.141 Ins                                                 
    0.000 999%   0.000 Lac                                                 
 1.97E+03   3%   1.092 NAA                                                 
    0.000 999%   0.000 NAAG                                                
    0.000 999%   0.000 Scyllo                                              
    0.000 999%   0.000 Tau                                                 
    0.000 999%   0.000 -CrCH2                                              
  582.098   3%   0.322 GPC+PCh                                             
 1.97E+03   3%   1.092 NAA+NAAG                                            
 1.81E+03   3%   1.000 Cr+PCr                                              
 2.24E+03  14%   1.239 Glu+Gln                                             
  964.884  48%   0.534 Lip13a                                              
    0.000 999%   0.000 Lip13b                                              
   56.890 361% 3.1E-02 Lip09                                               
 1.53E+03  18%   0.848 MM09                                                
  177.441  76% 9.8E-02 Lip20                                               
 3.23E+03  12%   1.786 MM20                                                
  562.453  32%   0.311 MM12                                                
 1.97E+03  20%   1.089 MM14                                                
  969.256  28%   0.536 MM17                                                
  964.884  48%   0.534 Lip13a+Lip13b                                       
 3.50E+03  14%   1.934 MM14+Lip13a+Lip13b+MM12                             
 1.59E+03  15%   0.879 MM09+Lip09                                          
 3.40E+03  11%   1.884 MM20+Lip20                                          
   6 lines in following misc. output table
  FWHM = 0.046 ppm    S/N =  13                                            
  Data shift =-0.008 ppm                                                   
  Ph:  -9 deg      -5.6 deg/ppm                                            
  alphaB,S = 6.4E-01,   1.0E+02                                            
   14 spline knots.   Ns = 7(1)                                            
  ( 8) 4 infls.   ( 5) 1 extrs.                                            
  498 points on ppm-axis = NY
      4.000000     3.992357     3.984714     3.977070     3.969427     3.961784     3.954141     3.946497     3.938854     3.931211
      3.923568     3.915925     3.908281     3.900638     3.892995     3.885352     3.877708     3.870065     3.862422     3.854779
      3.847136     3.839492     3.831849     3.824206     3.816563     3.808919     3.801276     3.793633     3.785990     3.778347
      3.770703     3.763060     3.755417     3.747774     3.740130     3.732487     3.724844     3.717201     3.709558     3.701914
      3.694271     3.686628     3.678985     3.671341     3.663698     3.656055     3.648412     3.640769     3.633125     3.625482
      3.617839     3.610196     3.602552     3.594909     3.587266     3.579623     3.571980     3.564336     3.556693     3.549050
      3.541407     3.533763     3.526120     3.518477     3.510834     3.503191     3.495547     3.487904     3.480261     3.472618
      3.464974     3.457331     3.449688     3.442045     3.434402     3.426758     3.419115     3.411472     3.403829     3.396185
      3.388542     3.380899     3.373256     3.365613     3.357969     3.350326     3.342683     3.335040     3.327396     3.319753
      3.312110     3.304467     3.296824     3.289180     3.281537     3.273894     3.266251     3.258607     3.250964     3.243321
      3.235678     3.228034     3.220391     3.212748     3.205105     3.197462     3.189818     3.182175     3.174532     3.166889
      3.159245     3.151602     3.143959     3.136316     3.128673     3.121029     3.113386     3.105743     3.098100     3.090456
      3.082813     3.075170     3.067527     3.059884     3.052240     3.044597     3.036954     3.029311     3.021667     3.014024
      3.006381     2.998738     2.991095     2.983451     2.975808     2.968165     2.960522     2.952878     2.945235     2.937592
      2.929949     2.922306     2.914662     2.907019     2.899376     2.891733     2.884089     2.876446     2.868803     2.861160
      2.853517     2.845873     2.838230     2.830587     2.822944     2.815300     2.807657     2.800014     2.792371     2.784728
      2.777084     2.769441     2.761798     2.754155     2.746511     2.738868     2.731225     2.723582     2.715939     2.708295
      2.700652     2.693009     2.685366     2.677722     2.670079     2.662436     2.654793     2.647150     2.639506     2.631863
      2.624220     2.616577     2.608933     2.601290     2.593647     2.586004     2.578361     2.570717     2.563074     2.555431
      2.547788     2.540144     2.532501     2.524858     2.517215     2.509572     2.501928     2.494285     2.486642     2.478999
      2.471355     2.463712     2.456069     2.448426     2.440783     2.433139     2.425496     2.417853     2.410210     2.402566
      2.394923     2.387280     2.379637     2.371994     2.364350     2.356707     2.349064     2.341421     2.333777     2.326134
      2.318491     2.310848     2.303205     2.295561     2.287918     2.280275     2.272632     2.264988     2.257345     2.249702
      2.242059     2.234416     2.226772     2.219129     2.211486     2.203843     2.196199     2.188556     2.180913     2.173270
      2.165627     2.157983     2.150340     2.142697     2.135054     2.127410     2.119767     2.112124     2.104481     2.096838
      2.089194     2.081551     2.073908     2.066265     2.058621     2.050978     2.043335     2.035692     2.028049     2.020405
      2.012762     2.005119     1.997476     1.989833     1.982190     1.974546     1.966903     1.959260     1.951617     1.943974
      1.936331     1.928688     1.921045     1.913402     1.905759     1.898115     1.890472     1.882829     1.875186     1.867543
      1.859900     1.852257     1.844614     1.836971     1.829327     1.821684     1.814041     1.806398     1.798755     1.791112
      1.783469     1.775826     1.768183     1.760540     1.752896     1.745253     1.737610     1.729967     1.722324     1.714681
      1.707038     1.699395     1.691752     1.684108     1.676465     1.668822     1.661179     1.653536     1.645893     1.638250
      1.630607     1.622964     1.615321     1.607677     1.600034     1.592391     1.584748     1.577105     1.569462     1.561819
      1.554176     1.546533     1.538890     1.531246     1.523603     1.515960     1.508317     1.500674     1.493031     1.485388
      1.477745     1.470102     1.462458     1.454815     1.447172     1.439529     1.431886     1.424243     1.416600     1.408957
      1.401314     1.393671     1.386027     1.378384     1.370741     1.363098     1.355455     1.347812     1.340169     1.332526
      1.324883     1.317240     1.309596     1.301953     1.294310     1.286667     1.279024     1.271381     1.263738     1.256095
      1.248452     1.240808     1.233165     1.225522     1.217879     1.210236     1.202593     1.194950     1.187307     1.179664
      1.172021     1.164377     1.156734     1.149091     1.141448     1.133805     1.126162     1.118519     1.110876     1.103233
      1.095590     1.087946     1.080303     1.072660     1.065017     1.057374     1.049731     1.042088     1.034445     1.026802
      1.019158     1.011515     1.003872     0.996229     0.988586     0.980943     0.973300     0.965657     0.958014     0.950371
      0.942727     0.935084     0.927441     0.919798     0.912155     0.904512     0.896869     0.889226     0.881583     0.873940
      0.866296     0.858653     0.851010     0.843367     0.835724     0.828081     0.820438     0.812795     0.805152     0.797508
      0.789865     0.782222     0.774579     0.766936     0.759293     0.751650     0.744007     0.736364     0.728721     0.721077
      0.713434     0.705791     0.698148     0.690505     0.682862     0.675219     0.667576     0.659933     0.652290     0.644646
      0.637003     0.629360     0.621717     0.614074     0.606431     0.598788     0.591145     0.583502     0.575858     0.568215
      0.560572     0.552929     0.545286     0.537643     0.530000     0.522357     0.514714     0.507071     0.499427     0.491784
      0.484141     0.476498     0.468855     0.461212     0.453569     0.445925     0.438282     0.430639     0.422996     0.415353
      0.407710     0.400067     0.392424     0.384780     0.377137     0.369494     0.361851     0.354208     0.346565     0.338922
      0.331278     0.323635     0.315992     0.308349     0.300706     0.293063     0.285420     0.277777     0.270133     0.262490
      0.254847     0.247204     0.239561     0.231918     0.224275     0.216631     0.208988     0.201345
 NY phased data points follow
   7.56895E+01  7.81263E+01  7.51395E+01  8.25124E+01  7.54364E+01  8.55162E+01  9.18135E+01  9.81420E+01  1.02312E+02  1.05060E+02
   1.06318E+02  1.04604E+02  1.03370E+02  9.79670E+01  9.43091E+01  8.63126E+01  7.92904E+01  7.71772E+01  6.94347E+01  6.76773E+01
   7.07273E+01  6.61763E+01  6.24917E+01  6.60226E+01  6.80121E+01  6.31213E+01  6.27057E+01  6.44771E+01  6.29634E+01  6.86022E+01
   6.80930E+01  6.81543E+01  6.95105E+01  6.62424E+01  5.96990E+01  6.05790E+01  5.88033E+01  5.89661E+01  5.63062E+01  5.95643E+01
   5.44432E+01  5.45566E+01  5.29097E+01  5.66655E+01  5.92378E+01  5.60068E+01  5.55591E+01  6.35598E+01  5.76295E+01  5.49589E+01
   4.93612E+01  5.39447E+01  4.87026E+01  4.93920E+01  4.77681E+01  4.86634E+01  4.69120E+01  4.74318E+01  4.43651E+01  4.58481E+01
   4.58094E+01  4.14817E+01  3.52409E+01  3.78451E+01  3.48271E+01  3.48174E+01  3.29672E+01  3.40895E+01  3.07683E+01  3.72133E+01
   3.17470E+01  3.63697E+01  3.42523E+01  3.74924E+01  3.52188E+01  3.48269E+01  3.69735E+01  3.53134E+01  3.40449E+01  2.63589E+01
   3.19265E+01  3.30896E+01  2.80028E+01  3.10880E+01  3.00002E+01  3.44287E+01  3.16495E+01  3.00257E+01  2.90215E+01  3.17272E+01
   3.06063E+01  3.13723E+01  3.13953E+01  3.10837E+01  3.05893E+01  2.99408E+01  2.92892E+01  3.78769E+01  3.90382E+01  4.33225E+01
   5.30731E+01  6.94448E+01  7.65281E+01  8.65389E+01  8.02931E+01  6.97917E+01  6.17515E+01  5.32158E+01  4.73661E+01  4.73022E+01
   3.99939E+01  3.55918E+01  3.11442E+01  3.31139E+01  3.11798E+01  2.87996E+01  2.82860E+01  3.04639E+01  2.58819E+01  2.97799E+01
   3.14988E+01  3.38476E+01  3.50267E+01  4.75530E+01  5.42808E+01  6.45319E+01  7.06428E+01  7.73053E+01  7.89197E+01  6.90370E+01
   6.34007E+01  5.60429E+01  4.47301E+01  4.02553E+01  3.80133E+01  3.22324E+01  2.85585E+01  3.18747E+01  2.73533E+01  2.26027E+01
   2.17924E+01  2.15411E+01  2.47488E+01  2.38275E+01  2.36924E+01  2.22578E+01  2.06069E+01  2.30344E+01  1.51957E+01  1.78786E+01
   1.94404E+01  1.55510E+01  1.74848E+01  1.81820E+01  1.97713E+01  1.87670E+01  1.50144E+01  1.66592E+01  1.87428E+01  1.79240E+01
   1.59409E+01  1.93367E+01  1.17628E+01  1.58018E+01  1.60380E+01  1.48828E+01  1.37396E+01  1.30437E+01  1.33188E+01  8.99744E+00
   9.72349E+00  1.00687E+01  1.10916E+01  7.84901E+00  8.29824E+00  6.29824E+00  4.92541E+00  8.70603E+00  1.33183E+01  9.07777E+00
   8.65227E+00  5.52050E+00  5.78047E+00  6.64748E+00  4.21136E+00  7.82669E+00  8.60339E+00  6.06446E+00  9.62566E+00  1.08640E+01
   1.43267E+01  1.84142E+01  1.52118E+01  1.82148E+01  1.85635E+01  1.64510E+01  1.49441E+01  1.26055E+01  1.43811E+01  1.30131E+01
   1.01109E+01  1.95311E+01  1.67961E+01  1.47375E+01  1.54170E+01  1.54915E+01  1.45246E+01  9.16523E+00  1.16684E+01  1.02436E+01
   8.52817E+00  1.31760E+01  1.06095E+01  1.86299E+01  2.12328E+01  2.70534E+01  2.33862E+01  1.77213E+01  1.99690E+01  1.32916E+01
   1.27208E+01  8.14978E+00  8.75025E+00  1.28759E+01  1.61778E+01  1.37788E+01  1.70667E+01  1.84288E+01  1.55802E+01  1.96270E+01
   1.70796E+01  2.11319E+01  1.93043E+01  1.94374E+01  1.82061E+01  1.86848E+01  2.04662E+01  2.15598E+01  1.81233E+01  1.84676E+01
   1.68058E+01  1.31886E+01  1.60325E+01  1.80650E+01  1.84706E+01  1.82502E+01  1.81095E+01  2.11762E+01  2.33926E+01  2.25476E+01
   2.36366E+01  2.35837E+01  2.43985E+01  2.14975E+01  2.73966E+01  3.74696E+01  3.87210E+01  5.54015E+01  6.40160E+01  7.78540E+01
   8.38491E+01  8.47704E+01  7.65679E+01  6.21286E+01  4.48543E+01  3.84448E+01  3.38150E+01  3.20930E+01  2.61681E+01  1.82700E+01
   1.72220E+01  1.76616E+01  1.19995E+01  1.89083E+01  1.60018E+01  1.19808E+01  1.06541E+01  1.21592E+01  1.22939E+01  7.90052E+00
   9.06029E+00  9.65412E+00  1.31683E+01  1.15810E+01  1.06944E+01  1.65940E+01  9.43564E+00  8.53531E+00  9.34516E+00  9.15313E+00
   9.14504E+00  1.35737E+01  5.35388E+00  7.12879E+00  8.59655E+00  7.53065E+00  1.11019E+01  1.22318E+01  1.13642E+01  1.03415E+01
   8.94292E+00  1.00099E+01  7.26067E+00  1.06570E+01  1.44714E+01  1.50333E+01  1.03079E+01  1.56603E+01  1.63896E+01  1.74335E+01
   1.61046E+01  1.60455E+01  1.81290E+01  1.63028E+01  1.47383E+01  1.38400E+01  1.62481E+01  1.16192E+01  1.39725E+01  1.66337E+01
   1.43848E+01  1.64097E+01  1.57918E+01  1.66398E+01  1.27404E+01  1.95420E+01  1.65023E+01  1.96564E+01  1.47158E+01  1.50335E+01
   1.51970E+01  1.47616E+01  1.66652E+01  2.20318E+01  1.34837E+01  2.06923E+01  1.46607E+01  1.77943E+01  1.88940E+01  1.65192E+01
   1.57456E+01  1.25037E+01  1.13107E+01  1.40887E+01  1.40763E+01  1.36601E+01  1.61273E+01  1.51125E+01  1.35162E+01  1.90722E+01
   1.47033E+01  1.09191E+01  1.06608E+01  1.42617E+01  9.02150E+00  1.23023E+01  1.60010E+01  1.06250E+01  9.01210E+00  1.13708E+01
   1.34378E+01  1.38233E+01  1.12099E+01  9.88600E+00  1.02600E+01  1.23226E+01  1.35049E+01  1.01754E+01  9.13016E+00  1.26877E+01
   1.08016E+01  1.11191E+01  1.18826E+01  9.04245E+00  9.67060E+00  8.83272E+00  9.18036E+00  8.90989E+00  7.14473E+00  7.72578E+00
   8.33823E+00  9.43120E+00  6.29782E+00  5.27100E+00  7.01642E+00  5.92827E+00  4.98582E+00  6.52333E+00  8.25852E+00  8.11959E+00
   5.99562E+00  9.08617E+00  9.25531E+00  1.08376E+01  9.48218E+00  1.34692E+01  9.25395E+00  1.11613E+01  1.40252E+01  1.12448E+01
   9.52394E+00  1.55174E+01  9.13709E+00  1.35576E+01  1.47604E+01  1.23482E+01  1.02473E+01  1.48229E+01  1.30534E+01  1.70206E+01
   1.07001E+01  1.51694E+01  1.21253E+01  8.06713E+00  8.20790E+00  6.33183E+00  8.44974E+00  3.67057E+00  8.96399E+00  5.76621E+00
   9.50675E+00  9.57954E+00  4.66564E+00  7.27006E+00  5.41469E+00  5.54891E+00  3.05045E+00  3.50974E+00  6.43842E+00  8.22789E+00
   5.01717E+00  5.45326E+00  7.16722E-01  1.33801E+00 -2.65672E-01 -1.35319E+00  5.37186E-01  3.94361E+00  1.70589E+00  1.77052E+00
   2.97032E+00  1.86526E+00 -1.31774E-01  6.67549E+00  2.37377E+00  4.54601E+00  3.65072E+00  4.68044E+00  2.03107E+00 -7.61353E-01
   5.00203E+00  5.51588E+00  3.74804E+00  2.35687E+00  3.16873E-01  7.07511E-01  1.41795E+00  2.93249E+00  2.24822E+00  7.73700E-01
  -2.18195E+00  4.75527E+00 -4.82661E-01  1.09399E+00  2.16205E+00 -1.71192E+00  2.33762E+00  2.34272E+00  2.80488E+00  3.01712E+00
  -9.51676E-01 -3.47362E-01 -2.34813E+00  8.46802E-01  9.01061E-01  1.07649E+00 -3.26835E+00  8.15007E-01  3.61782E+00  4.83490E+00
   1.14227E+00 -1.19772E-02  1.68318E+00  3.27608E+00  1.56997E+00 -6.08517E-01 -3.59274E-01 -3.01650E+00  4.30949E+00  5.26251E+00
   2.00427E+00  1.54433E+00  3.30060E+00 -3.56098E-02 -1.37552E+00  2.54608E-01 -7.15474E-02  1.26077E+00
 NY points of the fit to the data follow
   7.37677E+01  7.37717E+01  7.47176E+01  7.66149E+01  7.92253E+01  8.32218E+01  8.87807E+01  9.48218E+01  1.00201E+02  1.03830E+02
   1.04804E+02  1.03060E+02  9.92950E+01  9.45766E+01  8.98359E+01  8.53213E+01  8.08110E+01  7.64555E+01  7.32953E+01  7.10784E+01
   6.87629E+01  6.67420E+01  6.53800E+01  6.43810E+01  6.35908E+01  6.29555E+01  6.28697E+01  6.37384E+01  6.55099E+01  6.76622E+01
   6.94016E+01  6.99512E+01  6.89251E+01  6.65736E+01  6.35916E+01  6.07977E+01  5.88007E+01  5.74068E+01  5.62922E+01  5.57237E+01
   5.56978E+01  5.56530E+01  5.54052E+01  5.51709E+01  5.51179E+01  5.50544E+01  5.47990E+01  5.42240E+01  5.33582E+01  5.24812E+01
   5.15842E+01  5.06094E+01  4.97095E+01  4.89246E+01  4.80398E+01  4.71088E+01  4.63754E+01  4.57927E+01  4.51764E+01  4.45091E+01
   4.38582E+01  4.31909E+01  4.24924E+01  4.17758E+01  4.11115E+01  4.05629E+01  4.01040E+01  3.96827E+01  3.92825E+01  3.89021E+01
   3.85278E+01  3.81517E+01  3.77539E+01  3.73288E+01  3.68814E+01  3.64238E+01  3.59772E+01  3.55511E+01  3.51407E+01  3.47269E+01
   3.42962E+01  3.38648E+01  3.34274E+01  3.29731E+01  3.24949E+01  3.20001E+01  3.15149E+01  3.10789E+01  3.07254E+01  3.04701E+01
   3.02997E+01  3.01769E+01  3.00738E+01  2.99921E+01  2.99794E+01  3.02528E+01  3.18486E+01  3.55605E+01  4.04769E+01  4.71589E+01
   5.66004E+01  6.75897E+01  7.72703E+01  8.24889E+01  8.11658E+01  7.39070E+01  6.36810E+01  5.40554E+01  4.73688E+01  4.32413E+01
   3.92608E+01  3.37719E+01  2.89276E+01  2.71781E+01  2.65773E+01  2.62569E+01  2.60644E+01  2.59769E+01  2.60618E+01  2.66640E+01
   2.87391E+01  3.26450E+01  3.81144E+01  4.55377E+01  5.52839E+01  6.61393E+01  7.54709E+01  8.03986E+01  7.91920E+01  7.24709E+01
   6.29656E+01  5.38787E+01  4.70564E+01  4.20555E+01  3.69128E+01  3.07774E+01  2.56834E+01  2.30971E+01  2.23603E+01  2.23931E+01
   2.26229E+01  2.26904E+01  2.25077E+01  2.22001E+01  2.18152E+01  2.13805E+01  2.09701E+01  2.05613E+01  2.01017E+01  1.96152E+01
   1.91041E+01  1.86669E+01  1.83045E+01  1.80014E+01  1.77039E+01  1.73974E+01  1.70909E+01  1.67283E+01  1.63058E+01  1.58336E+01
   1.53761E+01  1.51154E+01  1.51293E+01  1.52841E+01  1.53459E+01  1.51190E+01  1.45719E+01  1.38670E+01  1.32483E+01  1.28255E+01
   1.24422E+01  1.20150E+01  1.14812E+01  1.08491E+01  1.03309E+01  1.00325E+01  9.96677E+00  1.00841E+01  1.02086E+01  1.01879E+01
   9.96750E+00  9.66122E+00  9.48589E+00  9.51848E+00  9.72272E+00  1.00068E+01  1.03868E+01  1.11337E+01  1.22986E+01  1.36099E+01
   1.45980E+01  1.49141E+01  1.46426E+01  1.40983E+01  1.35444E+01  1.30976E+01  1.27841E+01  1.27764E+01  1.32367E+01  1.40945E+01
   1.52114E+01  1.63778E+01  1.72566E+01  1.74242E+01  1.68598E+01  1.56291E+01  1.38376E+01  1.17487E+01  9.97579E+00  9.19237E+00
   9.58686E+00  1.09467E+01  1.30419E+01  1.55847E+01  1.79010E+01  1.92207E+01  1.90764E+01  1.75648E+01  1.50404E+01  1.18511E+01
   9.11808E+00  7.67516E+00  7.55912E+00  8.57672E+00  1.04076E+01  1.27785E+01  1.49867E+01  1.63868E+01  1.69750E+01  1.71764E+01
   1.74240E+01  1.76276E+01  1.76280E+01  1.77381E+01  1.82697E+01  1.90183E+01  1.96777E+01  2.00650E+01  2.00600E+01  1.96386E+01
   1.88496E+01  1.79706E+01  1.75140E+01  1.77577E+01  1.85010E+01  1.93487E+01  2.01516E+01  2.07915E+01  2.11719E+01  2.13834E+01
   2.17041E+01  2.21979E+01  2.28770E+01  2.49833E+01  2.95040E+01  3.51038E+01  4.24650E+01  5.31838E+01  6.60540E+01  7.76853E+01
   8.42175E+01  8.28966E+01  7.42628E+01  6.18421E+01  5.00082E+01  4.17328E+01  3.66763E+01  3.17694E+01  2.47978E+01  1.84663E+01
   1.61147E+01  1.51487E+01  1.45436E+01  1.41697E+01  1.38917E+01  1.35599E+01  1.31824E+01  1.27639E+01  1.23354E+01  1.19372E+01
   1.15799E+01  1.12362E+01  1.09119E+01  1.06362E+01  1.04071E+01  1.02058E+01  1.00257E+01  9.87474E+00  9.76276E+00  9.68705E+00
   9.63724E+00  9.62042E+00  9.64180E+00  9.70265E+00  9.80343E+00  9.94534E+00  1.01300E+01  1.03559E+01  1.06202E+01  1.09217E+01
   1.12565E+01  1.16184E+01  1.20008E+01  1.23959E+01  1.27943E+01  1.31859E+01  1.35616E+01  1.39133E+01  1.42345E+01  1.45193E+01
   1.47628E+01  1.49620E+01  1.51175E+01  1.52326E+01  1.53123E+01  1.53632E+01  1.53931E+01  1.54110E+01  1.54274E+01  1.54543E+01
   1.55048E+01  1.55756E+01  1.56620E+01  1.57704E+01  1.58910E+01  1.59975E+01  1.60662E+01  1.60865E+01  1.60789E+01  1.60797E+01
   1.61069E+01  1.61733E+01  1.62797E+01  1.64020E+01  1.65081E+01  1.65781E+01  1.66038E+01  1.65543E+01  1.64133E+01  1.62082E+01
   1.59744E+01  1.57315E+01  1.54732E+01  1.51839E+01  1.48832E+01  1.46014E+01  1.43377E+01  1.40913E+01  1.38631E+01  1.36534E+01
   1.34619E+01  1.32872E+01  1.31275E+01  1.29800E+01  1.28411E+01  1.27068E+01  1.25731E+01  1.24360E+01  1.22921E+01  1.21382E+01
   1.19713E+01  1.17894E+01  1.15913E+01  1.13764E+01  1.11454E+01  1.08992E+01  1.06394E+01  1.03682E+01  1.00888E+01  9.80447E+00
   9.51895E+00  9.23594E+00  8.95923E+00  8.69274E+00  8.44045E+00  8.20622E+00  7.99359E+00  7.80580E+00  7.64590E+00  7.51686E+00
   7.42151E+00  7.36238E+00  7.34159E+00  7.36099E+00  7.42220E+00  7.52659E+00  7.67513E+00  7.86809E+00  8.10493E+00  8.38433E+00
   8.70408E+00  9.06097E+00  9.45049E+00  9.86672E+00  1.03023E+01  1.07488E+01  1.11967E+01  1.16354E+01  1.20539E+01  1.24406E+01
   1.27842E+01  1.30741E+01  1.33008E+01  1.34563E+01  1.35346E+01  1.35316E+01  1.34459E+01  1.32783E+01  1.30325E+01  1.27140E+01
   1.23301E+01  1.18898E+01  1.14032E+01  1.08811E+01  1.03345E+01  9.77377E+00  9.20890E+00  8.64875E+00  8.10116E+00  7.57271E+00
   7.06853E+00  6.59233E+00  6.14650E+00  5.73241E+00  5.35050E+00  5.00043E+00  4.68108E+00  4.39084E+00  4.12775E+00  3.88979E+00
   3.67489E+00  3.48095E+00  3.30585E+00  3.14750E+00  3.00405E+00  2.87391E+00  2.75562E+00  2.64785E+00  2.54930E+00  2.45886E+00
   2.37561E+00  2.29883E+00  2.22784E+00  2.16200E+00  2.10066E+00  2.04332E+00  1.98962E+00  1.93926E+00  1.89195E+00  1.84732E+00
   1.80505E+00  1.76494E+00  1.72684E+00  1.69066E+00  1.65621E+00  1.62327E+00  1.59169E+00  1.56140E+00  1.53239E+00  1.50457E+00
   1.47781E+00  1.45198E+00  1.42700E+00  1.40289E+00  1.37964E+00  1.35719E+00  1.33542E+00  1.31424E+00  1.29364E+00  1.27365E+00
   1.25430E+00  1.23548E+00  1.21711E+00  1.19915E+00  1.18162E+00  1.16457E+00  1.14799E+00  1.13177E+00  1.11584E+00  1.10020E+00
   1.08492E+00  1.07002E+00  1.05545E+00  1.04112E+00  1.02699E+00  1.01311E+00  9.99532E-01  9.86258E-01  9.73214E-01  9.60329E-01
   9.47607E-01  9.35109E-01  9.22881E-01  9.10893E-01  8.99067E-01  8.87361E-01  8.75818E-01  8.64509E-01
 NY background values follow
     7.206E+01    7.152E+01    7.099E+01    7.045E+01    6.992E+01    6.938E+01    6.884E+01    6.831E+01    6.777E+01    6.724E+01
     6.670E+01    6.616E+01    6.563E+01    6.509E+01    6.456E+01    6.403E+01    6.349E+01    6.296E+01    6.243E+01    6.190E+01
     6.137E+01    6.084E+01    6.031E+01    5.978E+01    5.926E+01    5.873E+01    5.821E+01    5.769E+01    5.717E+01    5.665E+01
     5.613E+01    5.562E+01    5.510E+01    5.459E+01    5.408E+01    5.358E+01    5.307E+01    5.257E+01    5.207E+01    5.157E+01
     5.107E+01    5.058E+01    5.009E+01    4.960E+01    4.911E+01    4.863E+01    4.815E+01    4.767E+01    4.720E+01    4.673E+01
     4.626E+01    4.579E+01    4.533E+01    4.487E+01    4.441E+01    4.396E+01    4.351E+01    4.306E+01    4.262E+01    4.218E+01
     4.174E+01    4.131E+01    4.088E+01    4.045E+01    4.003E+01    3.961E+01    3.919E+01    3.878E+01    3.837E+01    3.796E+01
     3.756E+01    3.716E+01    3.677E+01    3.638E+01    3.599E+01    3.560E+01    3.522E+01    3.485E+01    3.447E+01    3.410E+01
     3.374E+01    3.338E+01    3.302E+01    3.267E+01    3.232E+01    3.197E+01    3.163E+01    3.129E+01    3.096E+01    3.063E+01
     3.031E+01    2.999E+01    2.967E+01    2.936E+01    2.905E+01    2.875E+01    2.845E+01    2.815E+01    2.786E+01    2.757E+01
     2.728E+01    2.700E+01    2.673E+01    2.645E+01    2.618E+01    2.591E+01    2.565E+01    2.539E+01    2.513E+01    2.488E+01
     2.463E+01    2.438E+01    2.414E+01    2.390E+01    2.366E+01    2.343E+01    2.320E+01    2.297E+01    2.274E+01    2.252E+01
     2.230E+01    2.208E+01    2.187E+01    2.165E+01    2.144E+01    2.124E+01    2.103E+01    2.083E+01    2.063E+01    2.043E+01
     2.023E+01    2.004E+01    1.985E+01    1.966E+01    1.947E+01    1.928E+01    1.910E+01    1.892E+01    1.874E+01    1.856E+01
     1.839E+01    1.821E+01    1.804E+01    1.787E+01    1.770E+01    1.753E+01    1.737E+01    1.721E+01    1.704E+01    1.689E+01
     1.673E+01    1.657E+01    1.642E+01    1.627E+01    1.612E+01    1.598E+01    1.583E+01    1.569E+01    1.555E+01    1.541E+01
     1.527E+01    1.514E+01    1.500E+01    1.487E+01    1.475E+01    1.462E+01    1.450E+01    1.437E+01    1.425E+01    1.414E+01
     1.402E+01    1.391E+01    1.379E+01    1.369E+01    1.358E+01    1.347E+01    1.337E+01    1.327E+01    1.317E+01    1.307E+01
     1.298E+01    1.289E+01    1.280E+01    1.271E+01    1.263E+01    1.254E+01    1.246E+01    1.238E+01    1.230E+01    1.223E+01
     1.215E+01    1.208E+01    1.201E+01    1.194E+01    1.187E+01    1.180E+01    1.174E+01    1.167E+01    1.161E+01    1.155E+01
     1.149E+01    1.142E+01    1.137E+01    1.131E+01    1.125E+01    1.119E+01    1.114E+01    1.108E+01    1.102E+01    1.097E+01
     1.091E+01    1.086E+01    1.081E+01    1.075E+01    1.070E+01    1.065E+01    1.059E+01    1.054E+01    1.048E+01    1.043E+01
     1.038E+01    1.032E+01    1.027E+01    1.021E+01    1.016E+01    1.010E+01    1.004E+01    9.985E+00    9.927E+00    9.868E+00
     9.808E+00    9.748E+00    9.687E+00    9.626E+00    9.564E+00    9.502E+00    9.439E+00    9.376E+00    9.312E+00    9.248E+00
     9.184E+00    9.119E+00    9.054E+00    8.989E+00    8.923E+00    8.858E+00    8.792E+00    8.726E+00    8.659E+00    8.593E+00
     8.527E+00    8.460E+00    8.394E+00    8.327E+00    8.261E+00    8.195E+00    8.128E+00    8.062E+00    7.996E+00    7.930E+00
     7.864E+00    7.799E+00    7.733E+00    7.668E+00    7.604E+00    7.539E+00    7.475E+00    7.411E+00    7.348E+00    7.285E+00
     7.223E+00    7.161E+00    7.099E+00    7.038E+00    6.978E+00    6.918E+00    6.858E+00    6.799E+00    6.741E+00    6.682E+00
     6.625E+00    6.568E+00    6.511E+00    6.454E+00    6.398E+00    6.343E+00    6.288E+00    6.233E+00    6.179E+00    6.125E+00
     6.072E+00    6.019E+00    5.966E+00    5.914E+00    5.862E+00    5.810E+00    5.759E+00    5.708E+00    5.657E+00    5.607E+00
     5.557E+00    5.507E+00    5.458E+00    5.409E+00    5.360E+00    5.312E+00    5.264E+00    5.216E+00    5.169E+00    5.121E+00
     5.074E+00    5.028E+00    4.981E+00    4.935E+00    4.889E+00    4.843E+00    4.798E+00    4.752E+00    4.707E+00    4.662E+00
     4.617E+00    4.573E+00    4.529E+00    4.485E+00    4.441E+00    4.397E+00    4.353E+00    4.310E+00    4.267E+00    4.224E+00
     4.181E+00    4.139E+00    4.096E+00    4.054E+00    4.012E+00    3.970E+00    3.929E+00    3.887E+00    3.846E+00    3.804E+00
     3.763E+00    3.723E+00    3.682E+00    3.641E+00    3.601E+00    3.560E+00    3.520E+00    3.480E+00    3.440E+00    3.401E+00
     3.361E+00    3.322E+00    3.282E+00    3.243E+00    3.204E+00    3.165E+00    3.126E+00    3.087E+00    3.049E+00    3.010E+00
     2.972E+00    2.933E+00    2.895E+00    2.857E+00    2.819E+00    2.781E+00    2.743E+00    2.706E+00    2.668E+00    2.631E+00
     2.594E+00    2.557E+00    2.520E+00    2.484E+00    2.448E+00    2.412E+00    2.376E+00    2.340E+00    2.305E+00    2.270E+00
     2.235E+00    2.201E+00    2.167E+00    2.133E+00    2.100E+00    2.067E+00    2.034E+00    2.001E+00    1.969E+00    1.938E+00
     1.907E+00    1.876E+00    1.845E+00    1.815E+00    1.786E+00    1.757E+00    1.728E+00    1.700E+00    1.672E+00    1.645E+00
     1.618E+00    1.592E+00    1.566E+00    1.541E+00    1.517E+00    1.492E+00    1.469E+00    1.446E+00    1.424E+00    1.402E+00
     1.381E+00    1.360E+00    1.340E+00    1.320E+00    1.301E+00    1.282E+00    1.264E+00    1.247E+00    1.229E+00    1.213E+00
     1.196E+00    1.181E+00    1.165E+00    1.150E+00    1.135E+00    1.121E+00    1.107E+00    1.094E+00    1.081E+00    1.068E+00
     1.055E+00    1.043E+00    1.031E+00    1.019E+00    1.008E+00    9.971E-01    9.863E-01    9.758E-01    9.655E-01    9.554E-01
     9.455E-01    9.359E-01    9.264E-01    9.171E-01    9.080E-01    8.990E-01    8.902E-01    8.815E-01    8.730E-01    8.645E-01
     8.562E-01    8.479E-01    8.397E-01    8.316E-01    8.236E-01    8.156E-01    8.077E-01    7.999E-01    7.921E-01    7.844E-01
     7.767E-01    7.691E-01    7.616E-01    7.541E-01    7.467E-01    7.393E-01    7.319E-01    7.247E-01    7.174E-01    7.103E-01
     7.031E-01    6.960E-01    6.890E-01    6.820E-01    6.750E-01    6.681E-01    6.612E-01    6.544E-01    6.476E-01    6.408E-01
     6.341E-01    6.274E-01    6.207E-01    6.141E-01    6.074E-01    6.009E-01    5.943E-01    5.878E-01    5.812E-01    5.748E-01
     5.683E-01    5.618E-01    5.554E-01    5.490E-01    5.426E-01    5.362E-01    5.298E-01    5.235E-01
 Ala      Conc. = 3.04E+01
