 LCModel (Version 6.3-1L) Copyright: S.W. Provencher.          Ref.: Magn. Reson. Med. 30:672-679 (1993).                
 Slice#1 Row#12 Col#14  PD_24_press_1_raw_act
 36 lines in following concentration table = NCONC+1
    Conc.  %SD /Cr+PCr  Metabolite                                         
    0.000 999%   0.000 Ala                                                 
    3.449  53%   0.215 Asp                                                 
    2.567 233%   0.160 Cr                                                  
   13.463  55%   0.840 PCr                                                 
    2.080  53%   0.130 GABA                                                
    2.070  53%   0.129 Glc                                                 
    2.332 413%   0.145 Gln                                                 
    7.801 143%   0.487 Glu                                                 
    4.732  49%   0.295 GPC                                                 
    0.000 999%   0.000 PCh                                                 
    0.000 999%   0.000 GSH                                                 
   19.445  78%   1.213 Ins                                                 
    3.363 162%   0.210 Lac                                                 
   29.461  40%   1.838 NAA                                                 
    9.203  51%   0.574 NAAG                                                
    0.630  58% 3.9E-02 Scyllo                                              
    3.404  54%   0.212 Tau                                                 
    2.335  79%   0.146 -CrCH2                                              
    4.732  49%   0.295 GPC+PCh                                             
   38.664  37%   2.412 NAA+NAAG                                            
   16.030  46%   1.000 Cr+PCr                                              
   10.133 128%   0.632 Glu+Gln                                             
 1.64E+03  14% 102.612 Lip13a                                              
    0.000 999%   0.000 Lip13b                                              
  530.814  31%  33.114 Lip09                                               
  129.147 108%   8.057 MM09                                                
  501.283  23%  31.272 Lip20                                               
  309.987  41%  19.338 MM20                                                
  103.472 165%   6.455 MM12                                                
  522.816  24%  32.615 MM14                                                
  798.993  17%  49.844 MM17                                                
 1.64E+03  14% 102.612 Lip13a+Lip13b                                       
 2.27E+03   6% 141.682 MM14+Lip13a+Lip13b+MM12                             
  659.961  15%  41.171 MM09+Lip09                                          
  811.270  14%  50.610 MM20+Lip20                                          
   6 lines in following misc. output table
  FWHM = 0.031 ppm    S/N =   4                                            
  Data shift = 0.008 ppm                                                   
  Ph:-149 deg     -16.1 deg/ppm                                            
  alphaB,S = 7.0E+00,   3.2E+00                                            
   14 spline knots.   Ns = 5(1)                                            
   2 inflections.     2 extrema                                            
  498 points on ppm-axis = NY
      4.000000     3.992357     3.984714     3.977070     3.969427     3.961784     3.954141     3.946497     3.938854     3.931211
      3.923568     3.915925     3.908281     3.900638     3.892995     3.885352     3.877708     3.870065     3.862422     3.854779
      3.847136     3.839492     3.831849     3.824206     3.816563     3.808919     3.801276     3.793633     3.785990     3.778347
      3.770703     3.763060     3.755417     3.747774     3.740130     3.732487     3.724844     3.717201     3.709558     3.701914
      3.694271     3.686628     3.678985     3.671341     3.663698     3.656055     3.648412     3.640769     3.633125     3.625482
      3.617839     3.610196     3.602552     3.594909     3.587266     3.579623     3.571980     3.564336     3.556693     3.549050
      3.541407     3.533763     3.526120     3.518477     3.510834     3.503191     3.495547     3.487904     3.480261     3.472618
      3.464974     3.457331     3.449688     3.442045     3.434402     3.426758     3.419115     3.411472     3.403829     3.396185
      3.388542     3.380899     3.373256     3.365613     3.357969     3.350326     3.342683     3.335040     3.327396     3.319753
      3.312110     3.304467     3.296824     3.289180     3.281537     3.273894     3.266251     3.258607     3.250964     3.243321
      3.235678     3.228034     3.220391     3.212748     3.205105     3.197462     3.189818     3.182175     3.174532     3.166889
      3.159245     3.151602     3.143959     3.136316     3.128673     3.121029     3.113386     3.105743     3.098100     3.090456
      3.082813     3.075170     3.067527     3.059884     3.052240     3.044597     3.036954     3.029311     3.021667     3.014024
      3.006381     2.998738     2.991095     2.983451     2.975808     2.968165     2.960522     2.952878     2.945235     2.937592
      2.929949     2.922306     2.914662     2.907019     2.899376     2.891733     2.884089     2.876446     2.868803     2.861160
      2.853517     2.845873     2.838230     2.830587     2.822944     2.815300     2.807657     2.800014     2.792371     2.784728
      2.777084     2.769441     2.761798     2.754155     2.746511     2.738868     2.731225     2.723582     2.715939     2.708295
      2.700652     2.693009     2.685366     2.677722     2.670079     2.662436     2.654793     2.647150     2.639506     2.631863
      2.624220     2.616577     2.608933     2.601290     2.593647     2.586004     2.578361     2.570717     2.563074     2.555431
      2.547788     2.540144     2.532501     2.524858     2.517215     2.509572     2.501928     2.494285     2.486642     2.478999
      2.471355     2.463712     2.456069     2.448426     2.440783     2.433139     2.425496     2.417853     2.410210     2.402566
      2.394923     2.387280     2.379637     2.371994     2.364350     2.356707     2.349064     2.341421     2.333777     2.326134
      2.318491     2.310848     2.303205     2.295561     2.287918     2.280275     2.272632     2.264988     2.257345     2.249702
      2.242059     2.234416     2.226772     2.219129     2.211486     2.203843     2.196199     2.188556     2.180913     2.173270
      2.165627     2.157983     2.150340     2.142697     2.135054     2.127410     2.119767     2.112124     2.104481     2.096838
      2.089194     2.081551     2.073908     2.066265     2.058621     2.050978     2.043335     2.035692     2.028049     2.020405
      2.012762     2.005119     1.997476     1.989833     1.982190     1.974546     1.966903     1.959260     1.951617     1.943974
      1.936331     1.928688     1.921045     1.913402     1.905759     1.898115     1.890472     1.882829     1.875186     1.867543
      1.859900     1.852257     1.844614     1.836971     1.829327     1.821684     1.814041     1.806398     1.798755     1.791112
      1.783469     1.775826     1.768183     1.760540     1.752896     1.745253     1.737610     1.729967     1.722324     1.714681
      1.707038     1.699395     1.691752     1.684108     1.676465     1.668822     1.661179     1.653536     1.645893     1.638250
      1.630607     1.622964     1.615321     1.607677     1.600034     1.592391     1.584748     1.577105     1.569462     1.561819
      1.554176     1.546533     1.538890     1.531246     1.523603     1.515960     1.508317     1.500674     1.493031     1.485388
      1.477745     1.470102     1.462458     1.454815     1.447172     1.439529     1.431886     1.424243     1.416600     1.408957
      1.401314     1.393671     1.386027     1.378384     1.370741     1.363098     1.355455     1.347812     1.340169     1.332526
      1.324883     1.317240     1.309596     1.301953     1.294310     1.286667     1.279024     1.271381     1.263738     1.256095
      1.248452     1.240808     1.233165     1.225522     1.217879     1.210236     1.202593     1.194950     1.187307     1.179664
      1.172021     1.164377     1.156734     1.149091     1.141448     1.133805     1.126162     1.118519     1.110876     1.103233
      1.095590     1.087946     1.080303     1.072660     1.065017     1.057374     1.049731     1.042088     1.034445     1.026802
      1.019158     1.011515     1.003872     0.996229     0.988586     0.980943     0.973300     0.965657     0.958014     0.950371
      0.942727     0.935084     0.927441     0.919798     0.912155     0.904512     0.896869     0.889226     0.881583     0.873940
      0.866296     0.858653     0.851010     0.843367     0.835724     0.828081     0.820438     0.812795     0.805152     0.797508
      0.789865     0.782222     0.774579     0.766936     0.759293     0.751650     0.744007     0.736364     0.728721     0.721077
      0.713434     0.705791     0.698148     0.690505     0.682862     0.675219     0.667576     0.659933     0.652290     0.644646
      0.637003     0.629360     0.621717     0.614074     0.606431     0.598788     0.591145     0.583502     0.575858     0.568215
      0.560572     0.552929     0.545286     0.537643     0.530000     0.522357     0.514714     0.507071     0.499427     0.491784
      0.484141     0.476498     0.468855     0.461212     0.453569     0.445925     0.438282     0.430639     0.422996     0.415353
      0.407710     0.400067     0.392424     0.384780     0.377137     0.369494     0.361851     0.354208     0.346565     0.338922
      0.331278     0.323635     0.315992     0.308349     0.300706     0.293063     0.285420     0.277777     0.270133     0.262490
      0.254847     0.247204     0.239561     0.231918     0.224275     0.216631     0.208988     0.201345
 NY phased data points follow
   2.41075E-01  4.90771E-01  1.63018E+00  1.73476E+00  2.25194E+00  1.02334E+00  1.90716E+00  9.08880E-01  9.95147E-01  2.30841E+00
   2.19527E+00  2.54606E+00  1.27767E+00  9.44689E-01  3.10349E+00  2.14306E+00  1.84754E+00  2.74484E+00  9.64564E-01  1.39942E+00
   8.10540E-01  1.49702E+00  7.04910E-01  1.31720E+00  2.71007E+00  1.46712E+00  1.66445E+00  2.20621E+00  1.90042E+00  1.84325E+00
   2.98894E+00  2.58710E+00  3.84773E+00  3.42691E-01  1.51024E+00  9.60066E-01  1.91575E+00  2.36955E+00  1.55985E+00  1.77988E+00
   1.13363E+00  1.54957E+00  2.77872E+00  8.13348E-01 -3.59199E-01  1.35755E+00  1.29022E+00  2.34347E-01  2.29024E+00  1.23041E+00
   2.77073E+00  2.63980E+00  2.26180E+00  2.69462E+00  2.83718E+00  2.29151E+00  1.76484E+00  1.32037E+00  3.60587E+00  1.41746E+00
   2.48544E+00  1.97552E+00  1.82558E-01 -3.51730E-01  1.71698E+00  1.12312E+00  1.54083E+00  4.01668E-01  4.97782E-01  2.03767E+00
   5.66293E-01  2.05188E+00  9.99201E-01  1.42279E+00  5.19316E-01  1.65471E+00 -1.16921E-01  2.35285E+00 -3.52961E-01  4.55471E-01
  -3.28309E-01  1.74407E+00  1.91729E+00  1.55877E+00  2.23515E+00  2.67135E+00  1.59730E+00  2.22322E+00  1.99767E+00  9.21373E-01
   8.66256E-01  1.53602E+00  1.01352E+00 -2.62641E-01  1.69026E+00  1.51764E+00  1.12866E+00  2.65622E-01 -6.37309E-01  8.49023E-01
   4.36763E-01 -4.51683E-01  6.15145E-01  3.87838E+00  4.12691E+00  3.94869E+00  1.78414E+00  1.87166E+00  2.82061E+00  1.55658E+00
   1.46296E+00  2.08870E+00  2.60357E+00  1.47272E+00  7.38703E-01  1.63868E+00  1.20285E+00  1.36400E+00  3.63843E+00  1.90294E+00
   2.50962E+00  1.38881E+00  8.49294E-01 -1.16318E+00 -3.01478E+00 -6.72032E-01 -1.12223E+00  1.75092E+00  6.21983E-01  2.39070E+00
   1.94992E+00  3.23463E+00  1.84863E+00  2.67892E+00  2.12921E+00  1.71301E+00  1.41738E+00  1.33738E+00  2.86612E+00  2.09302E+00
   1.80000E+00  2.06078E+00  1.93996E+00  8.92284E-01  3.54680E-01  6.55851E-01  1.51971E+00  4.35488E-01  2.49219E+00  1.81143E+00
   1.20297E+00  6.47530E-01  1.04442E-02  2.80009E+00  7.26240E-01  1.46372E+00  3.32281E-01  1.76878E+00  2.04723E+00  8.48592E-01
   3.09772E-01  1.60919E+00  9.54255E-01  8.40330E-01  1.19215E+00  2.08990E+00  1.76953E+00  3.15609E+00  1.46394E+00  1.56385E+00
   1.90762E+00  1.00152E+00  9.24601E-01 -1.93171E-01  2.57107E+00  1.28151E+00  1.63134E+00  1.58793E+00  1.38671E+00  7.87201E-01
   2.49730E+00  1.78133E+00  1.89407E+00  1.33420E+00  1.54031E+00  1.14428E+00  1.37177E+00 -2.12508E-02  1.33725E+00  1.56730E+00
   1.47881E+00  2.30828E+00  1.50632E+00  1.43909E+00  1.82887E+00  1.00539E+00  2.86727E+00  1.66343E+00  3.73067E+00  2.48712E+00
   7.72545E-01  2.24615E-02  2.06273E+00  2.06647E+00  3.44108E-02  1.61932E+00  1.52028E+00  2.19652E+00  1.54597E+00  1.64043E+00
  -1.04879E-01  2.47498E-01  3.68551E-01  6.20460E-01  2.10547E+00 -3.64629E-01  1.34269E+00  1.41078E-01  1.33775E+00  2.46127E+00
   1.52942E+00  2.88742E+00  1.66356E+00  1.66662E+00  1.00753E+00  8.33524E-01  2.90929E+00  1.87826E+00  1.89237E+00  2.94249E+00
   1.16852E+00  1.59330E+00  1.66170E-01  5.36683E-01  1.04474E+00  3.07046E+00  1.85460E+00  1.16796E-01  8.69979E-01  1.66084E+00
   1.95103E+00 -3.02239E-01  1.31594E+00  1.57141E+00  2.98441E+00  1.97392E+00  1.49304E+00  1.91017E+00  8.74614E-01  2.36402E+00
   4.07933E+00  2.19152E+00  2.01582E+00  4.23404E-01  1.73835E+00 -9.55126E-01  5.36736E-01  1.23256E+00 -9.28982E-01  3.90200E-01
  -4.89667E-01  7.24986E-01  3.62325E+00  6.25425E+00  4.48261E+00  4.27709E+00  4.00962E+00  3.19864E+00  3.32591E+00  2.10231E+00
   3.37055E+00  3.73469E+00  1.48239E+00  3.51740E+00  2.97489E+00  3.47395E+00  4.35134E+00  3.38419E+00  2.88515E+00  7.90312E-01
   1.76112E+00  2.20349E+00  1.47419E+00  2.26641E+00  4.61045E+00  2.72138E+00  3.43590E+00  3.62250E+00  2.26074E+00  1.51202E+00
   2.48481E+00  5.53398E-01  2.97444E+00  1.49440E+00  2.94171E+00  2.37382E+00  2.45121E+00  1.29282E+00  3.35179E+00  2.55882E+00
   1.92444E+00  4.40249E+00  3.37592E+00  9.51539E-01  1.26987E+00  1.55099E+00  2.35733E+00  2.78076E+00  2.27440E+00  2.32929E+00
   3.70127E+00  1.04443E+00  2.46542E+00  1.80990E+00  3.53066E+00  2.32256E+00  4.28376E+00  4.06883E+00  3.75976E+00  2.65379E+00
   3.59203E+00  4.72113E+00  3.20616E+00  2.96271E+00  2.92899E+00  2.75833E+00  3.37928E+00  3.38122E+00  3.13055E+00  3.27236E+00
   1.07732E+00  1.50975E+00  3.98830E-01  2.59796E+00  2.47408E+00  3.23059E+00  3.10399E+00  1.82030E+00  1.68640E+00  2.06684E+00
   2.71680E+00  7.51521E-01  1.82430E+00  2.58386E+00  1.89292E+00  1.25456E+00  2.45891E+00  2.90048E+00  3.88723E+00  2.18659E+00
   3.43411E+00  2.92443E+00  3.52389E+00  3.46866E+00  4.15642E+00  6.50711E+00  3.86014E+00  5.46032E+00  6.02786E+00  7.09523E+00
   6.70089E+00  7.49043E+00  7.66076E+00  7.37666E+00  7.86733E+00  8.05108E+00  6.73440E+00  7.48307E+00  7.95070E+00  8.77790E+00
   5.61958E+00  7.77044E+00  4.88723E+00  6.20629E+00  5.00723E+00  3.77537E+00  6.26994E+00  3.55990E+00  4.56918E+00  2.32273E+00
   3.85818E+00  3.87031E+00  1.70217E+00  3.02088E+00  2.37913E+00  2.51619E+00  4.73578E-01  2.76862E+00  2.96565E+00  2.89911E+00
   2.86063E+00  2.75842E+00  1.86063E+00  1.22552E+00  1.07263E+00  2.69902E+00  1.37927E+00  2.30865E+00  4.04943E-01  3.62602E+00
   8.04514E-01  2.52836E+00  3.80420E+00  1.74800E+00  2.88426E+00  1.32018E+00  3.29223E-01  1.37460E+00  1.39641E+00  2.84046E+00
   2.71555E+00  3.91928E+00  1.11556E+00  2.05153E+00  3.43561E+00  1.87761E+00  2.22169E+00  5.01567E-01  1.43025E+00  1.30229E+00
   7.95858E-01  4.93378E-01  8.70942E-01  3.82973E-01  1.65233E+00  5.08461E-01 -9.75841E-01  2.22386E+00 -1.03293E-01  1.15966E+00
  -1.31253E+00  1.20238E+00 -8.14364E-01 -8.16417E-01 -1.97062E+00 -1.45827E+00 -1.05718E+00 -9.43204E-01 -1.10864E+00 -1.02052E+00
  -1.51752E+00 -3.30176E+00 -3.82845E+00 -3.68441E+00 -3.49624E+00 -2.07113E+00 -3.31030E+00 -3.35222E+00 -3.01331E+00 -3.36459E+00
  -4.09229E+00 -3.93685E+00 -4.78232E+00 -3.72308E+00 -2.32534E+00 -3.48296E+00 -3.84640E+00 -4.04480E+00 -4.33654E+00 -5.43883E+00
  -2.99554E+00 -5.12528E+00 -3.90566E+00 -3.54146E+00 -4.30398E+00 -5.59907E+00 -2.57557E+00 -5.12498E+00 -4.74835E+00 -4.18208E+00
  -3.63591E+00 -3.20441E+00 -3.67073E+00 -4.82265E+00 -4.68678E+00 -4.64531E+00 -4.64089E+00 -3.27231E+00 -4.69825E+00 -4.68796E+00
  -5.03500E+00 -5.82779E+00 -5.39373E+00 -5.26646E+00 -3.82625E+00 -4.71411E+00 -4.14200E+00 -3.99143E+00 -3.00688E+00 -3.61384E+00
  -5.14976E+00 -4.01486E+00 -4.40571E+00 -2.64727E+00 -3.65612E+00 -6.00868E+00 -4.81588E+00 -4.08493E+00
 NY points of the fit to the data follow
   1.34406E+00  1.35167E+00  1.37680E+00  1.36938E+00  1.13165E+00  7.61293E-01  4.24449E-01  1.94955E-01  1.98166E-01  5.39059E-01
   1.06641E+00  1.49201E+00  1.70337E+00  1.80360E+00  1.82444E+00  1.74588E+00  1.69847E+00  1.68477E+00  1.65830E+00  1.62114E+00
   1.57100E+00  1.51458E+00  1.46460E+00  1.44253E+00  1.45791E+00  1.49838E+00  1.55525E+00  1.60773E+00  1.61364E+00  1.56120E+00
   1.47021E+00  1.38768E+00  1.34809E+00  1.34882E+00  1.38428E+00  1.46208E+00  1.55339E+00  1.62746E+00  1.68363E+00  1.73115E+00
   1.74592E+00  1.72256E+00  1.67974E+00  1.56669E+00  1.34193E+00  1.09703E+00  9.69021E-01  1.02694E+00  1.28257E+00  1.65877E+00
   1.98668E+00  2.12519E+00  2.08887E+00  1.98674E+00  1.87412E+00  1.75570E+00  1.64713E+00  1.54684E+00  1.46529E+00  1.43343E+00
   1.48249E+00  1.60957E+00  1.75438E+00  1.85075E+00  1.87430E+00  1.82764E+00  1.75489E+00  1.68499E+00  1.62528E+00  1.59446E+00
   1.58817E+00  1.57815E+00  1.56900E+00  1.58017E+00  1.61111E+00  1.64893E+00  1.70082E+00  1.76423E+00  1.79751E+00  1.78741E+00
   1.75385E+00  1.69484E+00  1.61423E+00  1.56868E+00  1.59025E+00  1.66298E+00  1.76290E+00  1.85407E+00  1.88032E+00  1.81894E+00
   1.71741E+00  1.64091E+00  1.60594E+00  1.61801E+00  1.66806E+00  1.75590E+00  1.83079E+00  1.51807E+00  8.36524E-01  1.72616E-01
  -1.94654E-01 -8.62340E-02  6.31713E-01  1.70681E+00  2.54587E+00  2.79378E+00  2.66680E+00  2.45508E+00  2.17701E+00  1.96243E+00
   1.85669E+00  1.79357E+00  1.74844E+00  1.71980E+00  1.70123E+00  1.69432E+00  1.69956E+00  1.71346E+00  1.74026E+00  1.79233E+00
   1.87566E+00  1.79582E+00  1.22688E+00  4.12690E-01 -2.45733E-01 -4.72241E-01 -6.58633E-02  9.84689E-01  2.20629E+00  2.97222E+00
   3.11827E+00  2.95754E+00  2.69898E+00  2.39512E+00  2.19450E+00  2.07906E+00  2.00235E+00  1.95176E+00  1.92443E+00  1.91231E+00
   1.91000E+00  1.90955E+00  1.89968E+00  1.88471E+00  1.87612E+00  1.88098E+00  1.90024E+00  1.92535E+00  1.94492E+00  1.95663E+00
   1.96995E+00  1.98757E+00  2.00332E+00  2.01030E+00  1.99979E+00  1.97443E+00  1.96149E+00  1.99620E+00  2.06643E+00  2.13844E+00
   2.17044E+00  2.12650E+00  2.02668E+00  1.92787E+00  1.88297E+00  1.90956E+00  1.98116E+00  2.03689E+00  2.04044E+00  1.99043E+00
   1.92140E+00  1.87022E+00  1.86786E+00  1.89602E+00  1.89435E+00  1.83623E+00  1.73516E+00  1.63774E+00  1.58175E+00  1.57764E+00
   1.58310E+00  1.54717E+00  1.46770E+00  1.39774E+00  1.34945E+00  1.32076E+00  1.28806E+00  1.22012E+00  1.13002E+00  1.06958E+00
   1.06947E+00  1.10759E+00  1.13296E+00  1.12121E+00  1.09440E+00  1.05520E+00  1.02617E+00  1.02196E+00  1.03119E+00  1.01042E+00
   9.37434E-01  8.42569E-01  7.67993E-01  7.35411E-01  7.61481E-01  8.59439E-01  9.76019E-01  1.04245E+00  1.04609E+00  1.01470E+00
   9.35256E-01  8.00530E-01  6.49503E-01  5.35575E-01  4.74638E-01  4.87628E-01  5.99460E-01  7.79070E-01  9.46060E-01  1.03589E+00
   1.03072E+00  9.51553E-01  8.24723E-01  6.94805E-01  6.26527E-01  6.50687E-01  7.54530E-01  8.82450E-01  9.87696E-01  1.05661E+00
   1.07754E+00  1.05775E+00  1.02828E+00  1.02023E+00  1.04509E+00  1.09383E+00  1.15086E+00  1.21236E+00  1.28621E+00  1.36179E+00
   1.42755E+00  1.47527E+00  1.50634E+00  1.52345E+00  1.55173E+00  1.62008E+00  1.73099E+00  1.85607E+00  1.97171E+00  2.07879E+00
   2.14322E+00  1.97474E+00  1.60311E+00  1.33372E+00  1.34466E+00  1.49488E+00  1.13745E+00  4.96393E-01  3.67691E-02  7.74317E-03
   7.99109E-01  2.62060E+00  4.64953E+00  5.74445E+00  5.60969E+00  4.90102E+00  4.15281E+00  3.38369E+00  2.86895E+00  2.58513E+00
   2.37582E+00  2.20377E+00  2.07069E+00  1.97595E+00  1.91393E+00  1.87439E+00  1.84783E+00  1.82285E+00  1.79356E+00  1.76370E+00
   1.74303E+00  1.73456E+00  1.73930E+00  1.76177E+00  1.80314E+00  1.85933E+00  1.92695E+00  2.00102E+00  2.07604E+00  2.14987E+00
   2.22342E+00  2.29887E+00  2.37641E+00  2.45650E+00  2.53652E+00  2.60967E+00  2.67098E+00  2.71960E+00  2.75332E+00  2.77156E+00
   2.77651E+00  2.77148E+00  2.75900E+00  2.73943E+00  2.71279E+00  2.68052E+00  2.64376E+00  2.60427E+00  2.56460E+00  2.52702E+00
   2.49358E+00  2.46610E+00  2.44600E+00  2.43430E+00  2.43153E+00  2.43772E+00  2.45247E+00  2.47502E+00  2.50418E+00  2.53833E+00
   2.57551E+00  2.61354E+00  2.65005E+00  2.68279E+00  2.70955E+00  2.72840E+00  2.73762E+00  2.73594E+00  2.72252E+00  2.69714E+00
   2.66013E+00  2.61239E+00  2.55539E+00  2.49114E+00  2.42219E+00  2.35152E+00  2.28247E+00  2.21863E+00  2.16361E+00  2.12084E+00
   2.09275E+00  2.07772E+00  2.06375E+00  2.07846E+00  2.18102E+00  2.37634E+00  2.64453E+00  2.95836E+00  3.27254E+00  3.54159E+00
   3.73849E+00  3.90238E+00  4.10144E+00  4.35472E+00  4.68097E+00  5.10191E+00  5.58928E+00  6.07396E+00  6.48676E+00  6.81575E+00
   7.08172E+00  7.28394E+00  7.42903E+00  7.52585E+00  7.56801E+00  7.55221E+00  7.47834E+00  7.34850E+00  7.16650E+00  6.93754E+00
   6.66783E+00  6.36432E+00  6.03435E+00  5.68541E+00  5.32486E+00  4.95961E+00  4.59604E+00  4.23980E+00  3.89581E+00  3.56819E+00
   3.26031E+00  2.97477E+00  2.71349E+00  2.47782E+00  2.26860E+00  2.08632E+00  1.93106E+00  1.80263E+00  1.70060E+00  1.62431E+00
   1.57292E+00  1.54539E+00  1.54043E+00  1.55648E+00  1.59174E+00  1.64411E+00  1.71122E+00  1.79040E+00  1.87870E+00  1.97291E+00
   2.06966E+00  2.16548E+00  2.25686E+00  2.34036E+00  2.41269E+00  2.47083E+00  2.51209E+00  2.53426E+00  2.53563E+00  2.51501E+00
   2.47180E+00  2.40595E+00  2.31800E+00  2.20901E+00  2.08049E+00  1.93433E+00  1.77267E+00  1.59794E+00  1.41263E+00  1.21930E+00
   1.02044E+00  8.18428E-01  6.15432E-01  4.13442E-01  2.14184E-01  1.91331E-02 -1.70536E-01 -3.53906E-01 -5.30317E-01 -6.99314E-01
  -8.60650E-01 -1.01425E+00 -1.16020E+00 -1.29869E+00 -1.43000E+00 -1.55447E+00 -1.67246E+00 -1.78439E+00 -1.89068E+00 -1.99173E+00
  -2.08797E+00 -2.17975E+00 -2.26745E+00 -2.35139E+00 -2.43191E+00 -2.50930E+00 -2.58381E+00 -2.65567E+00 -2.72511E+00 -2.79233E+00
  -2.85751E+00 -2.92082E+00 -2.98240E+00 -3.04236E+00 -3.10084E+00 -3.15794E+00 -3.21378E+00 -3.26843E+00 -3.32196E+00 -3.37446E+00
  -3.42599E+00 -3.47661E+00 -3.52640E+00 -3.57538E+00 -3.62360E+00 -3.67111E+00 -3.71795E+00 -3.76416E+00 -3.80977E+00 -3.85481E+00
  -3.89931E+00 -3.94328E+00 -3.98678E+00 -4.02981E+00 -4.07240E+00 -4.11455E+00 -4.15629E+00 -4.19764E+00 -4.23863E+00 -4.27926E+00
  -4.31954E+00 -4.35948E+00 -4.39910E+00 -4.43842E+00 -4.47745E+00 -4.51619E+00 -4.55465E+00 -4.59283E+00 -4.63076E+00 -4.66844E+00
  -4.70588E+00 -4.74308E+00 -4.78005E+00 -4.81678E+00 -4.85331E+00 -4.88963E+00 -4.92574E+00 -4.96165E+00
 NY background values follow
     2.338E+00    2.354E+00    2.370E+00    2.385E+00    2.400E+00    2.415E+00    2.430E+00    2.445E+00    2.459E+00    2.474E+00
     2.488E+00    2.502E+00    2.516E+00    2.529E+00    2.543E+00    2.556E+00    2.570E+00    2.583E+00    2.596E+00    2.608E+00
     2.621E+00    2.633E+00    2.646E+00    2.658E+00    2.670E+00    2.682E+00    2.693E+00    2.705E+00    2.716E+00    2.727E+00
     2.738E+00    2.749E+00    2.760E+00    2.770E+00    2.780E+00    2.791E+00    2.801E+00    2.811E+00    2.820E+00    2.830E+00
     2.839E+00    2.848E+00    2.858E+00    2.866E+00    2.875E+00    2.884E+00    2.892E+00    2.901E+00    2.909E+00    2.917E+00
     2.924E+00    2.932E+00    2.940E+00    2.947E+00    2.954E+00    2.961E+00    2.968E+00    2.975E+00    2.981E+00    2.988E+00
     2.994E+00    3.000E+00    3.006E+00    3.012E+00    3.017E+00    3.023E+00    3.028E+00    3.033E+00    3.038E+00    3.043E+00
     3.047E+00    3.052E+00    3.056E+00    3.060E+00    3.065E+00    3.068E+00    3.072E+00    3.076E+00    3.079E+00    3.082E+00
     3.085E+00    3.088E+00    3.091E+00    3.094E+00    3.096E+00    3.099E+00    3.101E+00    3.103E+00    3.105E+00    3.106E+00
     3.108E+00    3.109E+00    3.111E+00    3.112E+00    3.113E+00    3.114E+00    3.114E+00    3.115E+00    3.115E+00    3.115E+00
     3.115E+00    3.115E+00    3.115E+00    3.114E+00    3.114E+00    3.113E+00    3.112E+00    3.111E+00    3.110E+00    3.109E+00
     3.107E+00    3.106E+00    3.104E+00    3.102E+00    3.100E+00    3.098E+00    3.096E+00    3.093E+00    3.090E+00    3.088E+00
     3.085E+00    3.082E+00    3.078E+00    3.075E+00    3.071E+00    3.068E+00    3.064E+00    3.060E+00    3.056E+00    3.052E+00
     3.047E+00    3.043E+00    3.038E+00    3.033E+00    3.028E+00    3.023E+00    3.018E+00    3.012E+00    3.007E+00    3.001E+00
     2.995E+00    2.989E+00    2.983E+00    2.977E+00    2.971E+00    2.964E+00    2.957E+00    2.951E+00    2.944E+00    2.937E+00
     2.929E+00    2.922E+00    2.914E+00    2.907E+00    2.899E+00    2.891E+00    2.883E+00    2.875E+00    2.867E+00    2.858E+00
     2.849E+00    2.841E+00    2.832E+00    2.823E+00    2.814E+00    2.804E+00    2.795E+00    2.785E+00    2.776E+00    2.766E+00
     2.756E+00    2.746E+00    2.736E+00    2.725E+00    2.715E+00    2.704E+00    2.693E+00    2.683E+00    2.671E+00    2.660E+00
     2.649E+00    2.638E+00    2.626E+00    2.614E+00    2.603E+00    2.591E+00    2.579E+00    2.567E+00    2.554E+00    2.542E+00
     2.529E+00    2.517E+00    2.504E+00    2.491E+00    2.478E+00    2.465E+00    2.451E+00    2.438E+00    2.424E+00    2.411E+00
     2.397E+00    2.383E+00    2.369E+00    2.355E+00    2.340E+00    2.326E+00    2.311E+00    2.297E+00    2.282E+00    2.267E+00
     2.252E+00    2.237E+00    2.222E+00    2.206E+00    2.191E+00    2.175E+00    2.159E+00    2.144E+00    2.128E+00    2.112E+00
     2.095E+00    2.079E+00    2.063E+00    2.046E+00    2.029E+00    2.013E+00    1.996E+00    1.979E+00    1.962E+00    1.944E+00
     1.927E+00    1.910E+00    1.892E+00    1.875E+00    1.857E+00    1.839E+00    1.821E+00    1.803E+00    1.785E+00    1.766E+00
     1.748E+00    1.729E+00    1.711E+00    1.692E+00    1.673E+00    1.654E+00    1.635E+00    1.616E+00    1.597E+00    1.577E+00
     1.558E+00    1.538E+00    1.518E+00    1.499E+00    1.479E+00    1.459E+00    1.439E+00    1.418E+00    1.398E+00    1.378E+00
     1.357E+00    1.337E+00    1.316E+00    1.295E+00    1.274E+00    1.253E+00    1.232E+00    1.211E+00    1.190E+00    1.169E+00
     1.147E+00    1.126E+00    1.104E+00    1.082E+00    1.060E+00    1.038E+00    1.016E+00    9.943E-01    9.721E-01    9.499E-01
     9.275E-01    9.050E-01    8.825E-01    8.599E-01    8.371E-01    8.143E-01    7.914E-01    7.684E-01    7.454E-01    7.222E-01
     6.990E-01    6.757E-01    6.523E-01    6.288E-01    6.052E-01    5.815E-01    5.578E-01    5.340E-01    5.101E-01    4.861E-01
     4.621E-01    4.379E-01    4.137E-01    3.894E-01    3.650E-01    3.406E-01    3.161E-01    2.915E-01    2.668E-01    2.420E-01
     2.172E-01    1.923E-01    1.673E-01    1.423E-01    1.172E-01    9.198E-02    6.672E-02    4.138E-02    1.598E-02   -9.492E-03
    -3.503E-02   -6.065E-02   -8.633E-02   -1.121E-01   -1.379E-01   -1.638E-01   -1.897E-01   -2.157E-01   -2.418E-01   -2.679E-01
    -2.942E-01   -3.204E-01   -3.468E-01   -3.732E-01   -3.996E-01   -4.261E-01   -4.527E-01   -4.793E-01   -5.060E-01   -5.328E-01
    -5.596E-01   -5.865E-01   -6.134E-01   -6.404E-01   -6.674E-01   -6.945E-01   -7.217E-01   -7.489E-01   -7.762E-01   -8.035E-01
    -8.309E-01   -8.583E-01   -8.858E-01   -9.133E-01   -9.409E-01   -9.685E-01   -9.962E-01   -1.024E+00   -1.052E+00   -1.079E+00
    -1.107E+00   -1.135E+00   -1.163E+00   -1.191E+00   -1.219E+00   -1.247E+00   -1.276E+00   -1.304E+00   -1.332E+00   -1.360E+00
    -1.389E+00   -1.417E+00   -1.445E+00   -1.474E+00   -1.502E+00   -1.531E+00   -1.559E+00   -1.588E+00   -1.616E+00   -1.645E+00
    -1.674E+00   -1.703E+00   -1.731E+00   -1.760E+00   -1.789E+00   -1.818E+00   -1.847E+00   -1.876E+00   -1.905E+00   -1.934E+00
    -1.963E+00   -1.992E+00   -2.021E+00   -2.050E+00   -2.079E+00   -2.108E+00   -2.137E+00   -2.167E+00   -2.196E+00   -2.225E+00
    -2.254E+00   -2.284E+00   -2.313E+00   -2.342E+00   -2.372E+00   -2.401E+00   -2.431E+00   -2.460E+00   -2.489E+00   -2.519E+00
    -2.548E+00   -2.578E+00   -2.608E+00   -2.637E+00   -2.667E+00   -2.696E+00   -2.726E+00   -2.755E+00   -2.785E+00   -2.815E+00
    -2.844E+00   -2.874E+00   -2.904E+00   -2.933E+00   -2.963E+00   -2.993E+00   -3.022E+00   -3.052E+00   -3.082E+00   -3.112E+00
    -3.141E+00   -3.171E+00   -3.201E+00   -3.231E+00   -3.260E+00   -3.290E+00   -3.320E+00   -3.350E+00   -3.380E+00   -3.409E+00
    -3.439E+00   -3.469E+00   -3.499E+00   -3.528E+00   -3.558E+00   -3.588E+00   -3.618E+00   -3.647E+00   -3.677E+00   -3.707E+00
    -3.737E+00   -3.766E+00   -3.796E+00   -3.826E+00   -3.856E+00   -3.885E+00   -3.915E+00   -3.945E+00   -3.974E+00   -4.004E+00
    -4.034E+00   -4.063E+00   -4.093E+00   -4.122E+00   -4.152E+00   -4.182E+00   -4.211E+00   -4.241E+00   -4.270E+00   -4.300E+00
    -4.329E+00   -4.359E+00   -4.388E+00   -4.418E+00   -4.447E+00   -4.476E+00   -4.506E+00   -4.535E+00   -4.565E+00   -4.594E+00
    -4.623E+00   -4.652E+00   -4.682E+00   -4.711E+00   -4.740E+00   -4.769E+00   -4.798E+00   -4.827E+00   -4.856E+00   -4.885E+00
    -4.914E+00   -4.943E+00   -4.972E+00   -5.001E+00   -5.030E+00   -5.059E+00   -5.088E+00   -5.117E+00
 Asp      Conc. = 3.45E+00
