 LCModel (Version 6.3-1L) Copyright: S.W. Provencher.          Ref.: Magn. Reson. Med. 30:672-679 (1993).                
 Slice#1 Row#8 Col#6  PD_24_press_1_raw_act
 36 lines in following concentration table = NCONC+1
    Conc.  %SD /Cr+PCr  Metabolite                                         
    0.000 999%   0.000 Ala                                                 
   89.672 107%   0.203 Asp                                                 
  292.944  33%   0.664 Cr                                                  
  148.050  62%   0.336 PCr                                                 
   75.371  75%   0.171 GABA                                                
   78.623  75%   0.178 Glc                                                 
  224.391  72%   0.509 Gln                                                 
  666.627  29%   1.512 Glu                                                 
  188.810  11%   0.428 GPC                                                 
    0.000 999%   0.000 PCh                                                 
  223.740  28%   0.507 GSH                                                 
  805.532  26%   1.827 Ins                                                 
  132.285  69%   0.300 Lac                                                 
  726.002  10%   1.646 NAA                                                 
  146.643  46%   0.333 NAAG                                                
   18.622  88% 4.2E-02 Scyllo                                              
   16.852 537% 3.8E-02 Tau                                                 
    0.000 999%   0.000 -CrCH2                                              
  188.810  11%   0.428 GPC+PCh                                             
  872.645   8%   1.979 NAA+NAAG                                            
  440.994  12%   1.000 Cr+PCr                                              
  891.017  27%   2.020 Glu+Gln                                             
 1.34E+03  39%   3.031 Lip13a                                              
   48.070 505%   0.109 Lip13b                                              
  281.653  49%   0.639 Lip09                                               
    8.099 999% 1.8E-02 MM09                                                
  164.811  67%   0.374 Lip20                                               
    0.000 999%   0.000 MM20                                                
    4.428 976% 1.0E-02 MM12                                                
  116.286 132%   0.264 MM14                                                
   94.525 105%   0.214 MM17                                                
 1.38E+03  26%   3.140 Lip13a+Lip13b                                       
 1.51E+03  22%   3.413 MM14+Lip13a+Lip13b+MM12                             
  289.752  47%   0.657 MM09+Lip09                                          
  164.811  67%   0.374 MM20+Lip20                                          
   6 lines in following misc. output table
  FWHM = 0.031 ppm    S/N =   4                                            
  Data shift = 0.015 ppm                                                   
  Ph: -54 deg      -3.9 deg/ppm                                            
  alphaB,S = 2.8E+00,   1.3E+01                                            
   14 spline knots.   Ns = 5(1)                                            
  ( 9) 4 infls.   (10) 2 extrs.                                            
  498 points on ppm-axis = NY
      4.000000     3.992357     3.984714     3.977070     3.969427     3.961784     3.954141     3.946497     3.938854     3.931211
      3.923568     3.915925     3.908281     3.900638     3.892995     3.885352     3.877708     3.870065     3.862422     3.854779
      3.847136     3.839492     3.831849     3.824206     3.816563     3.808919     3.801276     3.793633     3.785990     3.778347
      3.770703     3.763060     3.755417     3.747774     3.740130     3.732487     3.724844     3.717201     3.709558     3.701914
      3.694271     3.686628     3.678985     3.671341     3.663698     3.656055     3.648412     3.640769     3.633125     3.625482
      3.617839     3.610196     3.602552     3.594909     3.587266     3.579623     3.571980     3.564336     3.556693     3.549050
      3.541407     3.533763     3.526120     3.518477     3.510834     3.503191     3.495547     3.487904     3.480261     3.472618
      3.464974     3.457331     3.449688     3.442045     3.434402     3.426758     3.419115     3.411472     3.403829     3.396185
      3.388542     3.380899     3.373256     3.365613     3.357969     3.350326     3.342683     3.335040     3.327396     3.319753
      3.312110     3.304467     3.296824     3.289180     3.281537     3.273894     3.266251     3.258607     3.250964     3.243321
      3.235678     3.228034     3.220391     3.212748     3.205105     3.197462     3.189818     3.182175     3.174532     3.166889
      3.159245     3.151602     3.143959     3.136316     3.128673     3.121029     3.113386     3.105743     3.098100     3.090456
      3.082813     3.075170     3.067527     3.059884     3.052240     3.044597     3.036954     3.029311     3.021667     3.014024
      3.006381     2.998738     2.991095     2.983451     2.975808     2.968165     2.960522     2.952878     2.945235     2.937592
      2.929949     2.922306     2.914662     2.907019     2.899376     2.891733     2.884089     2.876446     2.868803     2.861160
      2.853517     2.845873     2.838230     2.830587     2.822944     2.815300     2.807657     2.800014     2.792371     2.784728
      2.777084     2.769441     2.761798     2.754155     2.746511     2.738868     2.731225     2.723582     2.715939     2.708295
      2.700652     2.693009     2.685366     2.677722     2.670079     2.662436     2.654793     2.647150     2.639506     2.631863
      2.624220     2.616577     2.608933     2.601290     2.593647     2.586004     2.578361     2.570717     2.563074     2.555431
      2.547788     2.540144     2.532501     2.524858     2.517215     2.509572     2.501928     2.494285     2.486642     2.478999
      2.471355     2.463712     2.456069     2.448426     2.440783     2.433139     2.425496     2.417853     2.410210     2.402566
      2.394923     2.387280     2.379637     2.371994     2.364350     2.356707     2.349064     2.341421     2.333777     2.326134
      2.318491     2.310848     2.303205     2.295561     2.287918     2.280275     2.272632     2.264988     2.257345     2.249702
      2.242059     2.234416     2.226772     2.219129     2.211486     2.203843     2.196199     2.188556     2.180913     2.173270
      2.165627     2.157983     2.150340     2.142697     2.135054     2.127410     2.119767     2.112124     2.104481     2.096838
      2.089194     2.081551     2.073908     2.066265     2.058621     2.050978     2.043335     2.035692     2.028049     2.020405
      2.012762     2.005119     1.997476     1.989833     1.982190     1.974546     1.966903     1.959260     1.951617     1.943974
      1.936331     1.928688     1.921045     1.913402     1.905759     1.898115     1.890472     1.882829     1.875186     1.867543
      1.859900     1.852257     1.844614     1.836971     1.829327     1.821684     1.814041     1.806398     1.798755     1.791112
      1.783469     1.775826     1.768183     1.760540     1.752896     1.745253     1.737610     1.729967     1.722324     1.714681
      1.707038     1.699395     1.691752     1.684108     1.676465     1.668822     1.661179     1.653536     1.645893     1.638250
      1.630607     1.622964     1.615321     1.607677     1.600034     1.592391     1.584748     1.577105     1.569462     1.561819
      1.554176     1.546533     1.538890     1.531246     1.523603     1.515960     1.508317     1.500674     1.493031     1.485388
      1.477745     1.470102     1.462458     1.454815     1.447172     1.439529     1.431886     1.424243     1.416600     1.408957
      1.401314     1.393671     1.386027     1.378384     1.370741     1.363098     1.355455     1.347812     1.340169     1.332526
      1.324883     1.317240     1.309596     1.301953     1.294310     1.286667     1.279024     1.271381     1.263738     1.256095
      1.248452     1.240808     1.233165     1.225522     1.217879     1.210236     1.202593     1.194950     1.187307     1.179664
      1.172021     1.164377     1.156734     1.149091     1.141448     1.133805     1.126162     1.118519     1.110876     1.103233
      1.095590     1.087946     1.080303     1.072660     1.065017     1.057374     1.049731     1.042088     1.034445     1.026802
      1.019158     1.011515     1.003872     0.996229     0.988586     0.980943     0.973300     0.965657     0.958014     0.950371
      0.942727     0.935084     0.927441     0.919798     0.912155     0.904512     0.896869     0.889226     0.881583     0.873940
      0.866296     0.858653     0.851010     0.843367     0.835724     0.828081     0.820438     0.812795     0.805152     0.797508
      0.789865     0.782222     0.774579     0.766936     0.759293     0.751650     0.744007     0.736364     0.728721     0.721077
      0.713434     0.705791     0.698148     0.690505     0.682862     0.675219     0.667576     0.659933     0.652290     0.644646
      0.637003     0.629360     0.621717     0.614074     0.606431     0.598788     0.591145     0.583502     0.575858     0.568215
      0.560572     0.552929     0.545286     0.537643     0.530000     0.522357     0.514714     0.507071     0.499427     0.491784
      0.484141     0.476498     0.468855     0.461212     0.453569     0.445925     0.438282     0.430639     0.422996     0.415353
      0.407710     0.400067     0.392424     0.384780     0.377137     0.369494     0.361851     0.354208     0.346565     0.338922
      0.331278     0.323635     0.315992     0.308349     0.300706     0.293063     0.285420     0.277777     0.270133     0.262490
      0.254847     0.247204     0.239561     0.231918     0.224275     0.216631     0.208988     0.201345
 NY phased data points follow
   1.69627E+01  1.58970E+01  2.13391E+01  2.39695E+01  1.95679E+01  2.21657E+01  1.98101E+01  1.83754E+01  2.77648E+01  2.10285E+01
   2.80807E+01  2.81583E+01  2.84608E+01  2.55365E+01  3.17159E+01  1.85177E+01  1.65229E+01  1.39407E+01  1.44461E+01  1.57573E+01
   1.81323E+01  2.12803E+01  2.06326E+01  2.05690E+01  1.91227E+01  2.10751E+01  2.04879E+01  1.52445E+01  2.26180E+01  2.11495E+01
   1.49489E+01  1.96613E+01  1.89123E+01  1.60209E+01  1.85491E+01  1.00854E+01  1.64072E+01  1.66494E+01  1.51096E+01  1.02921E+01
   1.72764E+01  1.59557E+01  1.83489E+01  1.37786E+01  1.21494E+01  6.36938E+00  1.64318E+01  1.71350E+01  1.73379E+01  2.11489E+01
   2.42613E+01  1.83174E+01  1.31103E+01  1.83832E+01  1.72137E+01  1.59715E+01  1.24511E+01  1.04859E+01  1.23575E+01  6.90635E+00
   6.94274E+00  1.20355E+01  9.99200E+00  1.49704E+01  1.64272E+01  4.06431E+00  1.20625E+01  7.67516E-01  6.15284E+00  1.69117E+01
   4.30889E+00  1.35118E+01  1.71012E+01  1.31180E+01  3.08810E+00  9.90449E+00  1.11745E+01  1.19964E+01  3.13259E+00  2.23094E+00
   1.07873E+01  5.61441E+00  1.10715E+01  1.35249E+01  1.16810E+01  8.90945E+00  1.14568E+01  5.67885E+00  1.17909E+01  7.40056E+00
   7.04988E+00  1.17238E+01  6.00387E+00  1.26693E+01  6.95037E+00  1.10081E+01  2.79532E+00  3.26317E+00  5.92540E-01  5.56845E+00
   5.14558E+00  1.97199E+01  2.85952E+01  3.76497E+01  3.36490E+01  2.24032E+01  2.26319E+01  9.69141E+00  1.70626E+01  5.10541E+00
   1.81317E+01  3.53558E+00  8.13749E+00  9.75632E+00  1.53184E+01  8.14777E+00 -2.18483E+00  3.84668E+00  1.48902E+01  6.52226E+00
  -3.44930E+00 -6.09619E-01 -6.28913E+00 -2.46316E-02  2.11679E+00  1.37891E+01  2.01273E+01  2.30796E+01  3.09086E+01  2.29197E+01
   1.93599E+01  2.29405E+01  3.73095E+00  6.61838E+00  5.00932E+00  6.52333E+00  7.06706E+00  3.12228E+00 -3.81213E+00  6.46220E+00
   8.29341E+00  9.60024E+00  6.16810E+00  4.14792E+00  6.37257E+00 -1.74023E+00  6.64040E+00  8.17868E+00  1.16214E+01  2.69873E+00
   2.57087E+00  4.73199E+00  1.14999E+01  6.63703E+00  5.31731E-01  4.77478E+00 -1.40514E+00  5.84122E+00  9.32934E+00  1.02290E+01
   6.82770E+00  4.78252E+00  3.48894E-01  2.44611E+00  5.42620E+00  9.93089E+00  9.44813E-01  2.47469E+00  5.91817E+00 -3.90538E+00
   1.74533E+00  1.03642E+00 -2.63334E+00  4.07749E+00  1.07082E+01 -7.05497E+00 -5.66979E+00 -1.13085E+00 -2.25967E+00 -7.00819E-01
  -5.44051E+00 -8.23521E-02  2.98212E+00  1.14028E+00  1.81942E+00  5.81121E+00  8.29512E+00  2.19175E+00  2.98223E+00  4.39936E+00
   1.13334E+01  7.52501E+00  4.24803E+00  6.11122E+00  1.59422E+00  8.58440E+00  1.12621E+00  1.12807E+00  5.57221E+00  4.10138E+00
   6.88080E-01  9.39229E+00  2.27120E+00  8.05346E+00  5.25935E+00  8.53091E+00  4.51731E+00  3.03923E+00 -1.58176E+00  2.66664E+00
  -3.22224E+00  7.13784E+00  4.97946E+00  6.06302E+00  4.00659E+00  5.98024E+00  1.26509E+01  3.78838E+00  6.94275E+00  6.91268E+00
   4.32293E+00 -8.80118E+00 -4.82338E+00  5.15032E+00  8.33467E+00 -3.50295E+00  3.63031E+00  9.90033E+00  5.15148E+00  7.95660E+00
   2.04246E+00  5.33788E+00  6.18969E+00  1.96972E+00  5.11072E+00  1.12775E+01  1.27551E+01  3.65872E+00  6.03038E+00  1.07409E+01
   1.18797E+01  1.84920E+00  5.33760E+00 -6.13680E+00  6.16075E+00 -1.31350E+00  1.30272E+01  6.20849E+00  7.80572E+00 -1.61330E-01
   1.14904E+01  5.51043E+00  5.49730E+00  8.40052E+00  9.60119E+00  7.66054E+00  1.47071E+01  7.51589E+00  9.07325E+00  3.45914E+01
   4.06653E+01  4.86507E+01  3.43510E+01  2.56926E+01  1.11444E+01  1.71179E+01  1.06009E+01  1.19906E+01  3.44472E+00  3.05530E+00
   5.47491E+00  8.53410E+00  4.68116E+00  9.63645E+00 -3.09425E-01  3.74499E+00 -3.82561E+00  2.06407E+00 -3.74388E+00 -4.73240E-01
   6.16551E+00  6.05112E+00 -1.29378E+00 -4.78589E+00  2.73971E+00 -2.26385E+00  3.28919E+00  4.49460E+00  9.92636E+00  1.11091E+01
   7.62208E+00  1.01608E+01  3.30738E+00  9.76160E+00  7.09916E-01  7.04325E+00  9.85111E+00  6.83073E+00  5.19203E+00  6.37933E+00
   3.02120E+00  2.37381E+00  6.71632E+00  2.03136E+00  1.14107E+01 -4.15365E+00 -3.74352E+00  3.29694E+00  3.25515E+00  1.27569E+01
   4.43642E+00  4.27885E+00  1.16429E+01  2.03805E+00  3.18808E+00  4.62206E+00  8.69650E-02  5.49954E+00  1.04006E+01 -3.16589E+00
   8.14534E-01  1.98285E+00  2.10612E-01 -4.63449E+00  2.40111E+00  2.85856E+00  7.64012E+00  5.58230E+00  6.37304E+00 -2.41908E+00
   4.53157E+00  3.92025E+00  1.13529E+01  4.70094E+00  1.26124E+01  9.23382E+00  4.13605E+00  1.01963E+01  4.36772E+00  1.03623E+01
   1.29168E+00  6.86770E-02  6.22394E-01  9.30731E+00  1.06333E+01  6.34774E+00  6.42971E+00  1.51120E+01 -4.00109E+00  1.01517E+01
   1.72277E+00  2.08291E+00  5.07554E+00  3.55300E+00  1.97016E+01  8.08108E+00  4.44475E+00  8.80113E+00  9.39844E+00  1.00112E+01
   8.52352E+00  5.45356E+00  9.08318E+00  7.18348E+00  2.45634E+00  1.93619E+00  5.98276E+00  2.62027E+00  6.65089E+00  1.22297E+01
   4.38211E+00  5.97695E+00  6.15090E+00  6.48863E+00  5.13871E+00  2.52527E+00  2.96619E+00  8.13350E+00  1.01800E+01 -3.79568E-02
   2.98037E+00 -8.18752E+00 -3.04434E+00 -1.03035E+01  1.43750E+00  3.62383E+00 -5.96684E+00 -8.71114E-01 -2.87671E+00  5.83492E+00
   4.37385E-02  3.93476E+00  7.23709E-01 -2.51141E-01  4.65794E+00 -8.79098E-01  8.94527E+00  8.43015E-01 -4.19586E+00 -6.02022E+00
  -8.30812E-01 -5.95389E-01 -2.03051E+00  8.39737E-01 -1.16125E+00  2.79101E-01  4.75607E-01 -4.96599E-01  3.81386E+00  4.43591E+00
   9.72427E+00  1.22452E+00  6.74563E+00  6.88914E+00  2.73797E+00 -4.91309E+00 -1.14663E-01 -2.51012E+00 -1.36500E+00  1.53709E+00
   3.02338E+00 -2.94928E+00  2.75956E+00  1.24972E+00 -9.80184E+00  9.68442E-01  1.26801E+00 -2.99065E+00 -6.33730E+00 -1.46747E-01
   1.62329E+00 -5.57415E+00  2.11415E+00  5.12525E-01 -1.48854E+00 -2.83366E+00  2.91194E-01 -2.22772E-01  3.89079E+00 -1.38817E+00
   6.59946E+00 -5.10149E+00  5.59656E+00  6.38385E-01  2.44747E+00  1.61374E-01  1.55021E+00 -6.12063E+00 -5.83802E+00  2.21426E-01
   5.08081E+00  3.53243E-01 -5.64356E+00  1.96179E-01 -4.94626E+00 -4.70661E+00  2.41692E-01  4.94232E+00 -6.20199E+00 -5.34814E+00
   2.04945E-01  3.39883E-01  5.01720E-01  2.06711E+00 -1.09332E+00 -2.87431E+00  5.21738E+00  1.28350E+00 -1.88060E+00 -2.28421E+00
  -4.70909E+00  1.88020E+00 -2.62020E+00  2.59722E+00 -2.48084E+00  7.01943E-01 -1.68720E+00 -2.74502E+00 -6.22514E+00 -4.58634E+00
  -3.08049E+00 -8.38712E+00  4.55139E+00  5.53383E+00 -6.04066E-01 -9.61632E-01  4.77988E+00 -2.93765E+00  1.47181E+00  2.65634E+00
  -2.93670E+00 -2.11585E+00 -6.35199E+00  1.94542E-01 -2.90375E+00 -5.38975E+00  1.26874E+00  2.71820E+00
 NY points of the fit to the data follow
   1.46206E+01  1.41829E+01  1.39307E+01  1.38080E+01  1.38458E+01  1.41347E+01  1.49047E+01  1.63110E+01  1.84214E+01  2.12846E+01
   2.45508E+01  2.65546E+01  2.59412E+01  2.31897E+01  2.00642E+01  1.75652E+01  1.60127E+01  1.46363E+01  1.32539E+01  1.28340E+01
   1.29431E+01  1.30767E+01  1.30939E+01  1.31053E+01  1.29319E+01  1.24199E+01  1.22268E+01  1.35096E+01  1.62924E+01  1.89585E+01
   2.02466E+01  2.02276E+01  1.95727E+01  1.83696E+01  1.65479E+01  1.41559E+01  1.24266E+01  1.21173E+01  1.22931E+01  1.23362E+01
   1.21167E+01  1.19913E+01  1.19727E+01  1.17705E+01  1.16392E+01  1.24182E+01  1.49439E+01  1.85113E+01  2.09252E+01  2.06654E+01
   1.82541E+01  1.52605E+01  1.28285E+01  1.12634E+01  1.02636E+01  9.69856E+00  9.58689E+00  9.91543E+00  1.07448E+01  1.20707E+01
   1.34157E+01  1.41074E+01  1.38307E+01  1.27873E+01  1.15293E+01  1.05006E+01  9.89073E+00  9.78678E+00  1.00210E+01  1.04032E+01
   1.09506E+01  1.16260E+01  1.22354E+01  1.25296E+01  1.24371E+01  1.21306E+01  1.17595E+01  1.14334E+01  1.11111E+01  1.07998E+01
   1.05869E+01  1.03817E+01  1.02574E+01  1.04406E+01  1.09910E+01  1.14136E+01  1.09992E+01  9.67014E+00  8.12406E+00  7.15668E+00
   6.99890E+00  7.37708E+00  7.89563E+00  8.58274E+00  9.42578E+00  1.01878E+01  1.05700E+01  1.01534E+01  8.48408E+00  7.43716E+00
   1.06248E+01  2.00939E+01  3.12422E+01  3.67395E+01  3.41047E+01  2.72039E+01  2.06279E+01  1.60974E+01  1.27341E+01  9.19618E+00
   7.41215E+00  7.24983E+00  7.33086E+00  7.43004E+00  7.53829E+00  7.65189E+00  7.73502E+00  7.72472E+00  7.61482E+00  7.48038E+00
   7.39745E+00  7.25786E+00  6.67295E+00  6.20544E+00  8.16159E+00  1.45602E+01  2.35467E+01  2.96517E+01  2.95977E+01  2.51157E+01
   2.01305E+01  1.66351E+01  1.40343E+01  1.07547E+01  7.50030E+00  5.61683E+00  4.59070E+00  4.41184E+00  4.98231E+00  5.96341E+00
   6.95180E+00  7.57295E+00  7.68463E+00  7.58905E+00  7.46431E+00  7.28549E+00  7.10265E+00  6.85621E+00  6.66104E+00  6.51430E+00
   6.37576E+00  6.21637E+00  6.00964E+00  5.81733E+00  5.73273E+00  5.81242E+00  6.03665E+00  6.23749E+00  6.17795E+00  5.73118E+00
   5.08827E+00  4.65925E+00  4.70685E+00  5.16228E+00  5.61965E+00  5.76433E+00  5.60323E+00  5.33373E+00  5.04776E+00  4.83844E+00
   4.78441E+00  4.82718E+00  4.87443E+00  4.66462E+00  4.12116E+00  3.56230E+00  3.46210E+00  3.84211E+00  4.25640E+00  4.25219E+00
   3.89051E+00  3.61605E+00  3.74311E+00  4.02347E+00  4.00280E+00  3.68837E+00  3.49338E+00  3.96262E+00  5.13472E+00  6.50792E+00
   7.50225E+00  7.78232E+00  7.39768E+00  6.66545E+00  5.72034E+00  4.70259E+00  3.95020E+00  3.74527E+00  4.12268E+00  4.87346E+00
   5.68245E+00  6.46277E+00  7.35542E+00  8.22590E+00  8.72003E+00  8.53224E+00  7.58607E+00  5.90264E+00  3.81661E+00  2.07478E+00
   1.20605E+00  1.20212E+00  2.11841E+00  4.22056E+00  7.22867E+00  9.82778E+00  1.07695E+01  9.77706E+00  7.78103E+00  5.23529E+00
   2.13266E+00 -7.09221E-01 -1.89413E+00 -5.83150E-01  1.97959E+00  4.36664E+00  6.04413E+00  7.02753E+00  7.26665E+00  6.52695E+00
   5.21830E+00  4.36032E+00  4.35397E+00  4.81446E+00  5.45368E+00  6.21997E+00  6.90458E+00  7.18577E+00  6.78736E+00  5.87905E+00
   4.66739E+00  3.35284E+00  2.48011E+00  2.47050E+00  3.33434E+00  4.42854E+00  5.23286E+00  5.54263E+00  5.44721E+00  5.07230E+00
   4.49193E+00  3.98701E+00  4.20109E+00  5.76878E+00  8.62607E+00  1.06017E+01  1.00514E+01  1.03071E+01  1.70808E+01  3.06041E+01
   4.21172E+01  4.39459E+01  3.66950E+01  2.73028E+01  1.99243E+01  1.47995E+01  9.88519E+00  5.55598E+00  4.03284E+00  3.39404E+00
   2.97395E+00  2.85761E+00  3.01355E+00  3.30541E+00  3.61126E+00  3.81333E+00  3.87606E+00  3.81430E+00  3.67340E+00  3.47411E+00
   3.26734E+00  3.11809E+00  3.04070E+00  3.02385E+00  3.05120E+00  3.09513E+00  3.13431E+00  3.15433E+00  3.14779E+00  3.13079E+00
   3.13087E+00  3.15486E+00  3.18293E+00  3.20391E+00  3.21605E+00  3.21938E+00  3.21571E+00  3.20272E+00  3.17799E+00  3.15800E+00
   3.15510E+00  3.16301E+00  3.17341E+00  3.18017E+00  3.18130E+00  3.17784E+00  3.16636E+00  3.14916E+00  3.12932E+00  3.10730E+00
   3.08433E+00  3.06107E+00  3.03799E+00  3.01615E+00  2.99674E+00  2.98063E+00  2.96839E+00  2.96061E+00  2.95811E+00  2.96177E+00
   2.97212E+00  2.98910E+00  3.01268E+00  3.04327E+00  3.08152E+00  3.12788E+00  3.18240E+00  3.24502E+00  3.31590E+00  3.39566E+00
   3.48508E+00  3.58477E+00  3.69523E+00  3.81702E+00  3.95099E+00  4.09826E+00  4.25994E+00  4.43702E+00  4.63035E+00  4.84034E+00
   5.06460E+00  5.28811E+00  5.53531E+00  6.05656E+00  7.03297E+00  8.21197E+00  8.77896E+00  8.29416E+00  7.15181E+00  6.06656E+00
   5.22125E+00  4.59337E+00  4.38522E+00  5.07662E+00  6.68030E+00  8.22881E+00  8.99720E+00  9.07143E+00  8.80822E+00  8.47824E+00
   8.05740E+00  7.44010E+00  6.90078E+00  6.45620E+00  6.05184E+00  5.67080E+00  5.30758E+00  4.96051E+00  4.62958E+00  4.31529E+00
   4.01793E+00  3.73750E+00  3.47399E+00  3.22780E+00  2.99950E+00  2.78938E+00  2.59716E+00  2.42212E+00  2.26361E+00  2.12131E+00
   1.99493E+00  1.88389E+00  1.78722E+00  1.70392E+00  1.63335E+00  1.57525E+00  1.52936E+00  1.49511E+00  1.47168E+00  1.45837E+00
   1.45479E+00  1.46071E+00  1.47560E+00  1.49844E+00  1.52796E+00  1.56298E+00  1.60245E+00  1.64519E+00  1.68952E+00  1.73338E+00
   1.77466E+00  1.81153E+00  1.84238E+00  1.86557E+00  1.87930E+00  1.88186E+00  1.87201E+00  1.84917E+00  1.81321E+00  1.76415E+00
   1.70213E+00  1.62763E+00  1.54177E+00  1.44616E+00  1.34254E+00  1.23249E+00  1.11749E+00  9.99133E-01  8.79230E-01  7.59574E-01
   6.41595E-01  5.26257E-01  4.14271E-01  3.06365E-01  2.03301E-01  1.05624E-01  1.34421E-02 -7.34818E-02 -1.55411E-01 -2.32431E-01
  -3.04553E-01 -3.71978E-01 -4.35203E-01 -4.94810E-01 -5.51192E-01 -6.04485E-01 -6.54790E-01 -7.02410E-01 -7.47839E-01 -7.91497E-01
  -8.33534E-01 -8.73908E-01 -9.12657E-01 -9.50058E-01 -9.86479E-01 -1.02211E+00 -1.05690E+00 -1.09072E+00 -1.12363E+00 -1.15589E+00
  -1.18776E+00 -1.21926E+00 -1.25022E+00 -1.28054E+00 -1.31033E+00 -1.33984E+00 -1.36921E+00 -1.39834E+00 -1.42704E+00 -1.45529E+00
  -1.48327E+00 -1.51120E+00 -1.53907E+00 -1.56673E+00 -1.59402E+00 -1.62099E+00 -1.64787E+00 -1.67480E+00 -1.70169E+00 -1.72834E+00
  -1.75468E+00 -1.78085E+00 -1.80706E+00 -1.83334E+00 -1.85953E+00 -1.88545E+00 -1.91114E+00 -1.93679E+00 -1.96254E+00 -1.98834E+00
  -2.01399E+00 -2.03940E+00 -2.06467E+00 -2.09000E+00 -2.11546E+00 -2.14089E+00 -2.16614E+00 -2.19118E+00 -2.21619E+00 -2.24132E+00
  -2.26655E+00 -2.29170E+00 -2.31664E+00 -2.34145E+00 -2.36631E+00 -2.39133E+00 -2.41639E+00 -2.44131E+00
 NY background values follow
     1.145E+01    1.142E+01    1.138E+01    1.135E+01    1.131E+01    1.128E+01    1.124E+01    1.121E+01    1.118E+01    1.114E+01
     1.111E+01    1.107E+01    1.104E+01    1.100E+01    1.097E+01    1.093E+01    1.090E+01    1.086E+01    1.083E+01    1.079E+01
     1.076E+01    1.072E+01    1.069E+01    1.065E+01    1.062E+01    1.058E+01    1.055E+01    1.051E+01    1.048E+01    1.044E+01
     1.041E+01    1.037E+01    1.034E+01    1.030E+01    1.027E+01    1.023E+01    1.020E+01    1.016E+01    1.013E+01    1.009E+01
     1.006E+01    1.002E+01    9.989E+00    9.954E+00    9.919E+00    9.884E+00    9.850E+00    9.815E+00    9.780E+00    9.745E+00
     9.710E+00    9.675E+00    9.640E+00    9.605E+00    9.571E+00    9.536E+00    9.501E+00    9.466E+00    9.431E+00    9.396E+00
     9.362E+00    9.327E+00    9.292E+00    9.257E+00    9.223E+00    9.188E+00    9.153E+00    9.119E+00    9.084E+00    9.049E+00
     9.015E+00    8.980E+00    8.946E+00    8.911E+00    8.877E+00    8.842E+00    8.808E+00    8.773E+00    8.739E+00    8.704E+00
     8.670E+00    8.636E+00    8.601E+00    8.567E+00    8.533E+00    8.498E+00    8.464E+00    8.430E+00    8.396E+00    8.362E+00
     8.328E+00    8.294E+00    8.260E+00    8.226E+00    8.192E+00    8.158E+00    8.124E+00    8.090E+00    8.056E+00    8.022E+00
     7.989E+00    7.955E+00    7.921E+00    7.888E+00    7.854E+00    7.821E+00    7.787E+00    7.754E+00    7.720E+00    7.687E+00
     7.653E+00    7.620E+00    7.587E+00    7.554E+00    7.520E+00    7.487E+00    7.454E+00    7.421E+00    7.388E+00    7.355E+00
     7.322E+00    7.289E+00    7.256E+00    7.224E+00    7.191E+00    7.158E+00    7.126E+00    7.093E+00    7.060E+00    7.028E+00
     6.995E+00    6.963E+00    6.931E+00    6.898E+00    6.866E+00    6.834E+00    6.802E+00    6.769E+00    6.737E+00    6.705E+00
     6.673E+00    6.641E+00    6.610E+00    6.578E+00    6.546E+00    6.514E+00    6.482E+00    6.451E+00    6.419E+00    6.388E+00
     6.356E+00    6.325E+00    6.293E+00    6.262E+00    6.231E+00    6.200E+00    6.168E+00    6.137E+00    6.106E+00    6.075E+00
     6.044E+00    6.013E+00    5.983E+00    5.952E+00    5.921E+00    5.890E+00    5.860E+00    5.829E+00    5.798E+00    5.768E+00
     5.738E+00    5.707E+00    5.677E+00    5.647E+00    5.616E+00    5.586E+00    5.556E+00    5.526E+00    5.496E+00    5.466E+00
     5.436E+00    5.406E+00    5.376E+00    5.347E+00    5.317E+00    5.287E+00    5.258E+00    5.228E+00    5.199E+00    5.169E+00
     5.140E+00    5.110E+00    5.081E+00    5.052E+00    5.023E+00    4.993E+00    4.964E+00    4.935E+00    4.906E+00    4.877E+00
     4.848E+00    4.820E+00    4.791E+00    4.762E+00    4.733E+00    4.705E+00    4.676E+00    4.647E+00    4.619E+00    4.590E+00
     4.562E+00    4.534E+00    4.505E+00    4.477E+00    4.449E+00    4.420E+00    4.392E+00    4.364E+00    4.336E+00    4.308E+00
     4.280E+00    4.252E+00    4.224E+00    4.196E+00    4.168E+00    4.141E+00    4.113E+00    4.085E+00    4.058E+00    4.030E+00
     4.002E+00    3.975E+00    3.947E+00    3.920E+00    3.892E+00    3.865E+00    3.838E+00    3.810E+00    3.783E+00    3.756E+00
     3.729E+00    3.701E+00    3.674E+00    3.647E+00    3.620E+00    3.593E+00    3.566E+00    3.539E+00    3.512E+00    3.485E+00
     3.458E+00    3.432E+00    3.405E+00    3.378E+00    3.351E+00    3.325E+00    3.298E+00    3.271E+00    3.245E+00    3.218E+00
     3.192E+00    3.165E+00    3.139E+00    3.112E+00    3.086E+00    3.059E+00    3.033E+00    3.007E+00    2.980E+00    2.954E+00
     2.928E+00    2.902E+00    2.875E+00    2.849E+00    2.823E+00    2.797E+00    2.771E+00    2.745E+00    2.719E+00    2.693E+00
     2.667E+00    2.641E+00    2.615E+00    2.589E+00    2.563E+00    2.537E+00    2.511E+00    2.485E+00    2.460E+00    2.434E+00
     2.408E+00    2.382E+00    2.357E+00    2.331E+00    2.305E+00    2.280E+00    2.254E+00    2.228E+00    2.203E+00    2.177E+00
     2.152E+00    2.126E+00    2.101E+00    2.075E+00    2.050E+00    2.024E+00    1.999E+00    1.974E+00    1.948E+00    1.923E+00
     1.897E+00    1.872E+00    1.847E+00    1.822E+00    1.796E+00    1.771E+00    1.746E+00    1.721E+00    1.695E+00    1.670E+00
     1.645E+00    1.620E+00    1.595E+00    1.569E+00    1.544E+00    1.519E+00    1.494E+00    1.469E+00    1.444E+00    1.419E+00
     1.394E+00    1.369E+00    1.344E+00    1.319E+00    1.294E+00    1.269E+00    1.244E+00    1.219E+00    1.194E+00    1.170E+00
     1.145E+00    1.120E+00    1.095E+00    1.070E+00    1.045E+00    1.021E+00    9.958E-01    9.710E-01    9.463E-01    9.216E-01
     8.969E-01    8.722E-01    8.475E-01    8.228E-01    7.981E-01    7.735E-01    7.489E-01    7.243E-01    6.997E-01    6.751E-01
     6.505E-01    6.260E-01    6.014E-01    5.769E-01    5.524E-01    5.279E-01    5.034E-01    4.789E-01    4.545E-01    4.300E-01
     4.056E-01    3.812E-01    3.568E-01    3.324E-01    3.080E-01    2.836E-01    2.593E-01    2.349E-01    2.106E-01    1.863E-01
     1.620E-01    1.377E-01    1.135E-01    8.921E-02    6.497E-02    4.074E-02    1.652E-02   -7.679E-03   -3.187E-02   -5.605E-02
    -8.021E-02   -1.044E-01   -1.285E-01   -1.526E-01   -1.767E-01   -2.008E-01   -2.249E-01   -2.490E-01   -2.731E-01   -2.971E-01
    -3.211E-01   -3.452E-01   -3.692E-01   -3.932E-01   -4.172E-01   -4.411E-01   -4.651E-01   -4.891E-01   -5.130E-01   -5.369E-01
    -5.608E-01   -5.847E-01   -6.086E-01   -6.325E-01   -6.564E-01   -6.802E-01   -7.041E-01   -7.279E-01   -7.517E-01   -7.755E-01
    -7.994E-01   -8.231E-01   -8.469E-01   -8.707E-01   -8.945E-01   -9.182E-01   -9.420E-01   -9.657E-01   -9.894E-01   -1.013E+00
    -1.037E+00   -1.061E+00   -1.084E+00   -1.108E+00   -1.132E+00   -1.155E+00   -1.179E+00   -1.203E+00   -1.226E+00   -1.250E+00
    -1.274E+00   -1.297E+00   -1.321E+00   -1.344E+00   -1.368E+00   -1.392E+00   -1.415E+00   -1.439E+00   -1.462E+00   -1.486E+00
    -1.510E+00   -1.533E+00   -1.557E+00   -1.580E+00   -1.604E+00   -1.627E+00   -1.651E+00   -1.674E+00   -1.698E+00   -1.721E+00
    -1.745E+00   -1.768E+00   -1.792E+00   -1.816E+00   -1.839E+00   -1.863E+00   -1.886E+00   -1.910E+00   -1.933E+00   -1.957E+00
    -1.980E+00   -2.003E+00   -2.027E+00   -2.050E+00   -2.074E+00   -2.097E+00   -2.121E+00   -2.144E+00   -2.168E+00   -2.191E+00
    -2.215E+00   -2.238E+00   -2.262E+00   -2.285E+00   -2.309E+00   -2.332E+00   -2.355E+00   -2.379E+00   -2.402E+00   -2.426E+00
    -2.449E+00   -2.473E+00   -2.496E+00   -2.519E+00   -2.543E+00   -2.566E+00   -2.590E+00   -2.613E+00
 Asp      Conc. = 8.97E+01
