 LCModel (Version 6.3-1L) Copyright: S.W. Provencher.          Ref.: Magn. Reson. Med. 30:672-679 (1993).                
 Slice#1 Row#14 Col#2  PD_24_press_1_raw_act
 36 lines in following concentration table = NCONC+1
    Conc.  %SD /Cr+PCr  Metabolite                                         
    0.000 999%   0.000 Ala                                                 
   11.699 143%   0.230 Asp                                                 
   50.976  45%   1.000 Cr                                                  
    0.000 999%   0.000 PCr                                                 
    5.975 169%   0.117 GABA                                                
    5.738 176%   0.113 Glc                                                 
  386.982  57%   7.592 Gln                                                 
  785.157  32%  15.403 Glu                                                 
   13.755  67%   0.270 GPC                                                 
    0.000 999%   0.000 PCh                                                 
   57.524  74%   1.128 GSH                                                 
  219.515  52%   4.306 Ins                                                 
  146.295  62%   2.870 Lac                                                 
  109.695  24%   2.152 NAA                                                 
    0.000 999%   0.000 NAAG                                                
    2.730 121% 5.4E-02 Scyllo                                              
    8.503 195%   0.167 Tau                                                 
    0.000 999%   0.000 -CrCH2                                              
   13.755  67%   0.270 GPC+PCh                                             
  109.695  24%   2.152 NAA+NAAG                                            
   50.976  45%   1.000 Cr+PCr                                              
 1.17E+03  36%  22.994 Glu+Gln                                             
    0.000 999%   0.000 Lip13a                                              
   50.306  74%   0.987 Lip13b                                              
    3.048 659% 6.0E-02 Lip09                                               
    0.000 999%   0.000 MM09                                                
    6.703 208%   0.131 Lip20                                               
 8.85E-04 999% 1.7E-05 MM20                                                
 1.25E-05 999% 2.5E-07 MM12                                                
 4.44E-03 999% 8.7E-05 MM14                                                
    0.000 999%   0.000 MM17                                                
   50.306  74%   0.987 Lip13a+Lip13b                                       
   50.310  74%   0.987 MM14+Lip13a+Lip13b+MM12                             
    3.048 659% 6.0E-02 MM09+Lip09                                          
    6.704 208%   0.132 MM20+Lip20                                          
   6 lines in following misc. output table
  FWHM = 0.092 ppm    S/N =   1                                            
  Data shift =-0.008 ppm                                                   
  Ph: -77 deg      -4.4 deg/ppm                                            
  alphaB,S = 8.5E+01,   2.0E+02                                            
   14 spline knots.   Ns =11(1)                                            
   2 inflections.     1 extrema                                            
  498 points on ppm-axis = NY
      4.000000     3.992357     3.984714     3.977070     3.969427     3.961784     3.954141     3.946497     3.938854     3.931211
      3.923568     3.915925     3.908281     3.900638     3.892995     3.885352     3.877708     3.870065     3.862422     3.854779
      3.847136     3.839492     3.831849     3.824206     3.816563     3.808919     3.801276     3.793633     3.785990     3.778347
      3.770703     3.763060     3.755417     3.747774     3.740130     3.732487     3.724844     3.717201     3.709558     3.701914
      3.694271     3.686628     3.678985     3.671341     3.663698     3.656055     3.648412     3.640769     3.633125     3.625482
      3.617839     3.610196     3.602552     3.594909     3.587266     3.579623     3.571980     3.564336     3.556693     3.549050
      3.541407     3.533763     3.526120     3.518477     3.510834     3.503191     3.495547     3.487904     3.480261     3.472618
      3.464974     3.457331     3.449688     3.442045     3.434402     3.426758     3.419115     3.411472     3.403829     3.396185
      3.388542     3.380899     3.373256     3.365613     3.357969     3.350326     3.342683     3.335040     3.327396     3.319753
      3.312110     3.304467     3.296824     3.289180     3.281537     3.273894     3.266251     3.258607     3.250964     3.243321
      3.235678     3.228034     3.220391     3.212748     3.205105     3.197462     3.189818     3.182175     3.174532     3.166889
      3.159245     3.151602     3.143959     3.136316     3.128673     3.121029     3.113386     3.105743     3.098100     3.090456
      3.082813     3.075170     3.067527     3.059884     3.052240     3.044597     3.036954     3.029311     3.021667     3.014024
      3.006381     2.998738     2.991095     2.983451     2.975808     2.968165     2.960522     2.952878     2.945235     2.937592
      2.929949     2.922306     2.914662     2.907019     2.899376     2.891733     2.884089     2.876446     2.868803     2.861160
      2.853517     2.845873     2.838230     2.830587     2.822944     2.815300     2.807657     2.800014     2.792371     2.784728
      2.777084     2.769441     2.761798     2.754155     2.746511     2.738868     2.731225     2.723582     2.715939     2.708295
      2.700652     2.693009     2.685366     2.677722     2.670079     2.662436     2.654793     2.647150     2.639506     2.631863
      2.624220     2.616577     2.608933     2.601290     2.593647     2.586004     2.578361     2.570717     2.563074     2.555431
      2.547788     2.540144     2.532501     2.524858     2.517215     2.509572     2.501928     2.494285     2.486642     2.478999
      2.471355     2.463712     2.456069     2.448426     2.440783     2.433139     2.425496     2.417853     2.410210     2.402566
      2.394923     2.387280     2.379637     2.371994     2.364350     2.356707     2.349064     2.341421     2.333777     2.326134
      2.318491     2.310848     2.303205     2.295561     2.287918     2.280275     2.272632     2.264988     2.257345     2.249702
      2.242059     2.234416     2.226772     2.219129     2.211486     2.203843     2.196199     2.188556     2.180913     2.173270
      2.165627     2.157983     2.150340     2.142697     2.135054     2.127410     2.119767     2.112124     2.104481     2.096838
      2.089194     2.081551     2.073908     2.066265     2.058621     2.050978     2.043335     2.035692     2.028049     2.020405
      2.012762     2.005119     1.997476     1.989833     1.982190     1.974546     1.966903     1.959260     1.951617     1.943974
      1.936331     1.928688     1.921045     1.913402     1.905759     1.898115     1.890472     1.882829     1.875186     1.867543
      1.859900     1.852257     1.844614     1.836971     1.829327     1.821684     1.814041     1.806398     1.798755     1.791112
      1.783469     1.775826     1.768183     1.760540     1.752896     1.745253     1.737610     1.729967     1.722324     1.714681
      1.707038     1.699395     1.691752     1.684108     1.676465     1.668822     1.661179     1.653536     1.645893     1.638250
      1.630607     1.622964     1.615321     1.607677     1.600034     1.592391     1.584748     1.577105     1.569462     1.561819
      1.554176     1.546533     1.538890     1.531246     1.523603     1.515960     1.508317     1.500674     1.493031     1.485388
      1.477745     1.470102     1.462458     1.454815     1.447172     1.439529     1.431886     1.424243     1.416600     1.408957
      1.401314     1.393671     1.386027     1.378384     1.370741     1.363098     1.355455     1.347812     1.340169     1.332526
      1.324883     1.317240     1.309596     1.301953     1.294310     1.286667     1.279024     1.271381     1.263738     1.256095
      1.248452     1.240808     1.233165     1.225522     1.217879     1.210236     1.202593     1.194950     1.187307     1.179664
      1.172021     1.164377     1.156734     1.149091     1.141448     1.133805     1.126162     1.118519     1.110876     1.103233
      1.095590     1.087946     1.080303     1.072660     1.065017     1.057374     1.049731     1.042088     1.034445     1.026802
      1.019158     1.011515     1.003872     0.996229     0.988586     0.980943     0.973300     0.965657     0.958014     0.950371
      0.942727     0.935084     0.927441     0.919798     0.912155     0.904512     0.896869     0.889226     0.881583     0.873940
      0.866296     0.858653     0.851010     0.843367     0.835724     0.828081     0.820438     0.812795     0.805152     0.797508
      0.789865     0.782222     0.774579     0.766936     0.759293     0.751650     0.744007     0.736364     0.728721     0.721077
      0.713434     0.705791     0.698148     0.690505     0.682862     0.675219     0.667576     0.659933     0.652290     0.644646
      0.637003     0.629360     0.621717     0.614074     0.606431     0.598788     0.591145     0.583502     0.575858     0.568215
      0.560572     0.552929     0.545286     0.537643     0.530000     0.522357     0.514714     0.507071     0.499427     0.491784
      0.484141     0.476498     0.468855     0.461212     0.453569     0.445925     0.438282     0.430639     0.422996     0.415353
      0.407710     0.400067     0.392424     0.384780     0.377137     0.369494     0.361851     0.354208     0.346565     0.338922
      0.331278     0.323635     0.315992     0.308349     0.300706     0.293063     0.285420     0.277777     0.270133     0.262490
      0.254847     0.247204     0.239561     0.231918     0.224275     0.216631     0.208988     0.201345
 NY phased data points follow
  -2.01834E+00 -2.54647E+00 -3.15127E+00 -1.16062E+00 -3.58266E+00 -2.28793E+00 -1.95716E+00  4.35009E-02 -6.44029E-01 -2.26391E+00
  -1.05630E+00 -2.08223E+00 -2.33034E+00 -1.10183E+00 -4.00443E+00 -1.89175E+00 -2.84410E+00 -3.12726E+00 -1.25655E+00 -1.74433E+00
  -4.06353E+00 -1.06168E+00  5.55071E-01 -3.01079E+00 -3.10635E+00 -4.87916E+00 -3.32711E+00 -2.28762E+00 -2.26874E+00 -4.84433E+00
  -1.45088E+00 -1.94418E+00 -3.54290E+00 -3.54772E+00 -2.49672E+00 -3.31050E+00 -4.65962E+00 -3.03150E+00 -3.28327E+00 -2.71251E+00
  -1.69481E+00 -3.84822E+00 -4.06169E+00 -2.43695E+00 -4.71945E+00 -2.21187E+00 -3.53685E+00 -4.06463E+00 -3.17889E+00 -3.18117E+00
  -4.31372E+00 -3.04969E+00 -3.97886E+00 -2.54403E+00 -5.61331E+00 -3.78702E+00 -5.59550E+00 -5.65919E+00 -5.15469E+00 -3.44349E+00
  -3.66873E+00 -4.58676E+00 -3.71289E+00 -6.17786E+00 -3.96035E+00 -7.53066E+00 -2.43052E+00 -3.30472E+00 -5.19506E+00 -6.97912E+00
  -2.92471E+00 -3.46117E+00 -3.72631E+00 -5.29562E+00 -4.79039E+00 -5.40556E+00 -5.75584E+00 -2.77436E+00 -3.64031E+00 -3.45242E+00
  -4.57518E+00 -5.95794E+00 -6.42580E+00 -5.04964E+00 -3.21241E+00 -4.49297E+00 -4.34282E+00 -5.05033E+00 -4.34454E+00 -6.39570E+00
  -5.33723E+00 -2.48243E+00 -3.69536E+00 -6.16408E+00 -4.32711E+00 -4.41040E+00 -4.18288E+00 -5.16428E+00 -7.73680E+00 -5.69847E+00
  -5.93640E+00 -3.53387E+00 -5.47496E+00 -4.34421E+00 -2.65660E+00 -4.47524E+00 -2.49740E+00 -5.36172E+00 -4.53865E+00 -4.19525E+00
  -6.10940E+00 -4.48329E+00 -6.01866E+00 -6.46757E+00 -3.76693E+00 -5.84749E+00 -5.83978E+00 -5.24529E+00 -4.41993E+00 -5.76378E+00
  -6.03690E+00 -5.59886E+00 -6.15063E+00 -5.47447E+00 -5.22735E+00 -7.44301E+00 -4.50018E+00 -5.24621E+00 -4.50631E+00 -1.49899E+00
  -2.04451E+00 -4.04306E+00 -7.16975E+00 -3.61986E+00 -1.29562E+00 -4.47950E+00 -5.92402E+00 -4.83668E+00 -4.10382E+00 -5.31416E+00
  -2.71359E+00 -5.61329E+00 -4.79799E+00 -7.45655E+00 -5.43200E+00 -6.56669E+00 -5.91087E+00 -4.92813E+00 -6.98170E+00 -4.34143E+00
  -4.90334E+00 -5.49614E+00 -4.77899E+00 -5.76806E+00 -6.00648E+00 -7.48266E+00 -7.07000E+00 -4.91379E+00 -6.13636E+00 -5.14296E+00
  -8.24074E+00 -3.71036E+00 -5.31014E+00 -5.13774E+00 -7.09035E+00 -6.02158E+00 -5.88750E+00 -7.08210E+00 -6.71788E+00 -6.28623E+00
  -4.05207E+00 -3.44367E+00 -5.55920E+00 -7.38093E+00 -6.70766E+00 -5.98048E+00 -8.67854E+00 -6.11012E+00 -6.89935E+00 -3.32710E+00
  -7.66450E+00 -6.25800E+00 -4.48303E+00 -5.86054E+00 -6.48593E+00 -5.78232E+00 -7.15365E+00 -6.70316E+00 -5.92766E+00 -2.82089E+00
  -4.09201E+00 -2.35460E+00 -4.33421E+00 -4.55347E+00 -5.00538E+00 -6.53007E+00 -5.07942E+00 -3.61558E+00 -3.09137E+00 -3.75445E+00
  -3.46279E+00 -4.65564E+00 -4.72469E+00 -5.25679E+00 -4.27728E+00 -9.23389E-01 -3.40214E+00 -6.29021E+00 -5.01789E+00 -4.36013E+00
  -4.39758E+00 -4.49856E+00 -2.97482E+00 -1.66060E+00 -2.65165E+00 -2.76592E+00 -4.09416E+00 -5.06820E+00 -4.92448E+00 -2.33923E+00
  -4.71668E+00 -3.07872E+00 -6.66830E+00 -6.69852E+00 -5.61172E+00 -3.20896E+00 -5.46034E+00 -3.15853E+00 -4.37128E+00 -5.68626E+00
  -3.85109E+00 -5.32595E+00 -4.45270E+00 -4.50118E+00 -5.69145E+00 -2.83802E+00 -4.59802E+00 -2.53184E+00 -3.49263E+00 -4.73769E+00
  -3.60387E+00 -4.28349E+00 -3.83579E+00 -3.65967E+00 -3.60344E+00 -5.67399E+00 -4.20033E+00 -5.26208E+00 -4.38899E+00 -2.56450E+00
  -7.24583E+00 -3.46573E+00 -5.52216E+00 -5.52903E+00 -6.96471E+00 -4.50719E+00 -2.81136E+00 -3.89143E+00 -2.58576E+00 -5.07913E+00
  -3.08871E+00 -2.00714E+00 -3.16580E+00 -1.18467E+00 -2.44649E+00 -9.22841E-01 -1.54262E-01 -2.76790E+00 -5.16729E+00 -3.72593E+00
  -2.09104E+00 -2.25231E+00 -3.84131E+00 -4.10377E+00 -4.20476E+00 -3.59529E+00 -4.39603E+00 -4.35334E+00 -7.45598E+00 -3.77725E+00
  -5.73017E+00 -4.43176E+00 -6.62383E+00 -5.55058E+00 -3.83347E+00 -4.74325E+00 -2.35364E+00 -2.14675E+00 -7.67023E+00 -5.01042E+00
  -6.38314E+00 -7.83026E+00 -4.58155E+00 -3.97632E+00 -4.98391E+00 -4.44690E+00 -4.27328E+00 -4.48508E+00 -4.74427E+00 -5.07168E+00
  -5.40775E+00 -3.76166E+00 -3.46264E+00 -2.48114E+00 -5.46124E+00 -5.28578E+00 -6.36552E+00 -4.42261E+00 -6.36224E+00 -5.09136E+00
  -3.06127E+00 -5.39772E+00 -4.10368E+00 -3.15701E+00 -3.75813E+00 -3.92738E+00 -3.28558E+00 -2.23676E+00 -4.11221E+00 -4.09944E+00
  -4.62073E+00 -6.96671E+00 -5.73801E+00 -2.83235E+00 -3.99078E+00 -4.21328E+00 -4.12790E+00 -5.24081E+00 -5.21628E+00 -2.71192E+00
  -3.35458E+00 -3.10511E+00 -3.97252E+00 -4.11790E+00 -3.48711E+00 -2.37772E+00 -3.81082E+00 -2.94023E+00 -4.22884E+00 -4.51702E+00
  -2.74329E+00 -2.46647E+00 -4.98705E+00 -2.15704E+00 -3.17965E+00 -3.94983E+00 -6.35165E+00 -2.24030E+00 -2.41582E+00 -3.86903E+00
  -2.22402E+00 -2.86711E+00 -3.46060E+00 -4.42725E+00 -4.12637E+00 -4.45930E+00 -4.64988E+00 -1.63459E+00 -2.75648E+00 -2.52540E+00
  -6.83510E-01 -5.00581E+00 -2.11928E+00 -2.74070E+00 -4.99666E+00 -1.02343E+00 -3.44400E+00 -3.18133E+00 -4.30583E+00 -3.84304E-01
  -2.59081E+00 -3.53526E+00 -3.09103E+00 -4.19148E+00 -3.68361E+00 -2.88580E+00 -4.74319E+00 -2.84698E+00 -6.24191E+00 -2.93254E+00
  -3.07708E+00 -3.92826E+00 -3.14133E+00 -3.68000E+00 -4.85903E+00 -2.91881E+00 -3.24316E+00 -6.16801E+00 -2.17675E+00 -2.24960E+00
  -3.87996E+00 -3.61215E+00 -2.80169E+00 -2.43832E+00 -3.66720E+00 -3.42157E+00 -1.59018E+00 -3.90463E+00 -3.07479E+00 -1.43156E+00
  -3.32308E+00 -1.45725E+00 -5.63461E+00 -3.76606E+00 -5.61599E+00 -3.70271E+00 -6.91748E+00 -3.94661E+00 -6.27561E+00 -4.03497E+00
  -4.10219E+00 -3.01516E+00 -1.59112E+00 -6.20668E+00 -5.65775E+00 -3.36988E+00 -2.53605E+00 -2.87585E+00 -3.27689E+00 -3.22101E+00
  -5.05202E+00 -3.59808E+00 -3.82856E+00 -3.23214E+00 -3.34423E+00 -2.48192E+00 -3.15367E+00 -2.33845E+00 -2.98032E+00 -4.73791E+00
  -2.29415E+00 -4.20366E+00 -1.74447E+00 -3.32422E+00 -4.89570E-01 -3.47912E+00 -2.48055E+00 -5.03601E+00 -1.49545E+00 -1.65345E+00
  -3.74297E+00 -2.45655E+00 -1.68221E+00 -1.65345E+00 -2.56124E+00 -3.21562E+00 -3.08800E+00 -2.90545E+00 -1.07851E+00 -8.22779E-01
  -3.13338E+00 -3.60237E+00 -1.24075E+00 -2.23710E+00 -2.46661E+00 -4.12584E+00 -9.40024E-01 -4.68773E+00 -5.62070E+00 -3.58729E+00
  -1.25419E+00 -1.45891E-01 -6.17217E-01 -2.60935E+00 -5.33480E-01 -3.23309E+00 -2.79260E+00 -1.75228E+00 -1.75097E+00 -2.79979E+00
  -1.71436E+00 -3.31082E+00 -4.10239E+00 -6.13380E+00 -1.64025E+00 -2.70966E+00 -2.89613E+00 -4.10752E+00 -1.30173E+00 -1.99242E+00
  -2.46848E+00 -3.02237E+00 -1.48630E+00 -3.99958E+00 -3.15682E+00 -2.35229E+00 -3.55556E+00 -5.08709E+00 -1.41569E+00 -2.29135E+00
  -1.59435E+00 -1.01184E+00 -2.35429E+00 -4.29110E+00 -3.50639E+00 -2.06306E+00 -2.36641E+00 -3.02014E+00
 NY points of the fit to the data follow
  -2.70993E+00 -2.79145E+00 -2.85328E+00 -2.88461E+00 -2.87395E+00 -2.82096E+00 -2.73929E+00 -2.65129E+00 -2.56410E+00 -2.48797E+00
  -2.43890E+00 -2.42037E+00 -2.42633E+00 -2.45087E+00 -2.48601E+00 -2.52638E+00 -2.56926E+00 -2.61423E+00 -2.65472E+00 -2.68915E+00
  -2.72529E+00 -2.76187E+00 -2.79603E+00 -2.81023E+00 -2.78198E+00 -2.71343E+00 -2.61846E+00 -2.50055E+00 -2.36982E+00 -2.25016E+00
  -2.18017E+00 -2.19233E+00 -2.29895E+00 -2.48882E+00 -2.72771E+00 -2.96845E+00 -3.16493E+00 -3.28999E+00 -3.34829E+00 -3.37972E+00
  -3.42839E+00 -3.51022E+00 -3.58394E+00 -3.61630E+00 -3.59848E+00 -3.51501E+00 -3.40850E+00 -3.32950E+00 -3.32457E+00 -3.41235E+00
  -3.57696E+00 -3.78106E+00 -3.96859E+00 -4.10343E+00 -4.19636E+00 -4.26382E+00 -4.31845E+00 -4.36910E+00 -4.41258E+00 -4.43322E+00
  -4.41735E+00 -4.37879E+00 -4.34764E+00 -4.33558E+00 -4.33565E+00 -4.33957E+00 -4.34373E+00 -4.34729E+00 -4.35135E+00 -4.35842E+00
  -4.37111E+00 -4.38624E+00 -4.39579E+00 -4.39963E+00 -4.40305E+00 -4.41181E+00 -4.43306E+00 -4.46733E+00 -4.51210E+00 -4.56326E+00
  -4.61705E+00 -4.67318E+00 -4.73121E+00 -4.79019E+00 -4.84429E+00 -4.88740E+00 -4.92099E+00 -4.94394E+00 -4.95272E+00 -4.94590E+00
  -4.92489E+00 -4.89091E+00 -4.84469E+00 -4.79390E+00 -4.74159E+00 -4.68465E+00 -4.61885E+00 -4.54097E+00 -4.45259E+00 -4.36400E+00
  -4.29286E+00 -4.24854E+00 -4.23278E+00 -4.24448E+00 -4.28223E+00 -4.34085E+00 -4.41168E+00 -4.48540E+00 -4.55578E+00 -4.62001E+00
  -4.68224E+00 -4.74772E+00 -4.81736E+00 -4.88732E+00 -4.94452E+00 -4.96675E+00 -4.93893E+00 -4.88724E+00 -4.82842E+00 -4.75923E+00
  -4.67464E+00 -4.57096E+00 -4.44956E+00 -4.31854E+00 -4.19226E+00 -4.08437E+00 -4.00503E+00 -3.96222E+00 -3.96118E+00 -4.00244E+00
  -4.08071E+00 -4.18679E+00 -4.31109E+00 -4.44507E+00 -4.58203E+00 -4.71819E+00 -4.85111E+00 -4.97658E+00 -5.08504E+00 -5.15795E+00
  -5.17492E+00 -5.15495E+00 -5.13578E+00 -5.12422E+00 -5.11784E+00 -5.11128E+00 -5.10000E+00 -5.08777E+00 -5.08468E+00 -5.09387E+00
  -5.11430E+00 -5.14247E+00 -5.17113E+00 -5.19498E+00 -5.21196E+00 -5.22280E+00 -5.23178E+00 -5.23977E+00 -5.24638E+00 -5.25117E+00
  -5.25431E+00 -5.25573E+00 -5.25527E+00 -5.25404E+00 -5.25329E+00 -5.25432E+00 -5.25787E+00 -5.26365E+00 -5.27112E+00 -5.27905E+00
  -5.28703E+00 -5.29493E+00 -5.30282E+00 -5.31192E+00 -5.32383E+00 -5.33687E+00 -5.34817E+00 -5.35511E+00 -5.35623E+00 -5.35377E+00
  -5.34872E+00 -5.34044E+00 -5.32846E+00 -5.31263E+00 -5.29129E+00 -5.26554E+00 -5.23781E+00 -5.21225E+00 -5.19414E+00 -5.18886E+00
  -5.19566E+00 -5.20981E+00 -5.22880E+00 -5.24647E+00 -5.24854E+00 -5.21910E+00 -5.14982E+00 -5.03953E+00 -4.90004E+00 -4.75904E+00
  -4.63051E+00 -4.52864E+00 -4.47832E+00 -4.49666E+00 -4.58390E+00 -4.71702E+00 -4.87881E+00 -5.04170E+00 -5.15901E+00 -5.19899E+00
  -5.14419E+00 -5.00390E+00 -4.80858E+00 -4.59854E+00 -4.41769E+00 -4.32047E+00 -4.34844E+00 -4.50401E+00 -4.73840E+00 -4.99498E+00
  -5.23302E+00 -5.42403E+00 -5.57443E+00 -5.71236E+00 -5.79381E+00 -5.80724E+00 -5.77733E+00 -5.69769E+00 -5.53605E+00 -5.25984E+00
  -4.93578E+00 -4.62145E+00 -4.33152E+00 -4.08054E+00 -3.91517E+00 -3.89434E+00 -4.00167E+00 -4.15023E+00 -4.29320E+00 -4.44075E+00
  -4.58534E+00 -4.71873E+00 -4.83480E+00 -4.93144E+00 -5.01502E+00 -5.08518E+00 -5.13018E+00 -5.15383E+00 -5.17315E+00 -5.18507E+00
  -5.14614E+00 -5.04417E+00 -4.88144E+00 -4.65477E+00 -4.36363E+00 -4.03329E+00 -3.70494E+00 -3.36687E+00 -3.02390E+00 -2.70006E+00
  -2.42102E+00 -2.20532E+00 -2.08180E+00 -2.07045E+00 -2.16182E+00 -2.32511E+00 -2.52039E+00 -2.72311E+00 -2.92739E+00 -3.14243E+00
  -3.38451E+00 -3.66495E+00 -3.94456E+00 -4.13272E+00 -4.20150E+00 -4.22310E+00 -4.22588E+00 -4.21459E+00 -4.20162E+00 -4.19648E+00
  -4.19044E+00 -4.18380E+00 -4.17913E+00 -4.17937E+00 -4.18799E+00 -4.20706E+00 -4.23002E+00 -4.24888E+00 -4.26214E+00 -4.27104E+00
  -4.27608E+00 -4.27761E+00 -4.27671E+00 -4.27576E+00 -4.27669E+00 -4.27829E+00 -4.27977E+00 -4.28086E+00 -4.28127E+00 -4.28072E+00
  -4.27920E+00 -4.27711E+00 -4.27462E+00 -4.27157E+00 -4.26811E+00 -4.26448E+00 -4.26068E+00 -4.25675E+00 -4.25272E+00 -4.24859E+00
  -4.24434E+00 -4.23997E+00 -4.23548E+00 -4.23092E+00 -4.22632E+00 -4.22166E+00 -4.21681E+00 -4.21168E+00 -4.20630E+00 -4.20066E+00
  -4.19478E+00 -4.18863E+00 -4.18220E+00 -4.17545E+00 -4.16834E+00 -4.16085E+00 -4.15291E+00 -4.14444E+00 -4.13530E+00 -4.12536E+00
  -4.11441E+00 -4.10215E+00 -4.08812E+00 -4.07161E+00 -4.05129E+00 -4.02429E+00 -3.98358E+00 -3.92771E+00 -3.86468E+00 -3.79298E+00
  -3.70841E+00 -3.61091E+00 -3.50835E+00 -3.41744E+00 -3.35044E+00 -3.31603E+00 -3.32598E+00 -3.38415E+00 -3.48343E+00 -3.60343E+00
  -3.71310E+00 -3.78212E+00 -3.79236E+00 -3.74256E+00 -3.64531E+00 -3.52239E+00 -3.40058E+00 -3.30209E+00 -3.23168E+00 -3.16875E+00
  -3.08112E+00 -2.98061E+00 -2.91347E+00 -2.87999E+00 -2.87656E+00 -2.91026E+00 -2.99400E+00 -3.12459E+00 -3.25148E+00 -3.33612E+00
  -3.39256E+00 -3.43198E+00 -3.46014E+00 -3.48046E+00 -3.49516E+00 -3.50569E+00 -3.51307E+00 -3.51799E+00 -3.52097E+00 -3.52237E+00
  -3.52246E+00 -3.52142E+00 -3.51942E+00 -3.51659E+00 -3.51303E+00 -3.50883E+00 -3.50404E+00 -3.49872E+00 -3.49292E+00 -3.48667E+00
  -3.48002E+00 -3.47298E+00 -3.46559E+00 -3.45786E+00 -3.44981E+00 -3.44148E+00 -3.43288E+00 -3.42403E+00 -3.41496E+00 -3.40570E+00
  -3.39626E+00 -3.38668E+00 -3.37698E+00 -3.36720E+00 -3.35736E+00 -3.34748E+00 -3.33759E+00 -3.32772E+00 -3.31787E+00 -3.30807E+00
  -3.29831E+00 -3.28862E+00 -3.27898E+00 -3.26941E+00 -3.25988E+00 -3.25040E+00 -3.24095E+00 -3.23152E+00 -3.22209E+00 -3.21267E+00
  -3.20321E+00 -3.19373E+00 -3.18420E+00 -3.17463E+00 -3.16499E+00 -3.15529E+00 -3.14551E+00 -3.13567E+00 -3.12574E+00 -3.11575E+00
  -3.10568E+00 -3.09554E+00 -3.08533E+00 -3.07505E+00 -3.06470E+00 -3.05430E+00 -3.04384E+00 -3.03332E+00 -3.02275E+00 -3.01213E+00
  -3.00146E+00 -2.99075E+00 -2.97999E+00 -2.96920E+00 -2.95837E+00 -2.94750E+00 -2.93660E+00 -2.92567E+00 -2.91471E+00 -2.90372E+00
  -2.89271E+00 -2.88167E+00 -2.87061E+00 -2.85952E+00 -2.84842E+00 -2.83729E+00 -2.82615E+00 -2.81499E+00 -2.80382E+00 -2.79264E+00
  -2.78144E+00 -2.77023E+00 -2.75902E+00 -2.74779E+00 -2.73656E+00 -2.72533E+00 -2.71409E+00 -2.70285E+00 -2.69161E+00 -2.68037E+00
  -2.66913E+00 -2.65790E+00 -2.64668E+00 -2.63547E+00 -2.62427E+00 -2.61308E+00 -2.60191E+00 -2.59076E+00 -2.57963E+00 -2.56852E+00
  -2.55745E+00 -2.54640E+00 -2.53539E+00 -2.52442E+00 -2.51350E+00 -2.50262E+00 -2.49181E+00 -2.48105E+00 -2.47036E+00 -2.45975E+00
  -2.44923E+00 -2.43879E+00 -2.42847E+00 -2.41826E+00 -2.40819E+00 -2.39826E+00 -2.38850E+00 -2.37893E+00
 NY background values follow
    -3.754E+00   -3.767E+00   -3.780E+00   -3.793E+00   -3.806E+00   -3.819E+00   -3.832E+00   -3.845E+00   -3.858E+00   -3.870E+00
    -3.883E+00   -3.895E+00   -3.908E+00   -3.920E+00   -3.933E+00   -3.945E+00   -3.957E+00   -3.969E+00   -3.981E+00   -3.993E+00
    -4.005E+00   -4.017E+00   -4.029E+00   -4.040E+00   -4.052E+00   -4.063E+00   -4.075E+00   -4.086E+00   -4.097E+00   -4.109E+00
    -4.120E+00   -4.131E+00   -4.142E+00   -4.153E+00   -4.164E+00   -4.175E+00   -4.185E+00   -4.196E+00   -4.207E+00   -4.217E+00
    -4.228E+00   -4.238E+00   -4.248E+00   -4.259E+00   -4.269E+00   -4.279E+00   -4.289E+00   -4.299E+00   -4.309E+00   -4.319E+00
    -4.328E+00   -4.338E+00   -4.348E+00   -4.357E+00   -4.366E+00   -4.376E+00   -4.385E+00   -4.394E+00   -4.404E+00   -4.413E+00
    -4.422E+00   -4.431E+00   -4.439E+00   -4.448E+00   -4.457E+00   -4.466E+00   -4.474E+00   -4.483E+00   -4.491E+00   -4.499E+00
    -4.508E+00   -4.516E+00   -4.524E+00   -4.532E+00   -4.540E+00   -4.548E+00   -4.556E+00   -4.563E+00   -4.571E+00   -4.579E+00
    -4.586E+00   -4.594E+00   -4.601E+00   -4.608E+00   -4.616E+00   -4.623E+00   -4.630E+00   -4.637E+00   -4.644E+00   -4.651E+00
    -4.658E+00   -4.664E+00   -4.671E+00   -4.678E+00   -4.684E+00   -4.691E+00   -4.697E+00   -4.703E+00   -4.709E+00   -4.716E+00
    -4.722E+00   -4.728E+00   -4.734E+00   -4.739E+00   -4.745E+00   -4.751E+00   -4.757E+00   -4.762E+00   -4.768E+00   -4.773E+00
    -4.778E+00   -4.784E+00   -4.789E+00   -4.794E+00   -4.799E+00   -4.804E+00   -4.809E+00   -4.814E+00   -4.818E+00   -4.823E+00
    -4.828E+00   -4.832E+00   -4.837E+00   -4.841E+00   -4.845E+00   -4.850E+00   -4.854E+00   -4.858E+00   -4.862E+00   -4.866E+00
    -4.870E+00   -4.874E+00   -4.877E+00   -4.881E+00   -4.885E+00   -4.888E+00   -4.892E+00   -4.895E+00   -4.898E+00   -4.902E+00
    -4.905E+00   -4.908E+00   -4.911E+00   -4.914E+00   -4.917E+00   -4.920E+00   -4.922E+00   -4.925E+00   -4.927E+00   -4.930E+00
    -4.932E+00   -4.935E+00   -4.937E+00   -4.939E+00   -4.942E+00   -4.944E+00   -4.946E+00   -4.948E+00   -4.950E+00   -4.951E+00
    -4.953E+00   -4.955E+00   -4.956E+00   -4.958E+00   -4.959E+00   -4.961E+00   -4.962E+00   -4.963E+00   -4.965E+00   -4.966E+00
    -4.967E+00   -4.968E+00   -4.969E+00   -4.969E+00   -4.970E+00   -4.971E+00   -4.971E+00   -4.972E+00   -4.973E+00   -4.973E+00
    -4.973E+00   -4.974E+00   -4.974E+00   -4.974E+00   -4.974E+00   -4.974E+00   -4.974E+00   -4.974E+00   -4.974E+00   -4.973E+00
    -4.973E+00   -4.973E+00   -4.972E+00   -4.972E+00   -4.971E+00   -4.970E+00   -4.970E+00   -4.969E+00   -4.968E+00   -4.967E+00
    -4.966E+00   -4.965E+00   -4.964E+00   -4.963E+00   -4.961E+00   -4.960E+00   -4.959E+00   -4.957E+00   -4.956E+00   -4.954E+00
    -4.952E+00   -4.951E+00   -4.949E+00   -4.947E+00   -4.945E+00   -4.943E+00   -4.941E+00   -4.939E+00   -4.937E+00   -4.935E+00
    -4.932E+00   -4.930E+00   -4.927E+00   -4.925E+00   -4.922E+00   -4.920E+00   -4.917E+00   -4.914E+00   -4.912E+00   -4.909E+00
    -4.906E+00   -4.903E+00   -4.900E+00   -4.897E+00   -4.893E+00   -4.890E+00   -4.887E+00   -4.883E+00   -4.880E+00   -4.877E+00
    -4.873E+00   -4.869E+00   -4.866E+00   -4.862E+00   -4.858E+00   -4.854E+00   -4.850E+00   -4.846E+00   -4.842E+00   -4.838E+00
    -4.834E+00   -4.830E+00   -4.826E+00   -4.821E+00   -4.817E+00   -4.812E+00   -4.808E+00   -4.803E+00   -4.799E+00   -4.794E+00
    -4.789E+00   -4.784E+00   -4.780E+00   -4.775E+00   -4.770E+00   -4.765E+00   -4.759E+00   -4.754E+00   -4.749E+00   -4.744E+00
    -4.739E+00   -4.733E+00   -4.728E+00   -4.722E+00   -4.717E+00   -4.711E+00   -4.705E+00   -4.700E+00   -4.694E+00   -4.688E+00
    -4.682E+00   -4.676E+00   -4.670E+00   -4.664E+00   -4.658E+00   -4.652E+00   -4.646E+00   -4.640E+00   -4.633E+00   -4.627E+00
    -4.621E+00   -4.614E+00   -4.608E+00   -4.601E+00   -4.594E+00   -4.588E+00   -4.581E+00   -4.574E+00   -4.567E+00   -4.560E+00
    -4.553E+00   -4.546E+00   -4.539E+00   -4.532E+00   -4.525E+00   -4.518E+00   -4.511E+00   -4.504E+00   -4.496E+00   -4.489E+00
    -4.481E+00   -4.474E+00   -4.466E+00   -4.459E+00   -4.451E+00   -4.443E+00   -4.436E+00   -4.428E+00   -4.420E+00   -4.412E+00
    -4.404E+00   -4.396E+00   -4.388E+00   -4.380E+00   -4.372E+00   -4.364E+00   -4.356E+00   -4.348E+00   -4.339E+00   -4.331E+00
    -4.323E+00   -4.314E+00   -4.306E+00   -4.297E+00   -4.289E+00   -4.280E+00   -4.271E+00   -4.263E+00   -4.254E+00   -4.245E+00
    -4.236E+00   -4.228E+00   -4.219E+00   -4.210E+00   -4.201E+00   -4.192E+00   -4.183E+00   -4.174E+00   -4.164E+00   -4.155E+00
    -4.146E+00   -4.137E+00   -4.127E+00   -4.118E+00   -4.109E+00   -4.099E+00   -4.090E+00   -4.080E+00   -4.071E+00   -4.061E+00
    -4.051E+00   -4.042E+00   -4.032E+00   -4.022E+00   -4.012E+00   -4.003E+00   -3.993E+00   -3.983E+00   -3.973E+00   -3.963E+00
    -3.953E+00   -3.943E+00   -3.933E+00   -3.923E+00   -3.913E+00   -3.902E+00   -3.892E+00   -3.882E+00   -3.872E+00   -3.861E+00
    -3.851E+00   -3.840E+00   -3.830E+00   -3.820E+00   -3.809E+00   -3.798E+00   -3.788E+00   -3.777E+00   -3.767E+00   -3.756E+00
    -3.745E+00   -3.735E+00   -3.724E+00   -3.713E+00   -3.702E+00   -3.691E+00   -3.680E+00   -3.670E+00   -3.659E+00   -3.648E+00
    -3.637E+00   -3.626E+00   -3.614E+00   -3.603E+00   -3.592E+00   -3.581E+00   -3.570E+00   -3.559E+00   -3.547E+00   -3.536E+00
    -3.525E+00   -3.514E+00   -3.502E+00   -3.491E+00   -3.479E+00   -3.468E+00   -3.457E+00   -3.445E+00   -3.434E+00   -3.422E+00
    -3.410E+00   -3.399E+00   -3.387E+00   -3.376E+00   -3.364E+00   -3.352E+00   -3.341E+00   -3.329E+00   -3.317E+00   -3.305E+00
    -3.293E+00   -3.282E+00   -3.270E+00   -3.258E+00   -3.246E+00   -3.234E+00   -3.222E+00   -3.210E+00   -3.198E+00   -3.186E+00
    -3.174E+00   -3.162E+00   -3.150E+00   -3.138E+00   -3.126E+00   -3.114E+00   -3.102E+00   -3.089E+00   -3.077E+00   -3.065E+00
    -3.053E+00   -3.041E+00   -3.028E+00   -3.016E+00   -3.004E+00   -2.992E+00   -2.979E+00   -2.967E+00   -2.955E+00   -2.942E+00
    -2.930E+00   -2.917E+00   -2.905E+00   -2.892E+00   -2.880E+00   -2.868E+00   -2.855E+00   -2.843E+00   -2.830E+00   -2.818E+00
    -2.805E+00   -2.792E+00   -2.780E+00   -2.767E+00   -2.755E+00   -2.742E+00   -2.729E+00   -2.717E+00   -2.704E+00   -2.692E+00
    -2.679E+00   -2.666E+00   -2.654E+00   -2.641E+00   -2.628E+00   -2.615E+00   -2.603E+00   -2.590E+00   -2.577E+00   -2.564E+00
    -2.552E+00   -2.539E+00   -2.526E+00   -2.513E+00   -2.500E+00   -2.488E+00   -2.475E+00   -2.462E+00
 Asp      Conc. = 1.17E+01
