 LCModel (Version 6.3-1L) Copyright: S.W. Provencher.          Ref.: Magn. Reson. Med. 30:672-679 (1993).                
 Slice#2 Row#7 Col#4  PD_24_press_1_raw_act
 36 lines in following concentration table = NCONC+1
    Conc.  %SD /Cr+PCr  Metabolite                                         
    0.000 999%   0.000 Ala                                                 
    0.000 999%   0.000 Asp                                                 
  467.440  76%   0.262 Cr                                                  
 1.31E+03  28%   0.738 PCr                                                 
   64.873 317% 3.6E-02 GABA                                                
    0.000 999%   0.000 Glc                                                 
 1.18E+03  35%   0.661 Gln                                                 
 1.90E+03  25%   1.063 Glu                                                 
  645.469   4%   0.362 GPC                                                 
    0.000 999%   0.000 PCh                                                 
  276.775  34%   0.155 GSH                                                 
    0.000 999%   0.000 Ins                                                 
    0.000 999%   0.000 Lac                                                 
 2.52E+03   9%   1.415 NAA                                                 
  673.410  34%   0.378 NAAG                                                
   32.618 104% 1.8E-02 Scyllo                                              
    0.000 999%   0.000 Tau                                                 
    0.000 999%   0.000 -CrCH2                                              
  645.469   4%   0.362 GPC+PCh                                             
 3.19E+03   3%   1.792 NAA+NAAG                                            
 1.78E+03   4%   1.000 Cr+PCr                                              
 3.07E+03  24%   1.725 Glu+Gln                                             
    0.000 999%   0.000 Lip13a                                              
   86.141 122% 4.8E-02 Lip13b                                              
   16.844 224% 9.5E-03 Lip09                                               
 1.23E+03  18%   0.688 MM09                                                
   14.962 158% 8.4E-03 Lip20                                               
 2.64E+03  14%   1.481 MM20                                                
  333.396  33%   0.187 MM12                                                
  342.367  80%   0.192 MM14                                                
 1.04E+03  13%   0.585 MM17                                                
   86.141 122% 4.8E-02 Lip13a+Lip13b                                       
  761.904  45%   0.428 MM14+Lip13a+Lip13b+MM12                             
 1.24E+03  18%   0.697 MM09+Lip09                                          
 2.66E+03  14%   1.490 MM20+Lip20                                          
   6 lines in following misc. output table
  FWHM = 0.069 ppm    S/N =  11                                            
  Data shift = 0.000 ppm                                                   
  Ph: -33 deg      -2.8 deg/ppm                                            
  alphaB,S = 5.4E-01,   2.7E+02                                            
   14 spline knots.   Ns = 9(1)                                            
  ( 5) 2 infls.   ( 1) 1 extrs.                                            
  498 points on ppm-axis = NY
      4.000000     3.992357     3.984714     3.977070     3.969427     3.961784     3.954141     3.946497     3.938854     3.931211
      3.923568     3.915925     3.908281     3.900638     3.892995     3.885352     3.877708     3.870065     3.862422     3.854779
      3.847136     3.839492     3.831849     3.824206     3.816563     3.808919     3.801276     3.793633     3.785990     3.778347
      3.770703     3.763060     3.755417     3.747774     3.740130     3.732487     3.724844     3.717201     3.709558     3.701914
      3.694271     3.686628     3.678985     3.671341     3.663698     3.656055     3.648412     3.640769     3.633125     3.625482
      3.617839     3.610196     3.602552     3.594909     3.587266     3.579623     3.571980     3.564336     3.556693     3.549050
      3.541407     3.533763     3.526120     3.518477     3.510834     3.503191     3.495547     3.487904     3.480261     3.472618
      3.464974     3.457331     3.449688     3.442045     3.434402     3.426758     3.419115     3.411472     3.403829     3.396185
      3.388542     3.380899     3.373256     3.365613     3.357969     3.350326     3.342683     3.335040     3.327396     3.319753
      3.312110     3.304467     3.296824     3.289180     3.281537     3.273894     3.266251     3.258607     3.250964     3.243321
      3.235678     3.228034     3.220391     3.212748     3.205105     3.197462     3.189818     3.182175     3.174532     3.166889
      3.159245     3.151602     3.143959     3.136316     3.128673     3.121029     3.113386     3.105743     3.098100     3.090456
      3.082813     3.075170     3.067527     3.059884     3.052240     3.044597     3.036954     3.029311     3.021667     3.014024
      3.006381     2.998738     2.991095     2.983451     2.975808     2.968165     2.960522     2.952878     2.945235     2.937592
      2.929949     2.922306     2.914662     2.907019     2.899376     2.891733     2.884089     2.876446     2.868803     2.861160
      2.853517     2.845873     2.838230     2.830587     2.822944     2.815300     2.807657     2.800014     2.792371     2.784728
      2.777084     2.769441     2.761798     2.754155     2.746511     2.738868     2.731225     2.723582     2.715939     2.708295
      2.700652     2.693009     2.685366     2.677722     2.670079     2.662436     2.654793     2.647150     2.639506     2.631863
      2.624220     2.616577     2.608933     2.601290     2.593647     2.586004     2.578361     2.570717     2.563074     2.555431
      2.547788     2.540144     2.532501     2.524858     2.517215     2.509572     2.501928     2.494285     2.486642     2.478999
      2.471355     2.463712     2.456069     2.448426     2.440783     2.433139     2.425496     2.417853     2.410210     2.402566
      2.394923     2.387280     2.379637     2.371994     2.364350     2.356707     2.349064     2.341421     2.333777     2.326134
      2.318491     2.310848     2.303205     2.295561     2.287918     2.280275     2.272632     2.264988     2.257345     2.249702
      2.242059     2.234416     2.226772     2.219129     2.211486     2.203843     2.196199     2.188556     2.180913     2.173270
      2.165627     2.157983     2.150340     2.142697     2.135054     2.127410     2.119767     2.112124     2.104481     2.096838
      2.089194     2.081551     2.073908     2.066265     2.058621     2.050978     2.043335     2.035692     2.028049     2.020405
      2.012762     2.005119     1.997476     1.989833     1.982190     1.974546     1.966903     1.959260     1.951617     1.943974
      1.936331     1.928688     1.921045     1.913402     1.905759     1.898115     1.890472     1.882829     1.875186     1.867543
      1.859900     1.852257     1.844614     1.836971     1.829327     1.821684     1.814041     1.806398     1.798755     1.791112
      1.783469     1.775826     1.768183     1.760540     1.752896     1.745253     1.737610     1.729967     1.722324     1.714681
      1.707038     1.699395     1.691752     1.684108     1.676465     1.668822     1.661179     1.653536     1.645893     1.638250
      1.630607     1.622964     1.615321     1.607677     1.600034     1.592391     1.584748     1.577105     1.569462     1.561819
      1.554176     1.546533     1.538890     1.531246     1.523603     1.515960     1.508317     1.500674     1.493031     1.485388
      1.477745     1.470102     1.462458     1.454815     1.447172     1.439529     1.431886     1.424243     1.416600     1.408957
      1.401314     1.393671     1.386027     1.378384     1.370741     1.363098     1.355455     1.347812     1.340169     1.332526
      1.324883     1.317240     1.309596     1.301953     1.294310     1.286667     1.279024     1.271381     1.263738     1.256095
      1.248452     1.240808     1.233165     1.225522     1.217879     1.210236     1.202593     1.194950     1.187307     1.179664
      1.172021     1.164377     1.156734     1.149091     1.141448     1.133805     1.126162     1.118519     1.110876     1.103233
      1.095590     1.087946     1.080303     1.072660     1.065017     1.057374     1.049731     1.042088     1.034445     1.026802
      1.019158     1.011515     1.003872     0.996229     0.988586     0.980943     0.973300     0.965657     0.958014     0.950371
      0.942727     0.935084     0.927441     0.919798     0.912155     0.904512     0.896869     0.889226     0.881583     0.873940
      0.866296     0.858653     0.851010     0.843367     0.835724     0.828081     0.820438     0.812795     0.805152     0.797508
      0.789865     0.782222     0.774579     0.766936     0.759293     0.751650     0.744007     0.736364     0.728721     0.721077
      0.713434     0.705791     0.698148     0.690505     0.682862     0.675219     0.667576     0.659933     0.652290     0.644646
      0.637003     0.629360     0.621717     0.614074     0.606431     0.598788     0.591145     0.583502     0.575858     0.568215
      0.560572     0.552929     0.545286     0.537643     0.530000     0.522357     0.514714     0.507071     0.499427     0.491784
      0.484141     0.476498     0.468855     0.461212     0.453569     0.445925     0.438282     0.430639     0.422996     0.415353
      0.407710     0.400067     0.392424     0.384780     0.377137     0.369494     0.361851     0.354208     0.346565     0.338922
      0.331278     0.323635     0.315992     0.308349     0.300706     0.293063     0.285420     0.277777     0.270133     0.262490
      0.254847     0.247204     0.239561     0.231918     0.224275     0.216631     0.208988     0.201345
 NY phased data points follow
   5.54547E+01  6.22040E+01  5.85333E+01  7.28294E+01  6.85263E+01  7.66278E+01  7.10971E+01  8.31323E+01  7.76980E+01  9.00164E+01
   8.10533E+01  8.54105E+01  7.79144E+01  7.85221E+01  7.45445E+01  6.92130E+01  6.67049E+01  6.30646E+01  5.52564E+01  5.74395E+01
   4.72374E+01  5.42569E+01  4.50143E+01  4.99497E+01  4.78018E+01  5.37595E+01  4.80605E+01  5.11243E+01  4.68516E+01  4.96773E+01
   4.93915E+01  5.41429E+01  4.16224E+01  4.62555E+01  4.49705E+01  5.42903E+01  3.91000E+01  5.03081E+01  4.00458E+01  4.28232E+01
   3.93883E+01  4.66432E+01  4.21529E+01  4.61986E+01  4.59349E+01  4.84943E+01  4.56928E+01  4.70108E+01  4.54707E+01  4.52947E+01
   4.38454E+01  4.03570E+01  3.90740E+01  3.75339E+01  3.86854E+01  4.55449E+01  3.28920E+01  4.33268E+01  2.98843E+01  3.26559E+01
   3.02355E+01  3.31549E+01  3.05211E+01  2.83645E+01  2.37816E+01  3.12545E+01  1.71289E+01  2.79604E+01  1.87393E+01  2.48010E+01
   2.26949E+01  2.50042E+01  2.77902E+01  2.45195E+01  2.21612E+01  2.31212E+01  2.44097E+01  2.77320E+01  2.40541E+01  2.35111E+01
   2.29715E+01  2.66502E+01  2.21991E+01  2.44027E+01  2.58654E+01  2.53664E+01  2.75991E+01  2.49006E+01  2.53585E+01  2.87441E+01
   2.72989E+01  3.16437E+01  2.34884E+01  3.10465E+01  2.88985E+01  3.35594E+01  3.38240E+01  3.38919E+01  3.67361E+01  4.63019E+01
   4.99212E+01  6.09664E+01  6.36841E+01  7.70267E+01  7.20919E+01  6.35597E+01  5.93249E+01  5.71591E+01  4.28311E+01  4.37857E+01
   3.47322E+01  3.35055E+01  2.93947E+01  2.77213E+01  2.67461E+01  2.79893E+01  2.33944E+01  2.67792E+01  2.65180E+01  2.97286E+01
   3.30942E+01  3.89477E+01  3.82429E+01  4.79148E+01  4.80169E+01  5.73410E+01  5.79196E+01  6.71154E+01  5.95978E+01  6.17776E+01
   4.58882E+01  4.60409E+01  3.96235E+01  3.13883E+01  2.85221E+01  2.58861E+01  2.41858E+01  2.34442E+01  2.42678E+01  2.12733E+01
   1.70647E+01  2.54033E+01  2.09270E+01  2.38333E+01  1.90286E+01  1.75181E+01  1.60133E+01  1.53557E+01  1.62164E+01  1.51342E+01
   1.70547E+01  1.87904E+01  1.67388E+01  1.67336E+01  9.60764E+00  1.44513E+01  1.71980E+01  1.38690E+01  9.45024E+00  1.17943E+01
   1.08233E+01  1.10669E+01  1.01536E+01  7.56122E+00  8.02601E+00  1.55974E+01  4.32798E+00  1.04498E+01  7.75003E+00  7.86949E+00
   7.21446E+00  8.17576E+00  5.73273E+00  5.69065E+00  2.28107E+00 -1.23992E+00  2.62051E-01  1.35324E+00  1.34891E+00  2.44663E+00
   5.44257E-01  8.30189E+00 -1.97734E+00  2.58252E-01 -8.76929E-01  3.18745E+00  2.79680E+00  1.36819E+01  8.18819E+00  1.22327E+01
   1.36644E+01  1.52601E+01  1.35885E+01  1.10050E+01  1.39157E+01  1.32800E+01  1.07569E+01  7.99450E+00  5.90040E+00  1.16571E+01
   1.31734E+01  1.22532E+01  1.00152E+01  9.19096E+00  7.59481E+00  1.09584E+01  1.19561E+01  8.14429E+00  6.79033E+00  9.43844E+00
   6.25295E+00  1.11729E+01  1.00520E+01  1.44456E+01  1.57087E+01  1.63703E+01  2.00159E+01  1.99121E+01  1.33845E+01  1.39211E+01
   1.41176E+01  1.19110E+01  8.67003E+00  9.78865E+00  1.01277E+01  8.13384E+00  1.46072E+01  1.75836E+01  1.43042E+01  1.59992E+01
   1.34994E+01  1.40513E+01  1.27279E+01  1.82645E+01  1.98127E+01  2.37738E+01  1.22730E+01  1.46242E+01  1.21842E+01  1.82651E+01
   1.99605E+01  1.90892E+01  1.17166E+01  1.24794E+01  1.51435E+01  1.67660E+01  1.86761E+01  1.98695E+01  2.90803E+01  2.38209E+01
   2.95829E+01  3.28974E+01  3.54976E+01  4.34156E+01  4.96293E+01  6.22064E+01  6.45718E+01  7.48364E+01  8.41532E+01  9.11677E+01
   9.72304E+01  9.13032E+01  8.20852E+01  7.39885E+01  5.83784E+01  5.29363E+01  4.29049E+01  3.24326E+01  2.57081E+01  2.31503E+01
   1.88354E+01  1.91183E+01  1.69259E+01  1.90598E+01  1.17551E+01  1.54982E+01  1.13828E+01  1.30669E+01  1.00258E+01  1.13802E+01
   8.83782E+00  1.48643E+01  4.81767E+00  1.22025E+01  1.00505E+01  9.09789E+00  1.08578E+01  1.13430E+01  5.85616E+00  1.03804E+01
   1.18904E+01  1.28416E+01  8.59433E+00  9.06205E+00  6.94294E+00  8.46648E+00  1.23729E+01  6.48378E+00  5.83134E+00  8.76541E+00
   9.04458E+00  1.03759E+01  1.01339E+01  1.45130E+01  1.68582E+01  1.96696E+01  1.19831E+01  2.09351E+01  1.39411E+01  1.63226E+01
   1.70606E+01  2.03230E+01  1.37444E+01  1.52113E+01  1.27426E+01  1.38421E+01  1.26392E+01  1.24320E+01  8.88522E+00  1.23140E+01
   1.24884E+01  1.14393E+01  6.78852E+00  8.22103E+00  9.08743E+00  8.03384E+00  4.44244E+00  4.72455E+00  8.40154E+00  1.10215E+01
   7.26182E+00  7.46690E+00  4.09057E+00  7.00773E+00  4.26972E+00  4.86260E+00  4.66255E+00  1.99616E+00  2.12238E+00  4.35864E+00
   2.40488E+00  3.72134E+00  6.93925E+00  3.05161E+00  1.04709E+01 -1.41194E-01  3.43649E+00  3.51314E+00  5.43501E+00  5.16780E+00
   8.92774E+00  8.13259E+00  4.62251E+00  6.34884E+00  6.17367E+00  4.04254E+00  3.84788E+00  1.07268E+01  6.64290E+00  5.92913E+00
   4.82937E+00  5.57403E+00  6.22619E+00  4.46197E+00  4.66223E+00  1.18965E+00  4.20038E+00  5.90388E+00  5.19978E+00  5.84592E+00
   2.47573E+00  4.38161E+00  2.51772E-01  1.76158E+00  3.89079E+00  5.74578E+00  5.99262E+00  4.75500E+00  6.86900E+00  7.01109E+00
   3.85664E+00  2.78835E+00  1.80135E+00  6.59565E+00  4.84662E-01  6.83139E+00  1.34636E+00  6.35155E+00  1.64212E+00  4.45188E+00
   5.78783E+00  5.14170E+00  6.91581E+00  6.14170E+00  8.24813E+00  8.38816E+00  9.91999E+00  1.26835E+01  8.61267E+00  1.84895E+01
   6.68080E+00  1.15117E+01  5.93266E+00  1.04418E+01  1.13595E+01  9.03420E+00  7.85359E+00  1.45745E+01  8.60242E+00  9.97834E+00
   5.83690E+00  5.12757E+00  1.08550E+01  9.29058E+00  1.76858E+00  1.02800E+01  8.61702E+00  9.42704E+00  4.07649E+00  1.00831E+01
   5.56510E+00  7.52896E+00  5.99098E+00  8.23164E+00  8.10816E+00  5.25586E+00  3.35997E+00  4.52180E+00  2.19457E+00  7.36423E+00
   6.08665E-01  4.19536E+00  4.72428E+00  4.17622E+00  8.61899E+00  5.84828E+00  5.34127E+00  6.12293E+00  6.18979E+00  1.11681E+01
   2.35439E+00  3.62938E+00  4.69672E+00  3.57068E+00  4.78454E+00  6.50523E+00  4.89326E+00  7.62167E+00  8.32780E+00  2.91246E+00
   4.12450E+00  4.96750E+00  6.41461E+00  3.58395E+00  5.59721E+00  4.66981E+00  3.52780E+00  9.68461E+00  1.09836E+00  5.36828E+00
   8.97069E+00  5.87719E+00  4.17502E+00  1.82875E+00  6.98390E+00  6.05591E+00  3.21532E+00  3.81134E+00  7.73524E+00  3.12994E-01
   8.57494E+00  1.76231E+00  9.11151E+00  5.75562E+00  2.61079E+00  2.85286E+00  7.61394E+00  6.92817E+00  2.82812E+00  5.97079E+00
   6.16566E+00  8.11074E+00  5.46325E+00  1.80352E+00  8.07750E+00  5.41891E+00  3.86879E+00  7.78501E+00  6.39654E+00  6.76924E+00
   3.10940E+00  5.08890E+00  3.06545E+00  7.55582E+00  3.03799E-01  7.54645E+00  9.01809E+00  5.63477E+00
 NY points of the fit to the data follow
   5.64432E+01  5.83104E+01  6.06320E+01  6.34092E+01  6.65971E+01  7.02033E+01  7.41278E+01  7.79908E+01  8.11482E+01  8.29059E+01
   8.28651E+01  8.11064E+01  7.80395E+01  7.42288E+01  7.01945E+01  6.63001E+01  6.27409E+01  5.95039E+01  5.65899E+01  5.41308E+01
   5.23453E+01  5.10712E+01  5.02124E+01  4.96852E+01  4.93228E+01  4.90720E+01  4.89813E+01  4.90857E+01  4.94231E+01  4.99496E+01
   5.04976E+01  5.08693E+01  5.08257E+01  5.02072E+01  4.90894E+01  4.76851E+01  4.62246E+01  4.49695E+01  4.41124E+01  4.35561E+01
   4.31844E+01  4.29938E+01  4.28948E+01  4.28077E+01  4.26580E+01  4.24198E+01  4.20992E+01  4.16708E+01  4.11507E+01  4.05772E+01
   3.99902E+01  3.94225E+01  3.88298E+01  3.81818E+01  3.75195E+01  3.68582E+01  3.61686E+01  3.54851E+01  3.48469E+01  3.42263E+01
   3.36130E+01  3.30443E+01  3.25388E+01  3.20794E+01  3.16528E+01  3.12489E+01  3.08687E+01  3.05105E+01  3.01668E+01  2.98340E+01
   2.95106E+01  2.91959E+01  2.88890E+01  2.85889E+01  2.82956E+01  2.80108E+01  2.77413E+01  2.75184E+01  2.73596E+01  2.72313E+01
   2.71176E+01  2.70230E+01  2.69574E+01  2.69256E+01  2.69141E+01  2.68858E+01  2.67912E+01  2.65944E+01  2.62969E+01  2.59352E+01
   2.55600E+01  2.52247E+01  2.49980E+01  2.51014E+01  2.64581E+01  2.95464E+01  3.34134E+01  3.76269E+01  4.23091E+01  4.76976E+01
   5.38943E+01  6.04769E+01  6.63282E+01  6.99608E+01  7.02733E+01  6.72356E+01  6.17851E+01  5.51519E+01  4.83679E+01  4.20443E+01
   3.64713E+01  3.17072E+01  2.76270E+01  2.42810E+01  2.22734E+01  2.16523E+01  2.16360E+01  2.25048E+01  2.49905E+01  2.84938E+01
   3.23804E+01  3.66255E+01  4.14511E+01  4.70319E+01  5.31763E+01  5.90615E+01  6.33498E+01  6.48289E+01  6.31154E+01  5.88165E+01
   5.30180E+01  4.67432E+01  4.06584E+01  3.50977E+01  3.01791E+01  2.58700E+01  2.21919E+01  1.95851E+01  1.84299E+01  1.80110E+01
   1.78155E+01  1.76794E+01  1.75214E+01  1.73116E+01  1.70631E+01  1.67790E+01  1.64450E+01  1.60820E+01  1.57084E+01  1.53345E+01
   1.49810E+01  1.46309E+01  1.42373E+01  1.38308E+01  1.34598E+01  1.31593E+01  1.29411E+01  1.27154E+01  1.24005E+01  1.19980E+01
   1.15667E+01  1.11783E+01  1.08883E+01  1.06825E+01  1.04726E+01  1.01583E+01  9.68748E+00  9.07390E+00  8.41969E+00  7.86776E+00
   7.45493E+00  7.10688E+00  6.69468E+00  6.22108E+00  5.77755E+00  5.48234E+00  5.39448E+00  5.43267E+00  5.47505E+00  5.51255E+00
   5.59841E+00  5.77741E+00  6.09913E+00  6.57487E+00  7.15389E+00  7.78906E+00  8.48069E+00  9.20794E+00  9.97690E+00  1.07035E+01
   1.12767E+01  1.16293E+01  1.17408E+01  1.16781E+01  1.15626E+01  1.15540E+01  1.17385E+01  1.21239E+01  1.26664E+01  1.33147E+01
   1.39306E+01  1.42827E+01  1.43631E+01  1.41203E+01  1.33760E+01  1.21155E+01  1.05195E+01  8.94548E+00  7.72807E+00  6.99887E+00
   6.94619E+00  7.65155E+00  8.99166E+00  1.06351E+01  1.21801E+01  1.33656E+01  1.39930E+01  1.38560E+01  1.29661E+01  1.15435E+01
   9.89624E+00  8.39403E+00  7.49525E+00  7.40982E+00  8.07745E+00  9.27744E+00  1.06838E+01  1.20694E+01  1.33024E+01  1.42350E+01
   1.48800E+01  1.53421E+01  1.57086E+01  1.59144E+01  1.59220E+01  1.59342E+01  1.61145E+01  1.63935E+01  1.66085E+01  1.66385E+01
   1.64425E+01  1.60872E+01  1.56988E+01  1.54503E+01  1.55233E+01  1.59635E+01  1.68006E+01  1.82926E+01  2.03093E+01  2.25552E+01
   2.52684E+01  2.99184E+01  3.69778E+01  4.50356E+01  5.32554E+01  6.14009E+01  6.93914E+01  7.71381E+01  8.42480E+01  8.96407E+01
   9.17682E+01  8.95287E+01  8.31228E+01  7.38707E+01  6.33746E+01  5.29225E+01  4.33869E+01  3.53481E+01  2.86458E+01  2.28665E+01
   1.80975E+01  1.52233E+01  1.40512E+01  1.34034E+01  1.29221E+01  1.25124E+01  1.21177E+01  1.17034E+01  1.12905E+01  1.08919E+01
   1.05156E+01  1.01689E+01  9.85668E+00  9.57800E+00  9.33139E+00  9.12102E+00  8.94773E+00  8.80644E+00  8.69519E+00  8.62259E+00
   8.59804E+00  8.62733E+00  8.70870E+00  8.84269E+00  9.03250E+00  9.27866E+00  9.57935E+00  9.93685E+00  1.03513E+01  1.08204E+01
   1.13370E+01  1.18868E+01  1.24513E+01  1.30129E+01  1.35489E+01  1.40350E+01  1.44487E+01  1.47711E+01  1.49869E+01  1.50843E+01
   1.50552E+01  1.49004E+01  1.46259E+01  1.42422E+01  1.37640E+01  1.32095E+01  1.25988E+01  1.19528E+01  1.12923E+01  1.06364E+01
   1.00023E+01  9.40380E+00  8.85152E+00  8.35264E+00  7.91095E+00  7.52714E+00  7.19937E+00  6.92382E+00  6.69521E+00  6.50738E+00
   6.35381E+00  6.22800E+00  6.12376E+00  6.03552E+00  5.95843E+00  5.88850E+00  5.82260E+00  5.75848E+00  5.69471E+00  5.63074E+00
   5.56688E+00  5.50434E+00  5.44527E+00  5.39277E+00  5.35086E+00  5.32417E+00  5.31760E+00  5.33547E+00  5.38062E+00  5.45329E+00
   5.55023E+00  5.66422E+00  5.78437E+00  5.89715E+00  5.98830E+00  6.04512E+00  6.05871E+00  6.02555E+00  5.94801E+00  5.83376E+00
   5.69408E+00  5.54172E+00  5.38873E+00  5.24472E+00  5.11600E+00  5.00545E+00  4.91310E+00  4.83703E+00  4.77440E+00  4.72230E+00
   4.67833E+00  4.64092E+00  4.60940E+00  4.58393E+00  4.56540E+00  4.55519E+00  4.55503E+00  4.56689E+00  4.59288E+00  4.63518E+00
   4.69599E+00  4.77748E+00  4.88172E+00  5.01068E+00  5.16610E+00  5.34947E+00  5.56192E+00  5.80407E+00  6.07596E+00  6.37691E+00
   6.70538E+00  7.05891E+00  7.43398E+00  7.82600E+00  8.22931E+00  8.63724E+00  9.04223E+00  9.43604E+00  9.81002E+00  1.01554E+01
   1.04635E+01  1.07266E+01  1.09375E+01  1.10905E+01  1.11817E+01  1.12085E+01  1.11707E+01  1.10696E+01  1.09085E+01  1.06924E+01
   1.04276E+01  1.01215E+01  9.78211E+00  9.41797E+00  9.03751E+00  8.64884E+00  8.25947E+00  7.87610E+00  7.50444E+00  7.14918E+00
   6.81394E+00  6.50129E+00  6.21285E+00  5.94941E+00  5.71103E+00  5.49718E+00  5.30689E+00  5.13885E+00  4.99154E+00  4.86332E+00
   4.75252E+00  4.65747E+00  4.57660E+00  4.50838E+00  4.45143E+00  4.40450E+00  4.36644E+00  4.33623E+00  4.31298E+00  4.29588E+00
   4.28422E+00  4.27741E+00  4.27489E+00  4.27620E+00  4.28091E+00  4.28865E+00  4.29911E+00  4.31200E+00  4.32706E+00  4.34406E+00
   4.36281E+00  4.38312E+00  4.40482E+00  4.42779E+00  4.45190E+00  4.47706E+00  4.50318E+00  4.53019E+00  4.55801E+00  4.58658E+00
   4.61585E+00  4.64575E+00  4.67625E+00  4.70730E+00  4.73887E+00  4.77092E+00  4.80341E+00  4.83631E+00  4.86961E+00  4.90326E+00
   4.93727E+00  4.97160E+00  5.00623E+00  5.04114E+00  5.07633E+00  5.11177E+00  5.14747E+00  5.18339E+00  5.21953E+00  5.25587E+00
   5.29241E+00  5.32915E+00  5.36606E+00  5.40315E+00  5.44040E+00  5.47781E+00  5.51538E+00  5.55311E+00  5.59097E+00  5.62898E+00
   5.66713E+00  5.70541E+00  5.74383E+00  5.78238E+00  5.82107E+00  5.85989E+00  5.89884E+00  5.93794E+00
 NY background values follow
     5.265E+01    5.229E+01    5.193E+01    5.157E+01    5.122E+01    5.086E+01    5.050E+01    5.014E+01    4.979E+01    4.943E+01
     4.907E+01    4.871E+01    4.835E+01    4.800E+01    4.764E+01    4.728E+01    4.693E+01    4.657E+01    4.622E+01    4.586E+01
     4.551E+01    4.515E+01    4.480E+01    4.445E+01    4.409E+01    4.374E+01    4.339E+01    4.304E+01    4.269E+01    4.234E+01
     4.199E+01    4.165E+01    4.130E+01    4.096E+01    4.061E+01    4.027E+01    3.993E+01    3.959E+01    3.925E+01    3.891E+01
     3.858E+01    3.824E+01    3.791E+01    3.758E+01    3.725E+01    3.692E+01    3.659E+01    3.626E+01    3.594E+01    3.562E+01
     3.530E+01    3.498E+01    3.466E+01    3.434E+01    3.403E+01    3.371E+01    3.340E+01    3.310E+01    3.279E+01    3.248E+01
     3.218E+01    3.188E+01    3.158E+01    3.128E+01    3.098E+01    3.069E+01    3.040E+01    3.011E+01    2.982E+01    2.954E+01
     2.925E+01    2.897E+01    2.869E+01    2.841E+01    2.814E+01    2.787E+01    2.760E+01    2.733E+01    2.706E+01    2.680E+01
     2.654E+01    2.628E+01    2.602E+01    2.577E+01    2.552E+01    2.527E+01    2.502E+01    2.477E+01    2.453E+01    2.429E+01
     2.406E+01    2.382E+01    2.359E+01    2.336E+01    2.313E+01    2.291E+01    2.269E+01    2.247E+01    2.225E+01    2.203E+01
     2.182E+01    2.161E+01    2.140E+01    2.120E+01    2.100E+01    2.079E+01    2.059E+01    2.040E+01    2.020E+01    2.001E+01
     1.982E+01    1.963E+01    1.945E+01    1.926E+01    1.908E+01    1.890E+01    1.872E+01    1.854E+01    1.837E+01    1.819E+01
     1.802E+01    1.785E+01    1.769E+01    1.752E+01    1.735E+01    1.719E+01    1.703E+01    1.687E+01    1.671E+01    1.656E+01
     1.640E+01    1.625E+01    1.610E+01    1.595E+01    1.580E+01    1.565E+01    1.551E+01    1.536E+01    1.522E+01    1.508E+01
     1.494E+01    1.480E+01    1.466E+01    1.452E+01    1.439E+01    1.425E+01    1.412E+01    1.399E+01    1.386E+01    1.374E+01
     1.361E+01    1.349E+01    1.336E+01    1.324E+01    1.312E+01    1.300E+01    1.289E+01    1.277E+01    1.266E+01    1.255E+01
     1.244E+01    1.233E+01    1.222E+01    1.212E+01    1.201E+01    1.191E+01    1.181E+01    1.171E+01    1.162E+01    1.152E+01
     1.143E+01    1.134E+01    1.125E+01    1.116E+01    1.108E+01    1.099E+01    1.091E+01    1.083E+01    1.075E+01    1.067E+01
     1.060E+01    1.052E+01    1.045E+01    1.038E+01    1.032E+01    1.025E+01    1.019E+01    1.012E+01    1.006E+01    1.000E+01
     9.945E+00    9.889E+00    9.833E+00    9.780E+00    9.727E+00    9.676E+00    9.626E+00    9.577E+00    9.529E+00    9.483E+00
     9.437E+00    9.392E+00    9.349E+00    9.306E+00    9.264E+00    9.223E+00    9.183E+00    9.143E+00    9.104E+00    9.065E+00
     9.028E+00    8.990E+00    8.953E+00    8.917E+00    8.881E+00    8.845E+00    8.810E+00    8.775E+00    8.740E+00    8.705E+00
     8.670E+00    8.636E+00    8.601E+00    8.566E+00    8.532E+00    8.497E+00    8.462E+00    8.427E+00    8.391E+00    8.355E+00
     8.319E+00    8.283E+00    8.247E+00    8.210E+00    8.173E+00    8.136E+00    8.099E+00    8.061E+00    8.023E+00    7.985E+00
     7.946E+00    7.908E+00    7.869E+00    7.829E+00    7.790E+00    7.750E+00    7.709E+00    7.669E+00    7.628E+00    7.587E+00
     7.545E+00    7.503E+00    7.461E+00    7.419E+00    7.376E+00    7.332E+00    7.289E+00    7.245E+00    7.201E+00    7.156E+00
     7.111E+00    7.065E+00    7.020E+00    6.973E+00    6.927E+00    6.880E+00    6.832E+00    6.785E+00    6.736E+00    6.688E+00
     6.639E+00    6.589E+00    6.539E+00    6.489E+00    6.438E+00    6.387E+00    6.335E+00    6.283E+00    6.231E+00    6.179E+00
     6.126E+00    6.072E+00    6.019E+00    5.965E+00    5.911E+00    5.856E+00    5.802E+00    5.747E+00    5.692E+00    5.636E+00
     5.581E+00    5.525E+00    5.469E+00    5.413E+00    5.357E+00    5.301E+00    5.244E+00    5.187E+00    5.131E+00    5.074E+00
     5.017E+00    4.960E+00    4.903E+00    4.846E+00    4.789E+00    4.732E+00    4.675E+00    4.618E+00    4.561E+00    4.504E+00
     4.447E+00    4.390E+00    4.333E+00    4.277E+00    4.220E+00    4.164E+00    4.107E+00    4.051E+00    3.995E+00    3.939E+00
     3.883E+00    3.828E+00    3.773E+00    3.718E+00    3.663E+00    3.609E+00    3.555E+00    3.502E+00    3.448E+00    3.395E+00
     3.343E+00    3.291E+00    3.240E+00    3.189E+00    3.138E+00    3.088E+00    3.039E+00    2.990E+00    2.942E+00    2.894E+00
     2.847E+00    2.801E+00    2.755E+00    2.711E+00    2.666E+00    2.623E+00    2.580E+00    2.539E+00    2.498E+00    2.457E+00
     2.418E+00    2.380E+00    2.342E+00    2.306E+00    2.270E+00    2.235E+00    2.202E+00    2.169E+00    2.137E+00    2.107E+00
     2.077E+00    2.049E+00    2.022E+00    1.996E+00    1.971E+00    1.947E+00    1.924E+00    1.902E+00    1.882E+00    1.863E+00
     1.844E+00    1.827E+00    1.811E+00    1.796E+00    1.783E+00    1.770E+00    1.758E+00    1.748E+00    1.738E+00    1.730E+00
     1.723E+00    1.717E+00    1.712E+00    1.708E+00    1.705E+00    1.704E+00    1.703E+00    1.704E+00    1.705E+00    1.708E+00
     1.712E+00    1.716E+00    1.722E+00    1.729E+00    1.737E+00    1.746E+00    1.757E+00    1.768E+00    1.780E+00    1.794E+00
     1.808E+00    1.824E+00    1.840E+00    1.858E+00    1.876E+00    1.896E+00    1.917E+00    1.939E+00    1.961E+00    1.985E+00
     2.010E+00    2.036E+00    2.063E+00    2.090E+00    2.119E+00    2.148E+00    2.178E+00    2.209E+00    2.241E+00    2.274E+00
     2.307E+00    2.341E+00    2.376E+00    2.412E+00    2.448E+00    2.484E+00    2.522E+00    2.560E+00    2.598E+00    2.637E+00
     2.677E+00    2.717E+00    2.757E+00    2.798E+00    2.839E+00    2.881E+00    2.923E+00    2.965E+00    3.007E+00    3.050E+00
     3.093E+00    3.137E+00    3.180E+00    3.224E+00    3.268E+00    3.312E+00    3.356E+00    3.401E+00    3.445E+00    3.489E+00
     3.534E+00    3.578E+00    3.622E+00    3.667E+00    3.711E+00    3.755E+00    3.799E+00    3.843E+00    3.887E+00    3.931E+00
     3.975E+00    4.019E+00    4.063E+00    4.107E+00    4.150E+00    4.194E+00    4.238E+00    4.282E+00    4.325E+00    4.369E+00
     4.412E+00    4.456E+00    4.500E+00    4.543E+00    4.586E+00    4.630E+00    4.673E+00    4.717E+00    4.760E+00    4.804E+00
     4.847E+00    4.890E+00    4.934E+00    4.977E+00    5.020E+00    5.064E+00    5.107E+00    5.150E+00    5.194E+00    5.237E+00
     5.280E+00    5.324E+00    5.367E+00    5.410E+00    5.453E+00    5.497E+00    5.540E+00    5.583E+00
 Cr       Conc. = 4.67E+02
