 LCModel (Version 6.3-1L) Copyright: S.W. Provencher.          Ref.: Magn. Reson. Med. 30:672-679 (1993).                
 Slice#1 Row#11 Col#10  PD_24_press_1_raw_act
 36 lines in following concentration table = NCONC+1
    Conc.  %SD /Cr+PCr  Metabolite                                         
  159.138  69%   0.161 Ala                                                 
    0.000 999%   0.000 Asp                                                 
  502.384  42%   0.508 Cr                                                  
  487.085  44%   0.492 PCr                                                 
   10.487 999% 1.1E-02 GABA                                                
   69.917 192% 7.1E-02 Glc                                                 
  911.427  27%   0.921 Gln                                                 
 1.07E+03  26%   1.086 Glu                                                 
  498.300   4%   0.504 GPC                                                 
    0.000 999%   0.000 PCh                                                 
  337.654  20%   0.341 GSH                                                 
 1.52E+03  14%   1.538 Ins                                                 
  259.237  49%   0.262 Lac                                                 
 1.84E+03   7%   1.860 NAA                                                 
  290.408  49%   0.293 NAAG                                                
  173.378  14%   0.175 Scyllo                                              
  176.960  99%   0.179 Tau                                                 
  336.654  29%   0.340 -CrCH2                                              
  498.300   4%   0.504 GPC+PCh                                             
 2.13E+03   3%   2.154 NAA+NAAG                                            
  989.469   5%   1.000 Cr+PCr                                              
 1.99E+03  22%   2.007 Glu+Gln                                             
 1.52E+03  27%   1.536 Lip13a                                              
    0.000 999%   0.000 Lip13b                                              
  386.163  53%   0.390 Lip09                                               
  866.763  26%   0.876 MM09                                                
  288.690  50%   0.292 Lip20                                               
 1.60E+03  18%   1.616 MM20                                                
  294.071  55%   0.297 MM12                                                
  173.951 138%   0.176 MM14                                                
  283.198  48%   0.286 MM17                                                
 1.52E+03  27%   1.536 Lip13a+Lip13b                                       
 1.99E+03  14%   2.009 MM14+Lip13a+Lip13b+MM12                             
 1.25E+03  11%   1.266 MM09+Lip09                                          
 1.89E+03  15%   1.908 MM20+Lip20                                          
   6 lines in following misc. output table
  FWHM = 0.069 ppm    S/N =  11                                            
  Data shift =-0.023 ppm                                                   
  Ph: -38 deg      -6.5 deg/ppm                                            
  alphaB,S = 8.5E+01,   4.1E+02                                            
   14 spline knots.   Ns = 8(1)                                            
   2 inflections.     1 extrema                                            
  498 points on ppm-axis = NY
      4.000000     3.992357     3.984714     3.977070     3.969427     3.961784     3.954141     3.946497     3.938854     3.931211
      3.923568     3.915925     3.908281     3.900638     3.892995     3.885352     3.877708     3.870065     3.862422     3.854779
      3.847136     3.839492     3.831849     3.824206     3.816563     3.808919     3.801276     3.793633     3.785990     3.778347
      3.770703     3.763060     3.755417     3.747774     3.740130     3.732487     3.724844     3.717201     3.709558     3.701914
      3.694271     3.686628     3.678985     3.671341     3.663698     3.656055     3.648412     3.640769     3.633125     3.625482
      3.617839     3.610196     3.602552     3.594909     3.587266     3.579623     3.571980     3.564336     3.556693     3.549050
      3.541407     3.533763     3.526120     3.518477     3.510834     3.503191     3.495547     3.487904     3.480261     3.472618
      3.464974     3.457331     3.449688     3.442045     3.434402     3.426758     3.419115     3.411472     3.403829     3.396185
      3.388542     3.380899     3.373256     3.365613     3.357969     3.350326     3.342683     3.335040     3.327396     3.319753
      3.312110     3.304467     3.296824     3.289180     3.281537     3.273894     3.266251     3.258607     3.250964     3.243321
      3.235678     3.228034     3.220391     3.212748     3.205105     3.197462     3.189818     3.182175     3.174532     3.166889
      3.159245     3.151602     3.143959     3.136316     3.128673     3.121029     3.113386     3.105743     3.098100     3.090456
      3.082813     3.075170     3.067527     3.059884     3.052240     3.044597     3.036954     3.029311     3.021667     3.014024
      3.006381     2.998738     2.991095     2.983451     2.975808     2.968165     2.960522     2.952878     2.945235     2.937592
      2.929949     2.922306     2.914662     2.907019     2.899376     2.891733     2.884089     2.876446     2.868803     2.861160
      2.853517     2.845873     2.838230     2.830587     2.822944     2.815300     2.807657     2.800014     2.792371     2.784728
      2.777084     2.769441     2.761798     2.754155     2.746511     2.738868     2.731225     2.723582     2.715939     2.708295
      2.700652     2.693009     2.685366     2.677722     2.670079     2.662436     2.654793     2.647150     2.639506     2.631863
      2.624220     2.616577     2.608933     2.601290     2.593647     2.586004     2.578361     2.570717     2.563074     2.555431
      2.547788     2.540144     2.532501     2.524858     2.517215     2.509572     2.501928     2.494285     2.486642     2.478999
      2.471355     2.463712     2.456069     2.448426     2.440783     2.433139     2.425496     2.417853     2.410210     2.402566
      2.394923     2.387280     2.379637     2.371994     2.364350     2.356707     2.349064     2.341421     2.333777     2.326134
      2.318491     2.310848     2.303205     2.295561     2.287918     2.280275     2.272632     2.264988     2.257345     2.249702
      2.242059     2.234416     2.226772     2.219129     2.211486     2.203843     2.196199     2.188556     2.180913     2.173270
      2.165627     2.157983     2.150340     2.142697     2.135054     2.127410     2.119767     2.112124     2.104481     2.096838
      2.089194     2.081551     2.073908     2.066265     2.058621     2.050978     2.043335     2.035692     2.028049     2.020405
      2.012762     2.005119     1.997476     1.989833     1.982190     1.974546     1.966903     1.959260     1.951617     1.943974
      1.936331     1.928688     1.921045     1.913402     1.905759     1.898115     1.890472     1.882829     1.875186     1.867543
      1.859900     1.852257     1.844614     1.836971     1.829327     1.821684     1.814041     1.806398     1.798755     1.791112
      1.783469     1.775826     1.768183     1.760540     1.752896     1.745253     1.737610     1.729967     1.722324     1.714681
      1.707038     1.699395     1.691752     1.684108     1.676465     1.668822     1.661179     1.653536     1.645893     1.638250
      1.630607     1.622964     1.615321     1.607677     1.600034     1.592391     1.584748     1.577105     1.569462     1.561819
      1.554176     1.546533     1.538890     1.531246     1.523603     1.515960     1.508317     1.500674     1.493031     1.485388
      1.477745     1.470102     1.462458     1.454815     1.447172     1.439529     1.431886     1.424243     1.416600     1.408957
      1.401314     1.393671     1.386027     1.378384     1.370741     1.363098     1.355455     1.347812     1.340169     1.332526
      1.324883     1.317240     1.309596     1.301953     1.294310     1.286667     1.279024     1.271381     1.263738     1.256095
      1.248452     1.240808     1.233165     1.225522     1.217879     1.210236     1.202593     1.194950     1.187307     1.179664
      1.172021     1.164377     1.156734     1.149091     1.141448     1.133805     1.126162     1.118519     1.110876     1.103233
      1.095590     1.087946     1.080303     1.072660     1.065017     1.057374     1.049731     1.042088     1.034445     1.026802
      1.019158     1.011515     1.003872     0.996229     0.988586     0.980943     0.973300     0.965657     0.958014     0.950371
      0.942727     0.935084     0.927441     0.919798     0.912155     0.904512     0.896869     0.889226     0.881583     0.873940
      0.866296     0.858653     0.851010     0.843367     0.835724     0.828081     0.820438     0.812795     0.805152     0.797508
      0.789865     0.782222     0.774579     0.766936     0.759293     0.751650     0.744007     0.736364     0.728721     0.721077
      0.713434     0.705791     0.698148     0.690505     0.682862     0.675219     0.667576     0.659933     0.652290     0.644646
      0.637003     0.629360     0.621717     0.614074     0.606431     0.598788     0.591145     0.583502     0.575858     0.568215
      0.560572     0.552929     0.545286     0.537643     0.530000     0.522357     0.514714     0.507071     0.499427     0.491784
      0.484141     0.476498     0.468855     0.461212     0.453569     0.445925     0.438282     0.430639     0.422996     0.415353
      0.407710     0.400067     0.392424     0.384780     0.377137     0.369494     0.361851     0.354208     0.346565     0.338922
      0.331278     0.323635     0.315992     0.308349     0.300706     0.293063     0.285420     0.277777     0.270133     0.262490
      0.254847     0.247204     0.239561     0.231918     0.224275     0.216631     0.208988     0.201345
 NY phased data points follow
  -4.14741E+00 -2.25212E+00 -4.27383E+00 -2.19074E+00 -7.93603E-01 -3.82287E-01 -2.91229E+00  4.89663E+00 -2.79728E-01  7.84132E+00
   5.99574E+00  8.84350E+00  7.97667E+00  7.82357E+00  6.99858E+00  7.64529E+00  4.14052E-01  7.37550E-01 -4.25803E+00 -2.09562E+00
   1.18393E+00 -2.59253E-01 -2.22178E+00 -3.69331E+00 -3.02169E+00 -1.15805E+00  3.98629E-01  4.90611E+00  4.80125E-01 -1.52143E+00
  -2.63360E+00  3.23806E+00  1.66935E+00  2.21357E+00  1.03246E+00 -1.72809E-01 -3.87882E+00 -2.98699E-01 -1.66167E+00  1.00881E+00
   6.84182E-01  2.56854E+00 -3.22048E+00  3.35001E+00  4.89897E-01  5.15437E+00  4.55855E+00  7.36796E+00  3.64216E+00  6.66437E+00
   2.84681E-01  8.14577E-01  3.33655E+00  7.16764E-01  1.53882E+00 -1.93779E+00 -5.50069E+00  1.01706E+00 -3.13165E+00 -2.55126E+00
  -4.58231E-01 -2.20863E+00 -2.28007E+00 -4.32051E+00 -3.78857E+00 -5.64813E+00 -3.71117E+00 -4.68889E+00 -2.14040E+00 -1.59855E+00
  -3.56052E+00  3.36759E+00 -4.55679E+00 -2.94117E+00 -1.99750E+00 -1.56900E+00 -3.95467E+00 -1.90443E+00 -4.54166E+00 -4.90302E+00
  -6.22024E-01 -6.95382E-01 -2.45280E+00  9.32273E-01 -6.38725E-01  1.38568E+00  1.27139E-01  3.02712E+00 -1.91153E+00  2.15054E+00
   2.19456E+00  3.80563E+00  1.18316E+00  3.10601E+00 -5.45313E-01  3.63560E-01  1.30741E+00  2.06198E+00  5.42513E+00  1.35742E+01
   1.72466E+01  3.01313E+01  3.28113E+01  3.77271E+01  3.28031E+01  3.01853E+01  2.34589E+01  1.71885E+01  1.12305E+01  9.26233E+00
   6.86306E+00  3.17211E+00 -2.51695E+00 -3.62070E+00 -3.28839E+00 -1.54059E+00 -1.47752E+00 -2.37720E+00 -3.40181E+00 -4.90511E+00
  -5.92671E-01 -2.63455E+00  5.03352E-01  5.71007E+00  1.24664E+01  1.80235E+01  2.12598E+01  2.88150E+01  2.52665E+01  2.18602E+01
   1.53716E+01  1.49868E+01  9.94241E+00  6.19518E+00  3.51178E+00 -1.79352E-01  1.73414E-02 -8.30103E-01 -1.82503E+00 -6.03865E+00
  -5.58223E+00 -2.83253E+00 -3.28266E+00 -1.79824E+00 -5.24542E+00 -1.56655E+00 -2.63100E+00 -1.05835E+00 -1.16216E+00 -1.30019E+00
  -2.50226E+00 -2.01950E-01 -3.87936E+00 -1.28482E+00 -6.67852E+00 -1.43898E+00 -4.79444E+00  1.87473E+00 -5.07874E+00 -3.49792E+00
  -2.96535E+00 -4.18413E+00 -5.82849E+00 -7.99165E+00 -3.08308E+00 -3.58356E+00 -7.55879E+00 -6.60330E+00 -7.57051E+00 -1.11536E+01
  -9.85844E+00 -1.15653E+01 -1.17810E+01 -1.17018E+01 -1.42679E+01 -1.17340E+01 -1.67316E+01 -1.40649E+01 -1.37238E+01 -1.01508E+01
  -1.28962E+01 -1.04605E+01 -6.22803E+00 -6.55485E+00 -6.82661E+00 -7.78520E+00 -8.71256E+00 -6.88207E+00 -9.17184E+00 -1.05746E+01
  -7.04123E+00 -7.19834E+00 -7.73087E+00 -1.01890E+01 -8.00712E+00 -8.69960E+00 -7.61224E+00 -9.61207E+00 -1.11183E+01 -7.09333E+00
  -8.68674E+00 -1.27023E+00  6.39410E-01 -2.91421E+00 -3.58290E+00 -2.14676E+00 -1.63972E+00 -1.34843E+00 -3.92696E+00 -4.13455E+00
  -2.91031E+00 -1.60111E+00 -3.79915E+00  1.32659E+00  2.65988E+00  5.96860E+00  2.50079E+00  1.23851E+00 -8.12252E-01  3.08286E+00
  -4.12070E+00 -3.44452E+00 -3.78453E+00 -1.49589E+00  1.85914E+00  2.13276E+00  4.56979E-02  1.83603E+00 -1.54838E+00  6.65259E+00
   6.46451E+00  3.31858E+00  1.85101E+00  1.65875E+00  6.42035E+00  8.81173E-01  5.74101E+00  3.45168E+00  1.71431E-01 -2.25693E+00
   3.29555E+00 -2.18099E+00 -5.73603E+00 -3.26664E+00  7.73861E-01  3.21571E+00  9.19910E-01  1.06213E+00  2.06636E+00  7.59679E+00
   7.26728E+00  5.58881E+00  1.40172E+01  1.59213E+01  2.20031E+01  2.80626E+01  4.11205E+01  4.94949E+01  5.42378E+01  5.99597E+01
   6.09642E+01  6.23303E+01  4.81488E+01  4.18498E+01  3.02395E+01  2.32094E+01  1.98194E+01  1.53599E+01  9.47899E+00  4.05157E+00
   3.51826E+00  2.27477E+00 -2.28709E-01  2.08905E+00  7.13641E-02  3.69375E+00 -2.08965E+00 -2.01326E-01  2.96946E+00  6.96918E-02
   6.41615E-01  7.00016E-01  3.09057E+00 -2.10433E+00  3.32387E+00 -4.65300E-01 -4.77695E-01  3.09369E-01 -1.01652E+00  2.98741E+00
   4.98665E-02  5.92318E+00 -5.72655E-01 -4.58926E-01 -6.39126E-01  1.42931E-01 -5.91399E-01 -2.40246E+00 -7.88531E-01 -4.86726E+00
   2.77847E-01 -3.09164E+00 -1.84753E+00  7.28491E-01  8.08549E-01 -3.09214E-01  1.02145E+00  1.94961E+00  5.04195E+00  1.58301E+00
   2.09669E+00  2.69959E+00  1.98650E+00 -1.11747E+00  1.79235E+00 -1.39417E+00  3.18413E+00  3.11702E-01  5.05479E+00  2.44660E+00
   2.55115E-01  8.83940E-01 -1.07341E+00  1.53854E+00 -1.76852E-01 -2.79103E+00 -1.31640E+00  2.46473E+00  1.64517E+00  6.31484E-01
  -2.37760E+00  1.42405E+00 -3.61642E+00  2.09793E+00  1.31799E+00  4.70184E+00  1.83914E+00  3.59252E+00  3.09330E+00  4.06269E+00
   8.06113E+00  4.22932E+00  5.75338E+00  4.83560E+00  9.99974E+00  8.70019E+00  7.00911E+00  7.67818E+00  3.97429E+00  4.47345E+00
   6.42664E+00  3.23153E+00  5.41364E+00  4.72302E+00  6.50724E+00  2.63490E+00  5.70036E+00  5.69394E+00  4.09185E+00  6.24525E+00
   5.20647E+00  7.87542E+00  9.95420E+00  8.07883E+00  7.14184E+00  6.93986E+00  7.98297E+00  9.26769E+00  5.43715E+00  9.84842E+00
   7.81558E+00  5.38775E+00  5.34795E+00  5.00239E+00  4.79735E+00  3.36846E+00  6.21731E+00  1.52675E+00  3.76692E+00  5.43982E+00
   1.91650E+00  3.54297E+00  2.40472E+00  1.65131E+00 -2.01107E+00  4.11443E+00  3.99299E+00  1.22787E+00  1.59610E+00  3.04192E+00
   1.73145E+00  2.70972E+00  3.37902E+00  4.42564E+00  7.02756E+00  8.50594E+00  7.17078E+00  7.57405E+00  5.21930E+00  7.81240E+00
   7.74438E+00  4.33603E+00  5.40967E+00  8.99850E+00  9.13273E+00  1.38355E+01  8.29792E+00  1.11715E+01  1.17022E+01  9.57361E+00
   7.99638E+00  1.01939E+01  7.24762E+00  5.83732E+00  9.52111E+00  9.12778E+00  9.11101E+00  7.00158E+00  8.47916E+00  4.64511E+00
   3.81622E+00  3.94770E+00  5.35885E+00  5.01718E+00  6.83753E+00  5.42220E+00  5.59253E+00  3.08161E+00  4.25812E+00  1.27087E+00
   4.26355E+00  3.96525E+00  1.19264E+00  2.15271E+00  2.14224E+00  6.06311E+00  1.91029E+00 -4.07638E-01  1.16609E+00  1.38135E+00
  -1.45862E+00  3.52228E+00  4.83194E+00  3.12281E+00  2.44371E+00  7.87496E-01  5.42002E-01  2.71143E+00 -5.49250E-01  1.02563E+00
   4.06172E+00  4.13493E+00  4.70683E-01  4.51182E+00  2.24039E+00  1.35189E+00  1.02643E+00  3.28170E+00  1.15809E+00 -4.92666E-01
  -1.05284E+00  2.64637E+00  3.80699E-01  3.27878E+00  1.59879E+00  1.05016E+00 -5.03199E-01  5.36472E+00  2.06077E+00  4.44013E+00
  -4.48314E-01  2.04642E+00  9.07118E-01  9.96435E-01 -1.84650E-01  7.97174E-02  4.41049E+00 -3.79291E+00  2.16798E+00  2.29452E+00
  -1.35436E+00  1.82972E+00  2.19968E+00  3.13575E+00 -1.10371E+00 -2.03638E+00  1.30259E+00 -4.84497E-01 -3.10342E-01  3.13163E+00
   4.60688E+00  1.02973E-01  6.59003E+00  1.17195E+00  1.21050E+00  1.89673E+00  8.33894E-01  4.39223E+00
 NY points of the fit to the data follow
  -3.75388E+00 -4.25312E+00 -4.36256E+00 -4.01571E+00 -3.13964E+00 -1.73652E+00  1.02042E-01  2.19950E+00  4.32889E+00  6.23413E+00
   7.64804E+00  8.36195E+00  8.29293E+00  7.51216E+00  6.22290E+00  4.67740E+00  3.09452E+00  1.61743E+00  2.80845E-01 -9.11613E-01
  -1.91795E+00 -2.65109E+00 -2.95948E+00 -2.98979E+00 -2.75920E+00 -2.19256E+00 -1.26646E+00 -5.36204E-02  1.26796E+00  2.47447E+00
   3.33520E+00  3.68567E+00  3.49346E+00  2.81685E+00  1.80922E+00  6.78372E-01 -4.45730E-01 -1.48751E+00 -2.30990E+00 -2.63560E+00
  -2.33730E+00 -1.52763E+00 -2.69594E-01  1.28870E+00  2.90416E+00  4.27983E+00  5.14847E+00  5.34812E+00  4.84655E+00  3.75795E+00
   2.31165E+00  7.77732E-01 -5.79215E-01 -1.59568E+00 -2.25011E+00 -2.59629E+00 -2.62332E+00 -2.33247E+00 -1.89862E+00 -1.57073E+00
  -1.49039E+00 -1.65890E+00 -2.02076E+00 -2.46943E+00 -2.86460E+00 -3.10995E+00 -3.17948E+00 -3.09581E+00 -2.88697E+00 -2.57407E+00
  -2.20840E+00 -1.86300E+00 -1.60963E+00 -1.50993E+00 -1.57260E+00 -1.77289E+00 -2.06316E+00 -2.37724E+00 -2.64379E+00 -2.69679E+00
  -2.44845E+00 -1.93644E+00 -1.19256E+00 -3.17415E-01  5.47804E-01  1.25789E+00  1.67663E+00  1.69861E+00  1.32285E+00  6.43106E-01
  -1.93606E-01 -1.03026E+00 -1.77134E+00 -2.37686E+00 -2.72007E+00 -2.14984E+00 -1.71379E-02  3.72142E+00  8.87059E+00  1.49942E+01
   2.14499E+01  2.73316E+01  3.16676E+01  3.36688E+01  3.29917E+01  2.99036E+01  2.51809E+01  1.97414E+01  1.43207E+01  9.31427E+00
   4.81321E+00  8.96525E-01 -2.11279E+00 -3.73203E+00 -4.24332E+00 -4.43167E+00 -4.50984E+00 -4.50017E+00 -4.32614E+00 -3.62240E+00
  -1.92381E+00  7.80744E-01  4.39990E+00  8.74932E+00  1.34251E+01  1.78339E+01  2.13007E+01  2.32289E+01  2.32965E+01  2.15775E+01
   1.85080E+01  1.47067E+01  1.07176E+01  6.89813E+00  3.41248E+00  3.78141E-01 -1.95960E+00 -3.24356E+00 -3.54586E+00 -3.47613E+00
  -3.32434E+00 -3.18479E+00 -3.08836E+00 -3.03706E+00 -3.04894E+00 -3.13838E+00 -3.29328E+00 -3.49939E+00 -3.73198E+00 -3.95467E+00
  -4.14513E+00 -4.27713E+00 -4.36646E+00 -4.45947E+00 -4.57056E+00 -4.70503E+00 -4.85812E+00 -5.00749E+00 -5.15239E+00 -5.28050E+00
  -5.37300E+00 -5.42385E+00 -5.45537E+00 -5.50850E+00 -5.62569E+00 -5.82702E+00 -6.09745E+00 -6.40971E+00 -6.74834E+00 -7.08862E+00
  -7.42580E+00 -7.77148E+00 -8.09266E+00 -8.36465E+00 -8.54230E+00 -8.60673E+00 -8.59622E+00 -8.54175E+00 -8.47994E+00 -8.45274E+00
  -8.43662E+00 -8.36993E+00 -8.19025E+00 -7.85182E+00 -7.33845E+00 -6.67832E+00 -5.91902E+00 -5.07486E+00 -4.22155E+00 -3.50775E+00
  -3.08037E+00 -2.99187E+00 -3.17632E+00 -3.50638E+00 -3.83562E+00 -4.02856E+00 -3.98081E+00 -3.62433E+00 -2.92432E+00 -1.97243E+00
  -9.40448E-01 -6.83921E-02  3.58391E-01  2.00306E-01 -5.58269E-01 -1.84334E+00 -3.43991E+00 -5.02811E+00 -6.22949E+00 -6.77463E+00
  -6.55685E+00 -5.61653E+00 -4.16578E+00 -2.53873E+00 -1.12729E+00 -2.37979E-01  2.58678E-03 -3.75219E-01 -1.22117E+00 -2.30521E+00
  -3.34566E+00 -4.00190E+00 -4.13280E+00 -3.79871E+00 -3.08970E+00 -2.13782E+00 -1.10708E+00 -2.31807E-01  3.67941E-01  7.47499E-01
   9.81689E-01  1.10522E+00  1.15396E+00  1.23629E+00  1.42463E+00  1.66124E+00  1.87560E+00  2.02461E+00  2.05166E+00  1.93002E+00
   1.68490E+00  1.36461E+00  1.07171E+00  9.16222E-01  9.39908E-01  1.12601E+00  1.45451E+00  1.99637E+00  2.87790E+00  4.13230E+00
   5.75262E+00  7.94377E+00  1.15664E+01  1.69155E+01  2.37058E+01  3.16244E+01  4.00924E+01  4.81694E+01  5.47308E+01  5.87124E+01
   5.93603E+01  5.65187E+01  5.07637E+01  4.32111E+01  3.50758E+01  2.73193E+01  2.04179E+01  1.43269E+01  9.07885E+00  5.19087E+00
   3.26567E+00  2.54462E+00  2.14047E+00  1.85310E+00  1.62003E+00  1.39822E+00  1.17375E+00  9.54909E-01  7.46312E-01  5.54141E-01
   3.81639E-01  2.28931E-01  9.54967E-02 -1.56866E-02 -1.02466E-01 -1.68927E-01 -2.20817E-01 -2.60209E-01 -2.83909E-01 -2.89246E-01
  -2.77987E-01 -2.53246E-01 -2.15983E-01 -1.67729E-01 -1.11887E-01 -5.18970E-02  1.16166E-02  7.85792E-02  1.48748E-01  2.21883E-01
   2.96701E-01  3.71743E-01  4.46333E-01  5.17895E-01  5.83118E-01  6.39885E-01  6.86906E-01  7.23563E-01  7.49252E-01  7.64022E-01
   7.69898E-01  7.69583E-01  7.65606E-01  7.61145E-01  7.59542E-01  7.64929E-01  7.82512E-01  8.20022E-01  8.91806E-01  1.02294E+00
   1.20426E+00  1.39974E+00  1.58026E+00  1.70969E+00  1.74463E+00  1.64672E+00  1.39539E+00  1.02750E+00  6.32791E-01  2.99308E-01
   1.11093E-01  1.28565E-01  3.68500E-01  8.03380E-01  1.37730E+00  2.02770E+00  2.70035E+00  3.35106E+00  3.93232E+00  4.46129E+00
   4.99533E+00  5.51104E+00  5.97120E+00  6.32658E+00  6.52030E+00  6.52198E+00  6.30192E+00  5.86637E+00  5.32364E+00  4.79852E+00
   4.42715E+00  4.32176E+00  4.52576E+00  5.00338E+00  5.66041E+00  6.38339E+00  7.07427E+00  7.66488E+00  8.08323E+00  8.26393E+00
   8.24788E+00  8.09290E+00  7.83098E+00  7.47733E+00  7.06033E+00  6.65383E+00  6.31013E+00  5.99980E+00  5.70415E+00  5.41773E+00
   5.13956E+00  4.87065E+00  4.61271E+00  4.36783E+00  4.13809E+00  3.92563E+00  3.73239E+00  3.56028E+00  3.41089E+00  3.28581E+00
   3.18640E+00  3.11411E+00  3.07026E+00  3.05630E+00  3.07355E+00  3.12343E+00  3.20725E+00  3.32641E+00  3.48202E+00  3.67504E+00
   3.90590E+00  4.17456E+00  4.48016E+00  4.82108E+00  5.19448E+00  5.59644E+00  6.02160E+00  6.46341E+00  6.91397E+00  7.36436E+00
   7.80467E+00  8.22444E+00  8.61294E+00  8.95977E+00  9.25516E+00  9.49059E+00  9.65901E+00  9.75541E+00  9.77689E+00  9.72298E+00
   9.59549E+00  9.39856E+00  9.13818E+00  8.82212E+00  8.45927E+00  8.05948E+00  7.63277E+00  7.18917E+00  6.73808E+00  6.28818E+00
   5.84701E+00  5.42095E+00  5.01504E+00  4.63306E+00  4.27747E+00  3.94977E+00  3.65036E+00  3.37899E+00  3.13465E+00  2.91598E+00
   2.72119E+00  2.54845E+00  2.39572E+00  2.26109E+00  2.14260E+00  2.03851E+00  1.94709E+00  1.86690E+00  1.79656E+00  1.73493E+00
   1.68089E+00  1.63356E+00  1.59209E+00  1.55585E+00  1.52420E+00  1.49665E+00  1.47268E+00  1.45196E+00  1.43410E+00  1.41886E+00
   1.40594E+00  1.39515E+00  1.38623E+00  1.37906E+00  1.37345E+00  1.36931E+00  1.36647E+00  1.36487E+00  1.36434E+00  1.36485E+00
   1.36629E+00  1.36864E+00  1.37178E+00  1.37569E+00  1.38027E+00  1.38552E+00  1.39137E+00  1.39781E+00  1.40476E+00  1.41222E+00
   1.42011E+00  1.42847E+00  1.43722E+00  1.44639E+00  1.45590E+00  1.46576E+00  1.47592E+00  1.48642E+00  1.49719E+00  1.50826E+00
   1.51955E+00  1.53110E+00  1.54285E+00  1.55486E+00  1.56706E+00  1.57947E+00  1.59204E+00  1.60480E+00  1.61771E+00  1.63081E+00
   1.64404E+00  1.65743E+00  1.67092E+00  1.68456E+00  1.69831E+00  1.71220E+00  1.72618E+00  1.74028E+00
 NY background values follow
    -8.535E+00   -8.515E+00   -8.495E+00   -8.475E+00   -8.456E+00   -8.436E+00   -8.416E+00   -8.396E+00   -8.376E+00   -8.357E+00
    -8.337E+00   -8.317E+00   -8.297E+00   -8.278E+00   -8.258E+00   -8.238E+00   -8.218E+00   -8.199E+00   -8.179E+00   -8.159E+00
    -8.139E+00   -8.119E+00   -8.100E+00   -8.080E+00   -8.060E+00   -8.040E+00   -8.021E+00   -8.001E+00   -7.981E+00   -7.961E+00
    -7.942E+00   -7.922E+00   -7.902E+00   -7.882E+00   -7.863E+00   -7.843E+00   -7.823E+00   -7.803E+00   -7.783E+00   -7.764E+00
    -7.744E+00   -7.724E+00   -7.704E+00   -7.685E+00   -7.665E+00   -7.645E+00   -7.625E+00   -7.605E+00   -7.586E+00   -7.566E+00
    -7.546E+00   -7.526E+00   -7.507E+00   -7.487E+00   -7.467E+00   -7.447E+00   -7.428E+00   -7.408E+00   -7.388E+00   -7.368E+00
    -7.348E+00   -7.329E+00   -7.309E+00   -7.289E+00   -7.269E+00   -7.250E+00   -7.230E+00   -7.210E+00   -7.190E+00   -7.171E+00
    -7.151E+00   -7.131E+00   -7.111E+00   -7.091E+00   -7.072E+00   -7.052E+00   -7.032E+00   -7.012E+00   -6.993E+00   -6.973E+00
    -6.953E+00   -6.933E+00   -6.913E+00   -6.894E+00   -6.874E+00   -6.854E+00   -6.834E+00   -6.815E+00   -6.795E+00   -6.775E+00
    -6.755E+00   -6.736E+00   -6.716E+00   -6.696E+00   -6.676E+00   -6.656E+00   -6.637E+00   -6.617E+00   -6.597E+00   -6.577E+00
    -6.558E+00   -6.538E+00   -6.518E+00   -6.498E+00   -6.478E+00   -6.459E+00   -6.439E+00   -6.419E+00   -6.399E+00   -6.380E+00
    -6.360E+00   -6.340E+00   -6.320E+00   -6.300E+00   -6.281E+00   -6.261E+00   -6.241E+00   -6.221E+00   -6.202E+00   -6.182E+00
    -6.162E+00   -6.142E+00   -6.123E+00   -6.103E+00   -6.083E+00   -6.063E+00   -6.043E+00   -6.024E+00   -6.004E+00   -5.984E+00
    -5.964E+00   -5.945E+00   -5.925E+00   -5.905E+00   -5.885E+00   -5.865E+00   -5.846E+00   -5.826E+00   -5.806E+00   -5.786E+00
    -5.767E+00   -5.747E+00   -5.727E+00   -5.707E+00   -5.687E+00   -5.668E+00   -5.648E+00   -5.628E+00   -5.608E+00   -5.589E+00
    -5.569E+00   -5.549E+00   -5.529E+00   -5.509E+00   -5.490E+00   -5.470E+00   -5.450E+00   -5.430E+00   -5.411E+00   -5.391E+00
    -5.371E+00   -5.351E+00   -5.331E+00   -5.312E+00   -5.292E+00   -5.272E+00   -5.252E+00   -5.233E+00   -5.213E+00   -5.193E+00
    -5.173E+00   -5.153E+00   -5.134E+00   -5.114E+00   -5.094E+00   -5.074E+00   -5.055E+00   -5.035E+00   -5.015E+00   -4.995E+00
    -4.975E+00   -4.956E+00   -4.936E+00   -4.916E+00   -4.896E+00   -4.877E+00   -4.857E+00   -4.837E+00   -4.817E+00   -4.797E+00
    -4.778E+00   -4.758E+00   -4.738E+00   -4.718E+00   -4.699E+00   -4.679E+00   -4.659E+00   -4.639E+00   -4.619E+00   -4.600E+00
    -4.580E+00   -4.560E+00   -4.540E+00   -4.521E+00   -4.501E+00   -4.481E+00   -4.461E+00   -4.441E+00   -4.422E+00   -4.402E+00
    -4.382E+00   -4.362E+00   -4.342E+00   -4.323E+00   -4.303E+00   -4.283E+00   -4.263E+00   -4.244E+00   -4.224E+00   -4.204E+00
    -4.184E+00   -4.164E+00   -4.145E+00   -4.125E+00   -4.105E+00   -4.085E+00   -4.066E+00   -4.046E+00   -4.026E+00   -4.006E+00
    -3.986E+00   -3.967E+00   -3.947E+00   -3.927E+00   -3.907E+00   -3.888E+00   -3.868E+00   -3.848E+00   -3.828E+00   -3.808E+00
    -3.789E+00   -3.769E+00   -3.749E+00   -3.729E+00   -3.710E+00   -3.690E+00   -3.670E+00   -3.650E+00   -3.630E+00   -3.611E+00
    -3.591E+00   -3.571E+00   -3.551E+00   -3.532E+00   -3.512E+00   -3.492E+00   -3.472E+00   -3.452E+00   -3.433E+00   -3.413E+00
    -3.393E+00   -3.373E+00   -3.354E+00   -3.334E+00   -3.314E+00   -3.294E+00   -3.274E+00   -3.255E+00   -3.235E+00   -3.215E+00
    -3.195E+00   -3.176E+00   -3.156E+00   -3.136E+00   -3.116E+00   -3.096E+00   -3.077E+00   -3.057E+00   -3.037E+00   -3.017E+00
    -2.998E+00   -2.978E+00   -2.958E+00   -2.938E+00   -2.918E+00   -2.899E+00   -2.879E+00   -2.859E+00   -2.839E+00   -2.820E+00
    -2.800E+00   -2.780E+00   -2.760E+00   -2.741E+00   -2.721E+00   -2.701E+00   -2.681E+00   -2.661E+00   -2.642E+00   -2.622E+00
    -2.602E+00   -2.582E+00   -2.563E+00   -2.543E+00   -2.523E+00   -2.503E+00   -2.483E+00   -2.464E+00   -2.444E+00   -2.424E+00
    -2.404E+00   -2.385E+00   -2.365E+00   -2.345E+00   -2.325E+00   -2.305E+00   -2.286E+00   -2.266E+00   -2.246E+00   -2.226E+00
    -2.207E+00   -2.187E+00   -2.167E+00   -2.147E+00   -2.128E+00   -2.108E+00   -2.088E+00   -2.068E+00   -2.048E+00   -2.029E+00
    -2.009E+00   -1.989E+00   -1.969E+00   -1.950E+00   -1.930E+00   -1.910E+00   -1.890E+00   -1.870E+00   -1.851E+00   -1.831E+00
    -1.811E+00   -1.791E+00   -1.772E+00   -1.752E+00   -1.732E+00   -1.712E+00   -1.693E+00   -1.673E+00   -1.653E+00   -1.633E+00
    -1.613E+00   -1.594E+00   -1.574E+00   -1.554E+00   -1.534E+00   -1.515E+00   -1.495E+00   -1.475E+00   -1.455E+00   -1.436E+00
    -1.416E+00   -1.396E+00   -1.376E+00   -1.357E+00   -1.337E+00   -1.317E+00   -1.297E+00   -1.277E+00   -1.258E+00   -1.238E+00
    -1.218E+00   -1.198E+00   -1.179E+00   -1.159E+00   -1.139E+00   -1.119E+00   -1.100E+00   -1.080E+00   -1.060E+00   -1.040E+00
    -1.021E+00   -1.001E+00   -9.810E-01   -9.612E-01   -9.415E-01   -9.217E-01   -9.019E-01   -8.822E-01   -8.624E-01   -8.426E-01
    -8.229E-01   -8.031E-01   -7.834E-01   -7.636E-01   -7.438E-01   -7.241E-01   -7.043E-01   -6.846E-01   -6.648E-01   -6.450E-01
    -6.253E-01   -6.055E-01   -5.858E-01   -5.660E-01   -5.462E-01   -5.265E-01   -5.067E-01   -4.870E-01   -4.672E-01   -4.474E-01
    -4.277E-01   -4.079E-01   -3.882E-01   -3.684E-01   -3.487E-01   -3.289E-01   -3.091E-01   -2.894E-01   -2.696E-01   -2.499E-01
    -2.301E-01   -2.104E-01   -1.906E-01   -1.709E-01   -1.511E-01   -1.313E-01   -1.116E-01   -9.184E-02   -7.208E-02   -5.233E-02
    -3.257E-02   -1.282E-02    6.932E-03    2.669E-02    4.644E-02    6.619E-02    8.594E-02    1.057E-01    1.254E-01    1.452E-01
     1.650E-01    1.847E-01    2.045E-01    2.242E-01    2.440E-01    2.637E-01    2.835E-01    3.032E-01    3.230E-01    3.427E-01
     3.625E-01    3.822E-01    4.019E-01    4.217E-01    4.414E-01    4.612E-01    4.809E-01    5.007E-01    5.204E-01    5.402E-01
     5.599E-01    5.797E-01    5.994E-01    6.192E-01    6.389E-01    6.587E-01    6.784E-01    6.981E-01    7.179E-01    7.376E-01
     7.574E-01    7.771E-01    7.969E-01    8.166E-01    8.364E-01    8.561E-01    8.758E-01    8.956E-01    9.153E-01    9.351E-01
     9.548E-01    9.745E-01    9.943E-01    1.014E+00    1.034E+00    1.054E+00    1.073E+00    1.093E+00    1.113E+00    1.132E+00
     1.152E+00    1.172E+00    1.192E+00    1.211E+00    1.231E+00    1.251E+00    1.271E+00    1.290E+00
 Ala      Conc. = 1.59E+02
