 LCModel (Version 6.3-1L) Copyright: S.W. Provencher.          Ref.: Magn. Reson. Med. 30:672-679 (1993).                
 Slice#2 Row#5 Col#11  PD_24_press_1_raw_act
 36 lines in following concentration table = NCONC+1
    Conc.  %SD /Cr+PCr  Metabolite                                         
    0.000 999%   0.000 Ala                                                 
    0.000 999%   0.000 Asp                                                 
    0.000 999%   0.000 Cr                                                  
 1.33E+03   5%   1.000 PCr                                                 
    0.000 999%   0.000 GABA                                                
    0.000 999%   0.000 Glc                                                 
  672.370  54%   0.507 Gln                                                 
 1.00E+03  40%   0.754 Glu                                                 
  538.831   5%   0.406 GPC                                                 
    0.000 999%   0.000 PCh                                                 
  331.247  28%   0.250 GSH                                                 
 1.19E+03  28%   0.894 Ins                                                 
    0.000 999%   0.000 Lac                                                 
 2.14E+03   4%   1.611 NAA                                                 
    0.000 999%   0.000 NAAG                                                
  127.227  26% 9.6E-02 Scyllo                                              
    0.000 999%   0.000 Tau                                                 
 1.06E+03  12%   0.796 -CrCH2                                              
  538.831   5%   0.406 GPC+PCh                                             
 2.14E+03   4%   1.611 NAA+NAAG                                            
 1.33E+03   5%   1.000 Cr+PCr                                              
 1.67E+03  38%   1.261 Glu+Gln                                             
    0.000 999%   0.000 Lip13a                                              
    0.000 999%   0.000 Lip13b                                              
    0.000 999%   0.000 Lip09                                               
 2.79E+03   9%   2.106 MM09                                                
   37.219 236% 2.8E-02 Lip20                                               
 6.49E+03   7%   4.889 MM20                                                
  780.358  26%   0.588 MM12                                                
    0.000 999%   0.000 MM14                                                
   69.507 294% 5.2E-02 MM17                                                
    0.000 999%   0.000 Lip13a+Lip13b                                       
  780.358  26%   0.588 MM14+Lip13a+Lip13b+MM12                             
 2.79E+03   9%   2.106 MM09+Lip09                                          
 6.52E+03   7%   4.917 MM20+Lip20                                          
   6 lines in following misc. output table
  FWHM = 0.076 ppm    S/N =  10                                            
  Data shift = 0.015 ppm                                                   
  Ph:  11 deg       3.5 deg/ppm                                            
  alphaB,S = 4.9E-01,   2.0E+02                                            
   14 spline knots.   Ns = 9(1)                                            
  (16) 4 infls.   (13) 1 extrs.                                            
  498 points on ppm-axis = NY
      4.000000     3.992357     3.984714     3.977070     3.969427     3.961784     3.954141     3.946497     3.938854     3.931211
      3.923568     3.915925     3.908281     3.900638     3.892995     3.885352     3.877708     3.870065     3.862422     3.854779
      3.847136     3.839492     3.831849     3.824206     3.816563     3.808919     3.801276     3.793633     3.785990     3.778347
      3.770703     3.763060     3.755417     3.747774     3.740130     3.732487     3.724844     3.717201     3.709558     3.701914
      3.694271     3.686628     3.678985     3.671341     3.663698     3.656055     3.648412     3.640769     3.633125     3.625482
      3.617839     3.610196     3.602552     3.594909     3.587266     3.579623     3.571980     3.564336     3.556693     3.549050
      3.541407     3.533763     3.526120     3.518477     3.510834     3.503191     3.495547     3.487904     3.480261     3.472618
      3.464974     3.457331     3.449688     3.442045     3.434402     3.426758     3.419115     3.411472     3.403829     3.396185
      3.388542     3.380899     3.373256     3.365613     3.357969     3.350326     3.342683     3.335040     3.327396     3.319753
      3.312110     3.304467     3.296824     3.289180     3.281537     3.273894     3.266251     3.258607     3.250964     3.243321
      3.235678     3.228034     3.220391     3.212748     3.205105     3.197462     3.189818     3.182175     3.174532     3.166889
      3.159245     3.151602     3.143959     3.136316     3.128673     3.121029     3.113386     3.105743     3.098100     3.090456
      3.082813     3.075170     3.067527     3.059884     3.052240     3.044597     3.036954     3.029311     3.021667     3.014024
      3.006381     2.998738     2.991095     2.983451     2.975808     2.968165     2.960522     2.952878     2.945235     2.937592
      2.929949     2.922306     2.914662     2.907019     2.899376     2.891733     2.884089     2.876446     2.868803     2.861160
      2.853517     2.845873     2.838230     2.830587     2.822944     2.815300     2.807657     2.800014     2.792371     2.784728
      2.777084     2.769441     2.761798     2.754155     2.746511     2.738868     2.731225     2.723582     2.715939     2.708295
      2.700652     2.693009     2.685366     2.677722     2.670079     2.662436     2.654793     2.647150     2.639506     2.631863
      2.624220     2.616577     2.608933     2.601290     2.593647     2.586004     2.578361     2.570717     2.563074     2.555431
      2.547788     2.540144     2.532501     2.524858     2.517215     2.509572     2.501928     2.494285     2.486642     2.478999
      2.471355     2.463712     2.456069     2.448426     2.440783     2.433139     2.425496     2.417853     2.410210     2.402566
      2.394923     2.387280     2.379637     2.371994     2.364350     2.356707     2.349064     2.341421     2.333777     2.326134
      2.318491     2.310848     2.303205     2.295561     2.287918     2.280275     2.272632     2.264988     2.257345     2.249702
      2.242059     2.234416     2.226772     2.219129     2.211486     2.203843     2.196199     2.188556     2.180913     2.173270
      2.165627     2.157983     2.150340     2.142697     2.135054     2.127410     2.119767     2.112124     2.104481     2.096838
      2.089194     2.081551     2.073908     2.066265     2.058621     2.050978     2.043335     2.035692     2.028049     2.020405
      2.012762     2.005119     1.997476     1.989833     1.982190     1.974546     1.966903     1.959260     1.951617     1.943974
      1.936331     1.928688     1.921045     1.913402     1.905759     1.898115     1.890472     1.882829     1.875186     1.867543
      1.859900     1.852257     1.844614     1.836971     1.829327     1.821684     1.814041     1.806398     1.798755     1.791112
      1.783469     1.775826     1.768183     1.760540     1.752896     1.745253     1.737610     1.729967     1.722324     1.714681
      1.707038     1.699395     1.691752     1.684108     1.676465     1.668822     1.661179     1.653536     1.645893     1.638250
      1.630607     1.622964     1.615321     1.607677     1.600034     1.592391     1.584748     1.577105     1.569462     1.561819
      1.554176     1.546533     1.538890     1.531246     1.523603     1.515960     1.508317     1.500674     1.493031     1.485388
      1.477745     1.470102     1.462458     1.454815     1.447172     1.439529     1.431886     1.424243     1.416600     1.408957
      1.401314     1.393671     1.386027     1.378384     1.370741     1.363098     1.355455     1.347812     1.340169     1.332526
      1.324883     1.317240     1.309596     1.301953     1.294310     1.286667     1.279024     1.271381     1.263738     1.256095
      1.248452     1.240808     1.233165     1.225522     1.217879     1.210236     1.202593     1.194950     1.187307     1.179664
      1.172021     1.164377     1.156734     1.149091     1.141448     1.133805     1.126162     1.118519     1.110876     1.103233
      1.095590     1.087946     1.080303     1.072660     1.065017     1.057374     1.049731     1.042088     1.034445     1.026802
      1.019158     1.011515     1.003872     0.996229     0.988586     0.980943     0.973300     0.965657     0.958014     0.950371
      0.942727     0.935084     0.927441     0.919798     0.912155     0.904512     0.896869     0.889226     0.881583     0.873940
      0.866296     0.858653     0.851010     0.843367     0.835724     0.828081     0.820438     0.812795     0.805152     0.797508
      0.789865     0.782222     0.774579     0.766936     0.759293     0.751650     0.744007     0.736364     0.728721     0.721077
      0.713434     0.705791     0.698148     0.690505     0.682862     0.675219     0.667576     0.659933     0.652290     0.644646
      0.637003     0.629360     0.621717     0.614074     0.606431     0.598788     0.591145     0.583502     0.575858     0.568215
      0.560572     0.552929     0.545286     0.537643     0.530000     0.522357     0.514714     0.507071     0.499427     0.491784
      0.484141     0.476498     0.468855     0.461212     0.453569     0.445925     0.438282     0.430639     0.422996     0.415353
      0.407710     0.400067     0.392424     0.384780     0.377137     0.369494     0.361851     0.354208     0.346565     0.338922
      0.331278     0.323635     0.315992     0.308349     0.300706     0.293063     0.285420     0.277777     0.270133     0.262490
      0.254847     0.247204     0.239561     0.231918     0.224275     0.216631     0.208988     0.201345
 NY phased data points follow
  -5.83500E+00  1.64705E+00 -2.22419E+00 -2.73171E-01 -1.53957E+00 -1.21138E+00  3.18060E+00  7.42808E+00  5.42285E+00  1.07755E+01
   7.05836E+00  1.27968E+01  8.88733E+00  1.16818E+01  5.21377E+00  7.59723E+00  3.74448E+00  5.97621E+00  5.10359E+00  5.45721E+00
   3.21036E+00  6.40867E+00  2.24463E+00  3.28836E+00  7.66166E+00  6.37053E+00  2.27826E+00  4.70600E+00  7.85541E+00  4.87113E+00
   4.73701E+00  8.63043E+00  5.20727E+00  5.70874E+00  5.54408E+00  5.13385E+00  6.06776E+00  4.60192E+00  7.15102E+00  5.00938E+00
   6.65289E+00  9.33487E+00  6.82126E+00  7.81744E+00  7.71245E+00  1.19865E+01  9.00287E+00  1.14983E+01  8.84396E+00  9.04396E+00
   8.23459E+00  6.36057E+00  1.03738E+01  9.97495E+00  1.02728E+01  1.12501E+01  7.61865E+00  1.22391E+01  5.68725E+00  9.06694E+00
   3.07127E+00  4.32185E+00  2.37884E+00  4.08470E-01  2.17816E-01  3.60169E+00 -1.00960E+00 -3.83692E+00  3.21789E+00 -2.94514E+00
   2.75804E+00  7.95070E-01 -7.18327E+00  1.12708E+00 -1.34858E+00  2.52370E+00  3.46341E-01  2.04642E+00  2.35276E+00 -8.55478E-01
   5.99423E-01  9.39312E-01 -4.03233E-01  1.17826E+00  6.72482E-01  3.43731E+00  6.44600E+00  3.32691E+00  3.33824E+00  3.43369E+00
   5.26601E+00  7.34004E+00  2.93605E+00  2.56813E-01  4.70121E+00  2.12513E+00  4.10082E+00  1.03501E+01  1.21851E+01  1.90836E+01
   2.99084E+01  3.54171E+01  3.79126E+01  3.59135E+01  3.49761E+01  3.41891E+01  2.59218E+01  2.71498E+01  2.05799E+01  1.32241E+01
   1.58213E+01  1.10687E+01  9.22670E+00  1.08421E+01  7.87168E+00  5.99050E+00  3.43594E+00  3.08369E+00  5.20029E+00  6.07292E+00
   9.24196E+00  1.09909E+01  1.10671E+01  1.94619E+01  2.72898E+01  3.57317E+01  3.35345E+01  4.12027E+01  3.42433E+01  3.28137E+01
   2.55379E+01  2.44395E+01  2.13208E+01  1.60018E+01  1.74676E+01  1.23163E+01  1.01155E+01  6.72022E+00  9.43314E+00  7.06531E+00
   4.16283E+00  3.56652E+00  5.62278E+00  8.48560E-01  2.04335E+00  2.65808E+00  4.51462E+00  2.20453E+00  2.39286E+00  2.23538E+00
  -1.12499E+00 -8.46528E-01 -2.92037E+00 -1.67039E+00  3.92601E-01 -1.60554E+00  4.98618E-02 -1.41806E+00  1.82652E+00 -1.52755E+00
   2.83302E-01 -2.95956E+00  1.62339E-01 -4.80363E+00 -6.90815E-01 -4.66492E+00 -3.25719E+00 -7.34692E+00 -3.98231E+00 -8.03730E+00
  -9.40149E+00 -1.08639E+01 -1.40806E+01 -1.26401E+01 -1.42911E+01 -1.40458E+01 -1.37529E+01 -1.41779E+01 -1.24003E+01 -1.51800E+01
  -1.10241E+01 -1.18463E+01 -1.09225E+01 -1.56147E+01 -1.04301E+01 -7.83918E+00 -1.08393E+01 -1.02737E+01 -7.76863E+00 -9.11605E+00
  -6.01724E+00 -6.93694E+00 -4.44378E+00 -7.58939E+00 -7.95425E+00 -3.16593E+00 -7.43085E+00 -7.01531E+00 -1.24272E+01 -4.51095E+00
  -4.68863E+00 -4.93329E+00 -7.12265E+00 -3.71819E+00 -2.15336E+00 -2.08000E+00 -2.98970E+00 -2.83146E+00 -4.74366E+00 -2.68131E+00
  -2.29261E-02  5.16471E+00 -1.28129E+00  1.83937E+00  6.33202E+00  5.72490E+00  7.05518E+00  5.56016E+00  3.45063E+00 -1.21417E+00
  -7.81235E-01  7.69230E-01 -1.11984E+00  1.36848E+00  4.83086E-01 -9.45981E-01  8.77874E-01  3.32737E+00  5.11074E+00  4.32546E+00
   1.01554E+01  7.32851E+00  2.67645E+00  4.84943E+00  8.69097E+00  5.28284E+00  7.16760E+00  7.20605E+00  9.02266E+00  9.58771E+00
   4.72881E+00  6.77744E+00  8.27614E+00  9.39037E+00  6.72131E+00  8.62162E+00  1.06379E+01  1.08344E+01  1.19917E+01  1.52748E+01
   1.47469E+01  1.89057E+01  2.16164E+01  2.10663E+01  2.47668E+01  3.08211E+01  4.41560E+01  5.98551E+01  6.16434E+01  6.43399E+01
   5.80442E+01  5.69181E+01  5.46042E+01  5.06122E+01  4.10522E+01  3.19961E+01  2.92457E+01  2.17789E+01  1.68708E+01  1.08932E+01
   4.83339E+00  6.17745E+00 -1.35839E-02  1.31680E+00 -1.28434E+00 -5.61804E-01 -4.01449E+00 -6.81822E+00 -3.45706E+00 -5.58515E+00
  -4.77458E+00 -7.16266E+00 -8.19430E+00 -7.25154E+00 -6.70138E+00 -8.19700E+00 -6.46449E+00 -1.12362E+01 -8.60187E+00 -8.33845E+00
  -8.47572E+00 -7.57405E+00 -7.46961E+00 -7.47721E+00 -6.00039E+00 -8.86955E+00 -1.04888E+01 -1.15250E+01 -6.30740E+00 -7.63071E+00
  -8.02231E+00 -1.01521E+01 -1.06621E+01 -8.21756E+00 -8.97041E+00 -9.88579E+00 -9.76496E+00 -8.23229E+00 -6.68481E+00 -9.56647E+00
  -6.39536E+00 -1.06836E+01 -1.10224E+01 -5.01712E+00 -8.22232E+00 -1.28396E+01 -9.83373E+00 -8.09213E+00 -1.39241E+01 -9.03516E+00
  -1.02025E+01 -1.03870E+01 -1.05576E+01 -5.52335E+00 -8.08107E+00 -8.78801E+00 -4.27958E+00 -1.21723E+01 -7.93488E+00 -1.15077E+01
  -4.96380E+00 -1.08796E+01 -1.20780E+01 -1.01862E+01 -1.13086E+01 -1.00606E+01 -9.59375E+00 -9.65253E+00 -8.16764E+00 -9.71156E+00
  -1.32204E+01 -1.10111E+01 -1.22812E+01 -1.45719E+01 -1.93065E+01 -1.76232E+01 -1.76453E+01 -1.75529E+01 -1.83534E+01 -1.20972E+01
  -1.19856E+01 -7.53178E+00 -1.29671E+01 -7.68385E+00 -6.42470E+00  2.09335E+00 -2.92835E+00 -3.49295E+00 -3.65299E+00 -8.89703E-01
  -1.28514E+00 -2.86048E+00 -1.53916E+00 -6.55470E+00 -4.10843E+00  1.47884E+00 -1.06404E+00  1.89810E-02 -5.76082E-01  6.45099E-01
   5.37135E-01  2.90756E+00 -1.46402E+00 -2.89630E+00  3.70496E+00 -1.49368E-01  2.20099E+00  1.13216E+00  4.32573E+00  2.95488E+00
   1.99592E+00  3.11366E+00  5.62636E+00  5.99915E+00  5.95855E+00  7.17658E+00  2.68212E+00  7.10727E+00  5.00971E+00  4.45271E+00
   5.92693E+00  5.71341E+00  7.53033E+00  9.57227E+00  8.74592E+00  6.04174E+00  9.67970E+00  1.40936E+01  1.15599E+01  1.37880E+01
   9.65888E+00  1.13709E+01  7.75726E+00  1.26955E+01  1.54684E+01  1.34964E+01  1.29052E+01  9.77968E+00  1.02182E+01  8.18349E+00
   1.39133E+01  8.86957E+00  8.90571E+00  8.70416E+00  8.35452E+00  4.19788E+00  5.83068E+00  6.57433E+00  6.08510E+00  6.37395E+00
   5.90559E+00  6.66071E+00  3.86428E+00  2.29756E+00  1.42619E+00  4.40891E+00  1.98448E+00  1.11373E+00  1.32082E+00  7.63528E+00
   6.81247E+00  2.19260E+00  5.08415E+00  6.98938E+00  4.70923E+00  4.86831E+00 -2.94034E-01  7.41794E+00  6.64971E+00  8.66365E+00
   3.70231E+00  4.44370E+00  3.95172E+00  5.28874E+00  3.04943E+00  8.55061E+00  4.18489E+00  5.85677E+00  5.96670E+00  5.67681E+00
   3.30361E+00  4.93575E+00  4.88643E+00  5.37270E+00  4.02730E+00  3.41351E+00  1.19863E+00  2.93733E+00  7.32004E+00  5.90484E+00
   6.91755E+00  5.80243E+00  3.03096E+00  3.61773E+00  5.63607E+00  3.80055E-01  8.16385E-01  6.78849E+00  3.83789E+00  4.54008E+00
   6.75700E+00  3.75928E+00  2.08554E+00 -4.10659E-02  2.44524E+00  7.86016E+00  4.62273E+00  4.74283E+00  9.34661E+00  3.78698E+00
   4.75574E+00  6.85053E+00  6.29437E+00  6.29903E+00  5.72160E+00  8.88407E-01  3.55168E+00  4.24036E+00  2.63714E+00  5.00734E+00
   6.67730E+00  5.75488E+00  2.59686E+00  9.35411E+00  3.03638E+00  4.99159E+00  4.62926E+00  6.11826E+00
 NY points of the fit to the data follow
   2.08392E+00  1.52646E+00  1.00572E+00  5.05559E-01  4.01825E-01  1.15866E+00  2.90610E+00  5.10577E+00  7.03719E+00  8.35749E+00
   9.12462E+00  9.50348E+00  9.54467E+00  9.25380E+00  8.73004E+00  8.16917E+00  7.75605E+00  7.41428E+00  6.92460E+00  5.84335E+00
   4.50863E+00  3.85519E+00  3.54152E+00  3.42089E+00  3.59142E+00  4.17711E+00  5.16767E+00  6.37471E+00  7.54194E+00  8.46327E+00
   8.98683E+00  9.09260E+00  8.78896E+00  8.16318E+00  7.37642E+00  6.60166E+00  5.93224E+00  5.40962E+00  5.09290E+00  4.94659E+00
   4.99218E+00  5.44588E+00  6.30398E+00  7.43041E+00  8.52079E+00  9.24946E+00  9.48161E+00  9.25064E+00  8.68656E+00  7.90479E+00
   7.01360E+00  6.17089E+00  5.46812E+00  4.94494E+00  4.61161E+00  4.39891E+00  4.16443E+00  3.91123E+00  3.74030E+00  3.58752E+00
   3.32323E+00  2.95512E+00  2.58664E+00  2.28835E+00  2.08135E+00  1.97314E+00  1.96478E+00  2.03744E+00  2.11423E+00  2.13657E+00
   2.11364E+00  2.06428E+00  2.00557E+00  1.94202E+00  1.85120E+00  1.72885E+00  1.58023E+00  1.45767E+00  1.46091E+00  1.56117E+00
   1.76885E+00  2.14338E+00  2.70183E+00  3.31619E+00  3.74113E+00  3.84327E+00  3.65648E+00  3.31336E+00  2.90905E+00  2.48191E+00
   2.05746E+00  1.66528E+00  1.32337E+00  1.09097E+00  1.40109E+00  2.65944E+00  4.80736E+00  8.36121E+00  1.39297E+01  2.11089E+01
   2.84057E+01  3.40220E+01  3.69739E+01  3.73737E+01  3.58751E+01  3.30870E+01  2.94357E+01  2.54004E+01  2.14676E+01  1.79635E+01
   1.48267E+01  1.17070E+01  8.35918E+00  5.05604E+00  2.84315E+00  2.11185E+00  1.92047E+00  1.99062E+00  2.65187E+00  4.25738E+00
   6.67158E+00  1.01744E+01  1.51534E+01  2.13969E+01  2.77415E+01  3.26698E+01  3.53233E+01  3.57995E+01  3.46559E+01  3.23668E+01
   2.92158E+01  2.55288E+01  2.17382E+01  1.82233E+01  1.50388E+01  1.19724E+01  8.85028E+00  5.87110E+00  3.85914E+00  3.12588E+00
   2.77651E+00  2.45936E+00  2.10869E+00  1.73813E+00  1.39323E+00  1.09073E+00  7.84480E-01  4.53215E-01  9.30531E-02 -2.98133E-01
  -6.94203E-01 -1.06504E+00 -1.41277E+00 -1.72830E+00 -2.03218E+00 -2.35588E+00 -2.71454E+00 -3.11007E+00 -3.49183E+00 -3.76807E+00
  -3.90545E+00 -3.96456E+00 -4.05089E+00 -4.22801E+00 -4.49426E+00 -4.82115E+00 -5.19523E+00 -5.61943E+00 -6.08044E+00 -6.52011E+00
  -6.92639E+00 -7.32736E+00 -7.77599E+00 -8.20756E+00 -8.51189E+00 -8.67654E+00 -8.75008E+00 -8.82145E+00 -8.92714E+00 -9.01164E+00
  -9.04822E+00 -9.06758E+00 -9.06414E+00 -8.94664E+00 -8.60002E+00 -7.99377E+00 -7.21826E+00 -6.44612E+00 -5.78755E+00 -5.26082E+00
  -4.89067E+00 -4.69688E+00 -4.69263E+00 -4.81128E+00 -4.91431E+00 -4.86571E+00 -4.60509E+00 -4.15382E+00 -3.59653E+00 -2.98695E+00
  -2.38124E+00 -1.95364E+00 -1.80733E+00 -2.01410E+00 -2.63736E+00 -3.58916E+00 -4.62197E+00 -5.45250E+00 -5.89771E+00 -5.95119E+00
  -5.55792E+00 -4.72016E+00 -3.59571E+00 -2.51197E+00 -1.77777E+00 -1.46709E+00 -1.53190E+00 -1.90479E+00 -2.46449E+00 -3.00675E+00
  -3.30471E+00 -3.26282E+00 -2.82613E+00 -2.11801E+00 -1.35614E+00 -6.33002E-01  3.41737E-02  6.70017E-01  1.31278E+00  1.94720E+00
   2.61810E+00  3.37491E+00  4.23377E+00  5.12347E+00  5.92632E+00  6.63401E+00  7.26024E+00  7.74934E+00  8.08298E+00  8.33771E+00
   8.63273E+00  9.05965E+00  9.61612E+00  1.02564E+01  1.09661E+01  1.17040E+01  1.23860E+01  1.29618E+01  1.35022E+01  1.40612E+01
   1.47372E+01  1.61915E+01  1.89962E+01  2.28376E+01  2.81211E+01  3.55432E+01  4.48060E+01  5.39856E+01  6.06055E+01  6.33864E+01
   6.25876E+01  5.91733E+01  5.39905E+01  4.76174E+01  4.07183E+01  3.40226E+01  2.80202E+01  2.26290E+01  1.73551E+01  1.18483E+01
   6.46678E+00  2.66902E+00  1.01553E+00  4.75917E-02 -7.46282E-01 -1.45086E+00 -2.10116E+00 -2.72878E+00 -3.32384E+00 -3.87852E+00
  -4.39276E+00 -4.86852E+00 -5.31189E+00 -5.73088E+00 -6.12402E+00 -6.48238E+00 -6.80463E+00 -7.09433E+00 -7.35418E+00 -7.58487E+00
  -7.78854E+00 -7.96892E+00 -8.13188E+00 -8.27772E+00 -8.40702E+00 -8.52078E+00 -8.62108E+00 -8.70912E+00 -8.78655E+00 -8.85448E+00
  -8.91491E+00 -8.96872E+00 -9.01771E+00 -9.06297E+00 -9.10550E+00 -9.14534E+00 -9.18326E+00 -9.21932E+00 -9.25409E+00 -9.28713E+00
  -9.31848E+00 -9.34750E+00 -9.37432E+00 -9.39843E+00 -9.41973E+00 -9.43729E+00 -9.45102E+00 -9.46026E+00 -9.46517E+00 -9.46534E+00
  -9.46094E+00 -9.45145E+00 -9.43705E+00 -9.41742E+00 -9.39298E+00 -9.36350E+00 -9.32929E+00 -9.28996E+00 -9.24580E+00 -9.19655E+00
  -9.14258E+00 -9.08354E+00 -9.01953E+00 -8.95001E+00 -8.87506E+00 -8.79416E+00 -8.70733E+00 -8.61380E+00 -8.51327E+00 -8.40477E+00
  -8.28795E+00 -8.16179E+00 -8.02575E+00 -7.87852E+00 -7.71932E+00 -7.54681E+00 -7.36032E+00 -7.15865E+00 -6.94121E+00 -6.70696E+00
  -6.45569E+00 -6.18701E+00 -5.90157E+00 -5.59984E+00 -5.28335E+00 -4.95353E+00 -4.61304E+00 -4.26454E+00 -3.91178E+00 -3.55825E+00
  -3.20820E+00 -2.86542E+00 -2.53418E+00 -2.21801E+00 -1.92041E+00 -1.64358E+00 -1.38933E+00 -1.15795E+00 -9.49223E-01 -7.61260E-01
  -5.91541E-01 -4.35874E-01 -2.89681E-01 -1.47126E-01 -2.40399E-03  1.51196E-01  3.20025E-01  5.10909E-01  7.29788E-01  9.82546E-01
   1.27380E+00  1.60787E+00  1.98758E+00  2.41518E+00  2.89106E+00  3.41477E+00  3.98393E+00  4.59526E+00  5.24350E+00  5.92242E+00
   6.62376E+00  7.33841E+00  8.05558E+00  8.76405E+00  9.45143E+00  1.01054E+01  1.07132E+01  1.12629E+01  1.17429E+01  1.21438E+01
   1.24569E+01  1.26765E+01  1.27982E+01  1.28208E+01  1.27452E+01  1.25752E+01  1.23164E+01  1.19767E+01  1.15655E+01  1.10937E+01
   1.05727E+01  1.00147E+01  9.43149E+00  8.83464E+00  8.23460E+00  7.64128E+00  7.06291E+00  6.50681E+00  5.97843E+00  5.48226E+00
   5.02110E+00  4.59708E+00  4.21080E+00  3.86246E+00  3.55099E+00  3.27526E+00  3.03329E+00  2.82332E+00  2.64293E+00  2.49006E+00
   2.36216E+00  2.25720E+00  2.17285E+00  2.10738E+00  2.05871E+00  2.02530E+00  2.00535E+00  1.99766E+00  2.00077E+00  2.01380E+00
   2.03547E+00  2.06507E+00  2.10153E+00  2.14438E+00  2.19278E+00  2.24638E+00  2.30442E+00  2.36663E+00  2.43238E+00  2.50154E+00
   2.57360E+00  2.64846E+00  2.72562E+00  2.80502E+00  2.88627E+00  2.96943E+00  3.05416E+00  3.14050E+00  3.22807E+00  3.31697E+00
   3.40690E+00  3.49802E+00  3.59004E+00  3.68304E+00  3.77673E+00  3.87127E+00  3.96641E+00  4.06234E+00  4.15879E+00  4.25589E+00
   4.35338E+00  4.45146E+00  4.54994E+00  4.64898E+00  4.74833E+00  4.84815E+00  4.94823E+00  5.04876E+00  5.14958E+00  5.25084E+00
   5.35231E+00  5.45417E+00  5.55622E+00  5.65869E+00  5.76140E+00  5.86450E+00  5.96778E+00  6.07142E+00  6.17528E+00  6.27957E+00
   6.38409E+00  6.48902E+00  6.59416E+00  6.69973E+00  6.80558E+00  6.91193E+00  7.01859E+00  7.12576E+00
 NY background values follow
     4.185E-02    3.648E-02    3.115E-02    2.585E-02    2.059E-02    1.534E-02    1.010E-02    4.859E-03   -3.938E-04   -5.668E-03
    -1.097E-02   -1.632E-02   -2.171E-02   -2.717E-02   -3.269E-02   -3.829E-02   -4.398E-02   -4.977E-02   -5.567E-02   -6.168E-02
    -6.782E-02   -7.410E-02   -8.052E-02   -8.710E-02   -9.385E-02   -1.008E-01   -1.079E-01   -1.152E-01   -1.227E-01   -1.304E-01
    -1.383E-01   -1.465E-01   -1.549E-01   -1.636E-01   -1.726E-01   -1.818E-01   -1.913E-01   -2.010E-01   -2.111E-01   -2.215E-01
    -2.322E-01   -2.433E-01   -2.547E-01   -2.664E-01   -2.785E-01   -2.909E-01   -3.038E-01   -3.170E-01   -3.306E-01   -3.446E-01
    -3.590E-01   -3.738E-01   -3.889E-01   -4.045E-01   -4.205E-01   -4.368E-01   -4.536E-01   -4.708E-01   -4.884E-01   -5.064E-01
    -5.248E-01   -5.436E-01   -5.628E-01   -5.825E-01   -6.026E-01   -6.231E-01   -6.440E-01   -6.653E-01   -6.871E-01   -7.093E-01
    -7.320E-01   -7.551E-01   -7.786E-01   -8.026E-01   -8.270E-01   -8.518E-01   -8.771E-01   -9.029E-01   -9.291E-01   -9.558E-01
    -9.829E-01   -1.011E+00   -1.039E+00   -1.067E+00   -1.096E+00   -1.125E+00   -1.155E+00   -1.186E+00   -1.217E+00   -1.248E+00
    -1.280E+00   -1.312E+00   -1.345E+00   -1.378E+00   -1.412E+00   -1.446E+00   -1.481E+00   -1.516E+00   -1.552E+00   -1.588E+00
    -1.625E+00   -1.662E+00   -1.700E+00   -1.738E+00   -1.777E+00   -1.816E+00   -1.856E+00   -1.896E+00   -1.937E+00   -1.978E+00
    -2.020E+00   -2.062E+00   -2.105E+00   -2.148E+00   -2.192E+00   -2.237E+00   -2.282E+00   -2.327E+00   -2.373E+00   -2.419E+00
    -2.466E+00   -2.514E+00   -2.562E+00   -2.611E+00   -2.660E+00   -2.709E+00   -2.760E+00   -2.810E+00   -2.862E+00   -2.914E+00
    -2.966E+00   -3.019E+00   -3.072E+00   -3.126E+00   -3.181E+00   -3.236E+00   -3.292E+00   -3.348E+00   -3.405E+00   -3.462E+00
    -3.520E+00   -3.578E+00   -3.637E+00   -3.696E+00   -3.755E+00   -3.815E+00   -3.876E+00   -3.936E+00   -3.997E+00   -4.059E+00
    -4.121E+00   -4.183E+00   -4.245E+00   -4.307E+00   -4.370E+00   -4.433E+00   -4.496E+00   -4.560E+00   -4.623E+00   -4.687E+00
    -4.751E+00   -4.815E+00   -4.879E+00   -4.943E+00   -5.007E+00   -5.072E+00   -5.136E+00   -5.200E+00   -5.264E+00   -5.329E+00
    -5.393E+00   -5.457E+00   -5.521E+00   -5.585E+00   -5.649E+00   -5.713E+00   -5.776E+00   -5.840E+00   -5.903E+00   -5.966E+00
    -6.029E+00   -6.091E+00   -6.153E+00   -6.215E+00   -6.277E+00   -6.339E+00   -6.400E+00   -6.461E+00   -6.522E+00   -6.582E+00
    -6.643E+00   -6.703E+00   -6.763E+00   -6.822E+00   -6.882E+00   -6.941E+00   -7.000E+00   -7.059E+00   -7.118E+00   -7.177E+00
    -7.235E+00   -7.293E+00   -7.351E+00   -7.409E+00   -7.467E+00   -7.524E+00   -7.582E+00   -7.639E+00   -7.696E+00   -7.753E+00
    -7.810E+00   -7.866E+00   -7.923E+00   -7.979E+00   -8.036E+00   -8.092E+00   -8.148E+00   -8.204E+00   -8.260E+00   -8.316E+00
    -8.371E+00   -8.427E+00   -8.482E+00   -8.538E+00   -8.593E+00   -8.648E+00   -8.703E+00   -8.759E+00   -8.814E+00   -8.869E+00
    -8.923E+00   -8.978E+00   -9.032E+00   -9.087E+00   -9.141E+00   -9.195E+00   -9.248E+00   -9.301E+00   -9.355E+00   -9.407E+00
    -9.460E+00   -9.512E+00   -9.563E+00   -9.614E+00   -9.665E+00   -9.716E+00   -9.766E+00   -9.815E+00   -9.864E+00   -9.912E+00
    -9.960E+00   -1.001E+01   -1.005E+01   -1.010E+01   -1.015E+01   -1.019E+01   -1.024E+01   -1.028E+01   -1.032E+01   -1.036E+01
    -1.040E+01   -1.045E+01   -1.049E+01   -1.052E+01   -1.056E+01   -1.060E+01   -1.064E+01   -1.067E+01   -1.071E+01   -1.074E+01
    -1.077E+01   -1.080E+01   -1.084E+01   -1.087E+01   -1.089E+01   -1.092E+01   -1.095E+01   -1.097E+01   -1.100E+01   -1.102E+01
    -1.104E+01   -1.107E+01   -1.109E+01   -1.111E+01   -1.112E+01   -1.114E+01   -1.116E+01   -1.117E+01   -1.118E+01   -1.120E+01
    -1.121E+01   -1.122E+01   -1.122E+01   -1.123E+01   -1.124E+01   -1.124E+01   -1.125E+01   -1.125E+01   -1.125E+01   -1.125E+01
    -1.125E+01   -1.124E+01   -1.124E+01   -1.123E+01   -1.123E+01   -1.122E+01   -1.121E+01   -1.120E+01   -1.118E+01   -1.117E+01
    -1.115E+01   -1.114E+01   -1.112E+01   -1.110E+01   -1.108E+01   -1.105E+01   -1.103E+01   -1.100E+01   -1.098E+01   -1.095E+01
    -1.092E+01   -1.088E+01   -1.085E+01   -1.082E+01   -1.078E+01   -1.074E+01   -1.070E+01   -1.066E+01   -1.062E+01   -1.058E+01
    -1.053E+01   -1.048E+01   -1.044E+01   -1.039E+01   -1.033E+01   -1.028E+01   -1.023E+01   -1.017E+01   -1.012E+01   -1.006E+01
    -9.998E+00   -9.937E+00   -9.874E+00   -9.810E+00   -9.745E+00   -9.678E+00   -9.610E+00   -9.541E+00   -9.470E+00   -9.397E+00
    -9.324E+00   -9.249E+00   -9.173E+00   -9.095E+00   -9.016E+00   -8.935E+00   -8.854E+00   -8.771E+00   -8.686E+00   -8.601E+00
    -8.513E+00   -8.425E+00   -8.335E+00   -8.244E+00   -8.152E+00   -8.059E+00   -7.964E+00   -7.868E+00   -7.771E+00   -7.673E+00
    -7.573E+00   -7.473E+00   -7.371E+00   -7.268E+00   -7.165E+00   -7.060E+00   -6.954E+00   -6.848E+00   -6.740E+00   -6.632E+00
    -6.523E+00   -6.413E+00   -6.302E+00   -6.190E+00   -6.077E+00   -5.964E+00   -5.850E+00   -5.735E+00   -5.620E+00   -5.504E+00
    -5.387E+00   -5.270E+00   -5.152E+00   -5.033E+00   -4.914E+00   -4.795E+00   -4.675E+00   -4.555E+00   -4.434E+00   -4.313E+00
    -4.191E+00   -4.069E+00   -3.947E+00   -3.824E+00   -3.701E+00   -3.578E+00   -3.455E+00   -3.331E+00   -3.208E+00   -3.084E+00
    -2.960E+00   -2.836E+00   -2.711E+00   -2.587E+00   -2.462E+00   -2.338E+00   -2.213E+00   -2.088E+00   -1.963E+00   -1.838E+00
    -1.714E+00   -1.589E+00   -1.464E+00   -1.339E+00   -1.214E+00   -1.089E+00   -9.647E-01   -8.400E-01   -7.155E-01   -5.910E-01
    -4.667E-01   -3.425E-01   -2.184E-01   -9.446E-02    2.930E-02    1.529E-01    2.762E-01    3.994E-01    5.224E-01    6.451E-01
     7.675E-01    8.897E-01    1.012E+00    1.133E+00    1.255E+00    1.376E+00    1.496E+00    1.617E+00    1.737E+00    1.856E+00
     1.976E+00    2.094E+00    2.213E+00    2.331E+00    2.448E+00    2.566E+00    2.682E+00    2.799E+00    2.915E+00    3.031E+00
     3.146E+00    3.261E+00    3.376E+00    3.490E+00    3.604E+00    3.718E+00    3.832E+00    3.945E+00    4.058E+00    4.171E+00
     4.283E+00    4.395E+00    4.507E+00    4.619E+00    4.731E+00    4.842E+00    4.954E+00    5.065E+00    5.176E+00    5.287E+00
     5.397E+00    5.508E+00    5.618E+00    5.729E+00    5.839E+00    5.949E+00    6.059E+00    6.169E+00    6.279E+00    6.389E+00
     6.499E+00    6.609E+00    6.719E+00    6.829E+00    6.939E+00    7.049E+00    7.159E+00    7.269E+00
 PCr      Conc. = 1.33E+03
