 LCModel (Version 6.3-1L) Copyright: S.W. Provencher.          Ref.: Magn. Reson. Med. 30:672-679 (1993).                
 Slice#2 Row#5 Col#8  PD_24_press_1_raw_act
 36 lines in following concentration table = NCONC+1
    Conc.  %SD /Cr+PCr  Metabolite                                         
  133.510  78% 8.5E-02 Ala                                                 
    0.000 999%   0.000 Asp                                                 
  330.502  64%   0.210 Cr                                                  
 1.25E+03  17%   0.790 PCr                                                 
    0.000 999%   0.000 GABA                                                
   29.689 495% 1.9E-02 Glc                                                 
  614.269  34%   0.389 Gln                                                 
 1.34E+03  17%   0.849 Glu                                                 
  725.621   3%   0.460 GPC                                                 
    0.000 999%   0.000 PCh                                                 
  433.048  16%   0.275 GSH                                                 
  811.788  30%   0.515 Ins                                                 
  518.634  25%   0.329 Lac                                                 
 1.83E+03   5%   1.163 NAA                                                 
  129.622  72% 8.2E-02 NAAG                                                
   60.331  44% 3.8E-02 Scyllo                                              
    0.000 999%   0.000 Tau                                                 
    0.000 999%   0.000 -CrCH2                                              
  725.621   3%   0.460 GPC+PCh                                             
 1.96E+03   4%   1.246 NAA+NAAG                                            
 1.58E+03   3%   1.000 Cr+PCr                                              
 1.95E+03  17%   1.239 Glu+Gln                                             
    0.000 999%   0.000 Lip13a                                              
 1.02E+03  15%   0.644 Lip13b                                              
  198.717  53%   0.126 Lip09                                               
 1.49E+03  16%   0.944 MM09                                                
  166.598  44%   0.106 Lip20                                               
 3.21E+03  13%   2.037 MM20                                                
  355.117  44%   0.225 MM12                                                
 2.40E+03  18%   1.521 MM14                                                
 1.50E+03  20%   0.950 MM17                                                
 1.02E+03  15%   0.644 Lip13a+Lip13b                                       
 3.77E+03  12%   2.390 MM14+Lip13a+Lip13b+MM12                             
 1.69E+03  14%   1.070 MM09+Lip09                                          
 3.38E+03  12%   2.142 MM20+Lip20                                          
   6 lines in following misc. output table
  FWHM = 0.054 ppm    S/N =  10                                            
  Data shift =-0.015 ppm                                                   
  Ph: -29 deg      -4.9 deg/ppm                                            
  alphaB,S = 1.1E+00,   1.6E+02                                            
   14 spline knots.   Ns = 6(1)                                            
  ( 8) 4 infls.   ( 8) 1 extrs.                                            
  498 points on ppm-axis = NY
      4.000000     3.992357     3.984714     3.977070     3.969427     3.961784     3.954141     3.946497     3.938854     3.931211
      3.923568     3.915925     3.908281     3.900638     3.892995     3.885352     3.877708     3.870065     3.862422     3.854779
      3.847136     3.839492     3.831849     3.824206     3.816563     3.808919     3.801276     3.793633     3.785990     3.778347
      3.770703     3.763060     3.755417     3.747774     3.740130     3.732487     3.724844     3.717201     3.709558     3.701914
      3.694271     3.686628     3.678985     3.671341     3.663698     3.656055     3.648412     3.640769     3.633125     3.625482
      3.617839     3.610196     3.602552     3.594909     3.587266     3.579623     3.571980     3.564336     3.556693     3.549050
      3.541407     3.533763     3.526120     3.518477     3.510834     3.503191     3.495547     3.487904     3.480261     3.472618
      3.464974     3.457331     3.449688     3.442045     3.434402     3.426758     3.419115     3.411472     3.403829     3.396185
      3.388542     3.380899     3.373256     3.365613     3.357969     3.350326     3.342683     3.335040     3.327396     3.319753
      3.312110     3.304467     3.296824     3.289180     3.281537     3.273894     3.266251     3.258607     3.250964     3.243321
      3.235678     3.228034     3.220391     3.212748     3.205105     3.197462     3.189818     3.182175     3.174532     3.166889
      3.159245     3.151602     3.143959     3.136316     3.128673     3.121029     3.113386     3.105743     3.098100     3.090456
      3.082813     3.075170     3.067527     3.059884     3.052240     3.044597     3.036954     3.029311     3.021667     3.014024
      3.006381     2.998738     2.991095     2.983451     2.975808     2.968165     2.960522     2.952878     2.945235     2.937592
      2.929949     2.922306     2.914662     2.907019     2.899376     2.891733     2.884089     2.876446     2.868803     2.861160
      2.853517     2.845873     2.838230     2.830587     2.822944     2.815300     2.807657     2.800014     2.792371     2.784728
      2.777084     2.769441     2.761798     2.754155     2.746511     2.738868     2.731225     2.723582     2.715939     2.708295
      2.700652     2.693009     2.685366     2.677722     2.670079     2.662436     2.654793     2.647150     2.639506     2.631863
      2.624220     2.616577     2.608933     2.601290     2.593647     2.586004     2.578361     2.570717     2.563074     2.555431
      2.547788     2.540144     2.532501     2.524858     2.517215     2.509572     2.501928     2.494285     2.486642     2.478999
      2.471355     2.463712     2.456069     2.448426     2.440783     2.433139     2.425496     2.417853     2.410210     2.402566
      2.394923     2.387280     2.379637     2.371994     2.364350     2.356707     2.349064     2.341421     2.333777     2.326134
      2.318491     2.310848     2.303205     2.295561     2.287918     2.280275     2.272632     2.264988     2.257345     2.249702
      2.242059     2.234416     2.226772     2.219129     2.211486     2.203843     2.196199     2.188556     2.180913     2.173270
      2.165627     2.157983     2.150340     2.142697     2.135054     2.127410     2.119767     2.112124     2.104481     2.096838
      2.089194     2.081551     2.073908     2.066265     2.058621     2.050978     2.043335     2.035692     2.028049     2.020405
      2.012762     2.005119     1.997476     1.989833     1.982190     1.974546     1.966903     1.959260     1.951617     1.943974
      1.936331     1.928688     1.921045     1.913402     1.905759     1.898115     1.890472     1.882829     1.875186     1.867543
      1.859900     1.852257     1.844614     1.836971     1.829327     1.821684     1.814041     1.806398     1.798755     1.791112
      1.783469     1.775826     1.768183     1.760540     1.752896     1.745253     1.737610     1.729967     1.722324     1.714681
      1.707038     1.699395     1.691752     1.684108     1.676465     1.668822     1.661179     1.653536     1.645893     1.638250
      1.630607     1.622964     1.615321     1.607677     1.600034     1.592391     1.584748     1.577105     1.569462     1.561819
      1.554176     1.546533     1.538890     1.531246     1.523603     1.515960     1.508317     1.500674     1.493031     1.485388
      1.477745     1.470102     1.462458     1.454815     1.447172     1.439529     1.431886     1.424243     1.416600     1.408957
      1.401314     1.393671     1.386027     1.378384     1.370741     1.363098     1.355455     1.347812     1.340169     1.332526
      1.324883     1.317240     1.309596     1.301953     1.294310     1.286667     1.279024     1.271381     1.263738     1.256095
      1.248452     1.240808     1.233165     1.225522     1.217879     1.210236     1.202593     1.194950     1.187307     1.179664
      1.172021     1.164377     1.156734     1.149091     1.141448     1.133805     1.126162     1.118519     1.110876     1.103233
      1.095590     1.087946     1.080303     1.072660     1.065017     1.057374     1.049731     1.042088     1.034445     1.026802
      1.019158     1.011515     1.003872     0.996229     0.988586     0.980943     0.973300     0.965657     0.958014     0.950371
      0.942727     0.935084     0.927441     0.919798     0.912155     0.904512     0.896869     0.889226     0.881583     0.873940
      0.866296     0.858653     0.851010     0.843367     0.835724     0.828081     0.820438     0.812795     0.805152     0.797508
      0.789865     0.782222     0.774579     0.766936     0.759293     0.751650     0.744007     0.736364     0.728721     0.721077
      0.713434     0.705791     0.698148     0.690505     0.682862     0.675219     0.667576     0.659933     0.652290     0.644646
      0.637003     0.629360     0.621717     0.614074     0.606431     0.598788     0.591145     0.583502     0.575858     0.568215
      0.560572     0.552929     0.545286     0.537643     0.530000     0.522357     0.514714     0.507071     0.499427     0.491784
      0.484141     0.476498     0.468855     0.461212     0.453569     0.445925     0.438282     0.430639     0.422996     0.415353
      0.407710     0.400067     0.392424     0.384780     0.377137     0.369494     0.361851     0.354208     0.346565     0.338922
      0.331278     0.323635     0.315992     0.308349     0.300706     0.293063     0.285420     0.277777     0.270133     0.262490
      0.254847     0.247204     0.239561     0.231918     0.224275     0.216631     0.208988     0.201345
 NY phased data points follow
   7.31589E+01  6.83289E+01  7.30752E+01  7.13532E+01  6.96856E+01  8.48648E+01  8.63864E+01  9.50849E+01  9.58839E+01  1.04447E+02
   1.03372E+02  1.08416E+02  9.99940E+01  9.66450E+01  8.94833E+01  7.84548E+01  7.49397E+01  7.67972E+01  7.06917E+01  6.72170E+01
   6.50384E+01  6.47385E+01  5.98236E+01  6.17661E+01  5.83728E+01  6.25169E+01  6.20226E+01  6.36634E+01  6.09359E+01  6.61657E+01
   6.93004E+01  7.08328E+01  6.31220E+01  6.05783E+01  6.15251E+01  5.60493E+01  5.33664E+01  5.54236E+01  5.02907E+01  5.58729E+01
   5.32823E+01  4.82799E+01  4.82551E+01  5.54112E+01  5.10614E+01  5.48235E+01  5.77570E+01  6.26959E+01  6.20146E+01  5.59275E+01
   5.31869E+01  5.03725E+01  4.83280E+01  4.89813E+01  4.71783E+01  4.59292E+01  4.60605E+01  4.72084E+01  4.52473E+01  4.38076E+01
   3.90043E+01  4.05270E+01  4.10483E+01  3.40034E+01  3.45330E+01  3.02545E+01  3.09290E+01  2.77810E+01  2.83215E+01  2.66035E+01
   3.26333E+01  3.62923E+01  3.41798E+01  3.68333E+01  3.72214E+01  3.95093E+01  3.43251E+01  3.54091E+01  3.19674E+01  3.46157E+01
   3.08064E+01  2.98163E+01  3.04615E+01  3.54846E+01  3.17467E+01  3.12367E+01  2.76207E+01  2.65376E+01  3.10878E+01  3.18058E+01
   3.14199E+01  3.05444E+01  3.16425E+01  3.25185E+01  2.95510E+01  2.85176E+01  1.98486E+01  2.50501E+01  2.88595E+01  4.16798E+01
   5.98175E+01  8.06592E+01  9.56800E+01  9.98651E+01  8.99836E+01  8.37244E+01  6.62598E+01  6.11066E+01  4.94515E+01  4.55784E+01
   3.61405E+01  3.15273E+01  2.78471E+01  2.72087E+01  3.00256E+01  2.76350E+01  2.55647E+01  2.13040E+01  2.01228E+01  1.94295E+01
   1.85482E+01  1.96290E+01  2.38881E+01  3.35772E+01  4.96245E+01  5.56175E+01  6.47300E+01  6.97194E+01  7.10190E+01  6.36905E+01
   5.77611E+01  4.85749E+01  4.57255E+01  3.48303E+01  2.98993E+01  2.23051E+01  2.23424E+01  1.87301E+01  1.80269E+01  2.55333E+01
   2.38280E+01  2.23270E+01  1.24054E+01  1.52043E+01  2.04115E+01  1.85241E+01  1.66780E+01  1.43009E+01  1.54096E+01  1.26744E+01
   1.67581E+01  1.28734E+01  1.14961E+01  1.60403E+01  1.87792E+01  1.42530E+01  1.35215E+01  1.36646E+01  1.39346E+01  1.12942E+01
   1.04898E+01  1.02579E+01  8.79746E+00  1.04258E+01  1.84469E+01  1.31981E+01  1.32194E+01  1.31057E+01  1.30056E+01  5.43954E+00
  -2.89769E-01  5.79820E+00  2.86500E+00  8.02895E+00  3.75036E+00  6.71455E+00  6.90328E+00  2.52946E+00  3.57843E+00  2.52534E+00
   3.78594E+00  9.81698E-01  6.16691E+00 -1.20194E+00  4.74746E+00  4.64860E+00  2.54508E+00  8.06091E+00  1.06885E+01  8.94647E+00
   1.16677E+01  1.33814E+01  1.17386E+01  1.70176E+01  1.10981E+01  1.59162E+01  1.39034E+01  1.16350E+01  4.91330E+00  1.07701E+01
   1.12671E+01  1.43154E+01  8.53708E+00  1.29474E+01  1.69845E+01  1.56046E+01  1.63626E+01  9.69759E+00  7.58570E+00  4.53526E+00
   6.46644E+00  6.71392E+00  8.02315E+00  1.60234E+01  1.44732E+01  1.90387E+01  2.08223E+01  2.28301E+01  1.92022E+01  9.76772E+00
   1.03509E+01  7.74741E+00  9.09437E+00  6.82120E+00  1.13399E+01  1.55463E+01  1.39287E+01  1.83766E+01  1.82353E+01  1.82105E+01
   2.06216E+01  1.51908E+01  1.73097E+01  1.38105E+01  1.45450E+01  1.26557E+01  1.75488E+01  1.34469E+01  1.85443E+01  1.30898E+01
   8.68367E+00  1.39192E+01  1.43775E+01  1.70526E+01  1.95059E+01  1.68410E+01  2.05884E+01  1.96157E+01  2.30326E+01  2.33404E+01
   2.27045E+01  2.77932E+01  2.03707E+01  2.65270E+01  2.95148E+01  3.02886E+01  3.64179E+01  4.79189E+01  6.27842E+01  7.51000E+01
   8.11470E+01  8.16661E+01  7.12490E+01  6.62628E+01  5.59989E+01  4.47522E+01  3.75826E+01  2.95119E+01  2.08142E+01  2.01322E+01
   1.84361E+01  9.56517E+00  1.74432E+01  1.25435E+01  1.07621E+01  1.31113E+01  1.44027E+01  1.21200E+01  1.46590E+01  1.17456E+01
   1.18998E+01  8.68779E+00  9.18026E+00  1.24691E+01  9.35812E+00  1.20722E+01  8.11800E+00  1.33168E+01  9.87953E+00  9.22553E+00
   1.00100E+01  5.40058E+00  1.17139E+01  9.90380E+00  9.61295E+00  1.14183E+01  1.21420E+01  9.01653E+00  1.50679E+01  1.28915E+01
   1.04276E+01  1.12637E+01  1.26456E+01  1.28329E+01  1.38806E+01  1.66585E+01  1.96071E+01  1.37467E+01  1.78261E+01  2.01187E+01
   1.77866E+01  2.25670E+01  2.04557E+01  1.56364E+01  1.60409E+01  1.16476E+01  1.52798E+01  1.86168E+01  1.61809E+01  1.59156E+01
   1.83601E+01  1.21825E+01  1.92862E+01  1.82967E+01  1.34183E+01  2.25961E+01  1.54899E+01  2.08348E+01  1.47836E+01  1.25887E+01
   1.31574E+01  1.43439E+01  1.90259E+01  1.24283E+01  1.97251E+01  1.76864E+01  2.09991E+01  1.42786E+01  1.34282E+01  1.60177E+01
   1.67343E+01  1.95428E+01  1.93021E+01  1.68821E+01  2.44368E+01  2.83948E+01  2.46850E+01  2.53667E+01  2.31612E+01  1.79192E+01
   1.92365E+01  1.02156E+01  1.30508E+01  1.61374E+01  1.76355E+01  1.08528E+01  1.67925E+01  1.35049E+01  5.46284E+00  6.72884E+00
   8.28060E+00  5.67169E+00  5.27976E+00  7.32610E+00  4.51408E-01  5.60181E+00  2.16259E+00  5.35914E-01 -5.04494E-01  1.36022E+00
   1.06950E+00  4.25589E+00  6.00724E+00  4.20065E+00 -5.82400E-01  5.51823E+00 -1.84692E+00  8.02862E-01  1.60894E+00  3.90338E-01
  -2.05358E+00  3.34845E-01  9.21746E-01  1.73483E+00  8.38261E-01 -3.02748E+00  4.06780E+00  3.77221E+00  2.72340E+00  2.11631E+00
   6.10699E+00  1.29935E+00 -2.15133E+00  1.46924E+00  4.26169E+00  1.68584E+00  4.96638E+00  6.85674E+00  9.17846E+00  7.15970E+00
   4.25301E+00  9.81085E+00  9.06911E+00  4.90687E+00  1.41084E+01  1.34788E+01  1.02687E+01  8.54287E+00  9.24316E+00  8.17750E+00
   1.32742E+01  8.63685E+00  3.75618E+00  2.40491E+00  8.37476E+00  2.39628E+00  3.72325E+00  1.14659E+00  3.30099E+00  1.52546E+00
   3.43030E+00 -1.62636E+00  2.54351E+00  1.13870E+00 -6.70322E-01 -1.77319E+00 -3.98109E+00 -2.84263E+00 -5.24556E-01 -4.52767E+00
  -3.95972E+00 -1.50516E+00 -1.74546E+00 -4.36344E+00 -6.59750E+00 -6.15074E+00 -2.70975E+00 -2.04827E+00 -1.82018E-01 -3.79179E+00
  -5.34095E+00 -2.16049E+00 -3.45522E+00 -3.00945E+00 -4.02435E+00  3.94481E+00 -6.39252E+00  5.17119E-02 -2.70260E+00 -4.92163E+00
  -5.51068E+00 -1.57307E+00 -5.14654E+00 -4.88809E+00 -1.94019E+00  2.07351E+00 -5.00197E+00 -2.00502E+00 -7.12745E+00 -1.83467E+00
  -4.79110E+00 -1.59897E+00 -2.29601E+00 -3.45956E+00 -3.07567E+00 -5.83072E+00 -6.15086E+00 -7.03040E+00 -4.15456E+00 -1.15668E+00
  -6.05363E+00 -2.47791E+00 -3.10728E+00 -6.51700E+00 -3.61956E+00 -5.74325E+00 -9.14131E+00 -4.89105E+00 -2.63362E+00 -1.15984E+01
  -7.24160E+00 -6.44749E+00 -6.21461E+00 -6.40672E+00 -4.68700E+00 -4.58619E+00 -7.19446E+00 -1.97906E+00 -5.12826E+00 -9.05906E+00
  -1.86205E+00 -5.42339E+00  7.01276E-01 -1.79976E+00 -2.49682E-01 -5.21799E+00 -7.01074E-01 -3.79203E+00
 NY points of the fit to the data follow
   7.03264E+01  6.97658E+01  6.95906E+01  7.00546E+01  7.20129E+01  7.63163E+01  8.28675E+01  9.05096E+01  9.74152E+01  1.01828E+02
   1.02805E+02  1.00579E+02  9.62478E+01  9.10573E+01  8.57611E+01  8.04966E+01  7.53098E+01  7.09107E+01  6.81039E+01  6.62443E+01
   6.49760E+01  6.39288E+01  6.28311E+01  6.16033E+01  6.05427E+01  6.01835E+01  6.07441E+01  6.20931E+01  6.38971E+01  6.56589E+01
   6.68283E+01  6.70024E+01  6.61014E+01  6.43881E+01  6.21762E+01  5.97272E+01  5.72205E+01  5.51500E+01  5.39677E+01  5.32536E+01
   5.28149E+01  5.27171E+01  5.30646E+01  5.38649E+01  5.48557E+01  5.57320E+01  5.61562E+01  5.59536E+01  5.51799E+01  5.38335E+01
   5.21322E+01  5.04528E+01  4.88981E+01  4.73130E+01  4.58648E+01  4.48981E+01  4.44129E+01  4.41591E+01  4.39619E+01  4.36841E+01
   4.31649E+01  4.23535E+01  4.13217E+01  4.02534E+01  3.93103E+01  3.85347E+01  3.79095E+01  3.74676E+01  3.72214E+01  3.70951E+01
   3.70030E+01  3.68374E+01  3.65423E+01  3.61097E+01  3.55705E+01  3.49892E+01  3.44117E+01  3.38503E+01  3.32966E+01  3.27640E+01
   3.23503E+01  3.21519E+01  3.22028E+01  3.23724E+01  3.24291E+01  3.21806E+01  3.15621E+01  3.06635E+01  2.96808E+01  2.88133E+01
   2.81626E+01  2.77023E+01  2.73297E+01  2.69785E+01  2.67223E+01  2.66051E+01  2.67001E+01  2.82000E+01  3.38824E+01  4.56902E+01
   6.20706E+01  7.87793E+01  9.11484E+01  9.60616E+01  9.31336E+01  8.45649E+01  7.35871E+01  6.26504E+01  5.23548E+01  4.21454E+01
   3.24539E+01  2.62671E+01  2.42802E+01  2.34823E+01  2.29833E+01  2.26011E+01  2.22784E+01  2.20033E+01  2.17993E+01  2.17304E+01
   2.19691E+01  2.32195E+01  2.71804E+01  3.53079E+01  4.68354E+01  5.89979E+01  6.85191E+01  7.30625E+01  7.21083E+01  6.69442E+01
   5.96411E+01  5.18439E+01  4.40469E+01  3.59669E+01  2.79316E+01  2.20444E+01  1.96162E+01  1.88025E+01  1.86460E+01  1.87505E+01
   1.88902E+01  1.89980E+01  1.90019E+01  1.88074E+01  1.84498E+01  1.79781E+01  1.74110E+01  1.68149E+01  1.62223E+01  1.56837E+01
   1.52153E+01  1.47938E+01  1.44342E+01  1.41546E+01  1.39551E+01  1.37970E+01  1.35895E+01  1.32370E+01  1.27234E+01  1.21589E+01
   1.17257E+01  1.15413E+01  1.15579E+01  1.16185E+01  1.15702E+01  1.13219E+01  1.09063E+01  1.04537E+01  1.00655E+01  9.70609E+00
   9.27147E+00  8.72232E+00  8.06111E+00  7.43699E+00  7.00472E+00  6.78273E+00  6.74077E+00  6.76762E+00  6.76029E+00  6.69016E+00
   6.58575E+00  6.49275E+00  6.41903E+00  6.34674E+00  6.32204E+00  6.49319E+00  7.12594E+00  8.28442E+00  9.73058E+00  1.10447E+01
   1.18693E+01  1.21220E+01  1.18613E+01  1.12354E+01  1.04741E+01  9.75285E+00  9.24609E+00  9.19339E+00  9.66119E+00  1.06092E+01
   1.19224E+01  1.33537E+01  1.45763E+01  1.52972E+01  1.52220E+01  1.41437E+01  1.22093E+01  9.91700E+00  7.82293E+00  6.40941E+00
   6.08020E+00  7.05936E+00  9.22443E+00  1.20224E+01  1.46616E+01  1.64419E+01  1.69315E+01  1.59335E+01  1.34936E+01  1.04242E+01
   7.73673E+00  5.98315E+00  5.42546E+00  6.17384E+00  8.09759E+00  1.04899E+01  1.25907E+01  1.41187E+01  1.51179E+01  1.57037E+01
   1.58613E+01  1.57032E+01  1.56387E+01  1.59348E+01  1.64595E+01  1.70417E+01  1.75491E+01  1.78572E+01  1.78161E+01  1.73557E+01
   1.67012E+01  1.62450E+01  1.62109E+01  1.66021E+01  1.72578E+01  1.80744E+01  1.88643E+01  1.94426E+01  1.98704E+01  2.03611E+01
   2.11008E+01  2.20905E+01  2.33962E+01  2.49450E+01  2.68911E+01  3.06359E+01  3.83364E+01  5.01753E+01  6.36685E+01  7.51166E+01
   8.13205E+01  8.08590E+01  7.46301E+01  6.51934E+01  5.52167E+01  4.58276E+01  3.67210E+01  2.76784E+01  2.02654E+01  1.67176E+01
   1.52906E+01  1.44677E+01  1.39431E+01  1.35602E+01  1.31920E+01  1.28216E+01  1.24285E+01  1.20161E+01  1.16036E+01  1.12038E+01
   1.08159E+01  1.04614E+01  1.01678E+01  9.93374E+00  9.74068E+00  9.57699E+00  9.44637E+00  9.35761E+00  9.31317E+00  9.31212E+00
   9.36399E+00  9.47490E+00  9.64486E+00  9.87029E+00  1.01498E+01  1.04824E+01  1.08660E+01  1.12975E+01  1.17730E+01  1.22865E+01
   1.28307E+01  1.33934E+01  1.39589E+01  1.45105E+01  1.50327E+01  1.55113E+01  1.59331E+01  1.62860E+01  1.65629E+01  1.67601E+01
   1.68773E+01  1.69191E+01  1.68936E+01  1.68113E+01  1.66861E+01  1.65341E+01  1.63731E+01  1.62218E+01  1.60990E+01  1.60249E+01
   1.60259E+01  1.61422E+01  1.63931E+01  1.67071E+01  1.69435E+01  1.69814E+01  1.67769E+01  1.63682E+01  1.58471E+01  1.53333E+01
   1.49709E+01  1.48720E+01  1.50496E+01  1.54402E+01  1.59624E+01  1.65193E+01  1.69280E+01  1.71177E+01  1.71850E+01  1.72674E+01
   1.74973E+01  1.80202E+01  1.90172E+01  2.05367E+01  2.21851E+01  2.33321E+01  2.35476E+01  2.27237E+01  2.10272E+01  1.88412E+01
   1.67364E+01  1.52405E+01  1.44979E+01  1.43019E+01  1.43753E+01  1.45406E+01  1.44533E+01  1.36429E+01  1.23066E+01  1.08067E+01
   9.33646E+00  7.85775E+00  6.29298E+00  4.92247E+00  4.03145E+00  3.43512E+00  3.00258E+00  2.67038E+00  2.40222E+00  2.17621E+00
   1.97924E+00  1.80371E+00  1.64554E+00  1.50285E+00  1.37520E+00  1.26311E+00  1.16773E+00  1.09075E+00  1.03416E+00  1.00026E+00
   9.91558E-01  1.01080E+00  1.06094E+00  1.14506E+00  1.26629E+00  1.42763E+00  1.63189E+00  1.88153E+00  2.17848E+00  2.52386E+00
   2.91769E+00  3.35861E+00  3.84365E+00  4.36806E+00  4.92519E+00  5.50632E+00  6.10070E+00  6.69572E+00  7.27728E+00  7.83024E+00
   8.33903E+00  8.78817E+00  9.16302E+00  9.45050E+00  9.63983E+00  9.72315E+00  9.69589E+00  9.55695E+00  9.30880E+00  8.95734E+00
   8.51164E+00  7.98343E+00  7.38640E+00  6.73544E+00  6.04600E+00  5.33339E+00  4.61220E+00  3.89575E+00  3.19565E+00  2.52148E+00
   1.88080E+00  1.27915E+00  7.20200E-01  2.05864E-01 -2.63512E-01 -6.88843E-01 -1.07198E+00 -1.41539E+00 -1.72197E+00 -1.99490E+00
  -2.23749E+00 -2.45299E+00 -2.64448E+00 -2.81477E+00 -2.96640E+00 -3.10173E+00 -3.22288E+00 -3.33170E+00 -3.42976E+00 -3.51838E+00
  -3.59870E+00 -3.67176E+00 -3.73850E+00 -3.79967E+00 -3.85587E+00 -3.90761E+00 -3.95536E+00 -3.99959E+00 -4.04069E+00 -4.07898E+00
  -4.11467E+00 -4.14798E+00 -4.17913E+00 -4.20838E+00 -4.23589E+00 -4.26176E+00 -4.28608E+00 -4.30894E+00 -4.33049E+00 -4.35085E+00
  -4.37011E+00 -4.38828E+00 -4.40540E+00 -4.42153E+00 -4.43679E+00 -4.45124E+00 -4.46492E+00 -4.47781E+00 -4.48993E+00 -4.50135E+00
  -4.51216E+00 -4.52239E+00 -4.53202E+00 -4.54103E+00 -4.54945E+00 -4.55736E+00 -4.56481E+00 -4.57180E+00 -4.57831E+00 -4.58432E+00
  -4.58988E+00 -4.59505E+00 -4.59986E+00 -4.60429E+00 -4.60830E+00 -4.61190E+00 -4.61514E+00 -4.61807E+00 -4.62070E+00 -4.62298E+00
  -4.62488E+00 -4.62643E+00 -4.62769E+00 -4.62869E+00 -4.62938E+00 -4.62973E+00 -4.62971E+00 -4.62937E+00
 NY background values follow
     6.859E+01    6.807E+01    6.755E+01    6.703E+01    6.651E+01    6.598E+01    6.546E+01    6.494E+01    6.442E+01    6.390E+01
     6.337E+01    6.285E+01    6.233E+01    6.181E+01    6.129E+01    6.077E+01    6.025E+01    5.973E+01    5.921E+01    5.869E+01
     5.817E+01    5.766E+01    5.714E+01    5.663E+01    5.611E+01    5.560E+01    5.509E+01    5.458E+01    5.407E+01    5.356E+01
     5.306E+01    5.255E+01    5.205E+01    5.155E+01    5.105E+01    5.055E+01    5.006E+01    4.956E+01    4.907E+01    4.858E+01
     4.809E+01    4.761E+01    4.712E+01    4.664E+01    4.616E+01    4.569E+01    4.521E+01    4.474E+01    4.427E+01    4.381E+01
     4.334E+01    4.288E+01    4.243E+01    4.197E+01    4.152E+01    4.107E+01    4.062E+01    4.018E+01    3.973E+01    3.930E+01
     3.886E+01    3.843E+01    3.800E+01    3.757E+01    3.714E+01    3.672E+01    3.630E+01    3.589E+01    3.548E+01    3.507E+01
     3.466E+01    3.426E+01    3.386E+01    3.346E+01    3.307E+01    3.268E+01    3.229E+01    3.190E+01    3.152E+01    3.115E+01
     3.077E+01    3.040E+01    3.003E+01    2.967E+01    2.931E+01    2.895E+01    2.859E+01    2.824E+01    2.790E+01    2.755E+01
     2.721E+01    2.688E+01    2.654E+01    2.621E+01    2.589E+01    2.557E+01    2.525E+01    2.493E+01    2.462E+01    2.431E+01
     2.401E+01    2.370E+01    2.341E+01    2.311E+01    2.282E+01    2.253E+01    2.225E+01    2.197E+01    2.169E+01    2.141E+01
     2.114E+01    2.088E+01    2.061E+01    2.035E+01    2.009E+01    1.984E+01    1.959E+01    1.934E+01    1.909E+01    1.885E+01
     1.861E+01    1.838E+01    1.815E+01    1.792E+01    1.769E+01    1.747E+01    1.725E+01    1.704E+01    1.683E+01    1.662E+01
     1.641E+01    1.621E+01    1.601E+01    1.581E+01    1.562E+01    1.543E+01    1.524E+01    1.505E+01    1.487E+01    1.469E+01
     1.452E+01    1.435E+01    1.418E+01    1.401E+01    1.385E+01    1.369E+01    1.353E+01    1.337E+01    1.322E+01    1.307E+01
     1.293E+01    1.278E+01    1.264E+01    1.250E+01    1.237E+01    1.224E+01    1.211E+01    1.198E+01    1.186E+01    1.173E+01
     1.162E+01    1.150E+01    1.139E+01    1.127E+01    1.117E+01    1.106E+01    1.096E+01    1.086E+01    1.076E+01    1.066E+01
     1.057E+01    1.048E+01    1.039E+01    1.031E+01    1.022E+01    1.014E+01    1.006E+01    9.986E+00    9.912E+00    9.841E+00
     9.772E+00    9.705E+00    9.640E+00    9.578E+00    9.518E+00    9.459E+00    9.403E+00    9.349E+00    9.297E+00    9.247E+00
     9.198E+00    9.151E+00    9.106E+00    9.062E+00    9.020E+00    8.979E+00    8.940E+00    8.902E+00    8.866E+00    8.830E+00
     8.796E+00    8.763E+00    8.731E+00    8.700E+00    8.669E+00    8.640E+00    8.611E+00    8.583E+00    8.556E+00    8.530E+00
     8.503E+00    8.478E+00    8.453E+00    8.428E+00    8.403E+00    8.379E+00    8.354E+00    8.330E+00    8.306E+00    8.282E+00
     8.258E+00    8.234E+00    8.209E+00    8.184E+00    8.159E+00    8.133E+00    8.107E+00    8.081E+00    8.054E+00    8.026E+00
     7.998E+00    7.969E+00    7.940E+00    7.910E+00    7.880E+00    7.849E+00    7.817E+00    7.785E+00    7.753E+00    7.719E+00
     7.686E+00    7.651E+00    7.616E+00    7.581E+00    7.544E+00    7.507E+00    7.470E+00    7.432E+00    7.393E+00    7.353E+00
     7.313E+00    7.273E+00    7.231E+00    7.189E+00    7.146E+00    7.103E+00    7.059E+00    7.014E+00    6.968E+00    6.922E+00
     6.875E+00    6.827E+00    6.779E+00    6.730E+00    6.680E+00    6.630E+00    6.578E+00    6.526E+00    6.473E+00    6.420E+00
     6.365E+00    6.310E+00    6.254E+00    6.198E+00    6.140E+00    6.082E+00    6.023E+00    5.963E+00    5.903E+00    5.841E+00
     5.779E+00    5.717E+00    5.653E+00    5.589E+00    5.524E+00    5.458E+00    5.392E+00    5.325E+00    5.257E+00    5.189E+00
     5.119E+00    5.049E+00    4.979E+00    4.907E+00    4.835E+00    4.763E+00    4.689E+00    4.615E+00    4.541E+00    4.465E+00
     4.389E+00    4.313E+00    4.235E+00    4.157E+00    4.079E+00    3.999E+00    3.919E+00    3.839E+00    3.758E+00    3.676E+00
     3.593E+00    3.510E+00    3.427E+00    3.343E+00    3.258E+00    3.172E+00    3.086E+00    3.000E+00    2.912E+00    2.825E+00
     2.736E+00    2.648E+00    2.558E+00    2.469E+00    2.379E+00    2.289E+00    2.198E+00    2.107E+00    2.016E+00    1.924E+00
     1.832E+00    1.740E+00    1.648E+00    1.556E+00    1.464E+00    1.371E+00    1.279E+00    1.187E+00    1.094E+00    1.002E+00
     9.094E-01    8.172E-01    7.252E-01    6.332E-01    5.415E-01    4.500E-01    3.588E-01    2.678E-01    1.772E-01    8.683E-02
    -3.135E-03   -9.270E-02   -1.818E-01   -2.705E-01   -3.587E-01   -4.464E-01   -5.336E-01   -6.202E-01   -7.062E-01   -7.915E-01
    -8.762E-01   -9.602E-01   -1.044E+00   -1.126E+00   -1.208E+00   -1.289E+00   -1.369E+00   -1.449E+00   -1.528E+00   -1.605E+00
    -1.683E+00   -1.759E+00   -1.834E+00   -1.909E+00   -1.983E+00   -2.056E+00   -2.128E+00   -2.199E+00   -2.269E+00   -2.338E+00
    -2.407E+00   -2.474E+00   -2.541E+00   -2.606E+00   -2.671E+00   -2.735E+00   -2.797E+00   -2.859E+00   -2.920E+00   -2.979E+00
    -3.038E+00   -3.096E+00   -3.152E+00   -3.208E+00   -3.262E+00   -3.315E+00   -3.368E+00   -3.419E+00   -3.469E+00   -3.518E+00
    -3.565E+00   -3.612E+00   -3.657E+00   -3.702E+00   -3.745E+00   -3.787E+00   -3.827E+00   -3.867E+00   -3.905E+00   -3.942E+00
    -3.978E+00   -4.013E+00   -4.047E+00   -4.079E+00   -4.111E+00   -4.141E+00   -4.170E+00   -4.199E+00   -4.226E+00   -4.252E+00
    -4.278E+00   -4.302E+00   -4.326E+00   -4.348E+00   -4.370E+00   -4.391E+00   -4.411E+00   -4.430E+00   -4.448E+00   -4.466E+00
    -4.483E+00   -4.499E+00   -4.515E+00   -4.529E+00   -4.544E+00   -4.557E+00   -4.570E+00   -4.582E+00   -4.594E+00   -4.605E+00
    -4.615E+00   -4.625E+00   -4.635E+00   -4.644E+00   -4.652E+00   -4.661E+00   -4.668E+00   -4.676E+00   -4.683E+00   -4.689E+00
    -4.695E+00   -4.701E+00   -4.707E+00   -4.712E+00   -4.717E+00   -4.722E+00   -4.727E+00   -4.731E+00   -4.735E+00   -4.739E+00
    -4.742E+00   -4.746E+00   -4.749E+00   -4.752E+00   -4.754E+00   -4.757E+00   -4.759E+00   -4.761E+00   -4.762E+00   -4.764E+00
    -4.765E+00   -4.766E+00   -4.767E+00   -4.767E+00   -4.768E+00   -4.768E+00   -4.768E+00   -4.768E+00   -4.768E+00   -4.767E+00
    -4.766E+00   -4.765E+00   -4.764E+00   -4.763E+00   -4.762E+00   -4.760E+00   -4.759E+00   -4.757E+00   -4.755E+00   -4.753E+00
    -4.750E+00   -4.748E+00   -4.745E+00   -4.743E+00   -4.740E+00   -4.737E+00   -4.734E+00   -4.731E+00
 Ala      Conc. = 1.34E+02
