 LCModel (Version 6.3-1L) Copyright: S.W. Provencher.          Ref.: Magn. Reson. Med. 30:672-679 (1993).                
 Slice#1 Row#7 Col#3  PD_24_press_1_raw_act
 36 lines in following concentration table = NCONC+1
    Conc.  %SD /Cr+PCr  Metabolite                                         
   69.080 108% 9.1E-02 Ala                                                 
   81.204 176%   0.107 Asp                                                 
  336.329  41%   0.442 Cr                                                  
  424.972  34%   0.558 PCr                                                 
   50.247 180% 6.6E-02 GABA                                                
   82.836 112%   0.109 Glc                                                 
  458.053  34%   0.602 Gln                                                 
 1.01E+03  18%   1.328 Glu                                                 
  282.164   6%   0.371 GPC                                                 
    0.000 999%   0.000 PCh                                                 
  248.472  22%   0.326 GSH                                                 
  559.939  29%   0.736 Ins                                                 
   69.379 116% 9.1E-02 Lac                                                 
 1.31E+03   5%   1.721 NAA                                                 
  286.042  23%   0.376 NAAG                                                
   24.184  77% 3.2E-02 Scyllo                                              
   44.910 287% 5.9E-02 Tau                                                 
  144.980  53%   0.190 -CrCH2                                              
  282.164   6%   0.371 GPC+PCh                                             
 1.60E+03   4%   2.097 NAA+NAAG                                            
  761.301   6%   1.000 Cr+PCr                                              
 1.47E+03  16%   1.929 Glu+Gln                                             
    0.000 999%   0.000 Lip13a                                              
  136.666  84%   0.180 Lip13b                                              
    0.000 999%   0.000 Lip09                                               
  672.395  17%   0.883 MM09                                                
   53.836  99% 7.1E-02 Lip20                                               
 1.17E+03  15%   1.534 MM20                                                
  200.961  20%   0.264 MM12                                                
  463.422  25%   0.609 MM14                                                
  294.688  25%   0.387 MM17                                                
  136.666  84%   0.180 Lip13a+Lip13b                                       
  801.049  20%   1.052 MM14+Lip13a+Lip13b+MM12                             
  672.395  17%   0.883 MM09+Lip09                                          
 1.22E+03  15%   1.604 MM20+Lip20                                          
   6 lines in following misc. output table
  FWHM = 0.046 ppm    S/N =   9                                            
  Data shift = 0.015 ppm                                                   
  Ph: -44 deg      -4.5 deg/ppm                                            
  alphaB,S = 8.5E+01,   6.3E+01                                            
   14 spline knots.   Ns = 5(1)                                            
   4 inflections.     1 extrema                                            
  498 points on ppm-axis = NY
      4.000000     3.992357     3.984714     3.977070     3.969427     3.961784     3.954141     3.946497     3.938854     3.931211
      3.923568     3.915925     3.908281     3.900638     3.892995     3.885352     3.877708     3.870065     3.862422     3.854779
      3.847136     3.839492     3.831849     3.824206     3.816563     3.808919     3.801276     3.793633     3.785990     3.778347
      3.770703     3.763060     3.755417     3.747774     3.740130     3.732487     3.724844     3.717201     3.709558     3.701914
      3.694271     3.686628     3.678985     3.671341     3.663698     3.656055     3.648412     3.640769     3.633125     3.625482
      3.617839     3.610196     3.602552     3.594909     3.587266     3.579623     3.571980     3.564336     3.556693     3.549050
      3.541407     3.533763     3.526120     3.518477     3.510834     3.503191     3.495547     3.487904     3.480261     3.472618
      3.464974     3.457331     3.449688     3.442045     3.434402     3.426758     3.419115     3.411472     3.403829     3.396185
      3.388542     3.380899     3.373256     3.365613     3.357969     3.350326     3.342683     3.335040     3.327396     3.319753
      3.312110     3.304467     3.296824     3.289180     3.281537     3.273894     3.266251     3.258607     3.250964     3.243321
      3.235678     3.228034     3.220391     3.212748     3.205105     3.197462     3.189818     3.182175     3.174532     3.166889
      3.159245     3.151602     3.143959     3.136316     3.128673     3.121029     3.113386     3.105743     3.098100     3.090456
      3.082813     3.075170     3.067527     3.059884     3.052240     3.044597     3.036954     3.029311     3.021667     3.014024
      3.006381     2.998738     2.991095     2.983451     2.975808     2.968165     2.960522     2.952878     2.945235     2.937592
      2.929949     2.922306     2.914662     2.907019     2.899376     2.891733     2.884089     2.876446     2.868803     2.861160
      2.853517     2.845873     2.838230     2.830587     2.822944     2.815300     2.807657     2.800014     2.792371     2.784728
      2.777084     2.769441     2.761798     2.754155     2.746511     2.738868     2.731225     2.723582     2.715939     2.708295
      2.700652     2.693009     2.685366     2.677722     2.670079     2.662436     2.654793     2.647150     2.639506     2.631863
      2.624220     2.616577     2.608933     2.601290     2.593647     2.586004     2.578361     2.570717     2.563074     2.555431
      2.547788     2.540144     2.532501     2.524858     2.517215     2.509572     2.501928     2.494285     2.486642     2.478999
      2.471355     2.463712     2.456069     2.448426     2.440783     2.433139     2.425496     2.417853     2.410210     2.402566
      2.394923     2.387280     2.379637     2.371994     2.364350     2.356707     2.349064     2.341421     2.333777     2.326134
      2.318491     2.310848     2.303205     2.295561     2.287918     2.280275     2.272632     2.264988     2.257345     2.249702
      2.242059     2.234416     2.226772     2.219129     2.211486     2.203843     2.196199     2.188556     2.180913     2.173270
      2.165627     2.157983     2.150340     2.142697     2.135054     2.127410     2.119767     2.112124     2.104481     2.096838
      2.089194     2.081551     2.073908     2.066265     2.058621     2.050978     2.043335     2.035692     2.028049     2.020405
      2.012762     2.005119     1.997476     1.989833     1.982190     1.974546     1.966903     1.959260     1.951617     1.943974
      1.936331     1.928688     1.921045     1.913402     1.905759     1.898115     1.890472     1.882829     1.875186     1.867543
      1.859900     1.852257     1.844614     1.836971     1.829327     1.821684     1.814041     1.806398     1.798755     1.791112
      1.783469     1.775826     1.768183     1.760540     1.752896     1.745253     1.737610     1.729967     1.722324     1.714681
      1.707038     1.699395     1.691752     1.684108     1.676465     1.668822     1.661179     1.653536     1.645893     1.638250
      1.630607     1.622964     1.615321     1.607677     1.600034     1.592391     1.584748     1.577105     1.569462     1.561819
      1.554176     1.546533     1.538890     1.531246     1.523603     1.515960     1.508317     1.500674     1.493031     1.485388
      1.477745     1.470102     1.462458     1.454815     1.447172     1.439529     1.431886     1.424243     1.416600     1.408957
      1.401314     1.393671     1.386027     1.378384     1.370741     1.363098     1.355455     1.347812     1.340169     1.332526
      1.324883     1.317240     1.309596     1.301953     1.294310     1.286667     1.279024     1.271381     1.263738     1.256095
      1.248452     1.240808     1.233165     1.225522     1.217879     1.210236     1.202593     1.194950     1.187307     1.179664
      1.172021     1.164377     1.156734     1.149091     1.141448     1.133805     1.126162     1.118519     1.110876     1.103233
      1.095590     1.087946     1.080303     1.072660     1.065017     1.057374     1.049731     1.042088     1.034445     1.026802
      1.019158     1.011515     1.003872     0.996229     0.988586     0.980943     0.973300     0.965657     0.958014     0.950371
      0.942727     0.935084     0.927441     0.919798     0.912155     0.904512     0.896869     0.889226     0.881583     0.873940
      0.866296     0.858653     0.851010     0.843367     0.835724     0.828081     0.820438     0.812795     0.805152     0.797508
      0.789865     0.782222     0.774579     0.766936     0.759293     0.751650     0.744007     0.736364     0.728721     0.721077
      0.713434     0.705791     0.698148     0.690505     0.682862     0.675219     0.667576     0.659933     0.652290     0.644646
      0.637003     0.629360     0.621717     0.614074     0.606431     0.598788     0.591145     0.583502     0.575858     0.568215
      0.560572     0.552929     0.545286     0.537643     0.530000     0.522357     0.514714     0.507071     0.499427     0.491784
      0.484141     0.476498     0.468855     0.461212     0.453569     0.445925     0.438282     0.430639     0.422996     0.415353
      0.407710     0.400067     0.392424     0.384780     0.377137     0.369494     0.361851     0.354208     0.346565     0.338922
      0.331278     0.323635     0.315992     0.308349     0.300706     0.293063     0.285420     0.277777     0.270133     0.262490
      0.254847     0.247204     0.239561     0.231918     0.224275     0.216631     0.208988     0.201345
 NY phased data points follow
   1.18252E+00 -1.34888E-01  4.17906E+00  2.66640E+00  4.12435E+00  9.72353E+00  5.72457E+00  8.72581E+00  1.05064E+01  1.35866E+01
   1.88975E+01  1.60688E+01  1.33799E+01  1.15757E+01  9.41121E+00  2.85165E-01  7.49633E+00 -1.84185E-01  3.55358E+00  1.04422E+00
   5.76099E+00  2.28281E+00  3.96804E+00  2.42259E+00  8.65761E+00  2.01110E+00  6.21745E+00  3.59582E+00  4.94113E+00  7.44644E+00
   6.51589E+00  6.26096E+00  9.88411E+00  9.03532E+00  2.91890E+00  6.36742E+00  5.28983E+00 -1.02461E-01  4.87829E+00  7.22814E-01
   4.10011E+00  4.35829E-02  3.67574E+00 -1.30765E+00  3.06752E+00  2.00925E+00  9.00660E+00  1.21481E+01  5.07966E+00  4.73006E+00
   6.02383E+00  3.56843E+00  1.88267E+00  8.20025E-01  2.62595E+00  1.94481E+00  1.60269E+00  2.69024E+00  1.38588E-01 -1.59880E+00
   1.52310E+00 -6.55859E-01  2.82868E+00  4.30330E-01 -5.04107E+00  1.46607E+00  7.17024E-01 -1.71772E+00 -5.37078E-01 -2.95906E+00
   3.47870E+00 -4.22160E+00 -1.26792E+00  3.52667E+00  2.90712E+00  5.52348E-01  1.98694E+00 -3.29667E+00  1.41262E+00  5.92645E-01
  -2.92652E-01 -7.63431E-01 -2.51426E+00  3.14072E+00  4.11609E+00 -1.06083E+00  4.07609E+00 -2.26952E+00 -1.30373E+00 -4.17309E+00
  -4.13054E+00  3.24551E+00  4.34164E+00  8.39771E+00  3.12350E+00  1.11665E+00  3.95243E+00  4.93672E+00  6.42790E+00  3.11257E+00
   1.38959E+01  2.59860E+01  3.36631E+01  2.78285E+01  2.79345E+01  2.26114E+01  1.48370E+01  1.42607E+01  8.38882E+00  3.51940E+00
   1.72524E+00  2.04235E+00  2.32789E+00  2.89025E-01  4.97313E+00 -1.27263E+00 -9.80623E-02  2.86202E+00  3.70780E+00  2.27751E+00
   1.86841E+00 -3.79665E-01  2.44954E+00  1.06816E+01  1.75846E+01  2.22804E+01  2.79543E+01  3.24500E+01  2.88179E+01  2.01000E+01
   1.51036E+01  9.88163E+00  9.69634E+00  6.39413E+00  8.52382E+00  1.22720E+00  4.70130E+00 -8.49464E-01  6.77006E-01  5.09999E+00
   7.08992E+00  5.55561E+00  1.03417E+00 -7.77162E-01 -2.15675E+00  5.39248E+00 -4.91080E-01 -4.76671E-01  2.29510E+00  7.07454E-01
  -3.32059E+00 -2.22267E+00 -5.27942E-01 -1.95397E+00 -1.47272E-01 -2.38936E+00 -2.72292E+00  3.18310E-01  1.99039E+00  1.74218E+00
  -6.35329E-01 -4.97800E+00 -2.50442E+00  1.35424E+00 -3.75768E+00 -1.46984E+00 -5.02895E-01 -2.50055E+00 -3.00154E+00 -7.36400E+00
  -8.19767E+00 -1.13037E+01 -3.28394E+00 -6.95294E+00 -9.19878E+00 -1.02027E+01 -1.47498E+01 -8.82811E+00 -8.79367E+00 -9.59855E+00
  -9.67869E+00 -8.39505E+00 -7.61859E+00 -1.09707E+01 -4.12872E+00 -2.07807E+00 -1.37408E+00 -6.39967E+00 -3.69610E+00 -3.03667E+00
  -3.72878E+00 -3.32379E+00 -4.17991E+00 -3.54547E+00 -4.98334E+00 -3.87792E+00 -4.41500E+00 -5.33216E+00 -5.60672E+00 -3.69364E+00
  -5.51564E-02 -3.69472E+00  2.10893E+00 -7.74224E-01  2.54857E+00 -7.11271E-01 -1.89229E+00  3.50499E-01 -2.38056E+00 -1.49149E+00
  -3.76385E+00  1.14039E+00  2.30356E-01  5.59496E+00  8.78286E+00  1.16151E+01  7.73830E+00  8.09331E+00  5.83010E+00  5.26452E+00
  -2.39465E+00 -5.79901E-01 -5.30010E+00  2.00236E-01 -4.79409E-02  4.02177E+00  5.57026E+00  6.23962E-01  5.39989E+00  3.41244E+00
   9.31158E+00  6.89071E+00  2.83963E+00  7.41193E+00  3.38010E+00  1.40778E+00  4.66725E+00  7.05882E+00  6.88411E+00  2.53868E+00
   2.76581E+00  5.93018E+00  3.36168E+00  1.55925E+00  6.74560E+00  9.65153E+00  3.32963E+00  3.88687E+00  1.20673E+01  6.72806E+00
   1.04430E+01  8.50613E+00  1.40327E+01  1.66922E+01  1.48368E+01  1.88154E+01  2.45394E+01  2.71960E+01  4.50532E+01  5.32502E+01
   5.49335E+01  5.94920E+01  4.49381E+01  3.50590E+01  2.39682E+01  1.49843E+01  1.34809E+01  9.72300E+00  3.92553E+00  4.76278E+00
   8.96070E+00  2.30115E+00  1.68273E+00  4.51856E+00  3.76672E+00  6.36638E+00  3.47535E+00  4.72091E-01  2.67933E+00  3.13792E+00
   1.60528E+00  2.29091E+00  1.62445E+00  7.27834E-01 -1.92076E+00  4.24739E+00  1.10687E+00  2.82860E+00  1.38664E+00  2.53191E+00
   2.92833E+00  9.24348E-01  2.90130E+00  1.29460E+00  1.84306E+00 -1.33995E+00  2.17875E+00  2.65099E+00  5.98860E-01  6.21697E-01
   4.68633E-01  2.43248E+00  3.63556E+00  5.31767E+00  1.51065E+00  3.43621E-01 -1.06842E+00  1.11941E+00  4.24085E+00  2.43400E+00
   3.89294E+00 -1.00211E+00  3.18532E+00  2.52514E+00  5.27721E+00  4.59907E+00  2.01138E+00  1.88089E+00 -3.85675E+00 -1.42587E+00
   1.11011E+00  1.76434E+00  3.29382E+00 -7.52654E-01  2.88638E-01  3.73938E+00  1.02100E+00  2.18205E+00  1.57202E+00  2.21250E-01
  -2.68827E+00  9.13455E-01 -6.40047E-01  5.08019E+00 -1.07629E+00 -2.59425E+00  1.98014E+00  2.70434E+00  7.32307E-01 -1.87513E+00
   1.39307E+00  3.63339E+00  2.18689E+00 -1.62465E+00  4.49087E+00  1.06733E+00  2.90767E+00  3.55063E+00  9.01571E+00  3.41920E-01
  -2.05075E+00  1.11204E+00  1.83976E-01  2.63425E+00  2.87597E+00 -6.21151E-01  2.47304E+00  6.71570E-01  2.94479E+00  4.92829E-01
   7.41832E+00  1.62949E+00  5.06467E+00  4.39378E+00 -5.51766E-01 -1.19292E+00  5.57690E+00  8.13398E-01 -9.35807E-01 -2.11614E+00
   1.65649E+00  3.85005E+00  4.45792E+00  5.25754E+00 -1.04148E+00  2.17567E+00  1.63824E+00 -7.08806E-01 -3.65366E+00 -9.26865E-01
   6.61372E-01 -2.11858E+00 -2.64313E+00 -1.86605E+00 -2.09866E+00  3.13903E-01  2.48181E+00  1.41054E-01 -1.29546E+00 -2.42137E+00
  -1.67815E-01  3.11352E+00 -1.81194E+00  1.68105E+00  3.23935E+00  4.16188E+00  1.09568E+00  5.87171E+00 -1.14501E+00 -1.14392E+00
   4.74785E+00  1.92145E+00 -3.08485E+00 -2.55877E-01 -5.51657E-01 -4.34795E-01  2.63432E+00  1.51088E+00 -4.31749E-02  3.06376E-02
  -1.17962E+00  1.44423E+00  1.02957E+00  1.08786E+00  4.68263E-01 -2.96510E+00  8.00483E-01  9.88167E-01  1.89697E+00 -1.75592E-01
  -3.54440E+00  2.18608E+00 -5.52267E-01  1.28714E+00 -4.79224E+00 -1.85696E+00 -2.05107E+00 -7.23721E-01 -1.86796E+00  3.64480E+00
   1.08002E+00  2.57616E+00  5.24292E-01 -3.36367E+00  3.78822E+00  4.21289E+00 -2.53080E+00  2.78671E-01  1.35671E+00  2.21008E-01
   1.78010E+00 -1.32649E-02  9.46765E-01  1.23445E+00  3.10620E-01 -2.57434E+00 -1.51083E+00  3.37866E-01 -5.13143E+00 -2.62038E-01
   2.49390E+00 -1.66252E+00  4.36236E-01 -1.85615E-01 -1.33652E-01  2.21269E+00 -2.35520E+00 -2.11812E+00  1.58659E+00  5.47215E-01
  -2.57737E+00 -4.41521E+00  2.25717E-01 -1.77499E+00 -9.29223E-01 -2.80718E+00 -6.86232E-01 -1.01483E+00  2.46001E+00 -5.82783E-01
  -9.65038E-01  3.66727E+00 -1.43742E+00  3.06251E+00  2.78727E+00 -4.67751E+00 -4.99549E-01  9.79615E-01 -4.14615E+00  1.00841E+00
   9.91269E-01 -4.02029E+00  8.13655E-01  9.22900E-01 -2.23761E+00 -9.37372E-01 -1.71453E-01  9.87385E-01  5.20140E-01 -1.15502E-01
  -5.85349E-01 -4.02677E+00  5.99745E-02 -2.25902E-01  1.14705E+00 -3.15023E+00  1.90042E+00  5.85747E-01
 NY points of the fit to the data follow
   1.06600E+00  1.02357E+00  1.13625E+00  1.54844E+00  2.52820E+00  4.20248E+00  6.63676E+00  9.67556E+00  1.27481E+01  1.51335E+01
   1.61151E+01  1.55149E+01  1.36933E+01  1.12364E+01  8.69975E+00  6.47171E+00  4.89097E+00  3.66612E+00  2.76911E+00  2.48035E+00
   2.46783E+00  2.49897E+00  2.48283E+00  2.32400E+00  2.12193E+00  2.18850E+00  2.75103E+00  3.93869E+00  5.54490E+00  7.21459E+00
   8.50626E+00  8.99716E+00  8.67171E+00  7.64377E+00  6.14727E+00  4.29111E+00  2.52247E+00  1.50480E+00  1.07262E+00  1.08368E+00
   1.37400E+00  1.79116E+00  2.35480E+00  3.09763E+00  4.09511E+00  5.23414E+00  6.19040E+00  6.64429E+00  6.36795E+00  5.40783E+00
   4.18238E+00  3.06954E+00  2.15442E+00  1.42805E+00  9.57422E-01  8.33507E-01  1.00619E+00  1.38524E+00  1.83726E+00  2.20512E+00
   2.32852E+00  2.11699E+00  1.65247E+00  1.12645E+00  7.14802E-01  4.61758E-01  3.68200E-01  4.52678E-01  6.60399E-01  9.55723E-01
   1.26769E+00  1.53681E+00  1.72465E+00  1.79523E+00  1.75118E+00  1.61866E+00  1.43606E+00  1.22387E+00  9.91891E-01  8.23877E-01
   7.50579E-01  7.96536E-01  9.70229E-01  1.20024E+00  1.30967E+00  1.14680E+00  7.07445E-01  1.21588E-01 -3.99674E-01 -6.71879E-01
  -6.67827E-01 -5.09728E-01 -3.10905E-01 -3.25775E-02  2.85689E-01  5.46367E-01  7.83511E-01  1.35962E+00  3.55551E+00  8.51598E+00
   1.60043E+01  2.40869E+01  2.98746E+01  3.14177E+01  2.84564E+01  2.25945E+01  1.63681E+01  1.13192E+01  7.24962E+00  3.47912E+00
   1.16787E+00  5.51789E-01  3.85263E-01  3.40072E-01  3.37916E-01  3.50158E-01  3.56675E-01  3.60481E-01  3.89240E-01  4.97165E-01
   7.91632E-01  1.67098E+00  4.29972E+00  9.47199E+00  1.67377E+01  2.41282E+01  2.90816E+01  3.00295E+01  2.70254E+01  2.17669E+01
   1.64141E+01  1.20123E+01  8.07262E+00  4.10075E+00  1.40006E+00  1.34130E-01 -4.29427E-01 -4.44529E-01 -8.80299E-02  3.97452E-01
   8.54938E-01  1.17621E+00  1.26637E+00  1.18895E+00  1.02337E+00  7.90628E-01  5.46414E-01  2.92016E-01  6.80515E-02 -1.26474E-01
  -3.33871E-01 -5.46902E-01 -7.28031E-01 -8.19937E-01 -8.01953E-01 -7.09507E-01 -6.43501E-01 -7.53835E-01 -1.09096E+00 -1.56245E+00
  -1.94569E+00 -2.06720E+00 -1.90432E+00 -1.58517E+00 -1.36181E+00 -1.39301E+00 -1.64494E+00 -1.96568E+00 -2.22399E+00 -2.40349E+00
  -2.52980E+00 -2.72223E+00 -3.03662E+00 -3.41885E+00 -3.78241E+00 -3.93858E+00 -3.83597E+00 -3.62996E+00 -3.47432E+00 -3.45226E+00
  -3.49770E+00 -3.45944E+00 -3.29098E+00 -3.09766E+00 -2.98648E+00 -2.79457E+00 -2.26918E+00 -1.30390E+00 -9.58022E-02  9.38202E-01
   1.51256E+00  1.52760E+00  1.07784E+00  3.97140E-01 -3.10348E-01 -8.83670E-01 -1.08554E+00 -8.44587E-01 -2.06738E-01  7.48504E-01
   1.84725E+00  2.90907E+00  3.77680E+00  4.17050E+00  3.86466E+00  2.66751E+00  7.33984E-01 -1.47647E+00 -3.35047E+00 -4.41830E+00
  -4.50888E+00 -3.47270E+00 -1.35179E+00  1.36756E+00  4.01161E+00  5.82793E+00  6.30635E+00  5.06531E+00  2.50082E+00 -5.33945E-01
  -3.28274E+00 -5.13260E+00 -5.62625E+00 -4.56629E+00 -2.31603E+00  1.14481E-01  1.99638E+00  3.08026E+00  3.52428E+00  3.49966E+00
   3.10434E+00  2.64820E+00  2.53479E+00  2.77945E+00  3.25526E+00  3.82258E+00  4.34493E+00  4.68123E+00  4.54499E+00  3.85140E+00
   2.89535E+00  2.12558E+00  1.82059E+00  1.99906E+00  2.66251E+00  3.55634E+00  4.31323E+00  4.79567E+00  5.12308E+00  5.48390E+00
   6.12208E+00  7.64031E+00  1.02862E+01  1.36678E+01  1.68563E+01  1.99309E+01  2.48506E+01  3.27855E+01  4.31499E+01  5.26453E+01
   5.73675E+01  5.50457E+01  4.65138E+01  3.57769E+01  2.61510E+01  1.85906E+01  1.18898E+01  6.05072E+00  3.38591E+00  2.45462E+00
   1.98101E+00  1.77925E+00  1.78017E+00  1.82097E+00  1.83749E+00  1.78756E+00  1.65194E+00  1.45346E+00  1.24725E+00  1.05329E+00
   8.81432E-01  7.61133E-01  7.07697E-01  6.97535E-01  6.97243E-01  6.90095E-01  6.80372E-01  6.79662E-01  6.87864E-01  7.16095E-01
   7.76606E-01  8.58815E-01  9.46193E-01  1.02880E+00  1.09911E+00  1.15663E+00  1.20527E+00  1.24714E+00  1.28667E+00  1.33338E+00
   1.38794E+00  1.44222E+00  1.48784E+00  1.51993E+00  1.53846E+00  1.54264E+00  1.52974E+00  1.50397E+00  1.46887E+00  1.42652E+00
   1.37980E+00  1.33167E+00  1.28475E+00  1.24139E+00  1.20412E+00  1.17535E+00  1.15772E+00  1.15355E+00  1.16550E+00  1.19681E+00
   1.25340E+00  1.34842E+00  1.50836E+00  1.71853E+00  1.90461E+00  1.96633E+00  1.83511E+00  1.52909E+00  1.12992E+00  7.44558E-01
   4.82237E-01  4.16640E-01  5.58983E-01  8.93904E-01  1.38543E+00  1.88848E+00  2.23649E+00  2.39120E+00  2.40683E+00  2.37108E+00
   2.33130E+00  2.27532E+00  2.25912E+00  2.35564E+00  2.48242E+00  2.52781E+00  2.40142E+00  2.09978E+00  1.69452E+00  1.29591E+00
   1.03984E+00  1.01503E+00  1.22264E+00  1.60613E+00  2.09925E+00  2.57744E+00  2.86114E+00  2.91703E+00  2.81050E+00  2.62874E+00
   2.40949E+00  2.13461E+00  1.85550E+00  1.63272E+00  1.44829E+00  1.29239E+00  1.16167E+00  1.05338E+00  9.64746E-01  8.92665E-01
   8.34405E-01  7.87514E-01  7.50375E-01  7.21764E-01  7.01176E-01  6.88326E-01  6.83520E-01  6.87160E-01  7.00032E-01  7.22754E-01
   7.56109E-01  8.00615E-01  8.56964E-01  9.25571E-01  1.00690E+00  1.10097E+00  1.20773E+00  1.32664E+00  1.45713E+00  1.59813E+00
   1.74833E+00  1.90583E+00  2.06847E+00  2.23356E+00  2.39834E+00  2.55956E+00  2.71391E+00  2.85775E+00  2.98764E+00  3.10013E+00
   3.19229E+00  3.26136E+00  3.30528E+00  3.32233E+00  3.31176E+00  3.27337E+00  3.20792E+00  3.11664E+00  3.00157E+00  2.86508E+00
   2.71022E+00  2.54019E+00  2.35855E+00  2.16868E+00  1.97399E+00  1.77754E+00  1.58235E+00  1.39089E+00  1.20542E+00  1.02755E+00
   8.58658E-01  6.99549E-01  5.50932E-01  4.12996E-01  2.85821E-01  1.69032E-01  6.22901E-02 -3.50214E-02 -1.23374E-01 -2.03503E-01
  -2.76000E-01 -3.41677E-01 -4.01099E-01 -4.54954E-01 -5.03682E-01 -5.47907E-01 -5.88045E-01 -6.24665E-01 -6.58053E-01 -6.88618E-01
  -7.16542E-01 -7.42210E-01 -7.65799E-01 -7.87641E-01 -8.07805E-01 -8.26521E-01 -8.43825E-01 -8.59973E-01 -8.75016E-01 -8.89156E-01
  -9.02353E-01 -9.14753E-01 -9.26334E-01 -9.37289E-01 -9.47600E-01 -9.57400E-01 -9.66604E-01 -9.75337E-01 -9.83563E-01 -9.91446E-01
  -9.98929E-01 -1.00611E+00 -1.01287E+00 -1.01934E+00 -1.02548E+00 -1.03143E+00 -1.03709E+00 -1.04256E+00 -1.04773E+00 -1.05272E+00
  -1.05748E+00 -1.06214E+00 -1.06657E+00 -1.07086E+00 -1.07491E+00 -1.07886E+00 -1.08263E+00 -1.08634E+00 -1.08986E+00 -1.09328E+00
  -1.09650E+00 -1.09967E+00 -1.10270E+00 -1.10568E+00 -1.10848E+00 -1.11119E+00 -1.11374E+00 -1.11625E+00 -1.11864E+00 -1.12097E+00
  -1.12312E+00 -1.12517E+00 -1.12708E+00 -1.12895E+00 -1.13067E+00 -1.13229E+00 -1.13370E+00 -1.13499E+00
 NY background values follow
    -6.554E-01   -6.563E-01   -6.573E-01   -6.583E-01   -6.593E-01   -6.603E-01   -6.612E-01   -6.622E-01   -6.632E-01   -6.642E-01
    -6.651E-01   -6.661E-01   -6.671E-01   -6.681E-01   -6.691E-01   -6.700E-01   -6.710E-01   -6.720E-01   -6.730E-01   -6.740E-01
    -6.749E-01   -6.759E-01   -6.769E-01   -6.779E-01   -6.788E-01   -6.798E-01   -6.808E-01   -6.818E-01   -6.828E-01   -6.837E-01
    -6.847E-01   -6.857E-01   -6.867E-01   -6.876E-01   -6.886E-01   -6.896E-01   -6.906E-01   -6.916E-01   -6.925E-01   -6.935E-01
    -6.945E-01   -6.955E-01   -6.964E-01   -6.974E-01   -6.984E-01   -6.994E-01   -7.003E-01   -7.013E-01   -7.023E-01   -7.033E-01
    -7.043E-01   -7.052E-01   -7.062E-01   -7.072E-01   -7.082E-01   -7.091E-01   -7.101E-01   -7.111E-01   -7.121E-01   -7.131E-01
    -7.140E-01   -7.150E-01   -7.160E-01   -7.170E-01   -7.179E-01   -7.189E-01   -7.199E-01   -7.209E-01   -7.218E-01   -7.228E-01
    -7.238E-01   -7.248E-01   -7.258E-01   -7.267E-01   -7.277E-01   -7.287E-01   -7.297E-01   -7.306E-01   -7.316E-01   -7.326E-01
    -7.336E-01   -7.345E-01   -7.355E-01   -7.365E-01   -7.375E-01   -7.384E-01   -7.394E-01   -7.404E-01   -7.414E-01   -7.424E-01
    -7.433E-01   -7.443E-01   -7.453E-01   -7.463E-01   -7.472E-01   -7.482E-01   -7.492E-01   -7.502E-01   -7.511E-01   -7.521E-01
    -7.531E-01   -7.541E-01   -7.550E-01   -7.560E-01   -7.570E-01   -7.580E-01   -7.589E-01   -7.599E-01   -7.609E-01   -7.619E-01
    -7.628E-01   -7.638E-01   -7.648E-01   -7.658E-01   -7.667E-01   -7.677E-01   -7.687E-01   -7.697E-01   -7.706E-01   -7.716E-01
    -7.726E-01   -7.736E-01   -7.745E-01   -7.755E-01   -7.765E-01   -7.775E-01   -7.784E-01   -7.794E-01   -7.804E-01   -7.814E-01
    -7.823E-01   -7.833E-01   -7.843E-01   -7.853E-01   -7.862E-01   -7.872E-01   -7.882E-01   -7.892E-01   -7.901E-01   -7.911E-01
    -7.921E-01   -7.931E-01   -7.940E-01   -7.950E-01   -7.960E-01   -7.970E-01   -7.979E-01   -7.989E-01   -7.999E-01   -8.009E-01
    -8.018E-01   -8.028E-01   -8.038E-01   -8.048E-01   -8.057E-01   -8.067E-01   -8.077E-01   -8.087E-01   -8.096E-01   -8.106E-01
    -8.116E-01   -8.125E-01   -8.135E-01   -8.145E-01   -8.155E-01   -8.164E-01   -8.174E-01   -8.184E-01   -8.194E-01   -8.203E-01
    -8.213E-01   -8.223E-01   -8.232E-01   -8.242E-01   -8.252E-01   -8.262E-01   -8.271E-01   -8.281E-01   -8.291E-01   -8.301E-01
    -8.310E-01   -8.320E-01   -8.330E-01   -8.339E-01   -8.349E-01   -8.359E-01   -8.369E-01   -8.378E-01   -8.388E-01   -8.398E-01
    -8.407E-01   -8.417E-01   -8.427E-01   -8.437E-01   -8.446E-01   -8.456E-01   -8.466E-01   -8.475E-01   -8.485E-01   -8.495E-01
    -8.505E-01   -8.514E-01   -8.524E-01   -8.534E-01   -8.543E-01   -8.553E-01   -8.563E-01   -8.573E-01   -8.582E-01   -8.592E-01
    -8.602E-01   -8.611E-01   -8.621E-01   -8.631E-01   -8.640E-01   -8.650E-01   -8.660E-01   -8.670E-01   -8.679E-01   -8.689E-01
    -8.699E-01   -8.708E-01   -8.718E-01   -8.728E-01   -8.737E-01   -8.747E-01   -8.757E-01   -8.767E-01   -8.776E-01   -8.786E-01
    -8.796E-01   -8.805E-01   -8.815E-01   -8.825E-01   -8.834E-01   -8.844E-01   -8.854E-01   -8.864E-01   -8.873E-01   -8.883E-01
    -8.893E-01   -8.902E-01   -8.912E-01   -8.922E-01   -8.931E-01   -8.941E-01   -8.951E-01   -8.960E-01   -8.970E-01   -8.980E-01
    -8.990E-01   -8.999E-01   -9.009E-01   -9.019E-01   -9.028E-01   -9.038E-01   -9.048E-01   -9.057E-01   -9.067E-01   -9.077E-01
    -9.086E-01   -9.096E-01   -9.106E-01   -9.116E-01   -9.125E-01   -9.135E-01   -9.145E-01   -9.154E-01   -9.164E-01   -9.174E-01
    -9.183E-01   -9.193E-01   -9.203E-01   -9.212E-01   -9.222E-01   -9.232E-01   -9.241E-01   -9.251E-01   -9.261E-01   -9.270E-01
    -9.280E-01   -9.290E-01   -9.299E-01   -9.309E-01   -9.319E-01   -9.329E-01   -9.338E-01   -9.348E-01   -9.358E-01   -9.367E-01
    -9.377E-01   -9.387E-01   -9.396E-01   -9.406E-01   -9.416E-01   -9.425E-01   -9.435E-01   -9.445E-01   -9.454E-01   -9.464E-01
    -9.474E-01   -9.483E-01   -9.493E-01   -9.503E-01   -9.512E-01   -9.522E-01   -9.532E-01   -9.541E-01   -9.551E-01   -9.561E-01
    -9.570E-01   -9.580E-01   -9.590E-01   -9.599E-01   -9.609E-01   -9.619E-01   -9.628E-01   -9.638E-01   -9.648E-01   -9.657E-01
    -9.667E-01   -9.677E-01   -9.686E-01   -9.696E-01   -9.706E-01   -9.715E-01   -9.725E-01   -9.735E-01   -9.744E-01   -9.754E-01
    -9.764E-01   -9.773E-01   -9.783E-01   -9.793E-01   -9.802E-01   -9.812E-01   -9.822E-01   -9.831E-01   -9.841E-01   -9.851E-01
    -9.860E-01   -9.870E-01   -9.880E-01   -9.889E-01   -9.899E-01   -9.908E-01   -9.918E-01   -9.928E-01   -9.937E-01   -9.947E-01
    -9.957E-01   -9.966E-01   -9.976E-01   -9.986E-01   -9.995E-01   -1.000E+00   -1.001E+00   -1.002E+00   -1.003E+00   -1.004E+00
    -1.005E+00   -1.006E+00   -1.007E+00   -1.008E+00   -1.009E+00   -1.010E+00   -1.011E+00   -1.012E+00   -1.013E+00   -1.014E+00
    -1.015E+00   -1.016E+00   -1.017E+00   -1.018E+00   -1.019E+00   -1.020E+00   -1.021E+00   -1.022E+00   -1.023E+00   -1.024E+00
    -1.025E+00   -1.026E+00   -1.027E+00   -1.027E+00   -1.028E+00   -1.029E+00   -1.030E+00   -1.031E+00   -1.032E+00   -1.033E+00
    -1.034E+00   -1.035E+00   -1.036E+00   -1.037E+00   -1.038E+00   -1.039E+00   -1.040E+00   -1.041E+00   -1.042E+00   -1.043E+00
    -1.044E+00   -1.045E+00   -1.046E+00   -1.047E+00   -1.048E+00   -1.049E+00   -1.050E+00   -1.051E+00   -1.052E+00   -1.052E+00
    -1.053E+00   -1.054E+00   -1.055E+00   -1.056E+00   -1.057E+00   -1.058E+00   -1.059E+00   -1.060E+00   -1.061E+00   -1.062E+00
    -1.063E+00   -1.064E+00   -1.065E+00   -1.066E+00   -1.067E+00   -1.068E+00   -1.069E+00   -1.070E+00   -1.071E+00   -1.072E+00
    -1.073E+00   -1.074E+00   -1.075E+00   -1.076E+00   -1.076E+00   -1.077E+00   -1.078E+00   -1.079E+00   -1.080E+00   -1.081E+00
    -1.082E+00   -1.083E+00   -1.084E+00   -1.085E+00   -1.086E+00   -1.087E+00   -1.088E+00   -1.089E+00   -1.090E+00   -1.091E+00
    -1.092E+00   -1.093E+00   -1.094E+00   -1.095E+00   -1.096E+00   -1.097E+00   -1.098E+00   -1.099E+00   -1.099E+00   -1.100E+00
    -1.101E+00   -1.102E+00   -1.103E+00   -1.104E+00   -1.105E+00   -1.106E+00   -1.107E+00   -1.108E+00   -1.109E+00   -1.110E+00
    -1.111E+00   -1.112E+00   -1.113E+00   -1.114E+00   -1.115E+00   -1.116E+00   -1.117E+00   -1.118E+00   -1.119E+00   -1.120E+00
    -1.121E+00   -1.121E+00   -1.122E+00   -1.123E+00   -1.124E+00   -1.125E+00   -1.126E+00   -1.127E+00   -1.128E+00   -1.129E+00
    -1.130E+00   -1.131E+00   -1.132E+00   -1.133E+00   -1.134E+00   -1.135E+00   -1.136E+00   -1.137E+00
 Ala      Conc. = 6.91E+01
