 LCModel (Version 6.3-1L) Copyright: S.W. Provencher.          Ref.: Magn. Reson. Med. 30:672-679 (1993).                
 Slice#1 Row#2 Col#5  PD_24_press_1_raw_act
 36 lines in following concentration table = NCONC+1
    Conc.  %SD /Cr+PCr  Metabolite                                         
   75.470 150%   0.259 Ala                                                 
   67.459  65%   0.231 Asp                                                 
    0.000 999%   0.000 Cr                                                  
  291.633  13%   1.000 PCr                                                 
   25.446 104% 8.7E-02 GABA                                                
   32.106  82%   0.110 Glc                                                 
  378.049  66%   1.296 Gln                                                 
  499.186  56%   1.712 Glu                                                 
   81.494  18%   0.279 GPC                                                 
    0.000 999%   0.000 PCh                                                 
   44.484 131%   0.153 GSH                                                 
  293.583  61%   1.007 Ins                                                 
    0.000 999%   0.000 Lac                                                 
  490.578   9%   1.682 NAA                                                 
    0.000 999%   0.000 NAAG                                                
   12.325  67% 4.2E-02 Scyllo                                              
   41.691 103%   0.143 Tau                                                 
    0.000 999%   0.000 -CrCH2                                              
   81.494  18%   0.279 GPC+PCh                                             
  490.578   9%   1.682 NAA+NAAG                                            
  291.633  13%   1.000 Cr+PCr                                              
  877.235  52%   3.008 Glu+Gln                                             
 6.61E+03  19%  22.656 Lip13a                                              
    0.000 999%   0.000 Lip13b                                              
 1.95E+03  22%   6.695 Lip09                                               
 2.56E+03  18%   8.793 MM09                                                
  840.806  34%   2.883 Lip20                                               
    0.000 999%   0.000 MM20                                                
 1.25E+03  36%   4.275 MM12                                                
  842.685  55%   2.890 MM14                                                
 1.36E+03  25%   4.646 MM17                                                
 6.61E+03  19%  22.656 Lip13a+Lip13b                                       
 8.70E+03  10%  29.820 MM14+Lip13a+Lip13b+MM12                             
 4.52E+03   8%  15.487 MM09+Lip09                                          
  840.806  34%   2.883 MM20+Lip20                                          
   6 lines in following misc. output table
  FWHM = 0.084 ppm    S/N =   5                                            
  Data shift = 0.031 ppm                                                   
  Ph:-102 deg     -20.9 deg/ppm                                            
  alphaB,S = 8.5E+01,   1.5E+02                                            
   14 spline knots.   Ns = 9(1)                                            
   2 inflections.     1 extrema                                            
  498 points on ppm-axis = NY
      4.000000     3.992357     3.984714     3.977070     3.969427     3.961784     3.954141     3.946497     3.938854     3.931211
      3.923568     3.915925     3.908281     3.900638     3.892995     3.885352     3.877708     3.870065     3.862422     3.854779
      3.847136     3.839492     3.831849     3.824206     3.816563     3.808919     3.801276     3.793633     3.785990     3.778347
      3.770703     3.763060     3.755417     3.747774     3.740130     3.732487     3.724844     3.717201     3.709558     3.701914
      3.694271     3.686628     3.678985     3.671341     3.663698     3.656055     3.648412     3.640769     3.633125     3.625482
      3.617839     3.610196     3.602552     3.594909     3.587266     3.579623     3.571980     3.564336     3.556693     3.549050
      3.541407     3.533763     3.526120     3.518477     3.510834     3.503191     3.495547     3.487904     3.480261     3.472618
      3.464974     3.457331     3.449688     3.442045     3.434402     3.426758     3.419115     3.411472     3.403829     3.396185
      3.388542     3.380899     3.373256     3.365613     3.357969     3.350326     3.342683     3.335040     3.327396     3.319753
      3.312110     3.304467     3.296824     3.289180     3.281537     3.273894     3.266251     3.258607     3.250964     3.243321
      3.235678     3.228034     3.220391     3.212748     3.205105     3.197462     3.189818     3.182175     3.174532     3.166889
      3.159245     3.151602     3.143959     3.136316     3.128673     3.121029     3.113386     3.105743     3.098100     3.090456
      3.082813     3.075170     3.067527     3.059884     3.052240     3.044597     3.036954     3.029311     3.021667     3.014024
      3.006381     2.998738     2.991095     2.983451     2.975808     2.968165     2.960522     2.952878     2.945235     2.937592
      2.929949     2.922306     2.914662     2.907019     2.899376     2.891733     2.884089     2.876446     2.868803     2.861160
      2.853517     2.845873     2.838230     2.830587     2.822944     2.815300     2.807657     2.800014     2.792371     2.784728
      2.777084     2.769441     2.761798     2.754155     2.746511     2.738868     2.731225     2.723582     2.715939     2.708295
      2.700652     2.693009     2.685366     2.677722     2.670079     2.662436     2.654793     2.647150     2.639506     2.631863
      2.624220     2.616577     2.608933     2.601290     2.593647     2.586004     2.578361     2.570717     2.563074     2.555431
      2.547788     2.540144     2.532501     2.524858     2.517215     2.509572     2.501928     2.494285     2.486642     2.478999
      2.471355     2.463712     2.456069     2.448426     2.440783     2.433139     2.425496     2.417853     2.410210     2.402566
      2.394923     2.387280     2.379637     2.371994     2.364350     2.356707     2.349064     2.341421     2.333777     2.326134
      2.318491     2.310848     2.303205     2.295561     2.287918     2.280275     2.272632     2.264988     2.257345     2.249702
      2.242059     2.234416     2.226772     2.219129     2.211486     2.203843     2.196199     2.188556     2.180913     2.173270
      2.165627     2.157983     2.150340     2.142697     2.135054     2.127410     2.119767     2.112124     2.104481     2.096838
      2.089194     2.081551     2.073908     2.066265     2.058621     2.050978     2.043335     2.035692     2.028049     2.020405
      2.012762     2.005119     1.997476     1.989833     1.982190     1.974546     1.966903     1.959260     1.951617     1.943974
      1.936331     1.928688     1.921045     1.913402     1.905759     1.898115     1.890472     1.882829     1.875186     1.867543
      1.859900     1.852257     1.844614     1.836971     1.829327     1.821684     1.814041     1.806398     1.798755     1.791112
      1.783469     1.775826     1.768183     1.760540     1.752896     1.745253     1.737610     1.729967     1.722324     1.714681
      1.707038     1.699395     1.691752     1.684108     1.676465     1.668822     1.661179     1.653536     1.645893     1.638250
      1.630607     1.622964     1.615321     1.607677     1.600034     1.592391     1.584748     1.577105     1.569462     1.561819
      1.554176     1.546533     1.538890     1.531246     1.523603     1.515960     1.508317     1.500674     1.493031     1.485388
      1.477745     1.470102     1.462458     1.454815     1.447172     1.439529     1.431886     1.424243     1.416600     1.408957
      1.401314     1.393671     1.386027     1.378384     1.370741     1.363098     1.355455     1.347812     1.340169     1.332526
      1.324883     1.317240     1.309596     1.301953     1.294310     1.286667     1.279024     1.271381     1.263738     1.256095
      1.248452     1.240808     1.233165     1.225522     1.217879     1.210236     1.202593     1.194950     1.187307     1.179664
      1.172021     1.164377     1.156734     1.149091     1.141448     1.133805     1.126162     1.118519     1.110876     1.103233
      1.095590     1.087946     1.080303     1.072660     1.065017     1.057374     1.049731     1.042088     1.034445     1.026802
      1.019158     1.011515     1.003872     0.996229     0.988586     0.980943     0.973300     0.965657     0.958014     0.950371
      0.942727     0.935084     0.927441     0.919798     0.912155     0.904512     0.896869     0.889226     0.881583     0.873940
      0.866296     0.858653     0.851010     0.843367     0.835724     0.828081     0.820438     0.812795     0.805152     0.797508
      0.789865     0.782222     0.774579     0.766936     0.759293     0.751650     0.744007     0.736364     0.728721     0.721077
      0.713434     0.705791     0.698148     0.690505     0.682862     0.675219     0.667576     0.659933     0.652290     0.644646
      0.637003     0.629360     0.621717     0.614074     0.606431     0.598788     0.591145     0.583502     0.575858     0.568215
      0.560572     0.552929     0.545286     0.537643     0.530000     0.522357     0.514714     0.507071     0.499427     0.491784
      0.484141     0.476498     0.468855     0.461212     0.453569     0.445925     0.438282     0.430639     0.422996     0.415353
      0.407710     0.400067     0.392424     0.384780     0.377137     0.369494     0.361851     0.354208     0.346565     0.338922
      0.331278     0.323635     0.315992     0.308349     0.300706     0.293063     0.285420     0.277777     0.270133     0.262490
      0.254847     0.247204     0.239561     0.231918     0.224275     0.216631     0.208988     0.201345
 NY phased data points follow
   4.87868E+00  5.35241E+00  1.07929E+01  6.81522E+00  5.21084E+00  4.36512E+00  9.25338E+00  9.23080E+00  1.27924E+01  1.01030E+01
   1.34172E+01  7.23452E+00  8.12810E+00  7.34940E+00  5.07948E+00  8.60399E+00  5.97445E+00  7.53876E+00  7.11666E+00  7.19570E+00
   5.04779E+00  1.60418E+00  7.58539E+00  5.86990E+00  2.34869E+00  5.76761E+00  4.49164E+00  6.87811E+00  4.98099E+00  7.11880E+00
   4.78631E+00  4.47135E+00  9.72149E+00  4.68458E+00  1.91214E+00  6.22097E+00  8.02979E+00  3.40271E+00  4.99116E+00  4.52733E+00
   3.49081E+00  2.77967E+00  6.34111E+00  4.14432E+00  9.67482E+00  5.16311E+00  1.16426E+01  5.92435E+00  5.19826E+00  4.99546E+00
   5.45090E+00  3.15686E+00  5.32721E+00  5.10879E+00  6.63534E+00  4.29072E+00  6.25748E+00  9.23944E+00  4.22778E+00  4.80640E+00
   1.67496E+00  5.85265E+00  2.31667E+00  2.32800E+00  3.06157E+00  6.30123E+00  3.66491E+00  3.75734E+00  5.29550E+00  2.53950E+00
   3.15742E+00  6.96680E+00  5.38321E+00  1.26729E+00  5.09888E+00  4.71115E+00  4.14493E+00  6.88817E+00  4.85918E+00  4.18417E+00
   1.47617E+00  7.13535E+00  4.23716E+00  5.88644E+00  8.33512E+00  3.50377E+00  5.20636E+00  1.03649E+01  9.37055E+00  3.83178E+00
   2.35393E+00  4.29468E+00  1.54347E+00 -9.18726E-01 -1.90544E-01  5.47052E-01  2.48606E+00  5.00523E+00  7.55360E+00  9.52711E+00
   7.00260E+00  7.68882E+00  9.72935E+00  1.16769E+01  1.21968E+01  8.77048E+00  7.85747E+00  7.69546E+00  9.17941E+00  5.65338E+00
   7.90304E+00  4.56688E+00  1.00989E+01  6.80493E+00  7.55787E+00  2.18178E+00  3.98310E+00  3.75025E+00  2.02316E-02  2.14000E+00
   2.47467E+00  6.52204E+00  8.64427E+00  4.69623E+00  5.89312E+00  7.95251E+00  1.31436E+01  1.47385E+01  1.38213E+01  1.26857E+01
   9.50101E+00  7.32792E+00  1.08126E+01  7.28502E+00  4.51252E+00  7.18557E+00  6.89602E+00  6.02349E+00  5.68167E+00  2.30181E+00
   2.55799E+00  6.69905E+00  6.19179E+00  6.58743E+00  4.00190E+00  2.59621E+00  9.72898E-01  4.47063E+00  5.40499E+00  4.42979E+00
   1.40341E+00  4.85283E+00 -5.57348E-01  2.39216E+00  2.20033E-01  5.98068E-01  4.06066E+00  3.55046E+00  5.86596E+00  1.62370E+00
   5.80379E+00  7.41237E+00  6.13450E+00  4.67703E+00  2.58073E+00  2.43545E+00  2.21512E+00  4.55734E+00  5.62479E+00  1.02734E+01
   5.59049E+00  6.91925E-01  4.73092E+00  2.42949E+00  5.19800E+00  5.17524E+00  1.29760E+00  4.51518E+00  5.83546E+00  5.30947E+00
   3.59957E+00  4.24437E+00  3.29052E+00  2.68552E+00  7.41591E+00  6.37872E+00  6.01010E+00  5.51307E+00  9.14070E+00  8.12871E+00
   5.20983E+00  5.56260E+00  6.95940E+00  7.78906E+00  8.99262E+00  7.57590E+00  4.61931E+00  3.32037E+00  2.61309E+00  4.56002E+00
   6.81046E+00  4.47577E+00  8.62077E+00  5.84047E+00  6.03686E+00  7.08590E+00  4.36828E+00  9.14876E+00  6.08872E+00  5.88969E+00
   5.59011E+00  8.26782E+00  6.58638E+00  8.31666E+00  6.65441E+00  9.65759E+00  7.54842E+00  8.68946E+00  7.22915E+00  5.84584E+00
   8.62915E+00  8.05371E+00  7.42225E+00  6.81429E+00  7.62115E+00  3.78791E+00  7.37399E+00  8.11820E+00  1.24121E+01  4.49718E+00
   8.51576E+00  8.62834E+00  8.34800E+00  6.69326E+00  5.89176E+00  9.21533E+00  1.01759E+01  3.77622E+00  7.32582E+00  1.01900E+01
   5.86004E+00  5.77373E+00  7.86512E+00  8.59678E+00  7.03706E+00  9.54005E+00  1.02648E+01  8.61960E+00  6.41348E+00  3.60156E+00
   4.84925E+00  3.22482E+00  4.68090E+00  8.28803E+00  7.75965E+00  8.64365E+00  1.00637E+01  1.19855E+01  1.49658E+01  1.93446E+01
   2.19096E+01  2.09944E+01  1.75701E+01  1.72816E+01  1.70922E+01  1.85112E+01  2.15249E+01  1.57301E+01  1.65394E+01  1.70110E+01
   1.17537E+01  1.26694E+01  1.54688E+01  1.00330E+01  1.41184E+01  8.29314E+00  7.24879E+00  6.68892E+00  3.67226E+00  6.11020E+00
   1.07064E+01  7.60068E+00  3.36228E+00  8.18863E+00  4.46094E+00  7.14873E+00  1.01476E+01  6.98661E+00  6.69614E+00  1.09650E+01
   8.95667E+00  1.19437E+01  1.06226E+01  8.28131E+00  1.18441E+01  1.38491E+01  1.12993E+01  1.28064E+01  8.22134E+00  7.93687E+00
   1.32193E+01  8.83373E+00  1.60022E+01  1.48183E+01  1.29759E+01  1.55151E+01  1.61614E+01  1.22799E+01  1.75740E+01  1.61227E+01
   1.37000E+01  1.44044E+01  1.90184E+01  1.84231E+01  1.64649E+01  1.97585E+01  1.85631E+01  1.64000E+01  1.86429E+01  2.03862E+01
   2.02370E+01  2.04724E+01  1.61646E+01  1.81126E+01  1.67954E+01  2.12534E+01  1.76905E+01  1.73234E+01  1.85571E+01  1.93007E+01
   1.69660E+01  1.74298E+01  1.77588E+01  2.13113E+01  2.18955E+01  2.32219E+01  1.90022E+01  2.27374E+01  2.48212E+01  2.35945E+01
   2.28516E+01  2.32061E+01  2.66211E+01  2.58631E+01  2.50660E+01  2.20111E+01  2.75689E+01  2.65379E+01  2.60480E+01  2.73375E+01
   3.00048E+01  2.94068E+01  2.94144E+01  2.77872E+01  2.93442E+01  2.72278E+01  3.24009E+01  3.02645E+01  2.89193E+01  3.18983E+01
   3.21424E+01  2.87277E+01  3.16454E+01  3.41364E+01  3.04085E+01  3.31440E+01  2.89168E+01  2.88883E+01  3.29239E+01  2.68903E+01
   2.61944E+01  2.82572E+01  3.17698E+01  2.95071E+01  3.26823E+01  3.06932E+01  3.30066E+01  3.07581E+01  3.43768E+01  2.90209E+01
   3.26808E+01  2.65943E+01  2.70484E+01  3.26327E+01  2.98602E+01  3.14962E+01  2.95594E+01  3.53917E+01  2.86922E+01  3.19351E+01
   3.08394E+01  3.35900E+01  2.97284E+01  3.01785E+01  2.88312E+01  2.84961E+01  2.85318E+01  3.16355E+01  2.82006E+01  2.59474E+01
   2.75000E+01  2.77759E+01  2.69980E+01  2.59612E+01  2.15496E+01  2.67213E+01  2.30710E+01  2.73270E+01  2.37452E+01  2.31601E+01
   2.17131E+01  2.20052E+01  1.77672E+01  1.90940E+01  1.88150E+01  1.68651E+01  1.52638E+01  1.50183E+01  1.47974E+01  1.76738E+01
   1.09649E+01  1.45858E+01  1.08207E+01  1.04917E+01  1.39159E+01  8.33528E+00  1.00368E+01  7.35558E+00  6.59253E+00  6.36732E+00
   9.17632E+00  6.91103E+00  8.35919E+00  6.93535E+00  8.17847E+00  6.28748E+00  5.67537E+00  7.89550E+00  7.60470E+00  4.23930E+00
   4.76570E+00  6.33103E+00  4.84992E+00  4.93724E+00  3.40109E+00  4.90286E+00  4.94421E+00  6.57385E+00  2.72140E+00  3.03172E+00
   6.13990E+00  4.56352E+00  2.21296E+00  4.73866E+00  6.57359E+00  2.42727E+00  5.09051E+00  4.71649E+00  3.95878E+00  5.14497E+00
   4.33717E+00  1.37904E+00  5.70503E+00  6.18261E+00  3.31577E+00  2.09458E+00  4.18058E+00  2.04272E+00  3.90808E+00  4.18584E+00
  -8.69760E-02 -7.70260E-01  6.19603E-01  3.14142E+00  4.77384E+00  2.35809E+00  6.55719E-01  2.29080E+00  1.01710E+00  2.58454E+00
   3.89441E+00  1.42263E+00  2.79171E+00  3.85531E+00  1.52363E-01  2.19448E+00  3.11077E+00  5.92933E+00  5.22227E+00  8.48762E+00
  -2.79337E+00  8.74987E-01  4.88128E+00  6.11064E+00  3.53347E+00  2.87654E+00  1.84572E+00  3.95297E+00
 NY points of the fit to the data follow
   5.11430E+00  4.99216E+00  5.08770E+00  5.44222E+00  6.04279E+00  6.80116E+00  7.62696E+00  8.41931E+00  9.03954E+00  9.39166E+00
   9.46756E+00  9.33277E+00  9.07067E+00  8.72879E+00  8.29797E+00  7.74124E+00  7.04727E+00  6.27250E+00  5.54678E+00  5.07108E+00
   4.97137E+00  4.99212E+00  4.96860E+00  4.87065E+00  4.71683E+00  4.58198E+00  4.55901E+00  4.70560E+00  5.01001E+00  5.40000E+00
   5.76555E+00  6.00722E+00  6.09479E+00  6.04480E+00  5.91245E+00  5.78466E+00  5.72424E+00  5.68789E+00  5.57562E+00  5.34973E+00
   5.08615E+00  4.88615E+00  4.81273E+00  4.94857E+00  5.28116E+00  5.70018E+00  6.07595E+00  6.31014E+00  6.36068E+00  6.24690E+00
   6.05125E+00  5.83961E+00  5.62570E+00  5.42385E+00  5.23801E+00  5.04979E+00  4.86236E+00  4.72065E+00  4.67348E+00  4.71933E+00
   4.79227E+00  4.84008E+00  4.84979E+00  4.83008E+00  4.80002E+00  4.77580E+00  4.75983E+00  4.74721E+00  4.73446E+00  4.72525E+00
   4.74262E+00  4.79883E+00  4.87901E+00  4.96169E+00  5.02077E+00  5.04513E+00  5.03268E+00  4.98742E+00  4.94005E+00  4.91352E+00
   4.90887E+00  4.90496E+00  4.88890E+00  4.86418E+00  4.81996E+00  4.75038E+00  4.66891E+00  4.58982E+00  4.52255E+00  4.47864E+00
   4.45743E+00  4.44839E+00  4.43577E+00  4.38650E+00  4.26265E+00  4.24539E+00  4.52084E+00  5.12820E+00  5.97991E+00  6.96906E+00
   7.99971E+00  8.94973E+00  9.67103E+00  1.00549E+01  1.00939E+01  9.87962E+00  9.53209E+00  9.12172E+00  8.62934E+00  7.99264E+00
   7.18471E+00  6.23413E+00  5.27010E+00  4.55707E+00  4.31738E+00  4.30492E+00  4.31988E+00  4.28984E+00  4.18708E+00  4.25244E+00
   4.66173E+00  5.42883E+00  6.48678E+00  7.73746E+00  9.05053E+00  1.02506E+01  1.11511E+01  1.16297E+01  1.16965E+01  1.14675E+01
   1.10706E+01  1.05610E+01  9.90560E+00  9.04150E+00  7.95610E+00  6.71921E+00  5.52473E+00  4.71832E+00  4.50122E+00  4.51799E+00
   4.57266E+00  4.63624E+00  4.70534E+00  4.78246E+00  4.87067E+00  4.96098E+00  5.03440E+00  5.08381E+00  5.10872E+00  5.11483E+00
   5.11587E+00  5.12080E+00  5.13231E+00  5.14497E+00  5.14244E+00  5.11992E+00  5.07731E+00  5.02319E+00  4.96831E+00  4.91851E+00
   4.88151E+00  4.86203E+00  4.85973E+00  4.86638E+00  4.86807E+00  4.85328E+00  4.82099E+00  4.78334E+00  4.75163E+00  4.71648E+00
   4.66759E+00  4.59864E+00  4.50426E+00  4.38887E+00  4.26941E+00  4.16350E+00  4.09449E+00  4.06473E+00  4.05493E+00  4.05147E+00
   4.03933E+00  4.02581E+00  4.02971E+00  4.06483E+00  4.13500E+00  4.23638E+00  4.35613E+00  4.47979E+00  4.59725E+00  4.71602E+00
   4.82273E+00  4.88941E+00  4.89509E+00  4.85139E+00  4.81272E+00  4.81765E+00  4.87494E+00  4.99000E+00  5.17295E+00  5.42439E+00
   5.75185E+00  6.12733E+00  6.44171E+00  6.58066E+00  6.51043E+00  6.24795E+00  5.83642E+00  5.34019E+00  4.91016E+00  4.66731E+00
   4.64653E+00  4.82706E+00  5.16534E+00  5.59572E+00  5.99963E+00  6.27831E+00  6.42646E+00  6.47235E+00  6.43812E+00  6.36315E+00
   6.22977E+00  6.01221E+00  5.82445E+00  5.74618E+00  5.73358E+00  5.77882E+00  5.94805E+00  6.28824E+00  6.68105E+00  7.05449E+00
   7.38950E+00  7.65688E+00  7.79034E+00  7.75860E+00  7.66542E+00  7.61458E+00  7.62387E+00  7.67031E+00  7.73678E+00  7.78401E+00
   7.79214E+00  7.76107E+00  7.69476E+00  7.61943E+00  7.56648E+00  7.54173E+00  7.51626E+00  7.46614E+00  7.45462E+00  7.54006E+00
   7.70594E+00  7.85855E+00  7.92445E+00  8.20965E+00  8.95320E+00  1.02350E+01  1.19871E+01  1.40544E+01  1.62332E+01  1.82403E+01
   1.97247E+01  2.04469E+01  2.04266E+01  1.98847E+01  1.90750E+01  1.81225E+01  1.69826E+01  1.55307E+01  1.37078E+01  1.15924E+01
   9.49340E+00  7.99228E+00  7.47752E+00  7.40343E+00  7.42021E+00  7.46992E+00  7.52306E+00  7.57661E+00  7.63940E+00  7.70925E+00
   7.78184E+00  7.85352E+00  7.92299E+00  7.99384E+00  8.07819E+00  8.18516E+00  8.31567E+00  8.47063E+00  8.65093E+00  8.85545E+00
   9.08262E+00  9.33035E+00  9.59843E+00  9.88896E+00  1.02028E+01  1.05404E+01  1.09025E+01  1.12891E+01  1.16980E+01  1.21258E+01
   1.25692E+01  1.30243E+01  1.34852E+01  1.39460E+01  1.44003E+01  1.48414E+01  1.52629E+01  1.56589E+01  1.60242E+01  1.63546E+01
   1.66469E+01  1.68997E+01  1.71128E+01  1.72879E+01  1.74285E+01  1.75390E+01  1.76249E+01  1.76915E+01  1.77479E+01  1.78266E+01
   1.79447E+01  1.80909E+01  1.82484E+01  1.84032E+01  1.85437E+01  1.86560E+01  1.87155E+01  1.87273E+01  1.87397E+01  1.88025E+01
   1.89468E+01  1.91812E+01  1.94993E+01  1.98883E+01  2.03335E+01  2.08203E+01  2.13433E+01  2.19124E+01  2.25276E+01  2.31388E+01
   2.37231E+01  2.42819E+01  2.48061E+01  2.52834E+01  2.57064E+01  2.60923E+01  2.64998E+01  2.69490E+01  2.74139E+01  2.78802E+01
   2.83392E+01  2.87844E+01  2.92093E+01  2.96083E+01  2.99754E+01  3.03054E+01  3.05933E+01  3.08348E+01  3.10262E+01  3.11649E+01
   3.12495E+01  3.12798E+01  3.12568E+01  3.11835E+01  3.10639E+01  3.09040E+01  3.07110E+01  3.04933E+01  3.02606E+01  3.00234E+01
   2.97924E+01  2.95787E+01  2.93925E+01  2.92435E+01  2.91398E+01  2.90877E+01  2.90915E+01  2.91525E+01  2.92697E+01  2.94389E+01
   2.96532E+01  2.99032E+01  3.01770E+01  3.04613E+01  3.07413E+01  3.10021E+01  3.12292E+01  3.14089E+01  3.15297E+01  3.15822E+01
   3.15600E+01  3.14598E+01  3.12812E+01  3.10269E+01  3.07023E+01  3.03145E+01  2.98723E+01  2.93849E+01  2.88617E+01  2.83113E+01
   2.77409E+01  2.71564E+01  2.65616E+01  2.59584E+01  2.53471E+01  2.47263E+01  2.40936E+01  2.34462E+01  2.27809E+01  2.20950E+01
   2.13867E+01  2.06550E+01  1.99006E+01  1.91254E+01  1.83326E+01  1.75268E+01  1.67135E+01  1.58989E+01  1.50896E+01  1.42923E+01
   1.35135E+01  1.27590E+01  1.20340E+01  1.13429E+01  1.06890E+01  1.00746E+01  9.50117E+00  8.96915E+00  8.47824E+00  8.02741E+00
   7.61515E+00  7.23947E+00  6.89814E+00  6.58870E+00  6.30863E+00  6.05543E+00  5.82663E+00  5.61991E+00  5.43305E+00  5.26401E+00
   5.11091E+00  4.97208E+00  4.84598E+00  4.73125E+00  4.62666E+00  4.53115E+00  4.44375E+00  4.36363E+00  4.29005E+00  4.22234E+00
   4.15993E+00  4.10230E+00  4.04900E+00  3.99964E+00  3.95387E+00  3.91135E+00  3.87180E+00  3.83498E+00  3.80066E+00  3.76864E+00
   3.73873E+00  3.71077E+00  3.68462E+00  3.66012E+00  3.63718E+00  3.61567E+00  3.59550E+00  3.57656E+00  3.55878E+00  3.54208E+00
   3.52639E+00  3.51165E+00  3.49779E+00  3.48476E+00  3.47250E+00  3.46098E+00  3.45016E+00  3.43998E+00  3.43041E+00  3.42142E+00
   3.41298E+00  3.40506E+00  3.39763E+00  3.39067E+00  3.38415E+00  3.37804E+00  3.37234E+00  3.36702E+00  3.36207E+00  3.35747E+00
   3.35319E+00  3.34924E+00  3.34561E+00  3.34227E+00  3.33923E+00  3.33647E+00  3.33398E+00  3.33176E+00
 NY background values follow
     2.983E+00    2.984E+00    2.985E+00    2.987E+00    2.988E+00    2.989E+00    2.990E+00    2.991E+00    2.992E+00    2.993E+00
     2.994E+00    2.995E+00    2.996E+00    2.998E+00    2.999E+00    3.000E+00    3.001E+00    3.002E+00    3.003E+00    3.004E+00
     3.005E+00    3.006E+00    3.007E+00    3.009E+00    3.010E+00    3.011E+00    3.012E+00    3.013E+00    3.014E+00    3.015E+00
     3.016E+00    3.017E+00    3.018E+00    3.020E+00    3.021E+00    3.022E+00    3.023E+00    3.024E+00    3.025E+00    3.026E+00
     3.027E+00    3.028E+00    3.029E+00    3.031E+00    3.032E+00    3.033E+00    3.034E+00    3.035E+00    3.036E+00    3.037E+00
     3.038E+00    3.039E+00    3.040E+00    3.042E+00    3.043E+00    3.044E+00    3.045E+00    3.046E+00    3.047E+00    3.048E+00
     3.049E+00    3.050E+00    3.051E+00    3.053E+00    3.054E+00    3.055E+00    3.056E+00    3.057E+00    3.058E+00    3.059E+00
     3.060E+00    3.061E+00    3.062E+00    3.064E+00    3.065E+00    3.066E+00    3.067E+00    3.068E+00    3.069E+00    3.070E+00
     3.071E+00    3.072E+00    3.073E+00    3.075E+00    3.076E+00    3.077E+00    3.078E+00    3.079E+00    3.080E+00    3.081E+00
     3.082E+00    3.083E+00    3.084E+00    3.086E+00    3.087E+00    3.088E+00    3.089E+00    3.090E+00    3.091E+00    3.092E+00
     3.093E+00    3.094E+00    3.095E+00    3.097E+00    3.098E+00    3.099E+00    3.100E+00    3.101E+00    3.102E+00    3.103E+00
     3.104E+00    3.105E+00    3.106E+00    3.108E+00    3.109E+00    3.110E+00    3.111E+00    3.112E+00    3.113E+00    3.114E+00
     3.115E+00    3.116E+00    3.117E+00    3.119E+00    3.120E+00    3.121E+00    3.122E+00    3.123E+00    3.124E+00    3.125E+00
     3.126E+00    3.127E+00    3.128E+00    3.130E+00    3.131E+00    3.132E+00    3.133E+00    3.134E+00    3.135E+00    3.136E+00
     3.137E+00    3.138E+00    3.139E+00    3.141E+00    3.142E+00    3.143E+00    3.144E+00    3.145E+00    3.146E+00    3.147E+00
     3.148E+00    3.149E+00    3.150E+00    3.152E+00    3.153E+00    3.154E+00    3.155E+00    3.156E+00    3.157E+00    3.158E+00
     3.159E+00    3.160E+00    3.161E+00    3.163E+00    3.164E+00    3.165E+00    3.166E+00    3.167E+00    3.168E+00    3.169E+00
     3.170E+00    3.171E+00    3.172E+00    3.174E+00    3.175E+00    3.176E+00    3.177E+00    3.178E+00    3.179E+00    3.180E+00
     3.181E+00    3.182E+00    3.183E+00    3.185E+00    3.186E+00    3.187E+00    3.188E+00    3.189E+00    3.190E+00    3.191E+00
     3.192E+00    3.193E+00    3.194E+00    3.196E+00    3.197E+00    3.198E+00    3.199E+00    3.200E+00    3.201E+00    3.202E+00
     3.203E+00    3.204E+00    3.205E+00    3.207E+00    3.208E+00    3.209E+00    3.210E+00    3.211E+00    3.212E+00    3.213E+00
     3.214E+00    3.215E+00    3.216E+00    3.217E+00    3.219E+00    3.220E+00    3.221E+00    3.222E+00    3.223E+00    3.224E+00
     3.225E+00    3.226E+00    3.227E+00    3.228E+00    3.230E+00    3.231E+00    3.232E+00    3.233E+00    3.234E+00    3.235E+00
     3.236E+00    3.237E+00    3.238E+00    3.239E+00    3.241E+00    3.242E+00    3.243E+00    3.244E+00    3.245E+00    3.246E+00
     3.247E+00    3.248E+00    3.249E+00    3.250E+00    3.251E+00    3.253E+00    3.254E+00    3.255E+00    3.256E+00    3.257E+00
     3.258E+00    3.259E+00    3.260E+00    3.261E+00    3.262E+00    3.263E+00    3.265E+00    3.266E+00    3.267E+00    3.268E+00
     3.269E+00    3.270E+00    3.271E+00    3.272E+00    3.273E+00    3.274E+00    3.276E+00    3.277E+00    3.278E+00    3.279E+00
     3.280E+00    3.281E+00    3.282E+00    3.283E+00    3.284E+00    3.285E+00    3.286E+00    3.288E+00    3.289E+00    3.290E+00
     3.291E+00    3.292E+00    3.293E+00    3.294E+00    3.295E+00    3.296E+00    3.297E+00    3.298E+00    3.300E+00    3.301E+00
     3.302E+00    3.303E+00    3.304E+00    3.305E+00    3.306E+00    3.307E+00    3.308E+00    3.309E+00    3.310E+00    3.312E+00
     3.313E+00    3.314E+00    3.315E+00    3.316E+00    3.317E+00    3.318E+00    3.319E+00    3.320E+00    3.321E+00    3.322E+00
     3.324E+00    3.325E+00    3.326E+00    3.327E+00    3.328E+00    3.329E+00    3.330E+00    3.331E+00    3.332E+00    3.333E+00
     3.334E+00    3.336E+00    3.337E+00    3.338E+00    3.339E+00    3.340E+00    3.341E+00    3.342E+00    3.343E+00    3.344E+00
     3.345E+00    3.346E+00    3.348E+00    3.349E+00    3.350E+00    3.351E+00    3.352E+00    3.353E+00    3.354E+00    3.355E+00
     3.356E+00    3.357E+00    3.358E+00    3.360E+00    3.361E+00    3.362E+00    3.363E+00    3.364E+00    3.365E+00    3.366E+00
     3.367E+00    3.368E+00    3.369E+00    3.370E+00    3.372E+00    3.373E+00    3.374E+00    3.375E+00    3.376E+00    3.377E+00
     3.378E+00    3.379E+00    3.380E+00    3.381E+00    3.382E+00    3.383E+00    3.385E+00    3.386E+00    3.387E+00    3.388E+00
     3.389E+00    3.390E+00    3.391E+00    3.392E+00    3.393E+00    3.394E+00    3.395E+00    3.397E+00    3.398E+00    3.399E+00
     3.400E+00    3.401E+00    3.402E+00    3.403E+00    3.404E+00    3.405E+00    3.406E+00    3.407E+00    3.408E+00    3.410E+00
     3.411E+00    3.412E+00    3.413E+00    3.414E+00    3.415E+00    3.416E+00    3.417E+00    3.418E+00    3.419E+00    3.420E+00
     3.422E+00    3.423E+00    3.424E+00    3.425E+00    3.426E+00    3.427E+00    3.428E+00    3.429E+00    3.430E+00    3.431E+00
     3.432E+00    3.433E+00    3.435E+00    3.436E+00    3.437E+00    3.438E+00    3.439E+00    3.440E+00    3.441E+00    3.442E+00
     3.443E+00    3.444E+00    3.445E+00    3.447E+00    3.448E+00    3.449E+00    3.450E+00    3.451E+00    3.452E+00    3.453E+00
     3.454E+00    3.455E+00    3.456E+00    3.457E+00    3.458E+00    3.460E+00    3.461E+00    3.462E+00    3.463E+00    3.464E+00
     3.465E+00    3.466E+00    3.467E+00    3.468E+00    3.469E+00    3.470E+00    3.471E+00    3.473E+00    3.474E+00    3.475E+00
     3.476E+00    3.477E+00    3.478E+00    3.479E+00    3.480E+00    3.481E+00    3.482E+00    3.483E+00    3.485E+00    3.486E+00
     3.487E+00    3.488E+00    3.489E+00    3.490E+00    3.491E+00    3.492E+00    3.493E+00    3.494E+00    3.495E+00    3.496E+00
     3.498E+00    3.499E+00    3.500E+00    3.501E+00    3.502E+00    3.503E+00    3.504E+00    3.505E+00    3.506E+00    3.507E+00
     3.508E+00    3.509E+00    3.511E+00    3.512E+00    3.513E+00    3.514E+00    3.515E+00    3.516E+00    3.517E+00    3.518E+00
     3.519E+00    3.520E+00    3.521E+00    3.522E+00    3.524E+00    3.525E+00    3.526E+00    3.527E+00
 Ala      Conc. = 7.55E+01
