 LCModel (Version 6.3-1L) Copyright: S.W. Provencher.          Ref.: Magn. Reson. Med. 30:672-679 (1993).                
 Slice#1 Row#12 Col#9  PD_24_press_1_raw_act
 36 lines in following concentration table = NCONC+1
    Conc.  %SD /Cr+PCr  Metabolite                                         
  104.960  96%   0.157 Ala                                                 
  101.803 148%   0.152 Asp                                                 
    0.000 999%   0.000 Cr                                                  
  668.708   6%   1.000 PCr                                                 
    0.000 999%   0.000 GABA                                                
    7.516 999% 1.1E-02 Glc                                                 
  556.643  40%   0.832 Gln                                                 
  819.900  30%   1.226 Glu                                                 
  312.812   5%   0.468 GPC                                                 
    0.000 999%   0.000 PCh                                                 
  235.304  26%   0.352 GSH                                                 
  771.454  25%   1.154 Ins                                                 
    0.000 999%   0.000 Lac                                                 
 1.66E+03   6%   2.482 NAA                                                 
   47.106 254% 7.0E-02 NAAG                                                
   80.933  25%   0.121 Scyllo                                              
  183.157  75%   0.274 Tau                                                 
  169.811  45%   0.254 -CrCH2                                              
  312.812   5%   0.468 GPC+PCh                                             
 1.71E+03   4%   2.552 NAA+NAAG                                            
  668.708   6%   1.000 Cr+PCr                                              
 1.38E+03  27%   2.059 Glu+Gln                                             
  588.430  48%   0.880 Lip13a                                              
    0.000 999%   0.000 Lip13b                                              
   97.674 139%   0.146 Lip09                                               
  992.284  17%   1.484 MM09                                                
   73.054 123%   0.109 Lip20                                               
 2.14E+03  12%   3.206 MM20                                                
  309.385  43%   0.463 MM12                                                
  691.106  33%   1.033 MM14                                                
  526.256  28%   0.787 MM17                                                
  588.430  48%   0.880 Lip13a+Lip13b                                       
 1.59E+03  13%   2.376 MM14+Lip13a+Lip13b+MM12                             
 1.09E+03  11%   1.630 MM09+Lip09                                          
 2.22E+03  11%   3.315 MM20+Lip20                                          
   6 lines in following misc. output table
  FWHM = 0.061 ppm    S/N =  10                                            
  Data shift =-0.023 ppm                                                   
  Ph: -76 deg     -17.8 deg/ppm                                            
  alphaB,S = 8.5E+01,   4.1E+02                                            
   14 spline knots.   Ns = 8(1)                                            
   2 inflections.     1 extrema                                            
  498 points on ppm-axis = NY
      4.000000     3.992357     3.984714     3.977070     3.969427     3.961784     3.954141     3.946497     3.938854     3.931211
      3.923568     3.915925     3.908281     3.900638     3.892995     3.885352     3.877708     3.870065     3.862422     3.854779
      3.847136     3.839492     3.831849     3.824206     3.816563     3.808919     3.801276     3.793633     3.785990     3.778347
      3.770703     3.763060     3.755417     3.747774     3.740130     3.732487     3.724844     3.717201     3.709558     3.701914
      3.694271     3.686628     3.678985     3.671341     3.663698     3.656055     3.648412     3.640769     3.633125     3.625482
      3.617839     3.610196     3.602552     3.594909     3.587266     3.579623     3.571980     3.564336     3.556693     3.549050
      3.541407     3.533763     3.526120     3.518477     3.510834     3.503191     3.495547     3.487904     3.480261     3.472618
      3.464974     3.457331     3.449688     3.442045     3.434402     3.426758     3.419115     3.411472     3.403829     3.396185
      3.388542     3.380899     3.373256     3.365613     3.357969     3.350326     3.342683     3.335040     3.327396     3.319753
      3.312110     3.304467     3.296824     3.289180     3.281537     3.273894     3.266251     3.258607     3.250964     3.243321
      3.235678     3.228034     3.220391     3.212748     3.205105     3.197462     3.189818     3.182175     3.174532     3.166889
      3.159245     3.151602     3.143959     3.136316     3.128673     3.121029     3.113386     3.105743     3.098100     3.090456
      3.082813     3.075170     3.067527     3.059884     3.052240     3.044597     3.036954     3.029311     3.021667     3.014024
      3.006381     2.998738     2.991095     2.983451     2.975808     2.968165     2.960522     2.952878     2.945235     2.937592
      2.929949     2.922306     2.914662     2.907019     2.899376     2.891733     2.884089     2.876446     2.868803     2.861160
      2.853517     2.845873     2.838230     2.830587     2.822944     2.815300     2.807657     2.800014     2.792371     2.784728
      2.777084     2.769441     2.761798     2.754155     2.746511     2.738868     2.731225     2.723582     2.715939     2.708295
      2.700652     2.693009     2.685366     2.677722     2.670079     2.662436     2.654793     2.647150     2.639506     2.631863
      2.624220     2.616577     2.608933     2.601290     2.593647     2.586004     2.578361     2.570717     2.563074     2.555431
      2.547788     2.540144     2.532501     2.524858     2.517215     2.509572     2.501928     2.494285     2.486642     2.478999
      2.471355     2.463712     2.456069     2.448426     2.440783     2.433139     2.425496     2.417853     2.410210     2.402566
      2.394923     2.387280     2.379637     2.371994     2.364350     2.356707     2.349064     2.341421     2.333777     2.326134
      2.318491     2.310848     2.303205     2.295561     2.287918     2.280275     2.272632     2.264988     2.257345     2.249702
      2.242059     2.234416     2.226772     2.219129     2.211486     2.203843     2.196199     2.188556     2.180913     2.173270
      2.165627     2.157983     2.150340     2.142697     2.135054     2.127410     2.119767     2.112124     2.104481     2.096838
      2.089194     2.081551     2.073908     2.066265     2.058621     2.050978     2.043335     2.035692     2.028049     2.020405
      2.012762     2.005119     1.997476     1.989833     1.982190     1.974546     1.966903     1.959260     1.951617     1.943974
      1.936331     1.928688     1.921045     1.913402     1.905759     1.898115     1.890472     1.882829     1.875186     1.867543
      1.859900     1.852257     1.844614     1.836971     1.829327     1.821684     1.814041     1.806398     1.798755     1.791112
      1.783469     1.775826     1.768183     1.760540     1.752896     1.745253     1.737610     1.729967     1.722324     1.714681
      1.707038     1.699395     1.691752     1.684108     1.676465     1.668822     1.661179     1.653536     1.645893     1.638250
      1.630607     1.622964     1.615321     1.607677     1.600034     1.592391     1.584748     1.577105     1.569462     1.561819
      1.554176     1.546533     1.538890     1.531246     1.523603     1.515960     1.508317     1.500674     1.493031     1.485388
      1.477745     1.470102     1.462458     1.454815     1.447172     1.439529     1.431886     1.424243     1.416600     1.408957
      1.401314     1.393671     1.386027     1.378384     1.370741     1.363098     1.355455     1.347812     1.340169     1.332526
      1.324883     1.317240     1.309596     1.301953     1.294310     1.286667     1.279024     1.271381     1.263738     1.256095
      1.248452     1.240808     1.233165     1.225522     1.217879     1.210236     1.202593     1.194950     1.187307     1.179664
      1.172021     1.164377     1.156734     1.149091     1.141448     1.133805     1.126162     1.118519     1.110876     1.103233
      1.095590     1.087946     1.080303     1.072660     1.065017     1.057374     1.049731     1.042088     1.034445     1.026802
      1.019158     1.011515     1.003872     0.996229     0.988586     0.980943     0.973300     0.965657     0.958014     0.950371
      0.942727     0.935084     0.927441     0.919798     0.912155     0.904512     0.896869     0.889226     0.881583     0.873940
      0.866296     0.858653     0.851010     0.843367     0.835724     0.828081     0.820438     0.812795     0.805152     0.797508
      0.789865     0.782222     0.774579     0.766936     0.759293     0.751650     0.744007     0.736364     0.728721     0.721077
      0.713434     0.705791     0.698148     0.690505     0.682862     0.675219     0.667576     0.659933     0.652290     0.644646
      0.637003     0.629360     0.621717     0.614074     0.606431     0.598788     0.591145     0.583502     0.575858     0.568215
      0.560572     0.552929     0.545286     0.537643     0.530000     0.522357     0.514714     0.507071     0.499427     0.491784
      0.484141     0.476498     0.468855     0.461212     0.453569     0.445925     0.438282     0.430639     0.422996     0.415353
      0.407710     0.400067     0.392424     0.384780     0.377137     0.369494     0.361851     0.354208     0.346565     0.338922
      0.331278     0.323635     0.315992     0.308349     0.300706     0.293063     0.285420     0.277777     0.270133     0.262490
      0.254847     0.247204     0.239561     0.231918     0.224275     0.216631     0.208988     0.201345
 NY phased data points follow
  -6.30652E+00 -3.58881E-01 -3.60131E+00 -5.03893E+00 -2.17445E+00 -7.81740E-02 -2.20111E+00  6.38251E+00  1.92260E+00  3.31847E+00
   7.40389E+00  3.02801E+00  5.25769E+00 -2.73380E+00  4.48172E+00  8.14227E-01 -4.76874E-01 -1.32834E-01 -5.15070E+00 -4.27413E+00
  -6.93108E+00 -1.57894E+00 -7.25643E+00 -1.15912E+00 -3.75340E+00 -2.43106E+00 -2.58639E+00 -1.67962E+00 -1.64237E+00 -2.21371E+00
   1.64785E+00 -2.70944E+00 -7.68818E-01 -6.26426E-01  8.12630E-01  5.42033E-01 -9.02401E+00 -4.87438E+00 -5.90157E+00 -1.25654E+00
  -3.33995E+00  8.46108E-01 -3.91521E+00 -1.37132E+00 -1.34276E+00  3.81784E+00  1.26069E-01  1.77372E-01  1.75614E+00  1.56981E+00
  -1.25527E+00 -8.57018E-01 -3.36814E+00 -1.74232E+00 -1.32535E+00 -5.18660E+00 -2.27185E+00 -1.69829E+00 -7.53540E-01 -3.21150E+00
  -2.95809E+00 -3.93580E+00 -5.96002E+00 -4.74517E+00 -5.73230E+00 -6.46404E+00 -2.70485E+00 -6.53565E+00 -3.68497E+00 -5.93051E+00
  -2.28206E+00 -4.09441E+00 -2.23606E+00 -7.19657E-01 -3.31354E+00 -2.19158E+00 -6.79497E+00 -3.08681E+00 -6.09575E+00 -4.06303E+00
  -7.27341E+00 -1.36985E+00 -1.67746E+00 -2.95218E+00 -2.40158E+00 -2.91005E+00 -9.82687E-01  1.37937E+00 -4.12816E+00  6.22429E-01
  -3.46934E+00 -3.21905E-01 -1.07829E+00  1.54598E+00 -9.72953E-01  6.66031E-01 -7.74269E-01  3.02149E+00  2.53743E+00  1.01957E+01
   1.49468E+01  1.68362E+01  2.11934E+01  2.10248E+01  2.03213E+01  1.76690E+01  1.14297E+01  5.89847E+00  2.79125E+00  5.01230E+00
   2.01207E+00  2.38758E+00 -7.57067E-01 -3.23541E+00 -2.02874E+00 -1.78875E+00  1.62417E+00 -2.59931E+00 -3.59822E+00 -3.29279E+00
  -2.29452E+00  4.64321E-01  1.35249E+00  4.46369E+00  4.50137E+00  1.02988E+01  1.43866E+01  1.81305E+01  1.97327E+01  1.22863E+01
   1.09814E+01  9.64526E+00  8.49553E+00  1.87815E+00  2.92882E+00 -1.35790E+00  5.89660E-01  8.85865E-01 -5.25420E+00 -4.83743E+00
  -2.73009E+00 -1.41350E-01 -3.45797E+00 -1.66105E+00 -4.75132E+00 -2.84416E+00 -3.45865E-01 -8.29487E+00 -3.11772E+00 -2.52769E+00
  -6.44472E+00 -5.58232E+00 -4.06974E+00 -1.42040E+00 -8.53649E+00 -3.57278E+00 -5.67000E+00 -2.53941E+00 -4.94613E+00 -2.80761E+00
  -3.24553E+00 -7.54333E+00 -5.95829E+00 -4.09682E+00 -4.50625E+00 -4.98218E+00 -8.19792E+00 -6.18847E+00 -9.78281E+00 -6.67907E+00
  -1.19851E+01 -8.82373E+00 -1.29749E+01 -1.08854E+01 -1.68822E+01 -9.54105E+00 -1.19115E+01 -1.30468E+01 -1.26843E+01 -9.41424E+00
  -9.64854E+00 -7.36916E+00 -7.72142E+00 -5.13999E+00 -5.03576E+00 -3.15797E+00 -5.17963E+00 -3.72833E+00 -4.83819E+00 -5.84304E+00
  -4.04781E+00 -3.54940E+00 -6.68807E+00 -8.21060E+00 -3.60888E+00 -6.29324E+00 -6.50117E+00 -4.70940E+00 -5.14923E+00 -1.90682E+00
  -2.84917E+00 -1.90495E+00 -3.95097E+00  2.68764E-01 -5.93794E+00  3.76320E+00  2.97669E-01 -7.65168E-01 -2.55237E+00  9.14275E-01
  -1.52271E+00 -5.22978E+00  1.44363E-02 -7.71277E-01  3.79997E+00  1.79005E+00  5.98217E+00  1.84227E+00  3.49110E+00  1.33109E+00
  -1.84109E+00 -2.78614E+00 -3.68210E+00 -1.67888E-01  1.16389E-01  1.04980E+00  4.31655E-01  3.97738E+00  3.97944E+00  3.31747E+00
   5.60165E+00  1.40899E+00  9.14041E-01 -2.11015E-01  4.61579E+00  2.49018E+00 -5.35087E-01  3.54984E+00  2.26614E+00  3.22652E+00
   6.85690E-01 -5.35868E-01  1.34669E-01 -2.17380E+00  2.99585E+00  1.85689E+00  4.73896E+00  8.66904E+00  9.72641E+00  4.71918E+00
   6.67557E+00  7.79245E+00  8.70673E+00  1.43977E+01  1.91128E+01  2.14537E+01  2.90293E+01  3.90423E+01  4.23971E+01  5.19064E+01
   5.34405E+01  5.49055E+01  4.61531E+01  3.78665E+01  2.91607E+01  2.01721E+01  1.54291E+01  1.49161E+01  9.81402E+00  1.11551E+01
   7.07412E+00  5.71307E+00  2.55930E+00  2.59609E+00  1.19740E+00  3.77791E+00 -1.43387E+00  3.45708E+00 -1.14659E+00  7.95372E-01
   3.93808E+00  3.55151E+00  1.13277E+00  2.99513E+00 -1.51019E-01  1.75895E+00 -7.20974E-01  4.32413E+00 -3.29495E+00 -1.30833E-01
   1.21620E+00  2.63970E+00  3.19486E+00  3.65020E+00  2.38482E+00 -7.70537E-01  3.32961E+00  9.83372E-01  2.69870E-01 -3.93776E+00
   5.93662E-01  2.79195E+00 -2.37739E+00  2.31099E+00  1.88401E+00  1.27449E+00 -1.17374E-01  3.11462E+00  1.49312E+00  3.66467E+00
   1.75189E+00  5.38782E+00  2.68025E+00  3.52670E+00  2.23727E+00  2.60703E+00  2.86616E+00  3.26584E+00  7.20519E+00  3.65266E+00
   1.71585E+00  3.39368E+00  2.43982E+00 -2.25757E-01  5.54790E-01  4.05336E+00  3.18374E+00  5.23774E+00  1.57556E+00  8.46274E-01
   2.52794E+00  3.19900E+00 -1.27096E-01 -2.07120E+00  4.80498E+00  4.70544E+00  4.89369E+00  1.86685E+00  3.52605E-01  5.84877E+00
   5.72554E+00  2.47945E+00  1.84283E+00  2.98012E+00  6.17487E+00  4.93271E+00  7.93862E+00  7.15851E+00  7.83862E+00  2.77280E+00
   6.61156E+00  6.01619E+00  5.50042E+00  4.68522E+00  8.39563E+00  3.95425E+00  1.66839E+00  3.78398E+00 -8.56295E-01  3.59094E+00
   5.67743E+00  6.95068E+00  4.10841E+00  4.63273E+00  4.90314E+00  3.89899E+00  5.11037E+00  1.44176E+00  2.26530E+00  4.56680E+00
   3.48765E+00  3.06722E+00  5.47477E-01  3.07642E+00  2.63095E+00  4.99310E+00  1.03915E+00  4.72815E+00 -4.79184E-01  6.82957E+00
   4.53415E+00  6.20235E-01  4.81452E+00  4.05825E+00  4.12850E+00  3.44006E+00  2.90232E+00  1.12878E+00  1.26654E+00  2.21084E+00
   1.37226E+00  4.98579E+00  4.33764E-01  2.55304E+00  2.38462E+00  6.35433E+00  3.15828E+00  8.49990E+00  7.55666E+00  6.26881E+00
   5.43138E+00  4.93196E+00  6.94844E+00  1.10343E+01  6.79191E+00  8.25557E+00  8.14446E+00  8.35905E+00  6.50359E+00  1.14392E+01
   8.53043E+00  9.45365E+00  6.01205E+00  7.88892E+00  7.69247E+00  7.13660E+00  5.82904E+00  5.43532E+00  5.74651E+00  2.60900E+00
   5.69512E+00  3.22357E+00  6.10735E+00  4.05603E+00  4.93070E+00  6.13719E+00  5.79666E+00  4.83526E+00  5.72770E+00  4.86009E+00
   3.38477E+00  3.80552E+00  2.47497E+00 -2.26816E-01  1.27087E+00  1.39409E+00  3.86783E+00  1.01445E+00  1.92701E+00  2.61134E+00
   2.20165E+00  2.50120E+00  1.74031E+00  7.21994E-01 -5.40353E-01  1.63469E+00  4.03804E+00  1.62775E+00  1.38530E+00  3.46191E+00
   1.06508E+00  2.49222E+00  3.60858E+00 -6.85726E-01  2.64099E+00 -1.45113E+00  5.90166E+00  4.98618E+00 -3.48312E-01  2.72677E+00
   2.19675E+00  5.90216E+00 -3.01552E+00  4.71261E+00  1.55228E+00  2.11127E+00  4.28458E-01  1.31919E+00  7.48242E-01  3.65053E+00
   6.73929E-01 -2.21473E+00  9.81915E-01  5.26727E+00  2.38869E-01  1.46402E+00 -1.90748E+00  2.18289E+00 -1.57163E+00  3.68661E+00
   1.72579E+00  3.18179E+00  1.37753E+00  1.96808E+00  3.70914E+00 -2.90481E+00  2.14495E+00 -1.69123E+00  1.83352E+00  5.53748E+00
  -6.30378E-01  3.30532E+00 -6.05610E-01  4.80667E+00 -3.95260E-01  1.03979E+00 -4.41616E-01  4.39258E+00
 NY points of the fit to the data follow
  -4.55013E+00 -4.61516E+00 -4.23607E+00 -3.37475E+00 -2.16990E+00 -7.15087E-01  8.84571E-01  2.45993E+00  3.81126E+00  4.73788E+00
   5.06999E+00  4.74388E+00  3.84763E+00  2.59070E+00  1.21828E+00 -7.93014E-02 -1.20691E+00 -2.14772E+00 -2.93055E+00 -3.51829E+00
  -3.82785E+00 -3.97852E+00 -3.98907E+00 -3.87485E+00 -3.61107E+00 -3.15502E+00 -2.48963E+00 -1.66025E+00 -7.84540E-01  3.07082E-04
   5.47668E-01  7.46769E-01  5.69672E-01  4.47304E-02 -7.21380E-01 -1.56610E+00 -2.37474E+00 -3.07401E+00 -3.57078E+00 -3.70629E+00
  -3.42662E+00 -2.86833E+00 -2.12356E+00 -1.29257E+00 -4.92084E-01  1.45571E-01  4.98280E-01  4.99793E-01  1.40669E-01 -5.17232E-01
  -1.34720E+00 -2.19665E+00 -2.91590E+00 -3.41862E+00 -3.70947E+00 -3.83038E+00 -3.79385E+00 -3.62344E+00 -3.40880E+00 -3.25387E+00
  -3.21370E+00 -3.28686E+00 -3.44964E+00 -3.65229E+00 -3.82316E+00 -3.91512E+00 -3.92115E+00 -3.84983E+00 -3.70833E+00 -3.51538E+00
  -3.30796E+00 -3.12492E+00 -3.00266E+00 -2.96880E+00 -3.02176E+00 -3.14648E+00 -3.31772E+00 -3.49328E+00 -3.59687E+00 -3.52635E+00
  -3.30231E+00 -2.96803E+00 -2.55801E+00 -2.13485E+00 -1.76890E+00 -1.51967E+00 -1.44135E+00 -1.57040E+00 -1.87592E+00 -2.28691E+00
  -2.71596E+00 -3.07507E+00 -3.31844E+00 -3.41814E+00 -3.20467E+00 -2.12759E+00  1.57437E-02  3.01152E+00  6.57062E+00  1.04260E+01
   1.42175E+01  1.74462E+01  1.95778E+01  2.01864E+01  1.91257E+01  1.66295E+01  1.32298E+01  9.53379E+00  6.03361E+00  2.99017E+00
   4.40012E-01 -1.61811E+00 -3.04848E+00 -3.66696E+00 -3.81310E+00 -3.83447E+00 -3.79801E+00 -3.70529E+00 -3.51210E+00 -3.00130E+00
  -1.76791E+00  1.73702E-01  2.65090E+00  5.50698E+00  8.54075E+00  1.14486E+01  1.38308E+01  1.52713E+01  1.54821E+01  1.44217E+01
   1.23248E+01  9.61775E+00  6.74254E+00  4.03433E+00  1.66157E+00 -3.30142E-01 -1.87970E+00 -2.82054E+00 -3.09269E+00 -3.06959E+00
  -2.97637E+00 -2.88877E+00 -2.83869E+00 -2.83160E+00 -2.87587E+00 -2.97956E+00 -3.13073E+00 -3.31395E+00 -3.51010E+00 -3.69310E+00
  -3.84777E+00 -3.96277E+00 -4.05427E+00 -4.16675E+00 -4.31203E+00 -4.48177E+00 -4.65947E+00 -4.81895E+00 -4.96157E+00 -5.08203E+00
  -5.16202E+00 -5.18703E+00 -5.16361E+00 -5.12217E+00 -5.10555E+00 -5.14962E+00 -5.26769E+00 -5.45444E+00 -5.70336E+00 -5.98899E+00
  -6.27381E+00 -6.54983E+00 -6.79786E+00 -7.01358E+00 -7.16958E+00 -7.23289E+00 -7.21951E+00 -7.15311E+00 -7.06742E+00 -7.00834E+00
  -6.96630E+00 -6.89235E+00 -6.74050E+00 -6.47744E+00 -6.09140E+00 -5.60387E+00 -5.05148E+00 -4.44309E+00 -3.80709E+00 -3.22895E+00
  -2.81859E+00 -2.63285E+00 -2.64148E+00 -2.76196E+00 -2.90304E+00 -2.97808E+00 -2.91408E+00 -2.67223E+00 -2.22672E+00 -1.62050E+00
  -9.57778E-01 -3.82538E-01 -8.59447E-02 -1.58311E-01 -6.05905E-01 -1.39978E+00 -2.41677E+00 -3.44844E+00 -4.23917E+00 -4.60017E+00
  -4.46888E+00 -3.86499E+00 -2.90619E+00 -1.79424E+00 -7.95176E-01 -1.56477E-01  9.43953E-03 -2.76692E-01 -9.13079E-01 -1.73073E+00
  -2.52333E+00 -3.03754E+00 -3.14430E+00 -2.86895E+00 -2.27764E+00 -1.46984E+00 -5.70143E-01  2.36667E-01  8.21248E-01  1.21191E+00
   1.48066E+00  1.67251E+00  1.81560E+00  1.97199E+00  2.19679E+00  2.45740E+00  2.70166E+00  2.90626E+00  3.04531E+00  3.09861E+00
   3.08155E+00  3.02734E+00  2.99702E+00  3.06176E+00  3.24931E+00  3.54575E+00  3.92464E+00  4.39210E+00  4.94291E+00  5.55849E+00
   6.24909E+00  7.21092E+00  9.33203E+00  1.31984E+01  1.84910E+01  2.48290E+01  3.18217E+01  3.88691E+01  4.51045E+01  4.95428E+01
   5.13203E+01  4.99998E+01  4.58135E+01  3.96149E+01  3.25253E+01  2.55467E+01  1.92943E+01  1.39330E+01  9.44388E+00  6.01727E+00
   4.09731E+00  3.31576E+00  2.87523E+00  2.55859E+00  2.30801E+00  2.08678E+00  1.87225E+00  1.66383E+00  1.46121E+00  1.26781E+00
   1.08841E+00  9.26244E-01  7.83048E-01  6.63351E-01  5.70454E-01  5.02383E-01  4.55596E-01  4.28400E-01  4.20930E-01  4.33329E-01
   4.64320E-01  5.12406E-01  5.77900E-01  6.60274E-01  7.57826E-01  8.68420E-01  9.90058E-01  1.12060E+00  1.25753E+00  1.39823E+00
   1.53984E+00  1.67917E+00  1.81302E+00  1.93825E+00  2.05182E+00  2.15119E+00  2.23446E+00  2.30054E+00  2.34907E+00  2.38057E+00
   2.39648E+00  2.39897E+00  2.39080E+00  2.37548E+00  2.35706E+00  2.34023E+00  2.33048E+00  2.33498E+00  2.36546E+00  2.44176E+00
   2.55795E+00  2.68368E+00  2.79819E+00  2.88355E+00  2.91782E+00  2.87714E+00  2.74361E+00  2.53621E+00  2.31356E+00  2.12903E+00
   2.03044E+00  2.05428E+00  2.21462E+00  2.49735E+00  2.86529E+00  3.27093E+00  3.66938E+00  4.02357E+00  4.29247E+00  4.46072E+00
   4.55186E+00  4.59280E+00  4.60189E+00  4.58762E+00  4.55808E+00  4.53751E+00  4.54371E+00  4.56449E+00  4.59128E+00  4.61993E+00
   4.64770E+00  4.67243E+00  4.69216E+00  4.70516E+00  4.70978E+00  4.70455E+00  4.68813E+00  4.65947E+00  4.61779E+00  4.56273E+00
   4.49422E+00  4.41259E+00  4.31845E+00  4.21283E+00  4.09702E+00  3.97263E+00  3.84142E+00  3.70533E+00  3.56634E+00  3.42656E+00
   3.28807E+00  3.15297E+00  3.02323E+00  2.90075E+00  2.78731E+00  2.68463E+00  2.59432E+00  2.51793E+00  2.45686E+00  2.41253E+00
   2.38626E+00  2.37946E+00  2.39351E+00  2.42981E+00  2.48974E+00  2.57471E+00  2.68606E+00  2.82513E+00  2.99300E+00  3.19052E+00
   3.41807E+00  3.67559E+00  3.96233E+00  4.27676E+00  4.61641E+00  4.97777E+00  5.35626E+00  5.74625E+00  6.14109E+00  6.53327E+00
   6.91456E+00  7.27632E+00  7.60981E+00  7.90661E+00  8.15890E+00  8.35992E+00  8.50419E+00  8.58786E+00  8.60891E+00  8.56723E+00
   8.46459E+00  8.30456E+00  8.09225E+00  7.83410E+00  7.53752E+00  7.21053E+00  6.86139E+00  6.49822E+00  6.12870E+00  5.75986E+00
   5.39785E+00  5.04788E+00  4.71404E+00  4.39942E+00  4.10608E+00  3.83526E+00  3.58738E+00  3.36226E+00  3.15916E+00  2.97699E+00
   2.81437E+00  2.66984E+00  2.54182E+00  2.42873E+00  2.32903E+00  2.24128E+00  2.16411E+00  2.09634E+00  2.03687E+00  1.98472E+00
   1.93899E+00  1.89894E+00  1.86390E+00  1.83332E+00  1.80667E+00  1.78353E+00  1.76349E+00  1.74623E+00  1.73146E+00  1.71896E+00
   1.70847E+00  1.69983E+00  1.69282E+00  1.68733E+00  1.68321E+00  1.68038E+00  1.67869E+00  1.67806E+00  1.67838E+00  1.67962E+00
   1.68168E+00  1.68453E+00  1.68808E+00  1.69229E+00  1.69709E+00  1.70249E+00  1.70842E+00  1.71486E+00  1.72175E+00  1.72907E+00
   1.73678E+00  1.74490E+00  1.75338E+00  1.76221E+00  1.77132E+00  1.78074E+00  1.79044E+00  1.80042E+00  1.81064E+00  1.82110E+00
   1.83176E+00  1.84263E+00  1.85370E+00  1.86496E+00  1.87639E+00  1.88798E+00  1.89970E+00  1.91157E+00  1.92358E+00  1.93573E+00
   1.94797E+00  1.96031E+00  1.97273E+00  1.98526E+00  1.99786E+00  2.01055E+00  2.02327E+00  2.03604E+00
 NY background values follow
    -7.667E+00   -7.649E+00   -7.631E+00   -7.612E+00   -7.594E+00   -7.576E+00   -7.557E+00   -7.539E+00   -7.520E+00   -7.502E+00
    -7.484E+00   -7.465E+00   -7.447E+00   -7.429E+00   -7.410E+00   -7.392E+00   -7.373E+00   -7.355E+00   -7.337E+00   -7.318E+00
    -7.300E+00   -7.281E+00   -7.263E+00   -7.245E+00   -7.226E+00   -7.208E+00   -7.190E+00   -7.171E+00   -7.153E+00   -7.134E+00
    -7.116E+00   -7.097E+00   -7.079E+00   -7.061E+00   -7.042E+00   -7.024E+00   -7.005E+00   -6.987E+00   -6.969E+00   -6.950E+00
    -6.932E+00   -6.913E+00   -6.895E+00   -6.876E+00   -6.858E+00   -6.840E+00   -6.821E+00   -6.803E+00   -6.784E+00   -6.766E+00
    -6.747E+00   -6.729E+00   -6.711E+00   -6.692E+00   -6.674E+00   -6.655E+00   -6.637E+00   -6.618E+00   -6.600E+00   -6.581E+00
    -6.563E+00   -6.545E+00   -6.526E+00   -6.508E+00   -6.489E+00   -6.471E+00   -6.452E+00   -6.434E+00   -6.415E+00   -6.397E+00
    -6.378E+00   -6.360E+00   -6.342E+00   -6.323E+00   -6.305E+00   -6.286E+00   -6.268E+00   -6.249E+00   -6.231E+00   -6.212E+00
    -6.194E+00   -6.175E+00   -6.157E+00   -6.138E+00   -6.120E+00   -6.101E+00   -6.083E+00   -6.064E+00   -6.046E+00   -6.027E+00
    -6.009E+00   -5.991E+00   -5.972E+00   -5.954E+00   -5.935E+00   -5.917E+00   -5.898E+00   -5.880E+00   -5.861E+00   -5.843E+00
    -5.824E+00   -5.806E+00   -5.787E+00   -5.769E+00   -5.750E+00   -5.732E+00   -5.713E+00   -5.695E+00   -5.676E+00   -5.658E+00
    -5.639E+00   -5.621E+00   -5.602E+00   -5.584E+00   -5.565E+00   -5.547E+00   -5.528E+00   -5.510E+00   -5.491E+00   -5.473E+00
    -5.454E+00   -5.435E+00   -5.417E+00   -5.398E+00   -5.380E+00   -5.361E+00   -5.343E+00   -5.324E+00   -5.306E+00   -5.287E+00
    -5.269E+00   -5.250E+00   -5.232E+00   -5.213E+00   -5.195E+00   -5.176E+00   -5.158E+00   -5.139E+00   -5.121E+00   -5.102E+00
    -5.084E+00   -5.065E+00   -5.046E+00   -5.028E+00   -5.009E+00   -4.991E+00   -4.972E+00   -4.954E+00   -4.935E+00   -4.917E+00
    -4.898E+00   -4.880E+00   -4.861E+00   -4.843E+00   -4.824E+00   -4.805E+00   -4.787E+00   -4.768E+00   -4.750E+00   -4.731E+00
    -4.713E+00   -4.694E+00   -4.676E+00   -4.657E+00   -4.639E+00   -4.620E+00   -4.601E+00   -4.583E+00   -4.564E+00   -4.546E+00
    -4.527E+00   -4.509E+00   -4.490E+00   -4.472E+00   -4.453E+00   -4.434E+00   -4.416E+00   -4.397E+00   -4.379E+00   -4.360E+00
    -4.342E+00   -4.323E+00   -4.305E+00   -4.286E+00   -4.267E+00   -4.249E+00   -4.230E+00   -4.212E+00   -4.193E+00   -4.175E+00
    -4.156E+00   -4.137E+00   -4.119E+00   -4.100E+00   -4.082E+00   -4.063E+00   -4.045E+00   -4.026E+00   -4.008E+00   -3.989E+00
    -3.970E+00   -3.952E+00   -3.933E+00   -3.915E+00   -3.896E+00   -3.878E+00   -3.859E+00   -3.840E+00   -3.822E+00   -3.803E+00
    -3.785E+00   -3.766E+00   -3.748E+00   -3.729E+00   -3.710E+00   -3.692E+00   -3.673E+00   -3.655E+00   -3.636E+00   -3.618E+00
    -3.599E+00   -3.580E+00   -3.562E+00   -3.543E+00   -3.525E+00   -3.506E+00   -3.487E+00   -3.469E+00   -3.450E+00   -3.432E+00
    -3.413E+00   -3.395E+00   -3.376E+00   -3.357E+00   -3.339E+00   -3.320E+00   -3.302E+00   -3.283E+00   -3.265E+00   -3.246E+00
    -3.227E+00   -3.209E+00   -3.190E+00   -3.172E+00   -3.153E+00   -3.134E+00   -3.116E+00   -3.097E+00   -3.079E+00   -3.060E+00
    -3.042E+00   -3.023E+00   -3.004E+00   -2.986E+00   -2.967E+00   -2.949E+00   -2.930E+00   -2.912E+00   -2.893E+00   -2.874E+00
    -2.856E+00   -2.837E+00   -2.819E+00   -2.800E+00   -2.781E+00   -2.763E+00   -2.744E+00   -2.726E+00   -2.707E+00   -2.689E+00
    -2.670E+00   -2.651E+00   -2.633E+00   -2.614E+00   -2.596E+00   -2.577E+00   -2.559E+00   -2.540E+00   -2.521E+00   -2.503E+00
    -2.484E+00   -2.466E+00   -2.447E+00   -2.428E+00   -2.410E+00   -2.391E+00   -2.373E+00   -2.354E+00   -2.336E+00   -2.317E+00
    -2.298E+00   -2.280E+00   -2.261E+00   -2.243E+00   -2.224E+00   -2.206E+00   -2.187E+00   -2.168E+00   -2.150E+00   -2.131E+00
    -2.113E+00   -2.094E+00   -2.075E+00   -2.057E+00   -2.038E+00   -2.020E+00   -2.001E+00   -1.983E+00   -1.964E+00   -1.945E+00
    -1.927E+00   -1.908E+00   -1.890E+00   -1.871E+00   -1.853E+00   -1.834E+00   -1.815E+00   -1.797E+00   -1.778E+00   -1.760E+00
    -1.741E+00   -1.723E+00   -1.704E+00   -1.685E+00   -1.667E+00   -1.648E+00   -1.630E+00   -1.611E+00   -1.593E+00   -1.574E+00
    -1.556E+00   -1.537E+00   -1.518E+00   -1.500E+00   -1.481E+00   -1.463E+00   -1.444E+00   -1.426E+00   -1.407E+00   -1.388E+00
    -1.370E+00   -1.351E+00   -1.333E+00   -1.314E+00   -1.296E+00   -1.277E+00   -1.259E+00   -1.240E+00   -1.221E+00   -1.203E+00
    -1.184E+00   -1.166E+00   -1.147E+00   -1.129E+00   -1.110E+00   -1.092E+00   -1.073E+00   -1.054E+00   -1.036E+00   -1.017E+00
    -9.988E-01   -9.802E-01   -9.617E-01   -9.431E-01   -9.246E-01   -9.061E-01   -8.875E-01   -8.690E-01   -8.504E-01   -8.319E-01
    -8.133E-01   -7.948E-01   -7.763E-01   -7.577E-01   -7.392E-01   -7.206E-01   -7.021E-01   -6.836E-01   -6.650E-01   -6.465E-01
    -6.280E-01   -6.094E-01   -5.909E-01   -5.724E-01   -5.538E-01   -5.353E-01   -5.168E-01   -4.982E-01   -4.797E-01   -4.612E-01
    -4.427E-01   -4.241E-01   -4.056E-01   -3.871E-01   -3.686E-01   -3.500E-01   -3.315E-01   -3.130E-01   -2.945E-01   -2.759E-01
    -2.574E-01   -2.389E-01   -2.204E-01   -2.019E-01   -1.834E-01   -1.649E-01   -1.463E-01   -1.278E-01   -1.093E-01   -9.081E-02
    -7.230E-02   -5.379E-02   -3.528E-02   -1.677E-02    1.731E-03    2.024E-02    3.874E-02    5.724E-02    7.574E-02    9.424E-02
     1.127E-01    1.312E-01    1.497E-01    1.682E-01    1.867E-01    2.052E-01    2.237E-01    2.422E-01    2.607E-01    2.792E-01
     2.977E-01    3.162E-01    3.347E-01    3.531E-01    3.716E-01    3.901E-01    4.086E-01    4.271E-01    4.455E-01    4.640E-01
     4.825E-01    5.010E-01    5.195E-01    5.379E-01    5.564E-01    5.749E-01    5.933E-01    6.118E-01    6.303E-01    6.487E-01
     6.672E-01    6.857E-01    7.041E-01    7.226E-01    7.411E-01    7.595E-01    7.780E-01    7.964E-01    8.149E-01    8.334E-01
     8.518E-01    8.703E-01    8.887E-01    9.072E-01    9.256E-01    9.441E-01    9.625E-01    9.809E-01    9.994E-01    1.018E+00
     1.036E+00    1.055E+00    1.073E+00    1.092E+00    1.110E+00    1.128E+00    1.147E+00    1.165E+00    1.184E+00    1.202E+00
     1.221E+00    1.239E+00    1.257E+00    1.276E+00    1.294E+00    1.313E+00    1.331E+00    1.350E+00    1.368E+00    1.386E+00
     1.405E+00    1.423E+00    1.442E+00    1.460E+00    1.478E+00    1.497E+00    1.515E+00    1.534E+00
 Ala      Conc. = 1.05E+02
