 LCModel (Version 6.3-1L) Copyright: S.W. Provencher.          Ref.: Magn. Reson. Med. 30:672-679 (1993).                
 Slice#2 Row#9 Col#11  PD_24_press_1_raw_act
 36 lines in following concentration table = NCONC+1
    Conc.  %SD /Cr+PCr  Metabolite                                         
  356.651  34%   0.295 Ala                                                 
    0.000 999%   0.000 Asp                                                 
  269.012 105%   0.223 Cr                                                  
  939.852  31%   0.777 PCr                                                 
    0.000 999%   0.000 GABA                                                
   58.786 277% 4.9E-02 Glc                                                 
 1.15E+03  23%   0.948 Gln                                                 
 1.44E+03  20%   1.192 Glu                                                 
  480.910   5%   0.398 GPC                                                 
    0.000 999%   0.000 PCh                                                 
  387.376  20%   0.320 GSH                                                 
 1.38E+03  18%   1.145 Ins                                                 
    0.000 999%   0.000 Lac                                                 
 2.57E+03   6%   2.128 NAA                                                 
  323.286  52%   0.267 NAAG                                                
  163.181  17%   0.135 Scyllo                                              
  274.519  74%   0.227 Tau                                                 
  674.094  16%   0.558 -CrCH2                                              
  480.910   5%   0.398 GPC+PCh                                             
 2.90E+03   3%   2.396 NAA+NAAG                                            
 1.21E+03   5%   1.000 Cr+PCr                                              
 2.59E+03  17%   2.139 Glu+Gln                                             
  976.692  32%   0.808 Lip13a                                              
    0.000 999%   0.000 Lip13b                                              
  247.229  77%   0.205 Lip09                                               
 1.60E+03  15%   1.323 MM09                                                
  213.503  61%   0.177 Lip20                                               
 3.84E+03   9%   3.180 MM20                                                
  304.827  72%   0.252 MM12                                                
    0.000 999%   0.000 MM14                                                
  490.402  23%   0.406 MM17                                                
  976.692  32%   0.808 Lip13a+Lip13b                                       
 1.28E+03  19%   1.060 MM14+Lip13a+Lip13b+MM12                             
 1.85E+03   9%   1.528 MM09+Lip09                                          
 4.06E+03   9%   3.357 MM20+Lip20                                          
   6 lines in following misc. output table
  FWHM = 0.061 ppm    S/N =  15                                            
  Data shift = 0.000 ppm                                                   
  Ph: -31 deg     -14.8 deg/ppm                                            
  alphaB,S = 2.3E+00,   1.0E+02                                            
   14 spline knots.   Ns = 8(1)                                            
  (15) 5 infls.   (17) 1 extrs.                                            
  498 points on ppm-axis = NY
      4.000000     3.992357     3.984714     3.977070     3.969427     3.961784     3.954141     3.946497     3.938854     3.931211
      3.923568     3.915925     3.908281     3.900638     3.892995     3.885352     3.877708     3.870065     3.862422     3.854779
      3.847136     3.839492     3.831849     3.824206     3.816563     3.808919     3.801276     3.793633     3.785990     3.778347
      3.770703     3.763060     3.755417     3.747774     3.740130     3.732487     3.724844     3.717201     3.709558     3.701914
      3.694271     3.686628     3.678985     3.671341     3.663698     3.656055     3.648412     3.640769     3.633125     3.625482
      3.617839     3.610196     3.602552     3.594909     3.587266     3.579623     3.571980     3.564336     3.556693     3.549050
      3.541407     3.533763     3.526120     3.518477     3.510834     3.503191     3.495547     3.487904     3.480261     3.472618
      3.464974     3.457331     3.449688     3.442045     3.434402     3.426758     3.419115     3.411472     3.403829     3.396185
      3.388542     3.380899     3.373256     3.365613     3.357969     3.350326     3.342683     3.335040     3.327396     3.319753
      3.312110     3.304467     3.296824     3.289180     3.281537     3.273894     3.266251     3.258607     3.250964     3.243321
      3.235678     3.228034     3.220391     3.212748     3.205105     3.197462     3.189818     3.182175     3.174532     3.166889
      3.159245     3.151602     3.143959     3.136316     3.128673     3.121029     3.113386     3.105743     3.098100     3.090456
      3.082813     3.075170     3.067527     3.059884     3.052240     3.044597     3.036954     3.029311     3.021667     3.014024
      3.006381     2.998738     2.991095     2.983451     2.975808     2.968165     2.960522     2.952878     2.945235     2.937592
      2.929949     2.922306     2.914662     2.907019     2.899376     2.891733     2.884089     2.876446     2.868803     2.861160
      2.853517     2.845873     2.838230     2.830587     2.822944     2.815300     2.807657     2.800014     2.792371     2.784728
      2.777084     2.769441     2.761798     2.754155     2.746511     2.738868     2.731225     2.723582     2.715939     2.708295
      2.700652     2.693009     2.685366     2.677722     2.670079     2.662436     2.654793     2.647150     2.639506     2.631863
      2.624220     2.616577     2.608933     2.601290     2.593647     2.586004     2.578361     2.570717     2.563074     2.555431
      2.547788     2.540144     2.532501     2.524858     2.517215     2.509572     2.501928     2.494285     2.486642     2.478999
      2.471355     2.463712     2.456069     2.448426     2.440783     2.433139     2.425496     2.417853     2.410210     2.402566
      2.394923     2.387280     2.379637     2.371994     2.364350     2.356707     2.349064     2.341421     2.333777     2.326134
      2.318491     2.310848     2.303205     2.295561     2.287918     2.280275     2.272632     2.264988     2.257345     2.249702
      2.242059     2.234416     2.226772     2.219129     2.211486     2.203843     2.196199     2.188556     2.180913     2.173270
      2.165627     2.157983     2.150340     2.142697     2.135054     2.127410     2.119767     2.112124     2.104481     2.096838
      2.089194     2.081551     2.073908     2.066265     2.058621     2.050978     2.043335     2.035692     2.028049     2.020405
      2.012762     2.005119     1.997476     1.989833     1.982190     1.974546     1.966903     1.959260     1.951617     1.943974
      1.936331     1.928688     1.921045     1.913402     1.905759     1.898115     1.890472     1.882829     1.875186     1.867543
      1.859900     1.852257     1.844614     1.836971     1.829327     1.821684     1.814041     1.806398     1.798755     1.791112
      1.783469     1.775826     1.768183     1.760540     1.752896     1.745253     1.737610     1.729967     1.722324     1.714681
      1.707038     1.699395     1.691752     1.684108     1.676465     1.668822     1.661179     1.653536     1.645893     1.638250
      1.630607     1.622964     1.615321     1.607677     1.600034     1.592391     1.584748     1.577105     1.569462     1.561819
      1.554176     1.546533     1.538890     1.531246     1.523603     1.515960     1.508317     1.500674     1.493031     1.485388
      1.477745     1.470102     1.462458     1.454815     1.447172     1.439529     1.431886     1.424243     1.416600     1.408957
      1.401314     1.393671     1.386027     1.378384     1.370741     1.363098     1.355455     1.347812     1.340169     1.332526
      1.324883     1.317240     1.309596     1.301953     1.294310     1.286667     1.279024     1.271381     1.263738     1.256095
      1.248452     1.240808     1.233165     1.225522     1.217879     1.210236     1.202593     1.194950     1.187307     1.179664
      1.172021     1.164377     1.156734     1.149091     1.141448     1.133805     1.126162     1.118519     1.110876     1.103233
      1.095590     1.087946     1.080303     1.072660     1.065017     1.057374     1.049731     1.042088     1.034445     1.026802
      1.019158     1.011515     1.003872     0.996229     0.988586     0.980943     0.973300     0.965657     0.958014     0.950371
      0.942727     0.935084     0.927441     0.919798     0.912155     0.904512     0.896869     0.889226     0.881583     0.873940
      0.866296     0.858653     0.851010     0.843367     0.835724     0.828081     0.820438     0.812795     0.805152     0.797508
      0.789865     0.782222     0.774579     0.766936     0.759293     0.751650     0.744007     0.736364     0.728721     0.721077
      0.713434     0.705791     0.698148     0.690505     0.682862     0.675219     0.667576     0.659933     0.652290     0.644646
      0.637003     0.629360     0.621717     0.614074     0.606431     0.598788     0.591145     0.583502     0.575858     0.568215
      0.560572     0.552929     0.545286     0.537643     0.530000     0.522357     0.514714     0.507071     0.499427     0.491784
      0.484141     0.476498     0.468855     0.461212     0.453569     0.445925     0.438282     0.430639     0.422996     0.415353
      0.407710     0.400067     0.392424     0.384780     0.377137     0.369494     0.361851     0.354208     0.346565     0.338922
      0.331278     0.323635     0.315992     0.308349     0.300706     0.293063     0.285420     0.277777     0.270133     0.262490
      0.254847     0.247204     0.239561     0.231918     0.224275     0.216631     0.208988     0.201345
 NY phased data points follow
   8.64470E+00  5.65733E+00  8.54952E+00  4.62175E+00  7.36846E+00  6.53804E+00  1.24243E+01  7.84365E+00  1.56876E+01  1.28572E+01
   1.57867E+01  1.43061E+01  1.77969E+01  1.18698E+01  1.28185E+01  1.22632E+01  1.05205E+01  7.34661E+00  9.98771E+00  8.68309E+00
   9.70430E+00  4.67718E+00  9.18351E+00  8.74094E+00  9.63870E+00  5.96817E+00  8.61253E+00  1.09528E+01  1.35261E+01  4.94670E+00
   9.97612E+00  1.39567E+01  1.23910E+01  1.04202E+01  7.77986E+00  9.73474E+00  8.56459E+00  7.15234E+00  1.23795E+01  6.19466E+00
   1.03460E+01  8.62443E+00  1.27977E+01  1.04617E+01  1.27632E+01  1.13287E+01  1.25455E+01  1.15191E+01  1.52219E+01  9.92315E+00
   1.09314E+01  9.91164E+00  1.20083E+01  9.60646E+00  1.16767E+01  8.90256E+00  9.78857E+00  1.18073E+01  8.60392E+00  7.17592E+00
   8.63420E+00  3.46284E+00  6.14267E+00  2.88337E+00  2.92522E+00  4.73691E+00  4.49163E+00  2.33689E+00  5.31152E+00  3.31275E+00
   3.18615E+00  3.70205E+00  5.65169E+00  4.20960E+00  7.45768E+00  4.82135E+00  6.74351E+00  4.75336E+00  1.38464E+00  5.13385E+00
   4.74414E+00  4.39478E+00  8.27306E+00  9.40856E+00  8.67039E+00  8.39232E+00  8.43906E+00  4.64633E+00  8.39570E+00  8.40708E+00
   8.86010E+00  5.93920E+00  7.00123E+00  8.99387E+00  1.34047E+01  9.20369E+00  1.12278E+01  1.05927E+01  1.41018E+01  2.28995E+01
   2.98826E+01  3.07342E+01  3.93579E+01  4.23633E+01  4.05908E+01  3.45029E+01  2.86832E+01  2.08706E+01  1.90348E+01  1.48447E+01
   1.28097E+01  1.02721E+01  9.63428E+00  7.38154E+00  9.88688E+00  3.77910E+00  7.15606E+00  3.35380E+00  3.55815E+00  5.54504E+00
   7.37004E+00  5.51814E+00  1.29619E+01  1.70029E+01  2.56546E+01  3.37800E+01  4.02239E+01  4.23759E+01  4.03124E+01  3.27428E+01
   2.72279E+01  2.48011E+01  1.75067E+01  1.61612E+01  1.20251E+01  9.29468E+00  1.22672E+01  7.66099E+00  6.15813E+00  9.09066E+00
   7.05956E+00  8.58369E+00  8.53691E+00  5.29446E+00  8.09155E+00  3.47193E+00  4.74342E+00  5.93576E+00  4.90708E+00  4.28537E+00
   4.72767E+00  4.51014E+00  5.95597E+00  8.39242E-01  3.94270E+00  1.60236E+00  3.31497E+00  4.40026E+00  5.63651E+00  7.64172E-01
   2.64407E+00  1.47797E+00  1.07346E+00  2.70604E+00 -9.86228E-01 -1.87656E+00 -8.82479E-01 -2.31611E+00 -5.73876E+00 -3.98769E+00
  -5.97830E+00 -8.53461E+00 -8.71831E+00 -1.04282E+01 -7.28317E+00 -9.67557E+00 -8.76131E+00 -1.02831E+01 -7.99849E+00 -8.03435E+00
  -8.85725E+00 -6.93331E+00 -1.22619E+01 -3.95939E+00 -5.19207E+00 -6.05758E+00 -7.42614E+00 -3.64860E+00 -7.05029E+00 -4.14484E+00
  -4.10123E+00 -5.82428E+00 -1.77794E+00 -1.14646E+00 -1.12781E+00  4.29728E-01 -4.54469E+00 -6.94355E+00 -3.38236E+00 -5.14468E+00
  -2.19008E+00 -2.64465E+00 -1.11418E-01  8.18270E-04  2.38895E+00  3.74751E+00  1.38805E+00  2.17450E+00  1.71154E+00  1.09251E+00
   1.84609E+00  2.45657E+00  7.07200E+00  1.06203E+01  1.35167E+01  1.37961E+01  1.50227E+01  1.31616E+01  9.98206E+00  3.82416E+00
   4.05101E+00  3.62839E+00  4.81005E-02  3.72382E+00  7.27713E+00  8.04088E+00  1.26582E+01  8.79209E+00  1.06645E+01  9.98077E+00
   1.30024E+01  7.82390E+00  1.07470E+01  8.80999E+00  1.28688E+01  1.17597E+01  1.12855E+01  8.24654E+00  1.10632E+01  8.82716E+00
   6.66160E+00  7.34423E+00  6.28028E+00  7.78868E+00  8.35746E+00  1.02695E+01  1.15568E+01  1.34742E+01  1.45186E+01  1.40583E+01
   1.91340E+01  2.39240E+01  2.99513E+01  3.46846E+01  3.99850E+01  4.89340E+01  5.82138E+01  6.99095E+01  8.27347E+01  8.84880E+01
   9.43262E+01  8.98755E+01  7.81642E+01  6.61045E+01  5.07650E+01  4.01000E+01  3.26527E+01  2.43572E+01  2.02033E+01  1.53825E+01
   1.42727E+01  1.07547E+01  9.13926E+00  6.76403E+00  6.16218E+00  4.24215E+00  7.57721E+00  5.85628E+00  4.72787E+00  1.36433E+00
   5.22063E+00  1.95005E+00  3.53507E+00  3.87673E+00  4.17318E+00  2.44709E-01  6.01184E+00  4.26358E+00  3.96773E+00  8.72112E-01
   7.00912E+00  4.07313E+00  7.17577E+00  6.41793E+00  2.64826E+00 -1.43119E+00 -9.49347E-01  8.24015E-01  1.11552E+00 -1.48330E+00
   3.25575E+00  1.80736E+00  1.12924E+00  2.07787E+00  2.13724E+00  5.63236E+00  3.18222E+00  5.74740E+00  6.93408E+00  1.05697E+01
   1.04444E+01  7.35613E+00  5.55834E+00  6.33548E+00  6.89017E+00  5.42662E+00  5.59852E+00  5.51805E+00  8.31960E+00  4.16246E+00
   4.49308E+00 -3.43111E-01  3.76311E+00 -1.05914E+00 -2.27424E+00  1.33142E+00  9.86817E-01 -7.50232E-01 -5.59563E+00 -2.71409E+00
  -3.20062E+00  1.07031E-01 -2.81601E+00 -1.80599E-01 -3.99620E-01  2.88031E+00  1.96227E+00  5.45584E+00  3.65619E+00  4.27978E+00
   7.33648E+00  4.82201E+00  7.23964E+00  6.91464E+00  7.19698E+00  8.41582E+00  8.01040E+00  8.66169E+00  1.10904E+01  9.42941E+00
   7.23559E+00  6.77759E+00  5.78717E+00  3.97241E+00  6.36382E+00  8.03746E+00  6.21464E+00  7.83489E+00  5.76755E+00  4.75338E+00
   3.68467E+00  6.23118E+00  6.47436E+00  5.55339E+00  5.55032E+00  5.37027E+00  1.87346E+00  4.94739E+00  4.73168E+00  6.24516E+00
   5.74297E+00  6.01966E+00  6.14727E+00  3.59386E+00  3.96199E+00  3.13292E+00  4.05621E+00  4.48558E+00  3.57595E+00  3.58695E+00
   4.13158E+00  3.34825E+00  4.30930E+00  8.07465E+00  2.89759E+00  7.15130E+00  4.02485E+00  3.35961E+00  7.09553E+00  5.82439E+00
   9.61896E+00  6.89610E+00  1.07720E+01  9.49636E+00  9.37291E+00  8.50937E+00  8.93572E+00  1.03368E+01  1.03913E+01  1.05730E+01
   1.21049E+01  9.23040E+00  9.61340E+00  1.21933E+01  1.05311E+01  1.40745E+01  1.35246E+01  1.57130E+01  1.47101E+01  1.39740E+01
   1.07163E+01  1.39374E+01  1.53961E+01  1.16492E+01  1.32427E+01  9.04656E+00  1.13553E+01  7.90609E+00  6.56899E+00  1.29055E+01
   6.43158E+00  8.38596E+00  5.51522E+00  4.81826E+00  4.69186E+00  4.07789E+00  4.99788E+00  4.44256E+00  4.02605E+00  5.08829E+00
   4.92969E+00  4.64101E+00  3.42433E+00  1.62445E+00  4.97722E+00  6.50226E-01  2.14848E+00 -1.65712E-02  3.44949E+00  2.59136E+00
   3.01362E+00  2.03437E+00  2.99307E+00  1.75491E+00  4.56088E+00  5.09265E+00  3.27302E+00  5.47223E+00  1.30265E+00  3.90154E+00
   4.50328E+00  4.40095E+00  5.24295E-02  4.48992E+00  1.46430E+00  5.56295E-01  8.51018E-02  1.65268E+00  8.72544E-01  4.92833E-01
   5.12907E+00  7.95437E-01  2.42759E+00  4.82884E+00  3.75728E+00  9.63614E-01  3.34873E+00  2.93616E+00 -1.29805E-01  9.53719E-01
   1.49039E+00  2.54946E+00  4.10842E+00  5.14943E+00 -4.07844E-01  3.22762E-01  1.50682E+00  1.09136E+00  8.05291E-01  6.69473E-01
   2.98066E+00  1.90417E+00  3.67457E+00  6.60123E-01  1.20424E+00  2.86793E-01  1.14986E+00  2.64402E+00 -2.03596E+00  3.36769E+00
   1.83450E+00  6.00238E-01  4.46230E+00  1.94768E-01 -4.25592E-01  4.34866E+00 -2.26524E+00  3.78345E+00
 NY points of the fit to the data follow
   5.76460E+00  5.37613E+00  5.50065E+00  6.04091E+00  6.87672E+00  7.95101E+00  9.40955E+00  1.12228E+01  1.31378E+01  1.48181E+01
   1.58705E+01  1.60481E+01  1.53784E+01  1.41245E+01  1.27058E+01  1.14489E+01  1.04993E+01  9.78063E+00  9.08262E+00  8.30326E+00
   7.60587E+00  7.07879E+00  7.01462E+00  6.96605E+00  6.79869E+00  6.88329E+00  7.57605E+00  8.92606E+00  1.06780E+01  1.26144E+01
   1.42718E+01  1.49910E+01  1.46109E+01  1.33621E+01  1.17136E+01  1.01288E+01  8.77709E+00  7.80799E+00  7.15704E+00  6.91594E+00
   7.20600E+00  7.74151E+00  8.52570E+00  9.69031E+00  1.11792E+01  1.26910E+01  1.37619E+01  1.40782E+01  1.35109E+01  1.20863E+01
   1.02690E+01  8.60825E+00  7.38810E+00  6.68799E+00  6.38794E+00  6.21276E+00  6.08245E+00  6.16784E+00  6.49743E+00  6.82987E+00
   6.89338E+00  6.64861E+00  6.13627E+00  5.54711E+00  5.11713E+00  4.91144E+00  4.92676E+00  5.13409E+00  5.40572E+00  5.64071E+00
   5.83680E+00  6.03368E+00  6.20982E+00  6.27953E+00  6.22008E+00  6.00815E+00  5.63903E+00  5.20957E+00  4.90419E+00  5.05173E+00
   5.29817E+00  5.59745E+00  6.26495E+00  7.25671E+00  8.25529E+00  9.00822E+00  9.36480E+00  9.13728E+00  8.32099E+00  7.15438E+00
   6.00273E+00  5.14803E+00  4.59384E+00  4.29666E+00  4.57720E+00  6.41146E+00  8.85810E+00  1.15988E+01  1.56833E+01  2.15031E+01
   2.83554E+01  3.49332E+01  3.98852E+01  4.18529E+01  3.99983E+01  3.49764E+01  2.86744E+01  2.28307E+01  1.82768E+01  1.49882E+01
   1.24057E+01  9.71817E+00  6.63203E+00  4.67898E+00  4.01359E+00  3.72343E+00  3.58186E+00  3.56395E+00  3.92690E+00  5.71565E+00
   8.49098E+00  1.11630E+01  1.47045E+01  1.98687E+01  2.61618E+01  3.24382E+01  3.74214E+01  3.98091E+01  3.87752E+01  3.47317E+01
   2.92129E+01  2.38551E+01  1.94860E+01  1.60963E+01  1.32821E+01  1.04589E+01  7.31983E+00  5.20822E+00  4.74577E+00  4.84758E+00
   5.05045E+00  5.14176E+00  5.02027E+00  4.76797E+00  4.50436E+00  4.23468E+00  3.96025E+00  3.68378E+00  3.38737E+00  3.07651E+00
   2.74909E+00  2.45169E+00  2.20087E+00  1.91095E+00  1.65831E+00  1.49190E+00  1.33614E+00  1.14575E+00  8.05601E-01  3.64224E-01
  -4.58111E-03 -1.95106E-01 -2.04806E-01 -1.09557E-01 -8.15396E-02 -3.00846E-01 -8.02944E-01 -1.48510E+00 -2.20577E+00 -2.75607E+00
  -3.02002E+00 -3.29020E+00 -3.72156E+00 -4.30046E+00 -4.82651E+00 -5.03726E+00 -4.98368E+00 -4.82284E+00 -4.65169E+00 -4.60816E+00
  -4.63897E+00 -4.60091E+00 -4.44411E+00 -4.10982E+00 -3.55404E+00 -2.82572E+00 -1.99270E+00 -1.05915E+00  2.86697E-02  1.11383E+00
   1.84235E+00  2.05180E+00  1.83611E+00  1.42718E+00  1.05106E+00  9.48596E-01  1.38712E+00  2.15225E+00  3.10508E+00  4.22274E+00
   5.28832E+00  5.95693E+00  6.11478E+00  5.78383E+00  4.68791E+00  2.72800E+00  4.36441E-01 -1.51136E+00 -2.65677E+00 -2.90822E+00
  -2.19154E+00 -4.52768E-01  1.85800E+00  4.09388E+00  5.84939E+00  6.84816E+00  7.02851E+00  6.31640E+00  4.75129E+00  2.72932E+00
   8.80526E-01 -7.55159E-02  5.43101E-02  1.00005E+00  2.49496E+00  4.17778E+00  5.75481E+00  6.81997E+00  7.35598E+00  7.65925E+00
   7.85705E+00  8.10618E+00  8.51168E+00  8.99735E+00  9.53720E+00  1.02595E+01  1.10815E+01  1.17390E+01  1.19286E+01  1.15586E+01
   1.08823E+01  1.01715E+01  9.72378E+00  9.85011E+00  1.05988E+01  1.16789E+01  1.28093E+01  1.40180E+01  1.55081E+01  1.70052E+01
   1.85743E+01  2.10840E+01  2.66375E+01  3.44414E+01  4.13584E+01  4.90521E+01  5.91852E+01  7.07594E+01  8.15980E+01  8.96590E+01
   9.27279E+01  8.88735E+01  7.85425E+01  6.50035E+01  5.18086E+01  4.10525E+01  3.33160E+01  2.76379E+01  2.22783E+01  1.59736E+01
   1.09928E+01  9.17815E+00  8.34258E+00  7.74111E+00  7.25571E+00  6.80793E+00  6.31933E+00  5.82658E+00  5.36156E+00  4.94474E+00
   4.57981E+00  4.26359E+00  3.97259E+00  3.69666E+00  3.44635E+00  3.22395E+00  3.02354E+00  2.84347E+00  2.69392E+00  2.58916E+00
   2.52909E+00  2.50218E+00  2.50791E+00  2.54681E+00  2.61468E+00  2.70802E+00  2.83011E+00  2.98584E+00  3.17603E+00  3.40092E+00
   3.65411E+00  3.92510E+00  4.20571E+00  4.48521E+00  4.75044E+00  4.99106E+00  5.19721E+00  5.36295E+00  5.48189E+00  5.54748E+00
   5.55794E+00  5.51616E+00  5.42554E+00  5.29455E+00  5.13352E+00  4.95735E+00  4.78448E+00  4.64465E+00  4.59505E+00  4.68022E+00
   4.68091E+00  4.61911E+00  4.63929E+00  4.65495E+00  4.45918E+00  3.89118E+00  2.90114E+00  1.71611E+00  4.81031E-01 -6.74149E-01
  -1.39888E+00 -1.44598E+00 -8.39988E-01  2.24128E-01  1.51220E+00  2.75626E+00  3.74980E+00  4.50644E+00  4.93139E+00  5.08270E+00
   5.15667E+00  5.26399E+00  5.42954E+00  5.57951E+00  5.57571E+00  5.56580E+00  5.68424E+00  5.86521E+00  6.06993E+00  6.28011E+00
   6.48277E+00  6.66920E+00  6.83153E+00  6.96467E+00  7.06370E+00  7.12622E+00  7.14995E+00  7.13513E+00  7.08214E+00  6.99369E+00
   6.87229E+00  6.72239E+00  6.54786E+00  6.35423E+00  6.14609E+00  5.92924E+00  5.70813E+00  5.48803E+00  5.27272E+00  5.06672E+00
   4.87297E+00  4.69508E+00  4.53499E+00  4.39541E+00  4.27758E+00  4.18366E+00  4.11450E+00  4.07193E+00  4.05653E+00  4.07005E+00
   4.11318E+00  4.18784E+00  4.29493E+00  4.43647E+00  4.61341E+00  4.82781E+00  5.08053E+00  5.37338E+00  5.70660E+00  6.08099E+00
   6.49552E+00  6.94935E+00  7.43947E+00  7.96269E+00  8.51324E+00  9.08496E+00  9.66906E+00  1.02565E+01  1.08358E+01  1.13957E+01
   1.19232E+01  1.24059E+01  1.28310E+01  1.31876E+01  1.34648E+01  1.36551E+01  1.37517E+01  1.37519E+01  1.36544E+01  1.34621E+01
   1.31793E+01  1.28139E+01  1.23749E+01  1.18737E+01  1.13222E+01  1.07335E+01  1.01200E+01  9.49429E+00  8.86730E+00  8.24969E+00
   7.64968E+00  7.07492E+00  6.53037E+00  6.02045E+00  5.54708E+00  5.11198E+00  4.71470E+00  4.35492E+00  4.03055E+00  3.74003E+00
   3.48049E+00  3.24989E+00  3.04514E+00  2.86415E+00  2.70390E+00  2.56257E+00  2.43751E+00  2.32732E+00  2.22975E+00  2.14375E+00
   2.06741E+00  2.00003E+00  1.94008E+00  1.88718E+00  1.84003E+00  1.79842E+00  1.76121E+00  1.72842E+00  1.69911E+00  1.67340E+00
   1.65044E+00  1.63040E+00  1.61250E+00  1.59705E+00  1.58336E+00  1.57174E+00  1.56153E+00  1.55304E+00  1.54566E+00  1.53981E+00
   1.53489E+00  1.53131E+00  1.52846E+00  1.52675E+00  1.52563E+00  1.52557E+00  1.52602E+00  1.52739E+00  1.52914E+00  1.53171E+00
   1.53460E+00  1.53828E+00  1.54223E+00  1.54689E+00  1.55172E+00  1.55720E+00  1.56286E+00  1.56916E+00  1.57558E+00  1.58256E+00
   1.58962E+00  1.59723E+00  1.60494E+00  1.61320E+00  1.62151E+00  1.63031E+00  1.63914E+00  1.64851E+00  1.65793E+00  1.66786E+00
   1.67782E+00  1.68826E+00  1.69876E+00  1.70981E+00  1.72094E+00  1.73263E+00  1.74439E+00  1.75673E+00
 NY background values follow
     2.457E+00    2.442E+00    2.426E+00    2.411E+00    2.395E+00    2.380E+00    2.364E+00    2.349E+00    2.334E+00    2.318E+00
     2.303E+00    2.287E+00    2.272E+00    2.256E+00    2.241E+00    2.225E+00    2.210E+00    2.194E+00    2.179E+00    2.163E+00
     2.148E+00    2.133E+00    2.117E+00    2.102E+00    2.086E+00    2.071E+00    2.055E+00    2.040E+00    2.024E+00    2.009E+00
     1.993E+00    1.978E+00    1.963E+00    1.947E+00    1.932E+00    1.916E+00    1.901E+00    1.885E+00    1.870E+00    1.854E+00
     1.839E+00    1.823E+00    1.808E+00    1.793E+00    1.777E+00    1.762E+00    1.746E+00    1.731E+00    1.715E+00    1.700E+00
     1.685E+00    1.669E+00    1.654E+00    1.638E+00    1.623E+00    1.607E+00    1.592E+00    1.577E+00    1.561E+00    1.546E+00
     1.530E+00    1.515E+00    1.500E+00    1.484E+00    1.469E+00    1.454E+00    1.438E+00    1.423E+00    1.408E+00    1.392E+00
     1.377E+00    1.362E+00    1.347E+00    1.331E+00    1.316E+00    1.301E+00    1.286E+00    1.271E+00    1.255E+00    1.240E+00
     1.225E+00    1.210E+00    1.195E+00    1.180E+00    1.165E+00    1.149E+00    1.134E+00    1.119E+00    1.104E+00    1.089E+00
     1.074E+00    1.059E+00    1.044E+00    1.030E+00    1.015E+00    9.997E-01    9.849E-01    9.700E-01    9.552E-01    9.404E-01
     9.256E-01    9.109E-01    8.962E-01    8.815E-01    8.668E-01    8.522E-01    8.376E-01    8.230E-01    8.085E-01    7.940E-01
     7.795E-01    7.650E-01    7.506E-01    7.362E-01    7.219E-01    7.076E-01    6.933E-01    6.791E-01    6.649E-01    6.507E-01
     6.366E-01    6.225E-01    6.085E-01    5.945E-01    5.806E-01    5.666E-01    5.528E-01    5.390E-01    5.252E-01    5.115E-01
     4.978E-01    4.841E-01    4.705E-01    4.570E-01    4.435E-01    4.301E-01    4.167E-01    4.033E-01    3.901E-01    3.768E-01
     3.637E-01    3.505E-01    3.375E-01    3.245E-01    3.116E-01    2.988E-01    2.860E-01    2.733E-01    2.607E-01    2.481E-01
     2.356E-01    2.232E-01    2.109E-01    1.987E-01    1.866E-01    1.745E-01    1.626E-01    1.507E-01    1.390E-01    1.273E-01
     1.157E-01    1.043E-01    9.290E-02    8.165E-02    7.050E-02    5.947E-02    4.855E-02    3.774E-02    2.705E-02    1.648E-02
     6.027E-03   -4.301E-03   -1.450E-02   -2.458E-02   -3.453E-02   -4.434E-02   -5.403E-02   -6.357E-02   -7.298E-02   -8.225E-02
    -9.138E-02   -1.004E-01   -1.092E-01   -1.179E-01   -1.265E-01   -1.349E-01   -1.431E-01   -1.513E-01   -1.593E-01   -1.671E-01
    -1.748E-01   -1.824E-01   -1.899E-01   -1.972E-01   -2.043E-01   -2.114E-01   -2.183E-01   -2.251E-01   -2.317E-01   -2.383E-01
    -2.447E-01   -2.509E-01   -2.571E-01   -2.631E-01   -2.690E-01   -2.748E-01   -2.805E-01   -2.860E-01   -2.914E-01   -2.967E-01
    -3.019E-01   -3.070E-01   -3.119E-01   -3.168E-01   -3.215E-01   -3.261E-01   -3.306E-01   -3.350E-01   -3.393E-01   -3.434E-01
    -3.475E-01   -3.515E-01   -3.553E-01   -3.591E-01   -3.627E-01   -3.663E-01   -3.697E-01   -3.730E-01   -3.763E-01   -3.794E-01
    -3.825E-01   -3.854E-01   -3.883E-01   -3.910E-01   -3.936E-01   -3.962E-01   -3.986E-01   -4.009E-01   -4.031E-01   -4.052E-01
    -4.073E-01   -4.092E-01   -4.110E-01   -4.127E-01   -4.143E-01   -4.158E-01   -4.172E-01   -4.184E-01   -4.196E-01   -4.207E-01
    -4.216E-01   -4.225E-01   -4.233E-01   -4.239E-01   -4.244E-01   -4.249E-01   -4.252E-01   -4.254E-01   -4.255E-01   -4.255E-01
    -4.254E-01   -4.252E-01   -4.248E-01   -4.244E-01   -4.238E-01   -4.232E-01   -4.224E-01   -4.215E-01   -4.205E-01   -4.194E-01
    -4.182E-01   -4.169E-01   -4.155E-01   -4.139E-01   -4.122E-01   -4.105E-01   -4.086E-01   -4.066E-01   -4.045E-01   -4.023E-01
    -3.999E-01   -3.975E-01   -3.949E-01   -3.923E-01   -3.895E-01   -3.866E-01   -3.836E-01   -3.805E-01   -3.773E-01   -3.740E-01
    -3.706E-01   -3.671E-01   -3.634E-01   -3.597E-01   -3.558E-01   -3.518E-01   -3.477E-01   -3.436E-01   -3.393E-01   -3.349E-01
    -3.304E-01   -3.257E-01   -3.210E-01   -3.162E-01   -3.112E-01   -3.062E-01   -3.010E-01   -2.958E-01   -2.904E-01   -2.849E-01
    -2.794E-01   -2.737E-01   -2.679E-01   -2.620E-01   -2.560E-01   -2.499E-01   -2.437E-01   -2.374E-01   -2.309E-01   -2.244E-01
    -2.178E-01   -2.111E-01   -2.042E-01   -1.973E-01   -1.903E-01   -1.831E-01   -1.759E-01   -1.686E-01   -1.611E-01   -1.536E-01
    -1.460E-01   -1.383E-01   -1.305E-01   -1.226E-01   -1.146E-01   -1.065E-01   -9.834E-02   -9.008E-02   -8.172E-02   -7.328E-02
    -6.474E-02   -5.612E-02   -4.741E-02   -3.862E-02   -2.974E-02   -2.078E-02   -1.173E-02   -2.600E-03    6.613E-03    1.591E-02
     2.528E-02    3.474E-02    4.427E-02    5.389E-02    6.358E-02    7.335E-02    8.320E-02    9.312E-02    1.031E-01    1.132E-01
     1.233E-01    1.336E-01    1.438E-01    1.542E-01    1.646E-01    1.751E-01    1.857E-01    1.963E-01    2.071E-01    2.178E-01
     2.287E-01    2.396E-01    2.505E-01    2.616E-01    2.726E-01    2.838E-01    2.950E-01    3.063E-01    3.176E-01    3.290E-01
     3.404E-01    3.519E-01    3.635E-01    3.751E-01    3.868E-01    3.985E-01    4.102E-01    4.221E-01    4.339E-01    4.458E-01
     4.578E-01    4.698E-01    4.819E-01    4.940E-01    5.061E-01    5.183E-01    5.305E-01    5.428E-01    5.551E-01    5.675E-01
     5.799E-01    5.923E-01    6.048E-01    6.173E-01    6.299E-01    6.425E-01    6.551E-01    6.677E-01    6.804E-01    6.931E-01
     7.059E-01    7.187E-01    7.315E-01    7.443E-01    7.572E-01    7.701E-01    7.830E-01    7.959E-01    8.089E-01    8.219E-01
     8.349E-01    8.479E-01    8.610E-01    8.741E-01    8.872E-01    9.003E-01    9.134E-01    9.266E-01    9.398E-01    9.529E-01
     9.661E-01    9.794E-01    9.926E-01    1.006E+00    1.019E+00    1.032E+00    1.046E+00    1.059E+00    1.072E+00    1.086E+00
     1.099E+00    1.112E+00    1.126E+00    1.139E+00    1.152E+00    1.166E+00    1.179E+00    1.192E+00    1.206E+00    1.219E+00
     1.232E+00    1.246E+00    1.259E+00    1.272E+00    1.286E+00    1.299E+00    1.312E+00    1.326E+00    1.339E+00    1.352E+00
     1.366E+00    1.379E+00    1.392E+00    1.405E+00    1.419E+00    1.432E+00    1.445E+00    1.459E+00    1.472E+00    1.485E+00
     1.499E+00    1.512E+00    1.525E+00    1.538E+00    1.552E+00    1.565E+00    1.578E+00    1.592E+00    1.605E+00    1.618E+00
     1.631E+00    1.645E+00    1.658E+00    1.671E+00    1.684E+00    1.698E+00    1.711E+00    1.724E+00    1.737E+00    1.751E+00
     1.764E+00    1.777E+00    1.790E+00    1.804E+00    1.817E+00    1.830E+00    1.843E+00    1.857E+00
 Ala      Conc. = 3.57E+02
