 LCModel (Version 6.3-1L) Copyright: S.W. Provencher.          Ref.: Magn. Reson. Med. 30:672-679 (1993).                
 Slice#2 Row#10 Col#8  PD_24_press_1_raw_act
 36 lines in following concentration table = NCONC+1
    Conc.  %SD /Cr+PCr  Metabolite                                         
  105.216 100% 6.3E-02 Ala                                                 
    0.000 999%   0.000 Asp                                                 
  951.985  22%   0.573 Cr                                                  
  709.663  30%   0.427 PCr                                                 
    0.000 999%   0.000 GABA                                                
    0.000 999%   0.000 Glc                                                 
  708.369  31%   0.426 Gln                                                 
 1.96E+03  13%   1.179 Glu                                                 
  664.589   4%   0.400 GPC                                                 
    0.000 999%   0.000 PCh                                                 
  545.524  13%   0.328 GSH                                                 
 1.63E+03  15%   0.984 Ins                                                 
  256.567  50%   0.154 Lac                                                 
 2.24E+03   5%   1.346 NAA                                                 
  177.037  72%   0.107 NAAG                                                
   56.219  48% 3.4E-02 Scyllo                                              
    0.000 999%   0.000 Tau                                                 
    0.000 999%   0.000 -CrCH2                                              
  664.589   4%   0.400 GPC+PCh                                             
 2.41E+03   4%   1.453 NAA+NAAG                                            
 1.66E+03   4%   1.000 Cr+PCr                                              
 2.67E+03  13%   1.605 Glu+Gln                                             
 2.15E+03  36%   1.293 Lip13a                                              
  353.953  59%   0.213 Lip13b                                              
  423.637  76%   0.255 Lip09                                               
 1.55E+03  23%   0.934 MM09                                                
  341.939  64%   0.206 Lip20                                               
 3.24E+03  13%   1.948 MM20                                                
  568.250  42%   0.342 MM12                                                
 1.17E+03  37%   0.701 MM14                                                
  919.351  27%   0.553 MM17                                                
 2.50E+03  27%   1.506 Lip13a+Lip13b                                       
 4.24E+03  11%   2.549 MM14+Lip13a+Lip13b+MM12                             
 1.98E+03  11%   1.189 MM09+Lip09                                          
 3.58E+03  12%   2.153 MM20+Lip20                                          
   6 lines in following misc. output table
  FWHM = 0.046 ppm    S/N =  12                                            
  Data shift = 0.008 ppm                                                   
  Ph:   5 deg       4.7 deg/ppm                                            
  alphaB,S = 2.9E+00,   2.8E+01                                            
   14 spline knots.   Ns = 6(1)                                            
  (10) 2 infls.   ( 5) 1 extrs.                                            
  498 points on ppm-axis = NY
      4.000000     3.992357     3.984714     3.977070     3.969427     3.961784     3.954141     3.946497     3.938854     3.931211
      3.923568     3.915925     3.908281     3.900638     3.892995     3.885352     3.877708     3.870065     3.862422     3.854779
      3.847136     3.839492     3.831849     3.824206     3.816563     3.808919     3.801276     3.793633     3.785990     3.778347
      3.770703     3.763060     3.755417     3.747774     3.740130     3.732487     3.724844     3.717201     3.709558     3.701914
      3.694271     3.686628     3.678985     3.671341     3.663698     3.656055     3.648412     3.640769     3.633125     3.625482
      3.617839     3.610196     3.602552     3.594909     3.587266     3.579623     3.571980     3.564336     3.556693     3.549050
      3.541407     3.533763     3.526120     3.518477     3.510834     3.503191     3.495547     3.487904     3.480261     3.472618
      3.464974     3.457331     3.449688     3.442045     3.434402     3.426758     3.419115     3.411472     3.403829     3.396185
      3.388542     3.380899     3.373256     3.365613     3.357969     3.350326     3.342683     3.335040     3.327396     3.319753
      3.312110     3.304467     3.296824     3.289180     3.281537     3.273894     3.266251     3.258607     3.250964     3.243321
      3.235678     3.228034     3.220391     3.212748     3.205105     3.197462     3.189818     3.182175     3.174532     3.166889
      3.159245     3.151602     3.143959     3.136316     3.128673     3.121029     3.113386     3.105743     3.098100     3.090456
      3.082813     3.075170     3.067527     3.059884     3.052240     3.044597     3.036954     3.029311     3.021667     3.014024
      3.006381     2.998738     2.991095     2.983451     2.975808     2.968165     2.960522     2.952878     2.945235     2.937592
      2.929949     2.922306     2.914662     2.907019     2.899376     2.891733     2.884089     2.876446     2.868803     2.861160
      2.853517     2.845873     2.838230     2.830587     2.822944     2.815300     2.807657     2.800014     2.792371     2.784728
      2.777084     2.769441     2.761798     2.754155     2.746511     2.738868     2.731225     2.723582     2.715939     2.708295
      2.700652     2.693009     2.685366     2.677722     2.670079     2.662436     2.654793     2.647150     2.639506     2.631863
      2.624220     2.616577     2.608933     2.601290     2.593647     2.586004     2.578361     2.570717     2.563074     2.555431
      2.547788     2.540144     2.532501     2.524858     2.517215     2.509572     2.501928     2.494285     2.486642     2.478999
      2.471355     2.463712     2.456069     2.448426     2.440783     2.433139     2.425496     2.417853     2.410210     2.402566
      2.394923     2.387280     2.379637     2.371994     2.364350     2.356707     2.349064     2.341421     2.333777     2.326134
      2.318491     2.310848     2.303205     2.295561     2.287918     2.280275     2.272632     2.264988     2.257345     2.249702
      2.242059     2.234416     2.226772     2.219129     2.211486     2.203843     2.196199     2.188556     2.180913     2.173270
      2.165627     2.157983     2.150340     2.142697     2.135054     2.127410     2.119767     2.112124     2.104481     2.096838
      2.089194     2.081551     2.073908     2.066265     2.058621     2.050978     2.043335     2.035692     2.028049     2.020405
      2.012762     2.005119     1.997476     1.989833     1.982190     1.974546     1.966903     1.959260     1.951617     1.943974
      1.936331     1.928688     1.921045     1.913402     1.905759     1.898115     1.890472     1.882829     1.875186     1.867543
      1.859900     1.852257     1.844614     1.836971     1.829327     1.821684     1.814041     1.806398     1.798755     1.791112
      1.783469     1.775826     1.768183     1.760540     1.752896     1.745253     1.737610     1.729967     1.722324     1.714681
      1.707038     1.699395     1.691752     1.684108     1.676465     1.668822     1.661179     1.653536     1.645893     1.638250
      1.630607     1.622964     1.615321     1.607677     1.600034     1.592391     1.584748     1.577105     1.569462     1.561819
      1.554176     1.546533     1.538890     1.531246     1.523603     1.515960     1.508317     1.500674     1.493031     1.485388
      1.477745     1.470102     1.462458     1.454815     1.447172     1.439529     1.431886     1.424243     1.416600     1.408957
      1.401314     1.393671     1.386027     1.378384     1.370741     1.363098     1.355455     1.347812     1.340169     1.332526
      1.324883     1.317240     1.309596     1.301953     1.294310     1.286667     1.279024     1.271381     1.263738     1.256095
      1.248452     1.240808     1.233165     1.225522     1.217879     1.210236     1.202593     1.194950     1.187307     1.179664
      1.172021     1.164377     1.156734     1.149091     1.141448     1.133805     1.126162     1.118519     1.110876     1.103233
      1.095590     1.087946     1.080303     1.072660     1.065017     1.057374     1.049731     1.042088     1.034445     1.026802
      1.019158     1.011515     1.003872     0.996229     0.988586     0.980943     0.973300     0.965657     0.958014     0.950371
      0.942727     0.935084     0.927441     0.919798     0.912155     0.904512     0.896869     0.889226     0.881583     0.873940
      0.866296     0.858653     0.851010     0.843367     0.835724     0.828081     0.820438     0.812795     0.805152     0.797508
      0.789865     0.782222     0.774579     0.766936     0.759293     0.751650     0.744007     0.736364     0.728721     0.721077
      0.713434     0.705791     0.698148     0.690505     0.682862     0.675219     0.667576     0.659933     0.652290     0.644646
      0.637003     0.629360     0.621717     0.614074     0.606431     0.598788     0.591145     0.583502     0.575858     0.568215
      0.560572     0.552929     0.545286     0.537643     0.530000     0.522357     0.514714     0.507071     0.499427     0.491784
      0.484141     0.476498     0.468855     0.461212     0.453569     0.445925     0.438282     0.430639     0.422996     0.415353
      0.407710     0.400067     0.392424     0.384780     0.377137     0.369494     0.361851     0.354208     0.346565     0.338922
      0.331278     0.323635     0.315992     0.308349     0.300706     0.293063     0.285420     0.277777     0.270133     0.262490
      0.254847     0.247204     0.239561     0.231918     0.224275     0.216631     0.208988     0.201345
 NY phased data points follow
   1.45709E+01  1.79793E+01  2.12053E+01  1.70448E+01  2.49778E+01  2.98274E+01  3.77574E+01  4.11409E+01  5.53240E+01  6.21132E+01
   6.04157E+01  6.34940E+01  5.78915E+01  4.89820E+01  4.07781E+01  3.12115E+01  3.26725E+01  2.48234E+01  2.22487E+01  2.09253E+01
   2.00974E+01  2.10562E+01  2.07514E+01  2.18418E+01  1.79068E+01  1.86114E+01  2.68889E+01  2.47646E+01  2.66712E+01  2.55755E+01
   2.92714E+01  3.02337E+01  2.64173E+01  2.06539E+01  2.57188E+01  1.86831E+01  2.05897E+01  1.97601E+01  2.15387E+01  2.23994E+01
   1.77802E+01  2.24075E+01  1.97278E+01  2.35111E+01  2.08407E+01  2.82061E+01  2.88527E+01  2.35290E+01  2.86285E+01  2.82634E+01
   2.64078E+01  2.65494E+01  2.21244E+01  1.19546E+01  1.81005E+01  2.01371E+01  1.77296E+01  2.54138E+01  1.96403E+01  1.77454E+01
   1.78424E+01  1.69033E+01  9.64036E+00  4.24578E+00  6.75226E+00  4.77333E+00  4.51815E+00  2.75672E+00  4.96098E+00  2.78306E+00
   5.61938E+00  8.34117E+00  1.60873E+00  8.08741E+00  1.26350E+01  8.28267E+00  1.20720E+01  2.33569E+00  4.76531E+00  6.25317E+00
   5.15070E+00  3.45988E+00  1.20192E+01  9.61315E+00  1.34328E+01  5.72544E+00  9.24555E+00  1.11626E+01  7.82503E+00  5.08041E+00
   4.38587E+00  4.32670E+00  4.75264E+00  4.37131E+00  8.86790E+00  7.81430E+00  8.87101E+00  1.50825E+01  2.02976E+01  3.22891E+01
   3.98991E+01  5.56349E+01  6.96301E+01  7.44117E+01  6.44928E+01  5.97906E+01  4.57750E+01  3.41065E+01  2.11961E+01  1.20341E+01
   7.43683E+00  1.41546E+01  9.74623E+00  8.38129E+00  1.01565E+01  7.33693E+00  6.40181E+00  7.34982E+00  8.05119E+00 -2.67220E-01
   1.16413E+01  6.45052E+00  1.96175E+01  1.80111E+01  3.83919E+01  4.73644E+01  6.14783E+01  5.76049E+01  6.07757E+01  5.62855E+01
   3.60847E+01  2.71328E+01  2.48099E+01  1.52769E+01  9.03717E+00  9.25160E+00  4.68206E+00  5.86450E+00  1.13968E+01  4.31072E+00
   1.02535E+01  7.14162E+00  3.35014E+00 -6.12023E-02  5.08097E+00  3.80635E+00  3.28490E+00  7.23292E-01  3.80798E-01 -4.37633E-02
   4.30928E+00  3.96043E-02  6.84201E-01  1.19878E+00  1.10208E+00  7.78312E-01  2.45664E+00 -4.65569E+00  2.66625E+00 -2.56594E+00
   4.00125E+00  2.95848E+00 -1.53035E+00 -8.96766E-02  1.38065E+00  7.18994E-01  1.89354E+00  1.60911E+00 -3.46356E+00 -4.24135E+00
  -4.43539E+00 -4.45239E+00 -7.72974E+00 -5.15800E+00 -2.40689E+00 -1.13480E+01 -1.02500E+01 -9.80221E+00 -1.54448E+01 -9.65774E+00
  -5.04315E+00 -1.35561E+01 -1.67087E+01 -1.48397E+01 -3.98800E+00 -6.88839E+00 -9.92229E+00 -4.30539E+00  2.06110E-01  2.04926E+00
  -1.48373E+00  2.43913E+00  4.24017E+00  6.24428E+00  4.76468E+00  2.41573E+00 -2.05921E-01 -1.57870E+00 -4.50470E+00 -4.06771E+00
  -2.27408E+00 -3.18715E+00  4.84638E+00  2.71901E+00 -6.32474E-01  7.08977E+00  3.09395E+00 -2.64647E+00 -1.18083E+00 -4.51406E+00
  -5.92478E+00 -5.83166E+00  1.01404E+00  1.96874E+00  6.84469E+00  1.41732E+01  1.65683E+01  1.38080E+01  6.13273E+00  5.25249E+00
  -9.35975E+00 -6.24986E+00 -6.31995E+00 -7.04411E+00 -2.94701E-01  2.94488E+00  1.20352E+01  1.15353E+01  8.26783E+00  1.10280E+01
   1.07046E+01  5.84342E+00  8.30020E+00  1.08974E+01  8.91252E+00  2.29872E+00  9.17500E+00  6.05304E+00  7.05238E+00  4.39514E+00
   9.44520E+00  3.43717E+00  3.11015E+00  7.68905E+00  7.17434E+00  1.16605E+01  1.01237E+01  9.11404E+00  1.00294E+01  1.25829E+01
   1.06589E+01  1.73749E+01  1.81664E+01  2.31919E+01  2.25672E+01  2.87108E+01  4.54198E+01  5.80613E+01  7.39191E+01  8.90522E+01
   1.03275E+02  8.91570E+01  7.60900E+01  5.28490E+01  3.42171E+01  2.31697E+01  1.69082E+01  1.07212E+01  1.10114E+01  1.28686E+01
   7.82506E+00 -7.35143E-01  1.21043E+01  2.12439E+00  5.44618E+00  9.03190E+00  6.34924E+00  2.94214E+00  1.94180E+00  1.95179E+00
  -3.37347E-01  2.25991E+00  3.08452E-01  4.20377E+00  1.67494E+00 -5.14164E+00 -2.94540E+00  2.79528E+00  4.11028E+00 -5.90325E-01
   1.34129E+00  2.41320E-01  3.80654E+00 -5.86721E-01 -1.00036E+00  2.94032E-01 -8.70210E-01 -5.10080E+00  1.30749E+00  1.03538E+00
   3.38231E+00 -1.34934E+00  5.16785E+00  3.52091E+00  3.17025E+00  4.95192E+00  4.49925E+00  4.93395E+00  8.15372E+00  6.42534E+00
  -1.71356E+00  4.46844E+00 -1.10498E+00  1.07144E+01  7.42870E+00  6.08327E+00  3.87884E+00  6.91262E+00  6.66168E+00  4.17624E+00
   5.62219E-01  6.53496E+00  4.94987E+00  6.60047E-01  4.41584E+00  5.42185E+00  5.51824E+00  2.09571E+00  6.19040E+00 -1.24790E+00
   7.94513E+00 -4.22438E+00  1.64699E+00  6.86596E+00  8.62642E+00  9.59551E+00  8.81798E+00  5.42041E+00  4.23217E+00  4.19831E+00
   9.81967E+00  6.01217E+00  8.81532E+00  1.26829E+01  1.05000E+01  1.22802E+01  1.62795E+01  1.44006E+01  9.87027E+00  8.12125E+00
   7.78353E+00  1.02667E+01  1.43995E+01  1.15932E+01  1.30805E+01  1.71593E+01  1.90466E+01  1.36395E+01  1.70103E+01  1.61105E+01
   1.21706E+01  6.37529E+00  3.69591E+00  8.31754E+00  7.29211E+00  8.10943E+00  4.06457E+00  8.16428E+00  9.51555E+00  7.10387E+00
   9.86578E+00  1.06877E+01  8.59968E+00  5.14407E+00  6.46995E+00  5.88219E+00  7.76400E+00  1.56182E+00  5.93212E+00  6.45403E+00
   6.88610E+00  3.29723E+00  5.20378E+00  3.60381E+00  7.17393E+00  3.18207E-01  3.65297E+00  4.18062E+00 -2.13515E-01  1.24672E+00
   5.69567E+00  5.92722E+00  7.03514E+00  6.46596E+00  4.25277E+00  3.66816E+00  6.41084E+00  6.72617E+00  6.93714E+00  5.48297E+00
   6.23375E+00  1.09802E+01  7.61247E+00  8.38282E+00  8.73348E+00  1.58775E+01  1.36220E+01  1.13675E+01  2.01975E+01  1.05416E+01
   1.16590E+01  1.39085E+01  1.11563E+01  8.34197E+00  9.84805E+00  8.90382E+00  6.18735E+00  4.94721E+00 -1.62782E+00 -1.01691E+00
   2.57282E+00 -4.78445E-01  3.75044E+00  2.94788E+00  5.02006E+00  3.33738E+00  8.33126E+00 -1.26722E+00 -5.68626E-01  4.05978E+00
   1.55584E+00 -3.05300E+00 -3.18994E-01  1.43307E+00  1.71012E+00 -4.15491E+00 -4.81404E+00 -6.57173E+00 -1.58418E+00 -2.71380E+00
  -1.49076E+00  7.52373E-01  2.08450E+00 -2.28144E+00 -3.23936E+00  1.90102E+00  1.82493E+00 -5.21267E+00  1.20383E+00 -3.51520E-01
  -5.69872E+00 -2.17853E+00 -8.52017E-01 -1.39854E+00 -1.14773E+00 -8.25285E-01 -1.38652E-01 -1.86387E+00 -1.26984E+00  4.39510E+00
  -6.98351E+00 -1.00305E+00 -4.64908E+00  8.75773E-01 -5.42537E+00 -6.20078E+00  2.90997E+00 -3.47685E+00  2.38459E+00 -4.38885E+00
  -2.88315E-01 -2.71424E+00 -1.40907E+00 -5.09756E-01  9.45368E-01 -3.02142E+00 -4.64528E+00 -8.01625E+00 -2.73236E+00 -1.65346E+00
   1.44856E-01  2.11714E-02 -7.31928E-01 -3.00519E+00 -3.33084E+00 -2.43869E+00 -7.04137E+00 -4.17898E+00 -4.60336E+00 -2.97667E+00
   3.53682E-01 -1.88106E+00 -1.14901E-01 -2.46153E+00 -1.41214E+00  6.51786E+00 -2.31621E+00 -3.25004E+00
 NY points of the fit to the data follow
   1.94053E+01  1.90636E+01  1.93305E+01  2.03059E+01  2.26287E+01  2.67579E+01  3.27173E+01  4.00251E+01  4.79354E+01  5.48128E+01
   5.85467E+01  5.76331E+01  5.22488E+01  4.42860E+01  3.62898E+01  3.01623E+01  2.60799E+01  2.30559E+01  2.08291E+01  1.94959E+01
   1.88791E+01  1.84733E+01  1.80430E+01  1.79249E+01  1.82722E+01  1.90453E+01  2.04408E+01  2.25060E+01  2.52507E+01  2.77909E+01
   2.93698E+01  2.98546E+01  2.86931E+01  2.64112E+01  2.38455E+01  2.08922E+01  1.78478E+01  1.56854E+01  1.49415E+01  1.49627E+01
   1.53006E+01  1.61405E+01  1.75389E+01  1.93303E+01  2.15323E+01  2.40297E+01  2.62767E+01  2.75372E+01  2.72259E+01  2.50751E+01
   2.15764E+01  1.79072E+01  1.50680E+01  1.32669E+01  1.23306E+01  1.21023E+01  1.25667E+01  1.34547E+01  1.44894E+01  1.53256E+01
   1.56295E+01  1.52602E+01  1.41709E+01  1.26674E+01  1.12969E+01  1.03887E+01  1.01153E+01  1.03494E+01  1.09294E+01  1.16168E+01
   1.22335E+01  1.26729E+01  1.27995E+01  1.25924E+01  1.21295E+01  1.15004E+01  1.09197E+01  1.04933E+01  1.02029E+01  9.98069E+00
   9.93764E+00  1.00460E+01  1.02017E+01  1.02912E+01  1.02037E+01  9.80237E+00  8.88001E+00  7.57037E+00  6.29427E+00  5.44332E+00
   5.37584E+00  6.05247E+00  7.00157E+00  7.87224E+00  8.61513E+00  9.31025E+00  1.03540E+01  1.36097E+01  2.00401E+01  2.97732E+01
   4.25973E+01  5.68342E+01  6.96166E+01  7.53181E+01  7.14822E+01  6.01372E+01  4.45132E+01  3.05095E+01  2.13937E+01  1.52667E+01
   1.02567E+01  7.14611E+00  6.29877E+00  6.09224E+00  6.04270E+00  6.04558E+00  6.07860E+00  6.15261E+00  6.32718E+00  6.74235E+00
   7.87649E+00  1.12362E+01  1.74969E+01  2.65469E+01  3.80250E+01  5.05035E+01  6.16678E+01  6.70576E+01  6.44629E+01  5.53458E+01
   4.23915E+01  3.03166E+01  2.18337E+01  1.54312E+01  9.66954E+00  5.57237E+00  3.86564E+00  3.65725E+00  4.33235E+00  5.29495E+00
   6.15079E+00  6.63186E+00  6.63683E+00  6.25465E+00  5.65643E+00  5.06208E+00  4.53016E+00  4.08015E+00  3.63881E+00  3.23941E+00
   2.88210E+00  2.55394E+00  2.29228E+00  2.12672E+00  2.03527E+00  1.91199E+00  1.71935E+00  1.38755E+00  9.28848E-01  4.09398E-01
  -3.85136E-02 -1.51305E-01  2.50263E-02  3.74982E-01  5.99186E-01  3.21127E-01 -3.41505E-01 -1.12073E+00 -1.78480E+00 -2.26211E+00
  -2.70313E+00 -3.20372E+00 -3.74866E+00 -4.23353E+00 -4.64864E+00 -4.94538E+00 -4.89742E+00 -4.60134E+00 -4.30748E+00 -4.21499E+00
  -4.43761E+00 -4.79268E+00 -4.94221E+00 -4.83491E+00 -4.50260E+00 -3.95750E+00 -2.93811E+00 -1.27174E+00  7.34794E-01  2.50141E+00
   3.59436E+00  3.66360E+00  2.83905E+00  1.55514E+00  1.92921E-01 -9.88021E-01 -1.68258E+00 -1.60585E+00 -7.22194E-01  7.86879E-01
   2.76804E+00  4.76728E+00  6.35188E+00  7.18114E+00  6.85351E+00  5.27256E+00  2.54507E+00 -7.47004E-01 -3.85239E+00 -6.16781E+00
  -6.54997E+00 -4.84481E+00 -1.36746E+00  3.26188E+00  7.72580E+00  1.06731E+01  1.09610E+01  8.45951E+00  3.85217E+00 -1.63667E+00
  -6.28903E+00 -9.15873E+00 -9.77448E+00 -7.96147E+00 -4.15868E+00  3.48008E-01  4.13315E+00  6.33132E+00  7.14702E+00  7.25186E+00
   6.88845E+00  6.45179E+00  6.36403E+00  6.82690E+00  7.57025E+00  8.19251E+00  8.51659E+00  8.31223E+00  7.76571E+00  7.00398E+00
   6.24203E+00  5.75063E+00  5.76680E+00  6.52134E+00  7.72112E+00  8.99634E+00  1.01432E+01  1.07778E+01  1.08657E+01  1.09020E+01
   1.15275E+01  1.26752E+01  1.44925E+01  1.74812E+01  2.37466E+01  3.31528E+01  4.54222E+01  6.02162E+01  7.61642E+01  9.02261E+01
   9.57216E+01  9.02500E+01  7.58264E+01  5.61542E+01  3.90305E+01  2.78732E+01  1.99016E+01  1.28458E+01  8.35545E+00  6.63015E+00
   5.63768E+00  4.97170E+00  4.60294E+00  4.42726E+00  4.25598E+00  4.01957E+00  3.66400E+00  3.20510E+00  2.72231E+00  2.27146E+00
   1.86329E+00  1.51410E+00  1.24409E+00  1.05023E+00  9.00712E-01  7.59080E-01  6.24360E-01  5.13179E-01  4.38663E-01  3.98875E-01
   4.02843E-01  4.56970E-01  5.55920E-01  6.87512E-01  8.45513E-01  1.02539E+00  1.22740E+00  1.45245E+00  1.70156E+00  1.97427E+00
   2.26773E+00  2.57564E+00  2.88839E+00  3.19243E+00  3.47771E+00  3.73752E+00  3.96548E+00  4.15576E+00  4.30616E+00  4.41546E+00
   4.48324E+00  4.51139E+00  4.50347E+00  4.46430E+00  4.40070E+00  4.32113E+00  4.23506E+00  4.15278E+00  4.08575E+00  4.04863E+00
   4.06551E+00  4.17026E+00  4.33131E+00  4.51910E+00  4.68338E+00  4.76147E+00  4.67779E+00  4.35962E+00  3.88873E+00  3.45057E+00
   3.20601E+00  3.29220E+00  3.70063E+00  4.33357E+00  5.15875E+00  6.07543E+00  6.89622E+00  7.50731E+00  7.88540E+00  8.15441E+00
   8.50827E+00  9.05916E+00  9.71121E+00  1.04088E+01  1.10930E+01  1.15916E+01  1.17152E+01  1.12505E+01  1.03735E+01  9.57357E+00
   9.18279E+00  9.55578E+00  1.06246E+01  1.20848E+01  1.37142E+01  1.51645E+01  1.60685E+01  1.61741E+01  1.55070E+01  1.44686E+01
   1.33920E+01  1.23315E+01  1.12435E+01  1.02581E+01  9.43536E+00  8.72487E+00  8.09684E+00  7.53133E+00  7.01283E+00  6.52976E+00
   6.07443E+00  5.64261E+00  5.23284E+00  4.84561E+00  4.48272E+00  4.14678E+00  3.84090E+00  3.56826E+00  3.33201E+00  3.13510E+00
   2.98039E+00  2.87068E+00  2.80869E+00  2.79697E+00  2.83785E+00  2.93341E+00  3.08545E+00  3.29540E+00  3.56405E+00  3.89135E+00
   4.27613E+00  4.71598E+00  5.20708E+00  5.74398E+00  6.31941E+00  6.92418E+00  7.54727E+00  8.17610E+00  8.79674E+00  9.39435E+00
   9.95353E+00  1.04590E+01  1.08962E+01  1.12521E+01  1.15156E+01  1.16782E+01  1.17344E+01  1.16817E+01  1.15211E+01  1.12568E+01
   1.08961E+01  1.04487E+01  9.92633E+00  9.34229E+00  8.71063E+00  8.04566E+00  7.36130E+00  6.67052E+00  5.98497E+00  5.31474E+00
   4.66825E+00  4.05212E+00  3.47119E+00  2.92859E+00  2.42595E+00  1.96372E+00  1.54132E+00  1.15736E+00  8.09813E-01  4.96231E-01
   2.13946E-01 -3.97439E-02 -2.67509E-01 -4.71955E-01 -6.55591E-01 -8.20752E-01 -9.69531E-01 -1.10376E+00 -1.22509E+00 -1.33499E+00
  -1.43482E+00 -1.52575E+00 -1.60877E+00 -1.68470E+00 -1.75428E+00 -1.81822E+00 -1.87713E+00 -1.93154E+00 -1.98186E+00 -2.02844E+00
  -2.07162E+00 -2.11176E+00 -2.14914E+00 -2.18400E+00 -2.21650E+00 -2.24680E+00 -2.27510E+00 -2.30160E+00 -2.32645E+00 -2.34977E+00
  -2.37160E+00 -2.39206E+00 -2.41127E+00 -2.42934E+00 -2.44636E+00 -2.46234E+00 -2.47733E+00 -2.49141E+00 -2.50469E+00 -2.51721E+00
  -2.52902E+00 -2.54010E+00 -2.55049E+00 -2.56026E+00 -2.56947E+00 -2.57816E+00 -2.58633E+00 -2.59398E+00 -2.60114E+00 -2.60788E+00
  -2.61426E+00 -2.62026E+00 -2.62587E+00 -2.63111E+00 -2.63601E+00 -2.64063E+00 -2.64499E+00 -2.64908E+00 -2.65288E+00 -2.65642E+00
  -2.65975E+00 -2.66291E+00 -2.66589E+00 -2.66868E+00 -2.67127E+00 -2.67370E+00 -2.67603E+00 -2.67827E+00
 NY background values follow
     1.348E+01    1.339E+01    1.329E+01    1.320E+01    1.311E+01    1.301E+01    1.292E+01    1.282E+01    1.273E+01    1.264E+01
     1.254E+01    1.245E+01    1.235E+01    1.226E+01    1.216E+01    1.207E+01    1.198E+01    1.188E+01    1.179E+01    1.169E+01
     1.160E+01    1.151E+01    1.141E+01    1.132E+01    1.122E+01    1.113E+01    1.104E+01    1.094E+01    1.085E+01    1.075E+01
     1.066E+01    1.057E+01    1.047E+01    1.038E+01    1.029E+01    1.019E+01    1.010E+01    1.001E+01    9.912E+00    9.819E+00
     9.726E+00    9.633E+00    9.540E+00    9.447E+00    9.354E+00    9.262E+00    9.169E+00    9.077E+00    8.984E+00    8.892E+00
     8.800E+00    8.708E+00    8.616E+00    8.524E+00    8.432E+00    8.341E+00    8.249E+00    8.158E+00    8.067E+00    7.976E+00
     7.885E+00    7.794E+00    7.704E+00    7.614E+00    7.524E+00    7.434E+00    7.344E+00    7.255E+00    7.165E+00    7.076E+00
     6.987E+00    6.898E+00    6.810E+00    6.722E+00    6.634E+00    6.546E+00    6.458E+00    6.371E+00    6.284E+00    6.197E+00
     6.111E+00    6.025E+00    5.939E+00    5.853E+00    5.768E+00    5.682E+00    5.598E+00    5.513E+00    5.429E+00    5.345E+00
     5.261E+00    5.178E+00    5.095E+00    5.012E+00    4.930E+00    4.848E+00    4.766E+00    4.685E+00    4.604E+00    4.523E+00
     4.443E+00    4.363E+00    4.283E+00    4.204E+00    4.125E+00    4.046E+00    3.968E+00    3.890E+00    3.812E+00    3.735E+00
     3.658E+00    3.581E+00    3.505E+00    3.429E+00    3.354E+00    3.279E+00    3.204E+00    3.130E+00    3.056E+00    2.982E+00
     2.909E+00    2.836E+00    2.763E+00    2.691E+00    2.620E+00    2.548E+00    2.477E+00    2.407E+00    2.337E+00    2.267E+00
     2.197E+00    2.128E+00    2.060E+00    1.992E+00    1.924E+00    1.856E+00    1.789E+00    1.723E+00    1.657E+00    1.591E+00
     1.525E+00    1.460E+00    1.396E+00    1.332E+00    1.268E+00    1.205E+00    1.142E+00    1.079E+00    1.017E+00    9.558E-01
     8.946E-01    8.338E-01    7.735E-01    7.135E-01    6.540E-01    5.950E-01    5.363E-01    4.781E-01    4.203E-01    3.629E-01
     3.060E-01    2.495E-01    1.934E-01    1.378E-01    8.257E-02    2.780E-02   -2.652E-02   -8.041E-02   -1.339E-01   -1.869E-01
    -2.394E-01   -2.916E-01   -3.432E-01   -3.945E-01   -4.453E-01   -4.956E-01   -5.455E-01   -5.950E-01   -6.440E-01   -6.925E-01
    -7.406E-01   -7.883E-01   -8.355E-01   -8.822E-01   -9.285E-01   -9.744E-01   -1.020E+00   -1.065E+00   -1.109E+00   -1.153E+00
    -1.197E+00   -1.240E+00   -1.283E+00   -1.326E+00   -1.368E+00   -1.409E+00   -1.450E+00   -1.491E+00   -1.532E+00   -1.572E+00
    -1.611E+00   -1.650E+00   -1.689E+00   -1.728E+00   -1.766E+00   -1.803E+00   -1.841E+00   -1.877E+00   -1.914E+00   -1.950E+00
    -1.986E+00   -2.021E+00   -2.057E+00   -2.091E+00   -2.126E+00   -2.160E+00   -2.193E+00   -2.227E+00   -2.260E+00   -2.292E+00
    -2.325E+00   -2.357E+00   -2.388E+00   -2.420E+00   -2.451E+00   -2.482E+00   -2.512E+00   -2.542E+00   -2.572E+00   -2.601E+00
    -2.631E+00   -2.659E+00   -2.688E+00   -2.716E+00   -2.744E+00   -2.772E+00   -2.799E+00   -2.826E+00   -2.853E+00   -2.880E+00
    -2.906E+00   -2.932E+00   -2.957E+00   -2.983E+00   -3.008E+00   -3.033E+00   -3.057E+00   -3.081E+00   -3.105E+00   -3.129E+00
    -3.152E+00   -3.175E+00   -3.198E+00   -3.220E+00   -3.243E+00   -3.265E+00   -3.286E+00   -3.308E+00   -3.329E+00   -3.350E+00
    -3.370E+00   -3.391E+00   -3.411E+00   -3.430E+00   -3.450E+00   -3.469E+00   -3.488E+00   -3.507E+00   -3.526E+00   -3.544E+00
    -3.562E+00   -3.580E+00   -3.597E+00   -3.614E+00   -3.631E+00   -3.648E+00   -3.664E+00   -3.681E+00   -3.697E+00   -3.713E+00
    -3.728E+00   -3.743E+00   -3.758E+00   -3.773E+00   -3.788E+00   -3.802E+00   -3.816E+00   -3.830E+00   -3.844E+00   -3.857E+00
    -3.870E+00   -3.883E+00   -3.896E+00   -3.908E+00   -3.921E+00   -3.933E+00   -3.945E+00   -3.956E+00   -3.968E+00   -3.979E+00
    -3.990E+00   -4.000E+00   -4.011E+00   -4.021E+00   -4.031E+00   -4.041E+00   -4.051E+00   -4.061E+00   -4.070E+00   -4.079E+00
    -4.088E+00   -4.096E+00   -4.105E+00   -4.113E+00   -4.121E+00   -4.129E+00   -4.137E+00   -4.144E+00   -4.152E+00   -4.159E+00
    -4.166E+00   -4.172E+00   -4.179E+00   -4.185E+00   -4.191E+00   -4.197E+00   -4.203E+00   -4.209E+00   -4.214E+00   -4.220E+00
    -4.225E+00   -4.230E+00   -4.234E+00   -4.239E+00   -4.243E+00   -4.248E+00   -4.252E+00   -4.256E+00   -4.259E+00   -4.263E+00
    -4.266E+00   -4.270E+00   -4.273E+00   -4.276E+00   -4.279E+00   -4.281E+00   -4.284E+00   -4.286E+00   -4.288E+00   -4.290E+00
    -4.292E+00   -4.294E+00   -4.296E+00   -4.297E+00   -4.299E+00   -4.300E+00   -4.301E+00   -4.302E+00   -4.303E+00   -4.303E+00
    -4.304E+00   -4.304E+00   -4.304E+00   -4.305E+00   -4.305E+00   -4.305E+00   -4.304E+00   -4.304E+00   -4.303E+00   -4.303E+00
    -4.302E+00   -4.301E+00   -4.300E+00   -4.299E+00   -4.298E+00   -4.297E+00   -4.295E+00   -4.294E+00   -4.292E+00   -4.290E+00
    -4.289E+00   -4.287E+00   -4.285E+00   -4.282E+00   -4.280E+00   -4.278E+00   -4.275E+00   -4.272E+00   -4.270E+00   -4.267E+00
    -4.264E+00   -4.261E+00   -4.258E+00   -4.255E+00   -4.251E+00   -4.248E+00   -4.244E+00   -4.241E+00   -4.237E+00   -4.233E+00
    -4.229E+00   -4.225E+00   -4.221E+00   -4.217E+00   -4.213E+00   -4.208E+00   -4.204E+00   -4.199E+00   -4.195E+00   -4.190E+00
    -4.185E+00   -4.180E+00   -4.175E+00   -4.170E+00   -4.165E+00   -4.160E+00   -4.154E+00   -4.149E+00   -4.144E+00   -4.138E+00
    -4.133E+00   -4.127E+00   -4.121E+00   -4.115E+00   -4.110E+00   -4.104E+00   -4.098E+00   -4.092E+00   -4.086E+00   -4.079E+00
    -4.073E+00   -4.067E+00   -4.061E+00   -4.054E+00   -4.048E+00   -4.041E+00   -4.035E+00   -4.028E+00   -4.022E+00   -4.015E+00
    -4.008E+00   -4.001E+00   -3.995E+00   -3.988E+00   -3.981E+00   -3.974E+00   -3.967E+00   -3.960E+00   -3.953E+00   -3.946E+00
    -3.939E+00   -3.931E+00   -3.924E+00   -3.917E+00   -3.910E+00   -3.903E+00   -3.895E+00   -3.888E+00   -3.881E+00   -3.873E+00
    -3.866E+00   -3.858E+00   -3.851E+00   -3.844E+00   -3.836E+00   -3.829E+00   -3.821E+00   -3.814E+00   -3.806E+00   -3.798E+00
    -3.791E+00   -3.783E+00   -3.776E+00   -3.768E+00   -3.760E+00   -3.753E+00   -3.745E+00   -3.737E+00   -3.730E+00   -3.722E+00
    -3.714E+00   -3.707E+00   -3.699E+00   -3.691E+00   -3.683E+00   -3.676E+00   -3.668E+00   -3.660E+00   -3.652E+00   -3.645E+00
    -3.637E+00   -3.629E+00   -3.621E+00   -3.614E+00   -3.606E+00   -3.598E+00   -3.590E+00   -3.583E+00
 Ala      Conc. = 1.05E+02
