 LCModel (Version 6.3-1L) Copyright: S.W. Provencher.          Ref.: Magn. Reson. Med. 30:672-679 (1993).                
 Slice#2 Row#5 Col#4  PD_24_press_1_raw_act
 36 lines in following concentration table = NCONC+1
    Conc.  %SD /Cr+PCr  Metabolite                                         
 1.62E+03  19%   0.926 Ala                                                 
    0.000 999%   0.000 Asp                                                 
    0.000 999%   0.000 Cr                                                  
 1.75E+03   5%   1.000 PCr                                                 
  263.580  79%   0.150 GABA                                                
   45.333 422% 2.6E-02 Glc                                                 
 3.58E+03  22%   2.041 Gln                                                 
 5.14E+03  18%   2.932 Glu                                                 
  601.994   6%   0.343 GPC                                                 
    0.000 999%   0.000 PCh                                                 
  118.163 110% 6.7E-02 GSH                                                 
  916.749  46%   0.523 Ins                                                 
    0.000 999%   0.000 Lac                                                 
 2.22E+03   4%   1.268 NAA                                                 
    0.000 999%   0.000 NAAG                                                
  157.549  28% 9.0E-02 Scyllo                                              
    0.000 999%   0.000 Tau                                                 
    0.000 999%   0.000 -CrCH2                                              
  601.994   6%   0.343 GPC+PCh                                             
 2.22E+03   4%   1.268 NAA+NAAG                                            
 1.75E+03   5%   1.000 Cr+PCr                                              
 8.72E+03  19%   4.973 Glu+Gln                                             
    0.000 999%   0.000 Lip13a                                              
    0.000 999%   0.000 Lip13b                                              
    0.000 999%   0.000 Lip09                                               
 1.51E+03  14%   0.860 MM09                                                
 1.54E-02 999% 8.8E-06 Lip20                                               
 2.35E+03  15%   1.342 MM20                                                
  396.208  22%   0.226 MM12                                                
 2.10E+03   7%   1.199+MM14                                                
 1.18E+03  15%   0.673 MM17                                                
    0.000 999%   0.000 Lip13a+Lip13b                                       
 2.50E+03   8%   1.425 MM14+Lip13a+Lip13b+MM12                             
 1.51E+03  14%   0.860 MM09+Lip09                                          
 2.35E+03  15%   1.342 MM20+Lip20                                          
   6 lines in following misc. output table
  FWHM = 0.122 ppm    S/N =   8                                            
  Data shift = 0.015 ppm                                                   
  Ph: -25 deg     -10.5 deg/ppm                                            
  alphaB,S = 2.8E-01,   1.4E+02                                            
   14 spline knots.   Ns = 7(2)                                            
  ( 5) 2 infls.   ( 5) 1 extrs.                                            
  498 points on ppm-axis = NY
      4.000000     3.992357     3.984714     3.977070     3.969427     3.961784     3.954141     3.946497     3.938854     3.931211
      3.923568     3.915925     3.908281     3.900638     3.892995     3.885352     3.877708     3.870065     3.862422     3.854779
      3.847136     3.839492     3.831849     3.824206     3.816563     3.808919     3.801276     3.793633     3.785990     3.778347
      3.770703     3.763060     3.755417     3.747774     3.740130     3.732487     3.724844     3.717201     3.709558     3.701914
      3.694271     3.686628     3.678985     3.671341     3.663698     3.656055     3.648412     3.640769     3.633125     3.625482
      3.617839     3.610196     3.602552     3.594909     3.587266     3.579623     3.571980     3.564336     3.556693     3.549050
      3.541407     3.533763     3.526120     3.518477     3.510834     3.503191     3.495547     3.487904     3.480261     3.472618
      3.464974     3.457331     3.449688     3.442045     3.434402     3.426758     3.419115     3.411472     3.403829     3.396185
      3.388542     3.380899     3.373256     3.365613     3.357969     3.350326     3.342683     3.335040     3.327396     3.319753
      3.312110     3.304467     3.296824     3.289180     3.281537     3.273894     3.266251     3.258607     3.250964     3.243321
      3.235678     3.228034     3.220391     3.212748     3.205105     3.197462     3.189818     3.182175     3.174532     3.166889
      3.159245     3.151602     3.143959     3.136316     3.128673     3.121029     3.113386     3.105743     3.098100     3.090456
      3.082813     3.075170     3.067527     3.059884     3.052240     3.044597     3.036954     3.029311     3.021667     3.014024
      3.006381     2.998738     2.991095     2.983451     2.975808     2.968165     2.960522     2.952878     2.945235     2.937592
      2.929949     2.922306     2.914662     2.907019     2.899376     2.891733     2.884089     2.876446     2.868803     2.861160
      2.853517     2.845873     2.838230     2.830587     2.822944     2.815300     2.807657     2.800014     2.792371     2.784728
      2.777084     2.769441     2.761798     2.754155     2.746511     2.738868     2.731225     2.723582     2.715939     2.708295
      2.700652     2.693009     2.685366     2.677722     2.670079     2.662436     2.654793     2.647150     2.639506     2.631863
      2.624220     2.616577     2.608933     2.601290     2.593647     2.586004     2.578361     2.570717     2.563074     2.555431
      2.547788     2.540144     2.532501     2.524858     2.517215     2.509572     2.501928     2.494285     2.486642     2.478999
      2.471355     2.463712     2.456069     2.448426     2.440783     2.433139     2.425496     2.417853     2.410210     2.402566
      2.394923     2.387280     2.379637     2.371994     2.364350     2.356707     2.349064     2.341421     2.333777     2.326134
      2.318491     2.310848     2.303205     2.295561     2.287918     2.280275     2.272632     2.264988     2.257345     2.249702
      2.242059     2.234416     2.226772     2.219129     2.211486     2.203843     2.196199     2.188556     2.180913     2.173270
      2.165627     2.157983     2.150340     2.142697     2.135054     2.127410     2.119767     2.112124     2.104481     2.096838
      2.089194     2.081551     2.073908     2.066265     2.058621     2.050978     2.043335     2.035692     2.028049     2.020405
      2.012762     2.005119     1.997476     1.989833     1.982190     1.974546     1.966903     1.959260     1.951617     1.943974
      1.936331     1.928688     1.921045     1.913402     1.905759     1.898115     1.890472     1.882829     1.875186     1.867543
      1.859900     1.852257     1.844614     1.836971     1.829327     1.821684     1.814041     1.806398     1.798755     1.791112
      1.783469     1.775826     1.768183     1.760540     1.752896     1.745253     1.737610     1.729967     1.722324     1.714681
      1.707038     1.699395     1.691752     1.684108     1.676465     1.668822     1.661179     1.653536     1.645893     1.638250
      1.630607     1.622964     1.615321     1.607677     1.600034     1.592391     1.584748     1.577105     1.569462     1.561819
      1.554176     1.546533     1.538890     1.531246     1.523603     1.515960     1.508317     1.500674     1.493031     1.485388
      1.477745     1.470102     1.462458     1.454815     1.447172     1.439529     1.431886     1.424243     1.416600     1.408957
      1.401314     1.393671     1.386027     1.378384     1.370741     1.363098     1.355455     1.347812     1.340169     1.332526
      1.324883     1.317240     1.309596     1.301953     1.294310     1.286667     1.279024     1.271381     1.263738     1.256095
      1.248452     1.240808     1.233165     1.225522     1.217879     1.210236     1.202593     1.194950     1.187307     1.179664
      1.172021     1.164377     1.156734     1.149091     1.141448     1.133805     1.126162     1.118519     1.110876     1.103233
      1.095590     1.087946     1.080303     1.072660     1.065017     1.057374     1.049731     1.042088     1.034445     1.026802
      1.019158     1.011515     1.003872     0.996229     0.988586     0.980943     0.973300     0.965657     0.958014     0.950371
      0.942727     0.935084     0.927441     0.919798     0.912155     0.904512     0.896869     0.889226     0.881583     0.873940
      0.866296     0.858653     0.851010     0.843367     0.835724     0.828081     0.820438     0.812795     0.805152     0.797508
      0.789865     0.782222     0.774579     0.766936     0.759293     0.751650     0.744007     0.736364     0.728721     0.721077
      0.713434     0.705791     0.698148     0.690505     0.682862     0.675219     0.667576     0.659933     0.652290     0.644646
      0.637003     0.629360     0.621717     0.614074     0.606431     0.598788     0.591145     0.583502     0.575858     0.568215
      0.560572     0.552929     0.545286     0.537643     0.530000     0.522357     0.514714     0.507071     0.499427     0.491784
      0.484141     0.476498     0.468855     0.461212     0.453569     0.445925     0.438282     0.430639     0.422996     0.415353
      0.407710     0.400067     0.392424     0.384780     0.377137     0.369494     0.361851     0.354208     0.346565     0.338922
      0.331278     0.323635     0.315992     0.308349     0.300706     0.293063     0.285420     0.277777     0.270133     0.262490
      0.254847     0.247204     0.239561     0.231918     0.224275     0.216631     0.208988     0.201345
 NY phased data points follow
   4.98109E+01  5.39357E+01  5.23323E+01  5.92008E+01  6.12603E+01  6.50130E+01  6.26110E+01  6.48715E+01  6.32799E+01  6.36031E+01
   6.19347E+01  6.24968E+01  5.61066E+01  5.97369E+01  5.28358E+01  5.66498E+01  5.07221E+01  4.80602E+01  4.76290E+01  4.62906E+01
   4.37369E+01  4.48576E+01  4.51696E+01  4.15470E+01  3.91452E+01  4.34053E+01  4.08105E+01  4.35196E+01  4.31660E+01  4.16687E+01
   3.90567E+01  4.29477E+01  3.98421E+01  3.86416E+01  3.92871E+01  4.11002E+01  3.36944E+01  3.90714E+01  3.79886E+01  4.03763E+01
   3.83085E+01  3.64272E+01  4.08526E+01  4.07047E+01  3.92376E+01  3.83640E+01  3.73837E+01  3.88622E+01  3.47433E+01  3.65677E+01
   3.74409E+01  3.45530E+01  3.39725E+01  3.35130E+01  2.88086E+01  2.87183E+01  2.90158E+01  3.50746E+01  2.41625E+01  2.49106E+01
   2.63371E+01  2.56191E+01  2.39902E+01  2.33000E+01  2.06757E+01  2.41302E+01  2.16585E+01  2.43932E+01  2.63134E+01  2.43692E+01
   1.89401E+01  2.53257E+01  2.16551E+01  2.42780E+01  2.23650E+01  2.01783E+01  2.25962E+01  2.28097E+01  1.99271E+01  2.24976E+01
   2.09315E+01  2.24802E+01  2.10276E+01  2.17425E+01  1.98640E+01  2.31579E+01  2.61578E+01  2.14379E+01  2.42682E+01  2.85259E+01
   2.14079E+01  2.94884E+01  2.45906E+01  2.42298E+01  2.16349E+01  2.54973E+01  2.89595E+01  3.62765E+01  3.81804E+01  4.20614E+01
   4.35312E+01  4.37468E+01  4.27498E+01  4.54117E+01  4.35627E+01  4.74344E+01  3.98804E+01  3.81236E+01  3.56086E+01  3.53051E+01
   3.03152E+01  3.26835E+01  2.66762E+01  2.63846E+01  2.65024E+01  3.16500E+01  2.86096E+01  2.49969E+01  2.58112E+01  3.15586E+01
   3.49227E+01  3.69606E+01  3.94308E+01  4.42864E+01  4.39466E+01  4.75928E+01  4.36880E+01  4.71124E+01  3.99799E+01  4.01968E+01
   3.93180E+01  3.47931E+01  3.42860E+01  3.48929E+01  2.96471E+01  2.98019E+01  2.40706E+01  2.00654E+01  2.48505E+01  2.29976E+01
   1.67159E+01  1.72390E+01  1.74617E+01  1.82076E+01  1.88273E+01  2.25060E+01  1.57549E+01  1.64544E+01  1.61555E+01  1.69324E+01
   1.32507E+01  1.46778E+01  1.95468E+01  1.47709E+01  9.73798E+00  1.53601E+01  1.42947E+01  1.54047E+01  1.19725E+01  1.04625E+01
   1.28878E+01  1.01527E+01  7.75367E+00  1.48115E+01  8.40457E+00  1.47017E+01  1.20264E+01  1.19196E+01  8.90782E+00  1.12188E+01
   7.22506E+00  8.16277E+00  8.95031E+00  3.37815E+00  8.78040E+00  6.30404E+00  8.25216E+00  9.43156E+00  5.94237E+00  4.20882E+00
   6.14782E+00  5.71967E+00  6.86715E+00  6.58060E+00  3.03040E+00  5.61071E+00  8.22604E+00  1.12811E+01  1.43047E+01  9.72443E+00
   1.13181E+01  8.99070E+00  1.29306E+01  1.28796E+01  1.43903E+01  1.44031E+01  1.01608E+01  1.11150E+01  1.54357E+01  1.78067E+01
   1.25415E+01  1.42936E+01  1.29354E+01  1.34579E+01  8.27278E+00  1.32181E+01  1.48400E+01  1.45885E+01  1.28257E+01  1.53046E+01
   1.52986E+01  1.86682E+01  1.69816E+01  1.78095E+01  1.50301E+01  1.77540E+01  1.43801E+01  1.24045E+01  1.56126E+01  1.71556E+01
   1.38634E+01  1.64254E+01  1.57154E+01  2.01897E+01  1.61775E+01  1.94658E+01  2.01301E+01  1.38726E+01  1.96578E+01  1.77794E+01
   2.11111E+01  1.79880E+01  2.27336E+01  2.06426E+01  2.32251E+01  2.28518E+01  2.67715E+01  2.49373E+01  2.35429E+01  2.52758E+01
   1.95360E+01  2.46253E+01  2.49291E+01  2.78676E+01  2.64736E+01  2.94920E+01  2.66418E+01  3.35143E+01  3.16373E+01  3.29090E+01
   3.41544E+01  3.53385E+01  4.05517E+01  4.84168E+01  5.40094E+01  5.52787E+01  6.62405E+01  6.97224E+01  7.13457E+01  6.82830E+01
   6.68359E+01  7.03690E+01  6.64494E+01  6.88878E+01  6.15456E+01  6.12633E+01  5.61024E+01  5.12638E+01  4.74263E+01  4.58683E+01
   4.34463E+01  4.21802E+01  3.86333E+01  3.81496E+01  3.65237E+01  3.43919E+01  3.30334E+01  3.87257E+01  3.40229E+01  3.12243E+01
   3.42451E+01  3.01170E+01  3.21175E+01  3.20088E+01  3.01509E+01  3.40243E+01  3.25935E+01  3.74166E+01  3.09582E+01  3.41798E+01
   3.23584E+01  3.21247E+01  3.55083E+01  3.55014E+01  3.21305E+01  2.94866E+01  3.26111E+01  2.98750E+01  3.44106E+01  3.28421E+01
   3.58971E+01  3.34893E+01  3.63421E+01  3.50420E+01  3.30573E+01  3.45635E+01  3.92669E+01  3.51275E+01  3.70638E+01  3.45784E+01
   3.13863E+01  3.47352E+01  3.36701E+01  3.23763E+01  3.11670E+01  3.40897E+01  3.21978E+01  3.28808E+01  3.70683E+01  3.47354E+01
   3.60707E+01  4.04036E+01  3.63441E+01  3.54496E+01  3.24104E+01  3.57734E+01  3.54829E+01  3.46992E+01  3.37250E+01  3.29142E+01
   3.08664E+01  3.20519E+01  3.27996E+01  3.41142E+01  3.18587E+01  3.23309E+01  3.23951E+01  2.64342E+01  2.86900E+01  3.26886E+01
   3.06284E+01  3.13301E+01  2.85425E+01  2.45177E+01  2.44235E+01  2.22453E+01  1.60925E+01  1.63198E+01  1.78072E+01  2.03933E+01
   1.63597E+01  1.58750E+01  1.54490E+01  9.55584E+00  7.60918E+00  1.13420E+01  1.30403E+01  1.35075E+01  4.61182E+00  8.32037E+00
   3.96798E+00  6.19163E+00  5.01841E+00  5.23252E+00  2.46858E+00  6.14322E+00  5.50970E+00  5.52894E+00  7.09160E+00  6.20034E+00
   4.72170E+00  5.03749E+00  6.15195E+00  4.15604E+00  6.79458E+00  2.90204E+00  2.19052E+00  4.70982E+00  4.51893E+00  4.62248E+00
  -7.85925E-01  5.82971E+00  4.13626E-02  3.84760E+00 -7.66489E-01  1.84592E+00  1.15274E+00 -7.70020E-01 -4.53663E+00  2.14157E+00
   1.20148E+00 -1.69974E+00 -1.57142E+00  3.12159E+00  2.34346E+00  3.77140E+00  1.05436E+00  5.06726E+00  1.00237E+00  4.21126E+00
   3.29837E+00  6.10919E+00  6.57500E+00  4.99880E+00  4.59240E+00  6.92329E+00  4.62281E+00  2.77543E+00  2.79182E+00  6.75191E+00
   6.92991E+00  3.35757E+00  7.49744E+00  5.28448E+00  4.71135E+00  6.44392E+00  6.45355E+00  1.59472E+00  5.56907E+00  5.43142E+00
   3.15499E+00 -2.99931E-01  4.20847E+00  1.76033E+00  2.19675E+00  2.10097E+00  2.78671E+00  5.25616E+00  2.74785E+00 -3.47808E+00
  -2.69197E+00  2.60733E+00 -1.63744E+00  9.22266E-01 -1.44476E+00 -4.18298E-01 -4.03507E-01  3.88386E+00  1.60176E+00  3.24000E+00
  -3.81127E-01  2.30187E+00  3.99892E-01 -3.07853E-01 -1.47694E+00 -1.51500E+00  6.21415E+00 -1.30894E-01  2.96727E+00  5.41110E+00
   6.84629E-01  2.35266E+00  3.73160E+00  4.08779E+00  2.93540E+00  3.06860E+00  1.19925E+00  4.99094E-01  2.33857E+00  7.29450E-02
  -2.59244E+00 -8.51338E-01  2.04469E+00 -1.74733E+00  4.87306E+00  2.28167E-01  7.80749E-02  1.53270E+00 -1.61171E+00 -2.57526E+00
   1.43859E+00  2.71870E+00 -1.41901E-01  3.35274E+00  1.65524E-02  1.41226E+00  5.32852E-01 -6.71562E-01  1.04365E+00 -5.43415E-01
  -2.33183E-02  1.82479E+00 -3.99560E+00  4.33440E+00 -8.31747E-01  5.01252E+00 -3.97311E-01  2.08149E+00 -6.11712E-01  1.33347E+00
   1.63103E+00  2.27890E+00  6.00556E+00  1.97619E+00  4.08235E+00 -3.06056E+00  2.15379E+00  2.25246E+00
 NY points of the fit to the data follow
   5.05797E+01  5.33217E+01  5.43277E+01  5.81505E+01  5.79423E+01  6.19710E+01  5.99311E+01  6.33824E+01  6.02145E+01  6.30730E+01
   5.94773E+01  6.17208E+01  5.75839E+01  5.92043E+01  5.46899E+01  5.55153E+01  5.13902E+01  5.19842E+01  4.83841E+01  4.89244E+01
   4.57547E+01  4.62611E+01  4.26875E+01  4.31809E+01  4.03806E+01  4.15952E+01  4.00781E+01  4.20626E+01  4.08669E+01  4.25232E+01
   4.10455E+01  4.17225E+01  4.02917E+01  4.04906E+01  3.95891E+01  3.96887E+01  3.92990E+01  3.93140E+01  3.90795E+01  3.89434E+01
   3.87820E+01  3.84168E+01  3.83644E+01  3.79495E+01  3.77504E+01  3.72015E+01  3.68345E+01  3.61767E+01  3.55754E+01  3.48702E+01
   3.42307E+01  3.35276E+01  3.28583E+01  3.22088E+01  3.14447E+01  3.07461E+01  2.99443E+01  2.91997E+01  2.84717E+01  2.78304E+01
   2.71756E+01  2.66184E+01  2.60568E+01  2.56265E+01  2.51893E+01  2.48491E+01  2.45011E+01  2.41454E+01  2.38429E+01  2.34498E+01
   2.31636E+01  2.28131E+01  2.27595E+01  2.25877E+01  2.24532E+01  2.23330E+01  2.21390E+01  2.21442E+01  2.20822E+01  2.23687E+01
   2.22765E+01  2.27844E+01  2.23531E+01  2.28741E+01  2.19922E+01  2.23746E+01  2.12774E+01  2.15864E+01  2.09257E+01  2.28814E+01
   2.24680E+01  2.45578E+01  2.41002E+01  2.64964E+01  2.64621E+01  3.08060E+01  3.13197E+01  3.72793E+01  3.76058E+01  4.30654E+01
   4.22490E+01  4.55054E+01  4.36424E+01  4.51023E+01  4.26599E+01  4.29097E+01  4.00937E+01  3.91857E+01  3.62179E+01  3.43175E+01
   3.14420E+01  2.91688E+01  2.81488E+01  2.66925E+01  2.63175E+01  2.60197E+01  2.62697E+01  2.67632E+01  2.88581E+01  3.12044E+01
   3.44983E+01  3.83127E+01  4.05094E+01  4.40640E+01  4.37440E+01  4.62652E+01  4.41420E+01  4.56637E+01  4.25559E+01  4.31947E+01
   3.93643E+01  3.91784E+01  3.49577E+01  3.41088E+01  2.99271E+01  2.86472E+01  2.51156E+01  2.38016E+01  2.15604E+01  2.04947E+01
   1.87320E+01  1.77688E+01  1.67856E+01  1.61558E+01  1.58774E+01  1.55482E+01  1.53310E+01  1.49853E+01  1.47933E+01  1.44658E+01
   1.43255E+01  1.40632E+01  1.38935E+01  1.35583E+01  1.33744E+01  1.29727E+01  1.28336E+01  1.24958E+01  1.23786E+01  1.21507E+01
   1.19612E+01  1.17533E+01  1.14088E+01  1.11962E+01  1.08488E+01  1.06530E+01  1.02926E+01  1.00387E+01  9.65984E+00  9.41371E+00
   9.10398E+00  8.85920E+00  8.67117E+00  8.30975E+00  8.37332E+00  8.00894E+00  8.29174E+00  7.96859E+00  8.36035E+00  7.95779E+00
   8.47484E+00  8.02805E+00  8.63244E+00  8.32650E+00  8.91434E+00  8.68360E+00  9.30870E+00  9.21897E+00  9.74334E+00  9.77320E+00
   1.03526E+01  1.07136E+01  1.13729E+01  1.21648E+01  1.27379E+01  1.34183E+01  1.41148E+01  1.49215E+01  1.55045E+01  1.57814E+01
   1.57339E+01  1.52623E+01  1.47151E+01  1.42806E+01  1.30042E+01  1.31520E+01  1.20125E+01  1.33460E+01  1.26322E+01  1.49148E+01
   1.42677E+01  1.77156E+01  1.61694E+01  1.97203E+01  1.66140E+01  1.91692E+01  1.53633E+01  1.73971E+01  1.40044E+01  1.63692E+01
   1.39117E+01  1.61286E+01  1.47357E+01  1.68026E+01  1.61188E+01  1.76263E+01  1.76469E+01  1.84526E+01  1.89419E+01  1.95225E+01
   2.04185E+01  2.12155E+01  2.27645E+01  2.37185E+01  2.48990E+01  2.54331E+01  2.55371E+01  2.56722E+01  2.48096E+01  2.48916E+01
   2.39186E+01  2.43287E+01  2.36665E+01  2.45058E+01  2.39472E+01  2.53316E+01  2.70509E+01  2.91717E+01  3.13428E+01  3.38207E+01
   3.64993E+01  3.94792E+01  4.42312E+01  4.79917E+01  5.41222E+01  5.81498E+01  6.31798E+01  6.63557E+01  6.81904E+01  6.98731E+01
   6.89679E+01  6.94867E+01  6.68593E+01  6.64523E+01  6.25008E+01  6.13728E+01  5.66493E+01  5.50279E+01  5.00353E+01  4.82476E+01
   4.37728E+01  4.22281E+01  3.92947E+01  3.81089E+01  3.56888E+01  3.46385E+01  3.31895E+01  3.25023E+01  3.20070E+01  3.16424E+01
   3.13771E+01  3.10958E+01  3.09338E+01  3.07278E+01  3.06159E+01  3.05018E+01  3.04935E+01  3.05039E+01  3.05902E+01  3.07284E+01
   3.09189E+01  3.11795E+01  3.14787E+01  3.18297E+01  3.21902E+01  3.25806E+01  3.29416E+01  3.32987E+01  3.35975E+01  3.38508E+01
   3.40253E+01  3.41278E+01  3.41414E+01  3.40717E+01  3.39194E+01  3.36937E+01  3.34112E+01  3.30889E+01  3.27584E+01  3.24461E+01
   3.22020E+01  3.20885E+01  3.22618E+01  3.27706E+01  3.27282E+01  3.33360E+01  3.32562E+01  3.41655E+01  3.41874E+01  3.55523E+01
   3.49080E+01  3.68847E+01  3.54799E+01  3.69689E+01  3.46024E+01  3.52533E+01  3.24615E+01  3.32280E+01  3.09032E+01  3.22083E+01
   3.07541E+01  3.20518E+01  3.12586E+01  3.18503E+01  3.12437E+01  3.10937E+01  3.06220E+01  3.00450E+01  2.97494E+01  2.89010E+01
   2.83898E+01  2.70609E+01  2.64195E+01  2.48488E+01  2.39576E+01  2.22923E+01  2.10825E+01  1.95923E+01  1.84670E+01  1.70595E+01
   1.59445E+01  1.47732E+01  1.38025E+01  1.29865E+01  1.22761E+01  1.16461E+01  1.10798E+01  1.05648E+01  1.00911E+01  9.65071E+00
   9.23681E+00  8.84388E+00  8.46738E+00  8.10356E+00  7.74931E+00  7.40226E+00  7.06068E+00  6.72342E+00  6.38982E+00  6.05971E+00
   5.73330E+00  5.41112E+00  5.09404E+00  4.78312E+00  4.47967E+00  4.18509E+00  3.90094E+00  3.62882E+00  3.37044E+00  3.12752E+00
   2.90183E+00  2.69514E+00  2.50926E+00  2.34600E+00  2.20723E+00  2.09478E+00  2.01048E+00  1.95610E+00  1.93334E+00  1.94375E+00
   1.98867E+00  2.06911E+00  2.18565E+00  2.33833E+00  2.52655E+00  2.74892E+00  3.00316E+00  3.28603E+00  3.59325E+00  3.91953E+00
   4.25860E+00  4.60332E+00  4.94584E+00  5.27779E+00  5.59064E+00  5.87589E+00  6.12552E+00  6.33225E+00  6.48979E+00  6.59307E+00
   6.63860E+00  6.62458E+00  6.55104E+00  6.41971E+00  6.23398E+00  5.99869E+00  5.71986E+00  5.40444E+00  5.05993E+00  4.69414E+00
   4.31477E+00  3.92924E+00  3.54438E+00  3.16634E+00  2.80036E+00  2.45081E+00  2.12106E+00  1.81364E+00  1.53016E+00  1.27158E+00
   1.03807E+00  8.29372E-01  6.44705E-01  4.83042E-01  3.43045E-01  2.23316E-01  1.22283E-01  3.84358E-02 -2.97964E-02 -8.38564E-02
  -1.25178E-01 -1.55061E-01 -1.74756E-01 -1.85391E-01 -1.88021E-01 -1.83598E-01 -1.72993E-01 -1.57013E-01 -1.36391E-01 -1.11802E-01
  -8.38605E-02 -5.31355E-02 -2.01470E-02  1.46689E-02  5.10559E-02  8.88138E-02  1.27756E-01  1.67749E-01  2.08632E-01  2.50312E-01
   2.92651E-01  3.35592E-01  3.79028E-01  4.22926E-01  4.67190E-01  5.11802E-01  5.56685E-01  6.01837E-01  6.47204E-01  6.92792E-01
   7.38549E-01  7.84482E-01  8.30560E-01  8.76799E-01  9.23174E-01  9.69703E-01  1.01636E+00  1.06318E+00  1.11013E+00  1.15725E+00
   1.20453E+00  1.25200E+00  1.29964E+00  1.34748E+00  1.39553E+00  1.44381E+00  1.49232E+00  1.54109E+00  1.59011E+00  1.63942E+00
   1.68902E+00  1.73894E+00  1.78918E+00  1.83975E+00  1.89066E+00  1.94193E+00  1.99358E+00  2.04560E+00
 NY background values follow
     4.135E+01    4.102E+01    4.070E+01    4.038E+01    4.005E+01    3.973E+01    3.940E+01    3.908E+01    3.875E+01    3.843E+01
     3.811E+01    3.778E+01    3.746E+01    3.714E+01    3.682E+01    3.650E+01    3.618E+01    3.586E+01    3.554E+01    3.522E+01
     3.491E+01    3.459E+01    3.428E+01    3.396E+01    3.365E+01    3.334E+01    3.303E+01    3.272E+01    3.242E+01    3.211E+01
     3.181E+01    3.151E+01    3.120E+01    3.091E+01    3.061E+01    3.031E+01    3.002E+01    2.973E+01    2.944E+01    2.915E+01
     2.886E+01    2.858E+01    2.830E+01    2.802E+01    2.774E+01    2.747E+01    2.719E+01    2.692E+01    2.666E+01    2.639E+01
     2.613E+01    2.587E+01    2.561E+01    2.536E+01    2.510E+01    2.485E+01    2.461E+01    2.436E+01    2.412E+01    2.388E+01
     2.364E+01    2.341E+01    2.318E+01    2.295E+01    2.272E+01    2.250E+01    2.228E+01    2.206E+01    2.184E+01    2.163E+01
     2.142E+01    2.122E+01    2.101E+01    2.081E+01    2.061E+01    2.042E+01    2.022E+01    2.003E+01    1.985E+01    1.966E+01
     1.948E+01    1.930E+01    1.913E+01    1.896E+01    1.879E+01    1.862E+01    1.846E+01    1.830E+01    1.814E+01    1.799E+01
     1.783E+01    1.769E+01    1.754E+01    1.740E+01    1.726E+01    1.713E+01    1.699E+01    1.686E+01    1.674E+01    1.661E+01
     1.649E+01    1.637E+01    1.625E+01    1.614E+01    1.603E+01    1.592E+01    1.581E+01    1.570E+01    1.560E+01    1.550E+01
     1.540E+01    1.531E+01    1.521E+01    1.512E+01    1.503E+01    1.494E+01    1.486E+01    1.477E+01    1.469E+01    1.461E+01
     1.453E+01    1.445E+01    1.437E+01    1.430E+01    1.422E+01    1.415E+01    1.408E+01    1.401E+01    1.394E+01    1.387E+01
     1.381E+01    1.374E+01    1.368E+01    1.361E+01    1.355E+01    1.349E+01    1.343E+01    1.337E+01    1.331E+01    1.325E+01
     1.319E+01    1.313E+01    1.308E+01    1.302E+01    1.297E+01    1.292E+01    1.287E+01    1.282E+01    1.277E+01    1.273E+01
     1.268E+01    1.264E+01    1.260E+01    1.256E+01    1.252E+01    1.249E+01    1.246E+01    1.242E+01    1.240E+01    1.237E+01
     1.235E+01    1.233E+01    1.231E+01    1.229E+01    1.228E+01    1.227E+01    1.226E+01    1.225E+01    1.225E+01    1.225E+01
     1.225E+01    1.226E+01    1.227E+01    1.228E+01    1.230E+01    1.232E+01    1.234E+01    1.237E+01    1.240E+01    1.243E+01
     1.247E+01    1.251E+01    1.256E+01    1.261E+01    1.266E+01    1.272E+01    1.278E+01    1.284E+01    1.291E+01    1.298E+01
     1.306E+01    1.313E+01    1.321E+01    1.330E+01    1.339E+01    1.348E+01    1.357E+01    1.367E+01    1.377E+01    1.387E+01
     1.398E+01    1.409E+01    1.420E+01    1.431E+01    1.443E+01    1.455E+01    1.467E+01    1.480E+01    1.492E+01    1.505E+01
     1.519E+01    1.532E+01    1.546E+01    1.560E+01    1.574E+01    1.588E+01    1.603E+01    1.618E+01    1.633E+01    1.648E+01
     1.663E+01    1.679E+01    1.695E+01    1.711E+01    1.727E+01    1.743E+01    1.760E+01    1.776E+01    1.793E+01    1.810E+01
     1.827E+01    1.844E+01    1.861E+01    1.878E+01    1.896E+01    1.913E+01    1.930E+01    1.947E+01    1.965E+01    1.982E+01
     1.999E+01    2.016E+01    2.033E+01    2.049E+01    2.066E+01    2.082E+01    2.099E+01    2.115E+01    2.130E+01    2.146E+01
     2.161E+01    2.177E+01    2.191E+01    2.206E+01    2.220E+01    2.234E+01    2.247E+01    2.260E+01    2.273E+01    2.285E+01
     2.297E+01    2.309E+01    2.320E+01    2.330E+01    2.340E+01    2.349E+01    2.358E+01    2.367E+01    2.374E+01    2.382E+01
     2.388E+01    2.394E+01    2.399E+01    2.404E+01    2.408E+01    2.412E+01    2.414E+01    2.416E+01    2.418E+01    2.418E+01
     2.418E+01    2.418E+01    2.417E+01    2.415E+01    2.412E+01    2.409E+01    2.405E+01    2.400E+01    2.395E+01    2.389E+01
     2.382E+01    2.374E+01    2.366E+01    2.357E+01    2.348E+01    2.337E+01    2.326E+01    2.315E+01    2.302E+01    2.289E+01
     2.275E+01    2.261E+01    2.245E+01    2.229E+01    2.212E+01    2.195E+01    2.177E+01    2.158E+01    2.138E+01    2.117E+01
     2.096E+01    2.074E+01    2.051E+01    2.028E+01    2.003E+01    1.978E+01    1.953E+01    1.926E+01    1.899E+01    1.871E+01
     1.842E+01    1.812E+01    1.782E+01    1.752E+01    1.720E+01    1.688E+01    1.656E+01    1.623E+01    1.590E+01    1.556E+01
     1.522E+01    1.488E+01    1.453E+01    1.418E+01    1.382E+01    1.346E+01    1.310E+01    1.274E+01    1.238E+01    1.201E+01
     1.165E+01    1.128E+01    1.091E+01    1.054E+01    1.017E+01    9.806E+00    9.438E+00    9.072E+00    8.706E+00    8.342E+00
     7.979E+00    7.618E+00    7.260E+00    6.904E+00    6.551E+00    6.201E+00    5.855E+00    5.512E+00    5.173E+00    4.838E+00
     4.508E+00    4.183E+00    3.863E+00    3.548E+00    3.238E+00    2.934E+00    2.635E+00    2.342E+00    2.054E+00    1.772E+00
     1.495E+00    1.224E+00    9.580E-01    6.980E-01    4.438E-01    1.953E-01   -4.746E-02   -2.844E-01   -5.154E-01   -7.405E-01
    -9.597E-01   -1.173E+00   -1.380E+00   -1.581E+00   -1.776E+00   -1.965E+00   -2.148E+00   -2.324E+00   -2.494E+00   -2.658E+00
    -2.816E+00   -2.967E+00   -3.112E+00   -3.250E+00   -3.382E+00   -3.507E+00   -3.626E+00   -3.738E+00   -3.843E+00   -3.942E+00
    -4.034E+00   -4.119E+00   -4.198E+00   -4.269E+00   -4.334E+00   -4.392E+00   -4.442E+00   -4.486E+00   -4.523E+00   -4.553E+00
    -4.576E+00   -4.593E+00   -4.604E+00   -4.608E+00   -4.607E+00   -4.600E+00   -4.588E+00   -4.570E+00   -4.547E+00   -4.520E+00
    -4.487E+00   -4.450E+00   -4.409E+00   -4.363E+00   -4.313E+00   -4.260E+00   -4.202E+00   -4.142E+00   -4.078E+00   -4.011E+00
    -3.941E+00   -3.868E+00   -3.793E+00   -3.715E+00   -3.636E+00   -3.554E+00   -3.470E+00   -3.385E+00   -3.299E+00   -3.211E+00
    -3.122E+00   -3.032E+00   -2.942E+00   -2.851E+00   -2.759E+00   -2.668E+00   -2.576E+00   -2.485E+00   -2.394E+00   -2.304E+00
    -2.215E+00   -2.126E+00   -2.039E+00   -1.953E+00   -1.868E+00   -1.785E+00   -1.702E+00   -1.621E+00   -1.541E+00   -1.462E+00
    -1.384E+00   -1.307E+00   -1.231E+00   -1.156E+00   -1.081E+00   -1.008E+00   -9.353E-01   -8.634E-01   -7.922E-01   -7.218E-01
    -6.519E-01   -5.827E-01   -5.141E-01   -4.460E-01   -3.784E-01   -3.112E-01   -2.445E-01   -1.781E-01   -1.121E-01   -4.637E-02
     1.908E-02    8.430E-02    1.493E-01    2.142E-01    2.790E-01    3.436E-01    4.083E-01    4.729E-01    5.376E-01    6.024E-01
     6.673E-01    7.323E-01    7.975E-01    8.630E-01    9.287E-01    9.947E-01    1.061E+00    1.128E+00
 Ala      Conc. = 1.62E+03
