 LCModel (Version 6.3-1L) Copyright: S.W. Provencher.          Ref.: Magn. Reson. Med. 30:672-679 (1993).                
 Slice#2 Row#12 Col#9  PD_24_press_1_raw_act
 36 lines in following concentration table = NCONC+1
    Conc.  %SD /Cr+PCr  Metabolite                                         
   26.289 394% 2.1E-02 Ala                                                 
    0.000 999%   0.000 Asp                                                 
    0.000 999%   0.000 Cr                                                  
 1.23E+03   4%   1.000 PCr                                                 
    0.000 999%   0.000 GABA                                                
   50.011 251% 4.1E-02 Glc                                                 
  506.248  45%   0.410 Gln                                                 
 1.08E+03  23%   0.872 Glu                                                 
  506.495   4%   0.410 GPC                                                 
    0.000 999%   0.000 PCh                                                 
  248.945  24%   0.202 GSH                                                 
  716.390  28%   0.580 Ins                                                 
    0.000 999%   0.000 Lac                                                 
 1.98E+03   7%   1.607 NAA                                                 
  302.622  49%   0.245 NAAG                                                
   84.114  27% 6.8E-02 Scyllo                                              
    0.000 999%   0.000 Tau                                                 
   43.198 185% 3.5E-02 -CrCH2                                              
  506.495   4%   0.410 GPC+PCh                                             
 2.29E+03   3%   1.852 NAA+NAAG                                            
 1.23E+03   4%   1.000 Cr+PCr                                              
 1.58E+03  25%   1.282 Glu+Gln                                             
   64.892 683% 5.3E-02 Lip13a                                              
   31.619 479% 2.6E-02 Lip13b                                              
    0.544 999% 4.4E-04 Lip09                                               
 1.23E+03  14%   0.997 MM09                                                
   19.669 343% 1.6E-02 Lip20                                               
 2.55E+03  10%   2.063 MM20                                                
  415.231  35%   0.336 MM12                                                
  722.906  33%   0.586 MM14                                                
  691.715  23%   0.560 MM17                                                
   96.511 345% 7.8E-02 Lip13a+Lip13b                                       
 1.23E+03  16%   1.000 MM14+Lip13a+Lip13b+MM12                             
 1.23E+03  10%   0.997 MM09+Lip09                                          
 2.57E+03  10%   2.079 MM20+Lip20                                          
   6 lines in following misc. output table
  FWHM = 0.069 ppm    S/N =  13                                            
  Data shift = 0.008 ppm                                                   
  Ph: -53 deg     -13.8 deg/ppm                                            
  alphaB,S = 8.5E+01,   2.0E+02                                            
   14 spline knots.   Ns = 9(1)                                            
   2 inflections.     1 extrema                                            
  498 points on ppm-axis = NY
      4.000000     3.992357     3.984714     3.977070     3.969427     3.961784     3.954141     3.946497     3.938854     3.931211
      3.923568     3.915925     3.908281     3.900638     3.892995     3.885352     3.877708     3.870065     3.862422     3.854779
      3.847136     3.839492     3.831849     3.824206     3.816563     3.808919     3.801276     3.793633     3.785990     3.778347
      3.770703     3.763060     3.755417     3.747774     3.740130     3.732487     3.724844     3.717201     3.709558     3.701914
      3.694271     3.686628     3.678985     3.671341     3.663698     3.656055     3.648412     3.640769     3.633125     3.625482
      3.617839     3.610196     3.602552     3.594909     3.587266     3.579623     3.571980     3.564336     3.556693     3.549050
      3.541407     3.533763     3.526120     3.518477     3.510834     3.503191     3.495547     3.487904     3.480261     3.472618
      3.464974     3.457331     3.449688     3.442045     3.434402     3.426758     3.419115     3.411472     3.403829     3.396185
      3.388542     3.380899     3.373256     3.365613     3.357969     3.350326     3.342683     3.335040     3.327396     3.319753
      3.312110     3.304467     3.296824     3.289180     3.281537     3.273894     3.266251     3.258607     3.250964     3.243321
      3.235678     3.228034     3.220391     3.212748     3.205105     3.197462     3.189818     3.182175     3.174532     3.166889
      3.159245     3.151602     3.143959     3.136316     3.128673     3.121029     3.113386     3.105743     3.098100     3.090456
      3.082813     3.075170     3.067527     3.059884     3.052240     3.044597     3.036954     3.029311     3.021667     3.014024
      3.006381     2.998738     2.991095     2.983451     2.975808     2.968165     2.960522     2.952878     2.945235     2.937592
      2.929949     2.922306     2.914662     2.907019     2.899376     2.891733     2.884089     2.876446     2.868803     2.861160
      2.853517     2.845873     2.838230     2.830587     2.822944     2.815300     2.807657     2.800014     2.792371     2.784728
      2.777084     2.769441     2.761798     2.754155     2.746511     2.738868     2.731225     2.723582     2.715939     2.708295
      2.700652     2.693009     2.685366     2.677722     2.670079     2.662436     2.654793     2.647150     2.639506     2.631863
      2.624220     2.616577     2.608933     2.601290     2.593647     2.586004     2.578361     2.570717     2.563074     2.555431
      2.547788     2.540144     2.532501     2.524858     2.517215     2.509572     2.501928     2.494285     2.486642     2.478999
      2.471355     2.463712     2.456069     2.448426     2.440783     2.433139     2.425496     2.417853     2.410210     2.402566
      2.394923     2.387280     2.379637     2.371994     2.364350     2.356707     2.349064     2.341421     2.333777     2.326134
      2.318491     2.310848     2.303205     2.295561     2.287918     2.280275     2.272632     2.264988     2.257345     2.249702
      2.242059     2.234416     2.226772     2.219129     2.211486     2.203843     2.196199     2.188556     2.180913     2.173270
      2.165627     2.157983     2.150340     2.142697     2.135054     2.127410     2.119767     2.112124     2.104481     2.096838
      2.089194     2.081551     2.073908     2.066265     2.058621     2.050978     2.043335     2.035692     2.028049     2.020405
      2.012762     2.005119     1.997476     1.989833     1.982190     1.974546     1.966903     1.959260     1.951617     1.943974
      1.936331     1.928688     1.921045     1.913402     1.905759     1.898115     1.890472     1.882829     1.875186     1.867543
      1.859900     1.852257     1.844614     1.836971     1.829327     1.821684     1.814041     1.806398     1.798755     1.791112
      1.783469     1.775826     1.768183     1.760540     1.752896     1.745253     1.737610     1.729967     1.722324     1.714681
      1.707038     1.699395     1.691752     1.684108     1.676465     1.668822     1.661179     1.653536     1.645893     1.638250
      1.630607     1.622964     1.615321     1.607677     1.600034     1.592391     1.584748     1.577105     1.569462     1.561819
      1.554176     1.546533     1.538890     1.531246     1.523603     1.515960     1.508317     1.500674     1.493031     1.485388
      1.477745     1.470102     1.462458     1.454815     1.447172     1.439529     1.431886     1.424243     1.416600     1.408957
      1.401314     1.393671     1.386027     1.378384     1.370741     1.363098     1.355455     1.347812     1.340169     1.332526
      1.324883     1.317240     1.309596     1.301953     1.294310     1.286667     1.279024     1.271381     1.263738     1.256095
      1.248452     1.240808     1.233165     1.225522     1.217879     1.210236     1.202593     1.194950     1.187307     1.179664
      1.172021     1.164377     1.156734     1.149091     1.141448     1.133805     1.126162     1.118519     1.110876     1.103233
      1.095590     1.087946     1.080303     1.072660     1.065017     1.057374     1.049731     1.042088     1.034445     1.026802
      1.019158     1.011515     1.003872     0.996229     0.988586     0.980943     0.973300     0.965657     0.958014     0.950371
      0.942727     0.935084     0.927441     0.919798     0.912155     0.904512     0.896869     0.889226     0.881583     0.873940
      0.866296     0.858653     0.851010     0.843367     0.835724     0.828081     0.820438     0.812795     0.805152     0.797508
      0.789865     0.782222     0.774579     0.766936     0.759293     0.751650     0.744007     0.736364     0.728721     0.721077
      0.713434     0.705791     0.698148     0.690505     0.682862     0.675219     0.667576     0.659933     0.652290     0.644646
      0.637003     0.629360     0.621717     0.614074     0.606431     0.598788     0.591145     0.583502     0.575858     0.568215
      0.560572     0.552929     0.545286     0.537643     0.530000     0.522357     0.514714     0.507071     0.499427     0.491784
      0.484141     0.476498     0.468855     0.461212     0.453569     0.445925     0.438282     0.430639     0.422996     0.415353
      0.407710     0.400067     0.392424     0.384780     0.377137     0.369494     0.361851     0.354208     0.346565     0.338922
      0.331278     0.323635     0.315992     0.308349     0.300706     0.293063     0.285420     0.277777     0.270133     0.262490
      0.254847     0.247204     0.239561     0.231918     0.224275     0.216631     0.208988     0.201345
 NY phased data points follow
  -1.04298E+01 -9.17966E+00 -1.30653E+01 -3.66879E+00 -2.51981E+00 -5.50118E+00  5.39207E+00  6.68794E+00  1.02067E+01  1.44038E+01
   1.79481E+01  1.44304E+01  1.45535E+01  9.39356E+00  7.50531E+00  6.38968E-02 -2.10016E+00 -5.42103E+00 -6.98092E+00 -1.04369E+01
  -1.08793E+01 -7.18767E+00 -8.84325E+00 -4.69170E+00 -8.83154E+00 -5.17352E+00 -6.09991E+00 -5.48176E+00 -2.85002E+00 -4.93244E+00
  -1.14042E+00 -4.61731E+00 -3.20778E+00 -9.59836E+00 -2.91584E+00 -9.74191E+00 -2.94903E+00 -5.11452E+00 -4.77571E+00 -6.11128E+00
  -8.27169E+00 -1.35169E+00 -4.58541E+00 -6.35052E-01 -2.93021E+00 -1.07567E-01 -4.49893E+00 -4.35377E+00 -1.71667E-01 -3.27308E+00
  -1.26031E+00 -5.32130E+00 -4.88303E+00 -6.42591E+00 -4.52342E+00 -4.02894E+00 -5.46183E+00 -4.72809E+00 -6.14643E+00 -5.56026E+00
  -8.42693E+00 -5.46195E+00 -1.21050E+01 -7.42237E+00 -1.28348E+01 -1.02804E+01 -1.26529E+01 -1.31351E+01 -6.70574E+00 -8.69719E+00
  -8.58670E+00 -9.87086E+00 -7.09127E+00 -1.04354E+01 -5.67051E+00 -6.10663E+00 -1.12784E+01 -6.56683E+00 -7.52904E+00 -5.81528E+00
  -8.61925E+00 -4.33409E+00 -7.25656E+00 -6.03911E+00 -8.60531E+00 -8.28991E+00 -5.20734E+00 -7.96262E+00 -3.03967E+00 -7.37414E+00
  -8.44795E-01 -6.59991E+00 -3.81868E+00 -5.08282E+00 -5.01432E+00 -2.43208E+00  1.43963E+00  3.77481E+00  8.11082E+00  1.80208E+01
   2.10975E+01  2.94019E+01  2.71579E+01  2.98662E+01  2.94432E+01  2.57422E+01  2.10304E+01  1.18161E+01  1.37232E+01  4.50499E+00
  -7.57001E-01 -3.01250E+00 -1.48615E+00 -4.96033E+00 -3.83103E+00 -9.44701E+00 -9.04922E+00 -7.24637E+00 -5.84538E+00 -4.95371E+00
  -6.23203E+00 -4.19581E+00  2.74858E+00  7.45205E+00  1.59935E+01  1.93410E+01  2.54735E+01  2.69550E+01  3.02040E+01  2.46150E+01
   2.48816E+01  1.65463E+01  1.36152E+01  9.00748E+00  3.81398E+00 -1.30602E+00 -3.29379E+00 -2.77006E+00 -7.52137E+00 -3.47220E+00
  -5.18436E+00 -4.27592E+00 -4.21050E+00 -1.02743E+01 -4.30252E+00 -7.93124E+00 -2.71111E+00 -9.33684E+00 -4.47244E+00 -7.61733E+00
  -6.85412E+00 -7.54526E+00 -4.54418E+00 -6.51924E+00 -8.46783E+00 -3.63678E+00 -7.85911E+00 -9.60801E+00 -4.44008E+00 -6.06977E+00
  -9.61565E+00 -7.52608E+00 -8.23598E+00 -8.63236E+00 -6.98753E+00 -9.36881E+00 -4.15346E+00 -1.05218E+01 -6.97770E+00 -1.31908E+01
  -1.23189E+01 -1.20837E+01 -1.20102E+01 -1.36634E+01 -1.66100E+01 -1.52992E+01 -1.38024E+01 -1.21491E+01 -1.41118E+01 -1.30781E+01
  -1.14705E+01 -1.18965E+01 -1.16168E+01 -1.13106E+01 -1.26145E+01 -1.16211E+01 -1.13165E+01 -1.07697E+01 -8.66332E+00 -8.17131E+00
  -4.83379E+00 -8.18208E-01 -4.49547E+00 -2.60125E+00 -1.40884E+00 -2.34641E+00 -5.40593E-01 -4.67199E+00  3.36446E-02 -4.58423E+00
  -3.18001E+00 -1.13853E+00 -3.96480E-01 -3.53878E+00 -2.69134E-01  3.94656E-01 -2.68108E+00 -4.68238E+00 -5.66305E+00 -6.85958E+00
  -6.00016E+00 -2.02865E+00 -1.96249E+00  4.05606E+00 -4.75641E-01  2.51136E+00  4.12515E-01 -1.69321E+00  1.06437E+00 -5.43637E-01
  -2.05869E+00 -4.93111E+00 -2.76665E+00 -4.44668E+00  7.89546E-01 -1.87303E+00  3.00820E+00 -2.03040E+00 -5.49085E-01  3.61427E+00
   3.89720E+00  3.54817E+00  3.44701E-01  4.09450E+00  1.86856E+00  5.37092E+00  1.70006E-01  2.89750E-02 -8.33948E-01 -2.20367E-01
   5.78875E-01  9.80646E-02  6.34148E-02  1.62229E+00  7.84387E+00 -1.43158E+00  6.32361E+00  1.04908E+00  4.94605E+00  3.28985E+00
   7.28500E+00  8.80735E+00  1.14641E+01  2.07472E+01  2.31501E+01  3.09686E+01  3.94165E+01  4.72618E+01  5.53311E+01  6.07468E+01
   6.30901E+01  5.64315E+01  5.41291E+01  4.71285E+01  4.14986E+01  3.22791E+01  2.76661E+01  1.95333E+01  1.20992E+01  6.33961E+00
   3.98241E+00  5.21738E+00  5.30142E+00  3.34064E+00  6.60496E-01 -1.97564E+00  2.05329E+00 -1.71702E+00  5.26659E+00  2.46174E+00
   4.61729E+00  1.73175E+00  2.37047E+00 -1.19625E+00  1.33016E+00 -1.38094E+00  1.16941E+00 -1.35216E+00 -9.78727E-02  2.20202E+00
  -2.44835E+00  2.13756E+00  2.19535E+00 -1.09064E-01 -1.75658E-01  1.90312E-01  1.77873E+00 -2.29868E-01 -6.45804E-01 -1.50025E+00
   1.51382E+00 -2.68273E+00 -1.93900E+00  1.54376E+00  2.51809E+00  1.67149E+00  3.86021E+00  5.15451E+00  7.06281E-01  2.10453E+00
   3.45277E+00 -7.79357E-01  3.30838E+00  2.99089E+00  4.65052E+00  5.57250E+00  7.44347E-01  1.73992E+00  3.91026E+00 -4.41482E-02
  -6.03363E-01  2.83350E+00  2.43921E+00 -2.68445E-01  1.89626E+00  1.00099E+00  1.49555E+00  3.56008E+00 -6.14742E-01  3.19881E+00
   7.70795E-01  1.65376E-01  1.77833E+00  6.65160E-01  3.11655E+00  2.58167E+00  6.25202E+00 -4.10277E-01  1.84044E+00  1.34806E+00
   5.17201E+00  1.69362E+00  9.12376E-01  3.22116E+00  1.57615E+00  2.88005E+00  1.50567E-01  1.81120E+00  4.87680E+00  5.05327E-01
   6.14382E+00  2.90527E+00  2.81590E-01  7.52587E-01  2.40469E+00  2.27824E-01  4.31273E+00  1.37400E+00  6.16449E+00  4.04730E-01
   4.27134E+00  6.26996E-01  3.94862E+00  4.46467E-01  1.24342E+00  2.21774E+00  2.01761E+00  1.86241E+00  4.28372E-01  3.11005E-01
   2.75787E+00  1.34791E+00  2.65151E+00  5.44795E+00  5.35188E+00  3.55974E+00  7.79012E+00 -2.84468E+00  4.44749E+00  1.63904E+00
   1.46689E+00 -5.31028E-01  8.02535E-01  5.23079E-01  2.52880E+00  1.30468E+00 -1.57514E+00  3.01180E+00  1.24053E+00  1.31974E+00
   2.17092E+00  7.55447E-01  2.76837E+00  2.47409E+00  7.99458E+00  4.09612E+00  5.21585E+00  1.75744E-01  6.00942E+00  6.58235E+00
   7.45284E+00  5.62921E+00  5.87543E+00  6.59196E+00  7.47320E+00  8.33985E+00  7.60566E+00  1.13939E+01  9.70709E+00  1.12187E+01
   8.34021E+00  9.81740E+00  6.91800E+00  6.81125E+00  1.17832E+01  9.68547E+00  6.05022E+00  3.88195E+00  8.74092E+00  5.83710E+00
   4.58735E+00  7.26020E+00  5.39198E+00  9.07131E+00  2.97752E+00  6.89005E+00  4.16147E+00  6.68090E+00 -7.00983E-01  5.40663E+00
   1.49075E+00  3.85704E+00  4.00495E+00  2.43973E+00  5.16580E+00  5.14201E+00  1.86405E+00  5.03966E+00  3.03940E+00  1.72648E+00
   1.47099E+00  3.80573E+00  2.04915E+00  2.62892E+00  1.04682E+00  3.05929E+00  1.28625E+00  9.35229E-01  1.49252E+00 -1.76867E-01
   1.33709E+00  3.79944E+00  3.56849E+00  1.15323E+00  3.52363E+00 -2.83834E+00  5.78209E+00  5.33601E+00  5.08776E-01  4.15303E+00
   3.35854E+00  1.01000E+00  3.46091E+00 -1.43167E+00  8.24661E-01  1.43711E+00  1.50474E+00  1.81934E+00 -3.21176E+00  2.19894E+00
   1.68634E+00  4.98522E-01 -3.31052E-01  1.90708E+00  1.86756E+00  1.64966E+00  4.02399E+00 -8.66724E-01  2.97196E+00  1.02020E+00
   3.34080E+00 -3.06289E+00  5.13511E-02  1.98211E+00  3.77343E-01  2.00394E+00  4.03021E+00  1.43820E+00  2.78570E+00  1.33208E+00
   2.66083E+00  1.22693E-01  4.28548E+00 -7.62603E-01  3.70429E+00  6.24913E-01  2.83744E+00  2.71446E+00
 NY points of the fit to the data follow
  -9.01184E+00 -8.61226E+00 -7.52614E+00 -5.60750E+00 -2.85792E+00  6.43874E-01  4.62179E+00  8.48653E+00  1.16114E+01  1.35144E+01
   1.40040E+01  1.32033E+01  1.13994E+01  8.89486E+00  6.03307E+00  3.08107E+00  1.80740E-01 -2.44742E+00 -4.52141E+00 -5.96027E+00
  -6.86587E+00 -7.31790E+00 -7.54013E+00 -7.62205E+00 -7.51570E+00 -7.13972E+00 -6.47041E+00 -5.57895E+00 -4.59699E+00 -3.69822E+00
  -3.03741E+00 -2.71614E+00 -2.77527E+00 -3.17875E+00 -3.81325E+00 -4.56077E+00 -5.33031E+00 -6.01399E+00 -6.48253E+00 -6.66096E+00
  -6.52094E+00 -6.06904E+00 -5.38068E+00 -4.55768E+00 -3.75154E+00 -3.12361E+00 -2.79635E+00 -2.80751E+00 -3.11964E+00 -3.67099E+00
  -4.36281E+00 -5.08116E+00 -5.75480E+00 -6.33613E+00 -6.77536E+00 -7.04525E+00 -7.15776E+00 -7.16149E+00 -7.13472E+00 -7.15536E+00
  -7.26284E+00 -7.45055E+00 -7.68643E+00 -7.91899E+00 -8.10365E+00 -8.21778E+00 -8.25508E+00 -8.21605E+00 -8.11299E+00 -7.96806E+00
  -7.80833E+00 -7.66698E+00 -7.56770E+00 -7.52181E+00 -7.52845E+00 -7.57466E+00 -7.64021E+00 -7.69587E+00 -7.69428E+00 -7.59225E+00
  -7.37186E+00 -7.04061E+00 -6.61803E+00 -6.16516E+00 -5.78029E+00 -5.53937E+00 -5.47876E+00 -5.58203E+00 -5.79634E+00 -6.06725E+00
  -6.35295E+00 -6.61014E+00 -6.79390E+00 -6.75483E+00 -6.06915E+00 -4.24774E+00 -1.03819E+00  3.59165E+00  9.51890E+00  1.61672E+01
   2.24902E+01  2.74256E+01  3.01860E+01  3.05087E+01  2.86467E+01  2.51000E+01  2.04183E+01  1.52083E+01  9.91479E+00  4.82245E+00
   3.59649E-01 -3.01401E+00 -5.19053E+00 -6.34358E+00 -6.72986E+00 -6.80803E+00 -6.78284E+00 -6.67551E+00 -6.37501E+00 -5.52439E+00
  -3.71523E+00 -7.40819E-01  3.42494E+00  8.70229E+00  1.46290E+01  2.02785E+01  2.47130E+01  2.72299E+01  2.75935E+01  2.60213E+01
   2.29303E+01  1.87735E+01  1.40910E+01  9.29394E+00  4.65070E+00  5.87835E-01 -2.43873E+00 -4.33183E+00 -5.27382E+00 -5.51303E+00
  -5.51690E+00 -5.47824E+00 -5.44106E+00 -5.42888E+00 -5.45577E+00 -5.53372E+00 -5.66806E+00 -5.84629E+00 -6.04701E+00 -6.24591E+00
  -6.41875E+00 -6.55381E+00 -6.65423E+00 -6.74038E+00 -6.83567E+00 -6.95555E+00 -7.10675E+00 -7.28225E+00 -7.45927E+00 -7.60844E+00
  -7.70255E+00 -7.74119E+00 -7.76380E+00 -7.81722E+00 -7.92828E+00 -8.10350E+00 -8.32837E+00 -8.57980E+00 -8.85518E+00 -9.16055E+00
  -9.49262E+00 -9.84106E+00 -1.01817E+01 -1.04602E+01 -1.06313E+01 -1.06892E+01 -1.06564E+01 -1.05832E+01 -1.05069E+01 -1.04297E+01
  -1.03306E+01 -1.01817E+01 -9.95328E+00 -9.62059E+00 -9.16157E+00 -8.56368E+00 -7.83400E+00 -7.01139E+00 -6.17252E+00 -5.41810E+00
  -4.84132E+00 -4.48131E+00 -4.32364E+00 -4.30741E+00 -4.36076E+00 -4.41342E+00 -4.38804E+00 -4.21151E+00 -3.85674E+00 -3.33964E+00
  -2.73264E+00 -2.18182E+00 -1.85172E+00 -1.86109E+00 -2.25861E+00 -3.01943E+00 -4.01515E+00 -5.01914E+00 -5.79167E+00 -6.16031E+00
  -6.03670E+00 -5.43159E+00 -4.46368E+00 -3.36909E+00 -2.43900E+00 -1.90337E+00 -1.85936E+00 -2.29606E+00 -3.10849E+00 -4.07054E+00
  -4.90525E+00 -5.41041E+00 -5.47958E+00 -5.10934E+00 -4.37648E+00 -3.40019E+00 -2.33710E+00 -1.33076E+00 -4.82019E-01  1.86201E-01
   6.78003E-01  1.01284E+00  1.24879E+00  1.44956E+00  1.64747E+00  1.84280E+00  2.00936E+00  2.11840E+00  2.15886E+00  2.14201E+00
   2.11288E+00  2.13073E+00  2.23759E+00  2.44421E+00  2.73804E+00  3.10608E+00  3.55802E+00  4.14805E+00  4.98029E+00  6.13271E+00
   7.65623E+00  9.77944E+00  1.29850E+01  1.76211E+01  2.37025E+01  3.10951E+01  3.94948E+01  4.80193E+01  5.53068E+01  6.01098E+01
   6.16538E+01  5.98878E+01  5.53377E+01  4.87816E+01  4.10958E+01  3.31172E+01  2.53322E+01  1.81015E+01  1.19782E+01  7.44395E+00
   4.50416E+00  2.90507E+00  2.20624E+00  1.80917E+00  1.50428E+00  1.23965E+00  9.93843E-01  7.60601E-01  5.44405E-01  3.47268E-01
   1.70729E-01  1.64065E-02 -1.13433E-01 -2.17226E-01 -2.94511E-01 -3.47225E-01 -3.77927E-01 -3.86767E-01 -3.72471E-01 -3.33937E-01
  -2.71214E-01 -1.85687E-01 -7.95583E-02  4.47353E-02  1.84119E-01  3.35248E-01  4.95249E-01  6.62398E-01  8.34391E-01  1.00842E+00
   1.18179E+00  1.35141E+00  1.51360E+00  1.66457E+00  1.80000E+00  1.91619E+00  2.01012E+00  2.07951E+00  2.12346E+00  2.14251E+00
   2.13829E+00  2.11388E+00  2.07300E+00  2.01967E+00  1.95826E+00  1.89333E+00  1.82959E+00  1.77211E+00  1.72660E+00  1.69772E+00
   1.68663E+00  1.69128E+00  1.70797E+00  1.73038E+00  1.74943E+00  1.75753E+00  1.75282E+00  1.74085E+00  1.73202E+00  1.73644E+00
   1.76215E+00  1.81559E+00  1.89724E+00  1.99978E+00  2.11301E+00  2.22616E+00  2.32811E+00  2.40951E+00  2.46486E+00  2.49143E+00
   2.49125E+00  2.46884E+00  2.42856E+00  2.37736E+00  2.32391E+00  2.27499E+00  2.23590E+00  2.20956E+00  2.19567E+00  2.19400E+00
   2.20383E+00  2.22335E+00  2.24965E+00  2.27894E+00  2.30703E+00  2.32991E+00  2.34438E+00  2.34848E+00  2.34168E+00  2.32472E+00
   2.29936E+00  2.26782E+00  2.23232E+00  2.19467E+00  2.15602E+00  2.11687E+00  2.07717E+00  2.03655E+00  1.99461E+00  1.95110E+00
   1.90608E+00  1.85998E+00  1.81362E+00  1.76815E+00  1.72502E+00  1.68583E+00  1.65233E+00  1.62629E+00  1.60950E+00  1.60376E+00
   1.61080E+00  1.63235E+00  1.67010E+00  1.72574E+00  1.80094E+00  1.89741E+00  2.01682E+00  2.16086E+00  2.33111E+00  2.52908E+00
   2.75605E+00  3.01300E+00  3.30048E+00  3.61846E+00  3.96616E+00  4.34193E+00  4.74313E+00  5.16598E+00  5.60552E+00  6.05559E+00
   6.50894E+00  6.95730E+00  7.39168E+00  7.80259E+00  8.18042E+00  8.51583E+00  8.80019E+00  9.02600E+00  9.18720E+00  9.27955E+00
   9.30082E+00  9.25090E+00  9.13184E+00  8.94771E+00  8.70436E+00  8.40914E+00  8.07053E+00  7.69770E+00  7.30012E+00  6.88712E+00
   6.46759E+00  6.04963E+00  5.64033E+00  5.24566E+00  4.87040E+00  4.51809E+00  4.19113E+00  3.89089E+00  3.61783E+00  3.37165E+00
   3.15147E+00  2.95594E+00  2.78344E+00  2.63214E+00  2.50014E+00  2.38555E+00  2.28654E+00  2.20136E+00  2.12843E+00  2.06627E+00
   2.01358E+00  1.96920E+00  1.93210E+00  1.90140E+00  1.87630E+00  1.85612E+00  1.84029E+00  1.82829E+00  1.81970E+00  1.81412E+00
   1.81122E+00  1.81073E+00  1.81240E+00  1.81601E+00  1.82137E+00  1.82831E+00  1.83669E+00  1.84637E+00  1.85724E+00  1.86920E+00
   1.88216E+00  1.89603E+00  1.91075E+00  1.92624E+00  1.94245E+00  1.95932E+00  1.97681E+00  1.99487E+00  2.01345E+00  2.03254E+00
   2.05209E+00  2.07207E+00  2.09245E+00  2.11321E+00  2.13434E+00  2.15579E+00  2.17757E+00  2.19965E+00  2.22200E+00  2.24461E+00
   2.26748E+00  2.29059E+00  2.31393E+00  2.33748E+00  2.36123E+00  2.38518E+00  2.40932E+00  2.43364E+00  2.45814E+00  2.48280E+00
   2.50762E+00  2.53260E+00  2.55774E+00  2.58303E+00  2.60847E+00  2.63406E+00  2.65980E+00  2.68569E+00
 NY background values follow
    -1.213E+01   -1.210E+01   -1.207E+01   -1.204E+01   -1.201E+01   -1.198E+01   -1.195E+01   -1.192E+01   -1.189E+01   -1.186E+01
    -1.183E+01   -1.180E+01   -1.177E+01   -1.175E+01   -1.172E+01   -1.169E+01   -1.166E+01   -1.163E+01   -1.160E+01   -1.157E+01
    -1.154E+01   -1.151E+01   -1.148E+01   -1.145E+01   -1.142E+01   -1.139E+01   -1.136E+01   -1.133E+01   -1.131E+01   -1.128E+01
    -1.125E+01   -1.122E+01   -1.119E+01   -1.116E+01   -1.113E+01   -1.110E+01   -1.107E+01   -1.104E+01   -1.101E+01   -1.098E+01
    -1.095E+01   -1.092E+01   -1.089E+01   -1.087E+01   -1.084E+01   -1.081E+01   -1.078E+01   -1.075E+01   -1.072E+01   -1.069E+01
    -1.066E+01   -1.063E+01   -1.060E+01   -1.057E+01   -1.054E+01   -1.051E+01   -1.048E+01   -1.045E+01   -1.043E+01   -1.040E+01
    -1.037E+01   -1.034E+01   -1.031E+01   -1.028E+01   -1.025E+01   -1.022E+01   -1.019E+01   -1.016E+01   -1.013E+01   -1.010E+01
    -1.007E+01   -1.004E+01   -1.001E+01   -9.985E+00   -9.956E+00   -9.926E+00   -9.897E+00   -9.868E+00   -9.838E+00   -9.809E+00
    -9.780E+00   -9.750E+00   -9.721E+00   -9.692E+00   -9.662E+00   -9.633E+00   -9.604E+00   -9.574E+00   -9.545E+00   -9.516E+00
    -9.486E+00   -9.457E+00   -9.428E+00   -9.398E+00   -9.369E+00   -9.340E+00   -9.310E+00   -9.281E+00   -9.252E+00   -9.222E+00
    -9.193E+00   -9.164E+00   -9.134E+00   -9.105E+00   -9.076E+00   -9.046E+00   -9.017E+00   -8.988E+00   -8.958E+00   -8.929E+00
    -8.900E+00   -8.870E+00   -8.841E+00   -8.812E+00   -8.782E+00   -8.753E+00   -8.724E+00   -8.694E+00   -8.665E+00   -8.636E+00
    -8.606E+00   -8.577E+00   -8.548E+00   -8.518E+00   -8.489E+00   -8.460E+00   -8.430E+00   -8.401E+00   -8.372E+00   -8.342E+00
    -8.313E+00   -8.284E+00   -8.254E+00   -8.225E+00   -8.196E+00   -8.166E+00   -8.137E+00   -8.108E+00   -8.078E+00   -8.049E+00
    -8.020E+00   -7.990E+00   -7.961E+00   -7.932E+00   -7.902E+00   -7.873E+00   -7.844E+00   -7.814E+00   -7.785E+00   -7.756E+00
    -7.726E+00   -7.697E+00   -7.668E+00   -7.638E+00   -7.609E+00   -7.580E+00   -7.550E+00   -7.521E+00   -7.492E+00   -7.462E+00
    -7.433E+00   -7.404E+00   -7.374E+00   -7.345E+00   -7.316E+00   -7.286E+00   -7.257E+00   -7.228E+00   -7.198E+00   -7.169E+00
    -7.139E+00   -7.110E+00   -7.081E+00   -7.051E+00   -7.022E+00   -6.993E+00   -6.963E+00   -6.934E+00   -6.905E+00   -6.875E+00
    -6.846E+00   -6.817E+00   -6.787E+00   -6.758E+00   -6.729E+00   -6.699E+00   -6.670E+00   -6.641E+00   -6.611E+00   -6.582E+00
    -6.553E+00   -6.523E+00   -6.494E+00   -6.465E+00   -6.435E+00   -6.406E+00   -6.377E+00   -6.347E+00   -6.318E+00   -6.289E+00
    -6.260E+00   -6.230E+00   -6.201E+00   -6.172E+00   -6.142E+00   -6.113E+00   -6.084E+00   -6.054E+00   -6.025E+00   -5.996E+00
    -5.966E+00   -5.937E+00   -5.908E+00   -5.878E+00   -5.849E+00   -5.820E+00   -5.790E+00   -5.761E+00   -5.732E+00   -5.702E+00
    -5.673E+00   -5.644E+00   -5.614E+00   -5.585E+00   -5.556E+00   -5.526E+00   -5.497E+00   -5.468E+00   -5.438E+00   -5.409E+00
    -5.380E+00   -5.350E+00   -5.321E+00   -5.292E+00   -5.262E+00   -5.233E+00   -5.204E+00   -5.174E+00   -5.145E+00   -5.116E+00
    -5.086E+00   -5.057E+00   -5.028E+00   -4.998E+00   -4.969E+00   -4.940E+00   -4.910E+00   -4.881E+00   -4.852E+00   -4.822E+00
    -4.793E+00   -4.764E+00   -4.734E+00   -4.705E+00   -4.676E+00   -4.646E+00   -4.617E+00   -4.588E+00   -4.558E+00   -4.529E+00
    -4.500E+00   -4.470E+00   -4.441E+00   -4.412E+00   -4.382E+00   -4.353E+00   -4.324E+00   -4.294E+00   -4.265E+00   -4.236E+00
    -4.207E+00   -4.177E+00   -4.148E+00   -4.119E+00   -4.089E+00   -4.060E+00   -4.031E+00   -4.001E+00   -3.972E+00   -3.943E+00
    -3.913E+00   -3.884E+00   -3.855E+00   -3.825E+00   -3.796E+00   -3.767E+00   -3.737E+00   -3.708E+00   -3.679E+00   -3.649E+00
    -3.620E+00   -3.591E+00   -3.561E+00   -3.532E+00   -3.503E+00   -3.473E+00   -3.444E+00   -3.415E+00   -3.385E+00   -3.356E+00
    -3.327E+00   -3.297E+00   -3.268E+00   -3.239E+00   -3.210E+00   -3.180E+00   -3.151E+00   -3.122E+00   -3.092E+00   -3.063E+00
    -3.034E+00   -3.004E+00   -2.975E+00   -2.946E+00   -2.916E+00   -2.887E+00   -2.858E+00   -2.828E+00   -2.799E+00   -2.770E+00
    -2.740E+00   -2.711E+00   -2.682E+00   -2.652E+00   -2.623E+00   -2.594E+00   -2.564E+00   -2.535E+00   -2.506E+00   -2.477E+00
    -2.447E+00   -2.418E+00   -2.389E+00   -2.359E+00   -2.330E+00   -2.301E+00   -2.271E+00   -2.242E+00   -2.213E+00   -2.183E+00
    -2.154E+00   -2.125E+00   -2.095E+00   -2.066E+00   -2.037E+00   -2.007E+00   -1.978E+00   -1.949E+00   -1.919E+00   -1.890E+00
    -1.861E+00   -1.832E+00   -1.802E+00   -1.773E+00   -1.744E+00   -1.714E+00   -1.685E+00   -1.656E+00   -1.626E+00   -1.597E+00
    -1.568E+00   -1.538E+00   -1.509E+00   -1.480E+00   -1.450E+00   -1.421E+00   -1.392E+00   -1.362E+00   -1.333E+00   -1.304E+00
    -1.275E+00   -1.245E+00   -1.216E+00   -1.187E+00   -1.157E+00   -1.128E+00   -1.099E+00   -1.069E+00   -1.040E+00   -1.011E+00
    -9.814E-01   -9.521E-01   -9.228E-01   -8.934E-01   -8.641E-01   -8.348E-01   -8.055E-01   -7.762E-01   -7.469E-01   -7.175E-01
    -6.882E-01   -6.589E-01   -6.296E-01   -6.003E-01   -5.710E-01   -5.417E-01   -5.123E-01   -4.830E-01   -4.537E-01   -4.244E-01
    -3.951E-01   -3.658E-01   -3.365E-01   -3.072E-01   -2.778E-01   -2.485E-01   -2.192E-01   -1.899E-01   -1.606E-01   -1.313E-01
    -1.020E-01   -7.264E-02   -4.333E-02   -1.402E-02    1.530E-02    4.461E-02    7.392E-02    1.032E-01    1.325E-01    1.619E-01
     1.912E-01    2.205E-01    2.498E-01    2.791E-01    3.084E-01    3.377E-01    3.671E-01    3.964E-01    4.257E-01    4.550E-01
     4.843E-01    5.136E-01    5.429E-01    5.722E-01    6.016E-01    6.309E-01    6.602E-01    6.895E-01    7.188E-01    7.481E-01
     7.774E-01    8.067E-01    8.361E-01    8.654E-01    8.947E-01    9.240E-01    9.533E-01    9.826E-01    1.012E+00    1.041E+00
     1.071E+00    1.100E+00    1.129E+00    1.158E+00    1.188E+00    1.217E+00    1.246E+00    1.276E+00    1.305E+00    1.334E+00
     1.364E+00    1.393E+00    1.422E+00    1.452E+00    1.481E+00    1.510E+00    1.540E+00    1.569E+00    1.598E+00    1.627E+00
     1.657E+00    1.686E+00    1.715E+00    1.745E+00    1.774E+00    1.803E+00    1.833E+00    1.862E+00    1.891E+00    1.921E+00
     1.950E+00    1.979E+00    2.009E+00    2.038E+00    2.067E+00    2.096E+00    2.126E+00    2.155E+00    2.184E+00    2.214E+00
     2.243E+00    2.272E+00    2.302E+00    2.331E+00    2.360E+00    2.390E+00    2.419E+00    2.448E+00
 Ala      Conc. = 2.63E+01
