 LCModel (Version 6.3-1L) Copyright: S.W. Provencher.          Ref.: Magn. Reson. Med. 30:672-679 (1993).                
 Slice#1 Row#5 Col#3  PD_24_press_1_raw_act
 36 lines in following concentration table = NCONC+1
    Conc.  %SD /Cr+PCr  Metabolite                                         
  501.933  31%   1.050 Ala                                                 
   99.728 113%   0.209 Asp                                                 
    0.000 999%   0.000 Cr                                                  
  477.983   9%   1.000 PCr                                                 
   54.464 132%   0.114 GABA                                                
   25.870 271% 5.4E-02 Glc                                                 
  259.844 130%   0.544 Gln                                                 
  429.851  89%   0.899 Glu                                                 
   89.621 124%   0.187 GPC                                                 
   74.556 147%   0.156 PCh                                                 
   24.868 287% 5.2E-02 GSH                                                 
    0.000 999%   0.000 Ins                                                 
  273.975  62%   0.573 Lac                                                 
 1.18E+03   4%   2.461 NAA                                                 
    0.000 999%   0.000 NAAG                                                
   25.314  70% 5.3E-02 Scyllo                                              
   29.107 381% 6.1E-02 Tau                                                 
  383.831  20%   0.803 -CrCH2                                              
  164.178  10%   0.343 GPC+PCh                                             
 1.18E+03   4%   2.461 NAA+NAAG                                            
  477.983   9%   1.000 Cr+PCr                                              
  689.695  91%   1.443 Glu+Gln                                             
    0.000 999%   0.000 Lip13a                                              
  387.096  19%   0.810 Lip13b                                              
   57.494  68%   0.120 Lip09                                               
  329.025  29%   0.688 MM09                                                
   64.896  40%   0.136 Lip20                                               
  509.882  28%   1.067 MM20                                                
   99.203  30%   0.208 MM12                                                
  291.208  27%   0.609 MM14                                                
  128.396  34%   0.269 MM17                                                
  387.096  19%   0.810 Lip13a+Lip13b                                       
  777.507  15%   1.627 MM14+Lip13a+Lip13b+MM12                             
  386.520  24%   0.809 MM09+Lip09                                          
  574.778  25%   1.203 MM20+Lip20                                          
   6 lines in following misc. output table
  FWHM = 0.076 ppm    S/N =   5                                            
  Data shift = 0.046 ppm                                                   
  Ph: -61 deg     -20.0 deg/ppm                                            
  alphaB,S = 8.5E+01,   4.1E+02                                            
   14 spline knots.   Ns =10(1)                                            
   2 inflections.     1 extrema                                            
  498 points on ppm-axis = NY
      4.000000     3.992357     3.984714     3.977070     3.969427     3.961784     3.954141     3.946497     3.938854     3.931211
      3.923568     3.915925     3.908281     3.900638     3.892995     3.885352     3.877708     3.870065     3.862422     3.854779
      3.847136     3.839492     3.831849     3.824206     3.816563     3.808919     3.801276     3.793633     3.785990     3.778347
      3.770703     3.763060     3.755417     3.747774     3.740130     3.732487     3.724844     3.717201     3.709558     3.701914
      3.694271     3.686628     3.678985     3.671341     3.663698     3.656055     3.648412     3.640769     3.633125     3.625482
      3.617839     3.610196     3.602552     3.594909     3.587266     3.579623     3.571980     3.564336     3.556693     3.549050
      3.541407     3.533763     3.526120     3.518477     3.510834     3.503191     3.495547     3.487904     3.480261     3.472618
      3.464974     3.457331     3.449688     3.442045     3.434402     3.426758     3.419115     3.411472     3.403829     3.396185
      3.388542     3.380899     3.373256     3.365613     3.357969     3.350326     3.342683     3.335040     3.327396     3.319753
      3.312110     3.304467     3.296824     3.289180     3.281537     3.273894     3.266251     3.258607     3.250964     3.243321
      3.235678     3.228034     3.220391     3.212748     3.205105     3.197462     3.189818     3.182175     3.174532     3.166889
      3.159245     3.151602     3.143959     3.136316     3.128673     3.121029     3.113386     3.105743     3.098100     3.090456
      3.082813     3.075170     3.067527     3.059884     3.052240     3.044597     3.036954     3.029311     3.021667     3.014024
      3.006381     2.998738     2.991095     2.983451     2.975808     2.968165     2.960522     2.952878     2.945235     2.937592
      2.929949     2.922306     2.914662     2.907019     2.899376     2.891733     2.884089     2.876446     2.868803     2.861160
      2.853517     2.845873     2.838230     2.830587     2.822944     2.815300     2.807657     2.800014     2.792371     2.784728
      2.777084     2.769441     2.761798     2.754155     2.746511     2.738868     2.731225     2.723582     2.715939     2.708295
      2.700652     2.693009     2.685366     2.677722     2.670079     2.662436     2.654793     2.647150     2.639506     2.631863
      2.624220     2.616577     2.608933     2.601290     2.593647     2.586004     2.578361     2.570717     2.563074     2.555431
      2.547788     2.540144     2.532501     2.524858     2.517215     2.509572     2.501928     2.494285     2.486642     2.478999
      2.471355     2.463712     2.456069     2.448426     2.440783     2.433139     2.425496     2.417853     2.410210     2.402566
      2.394923     2.387280     2.379637     2.371994     2.364350     2.356707     2.349064     2.341421     2.333777     2.326134
      2.318491     2.310848     2.303205     2.295561     2.287918     2.280275     2.272632     2.264988     2.257345     2.249702
      2.242059     2.234416     2.226772     2.219129     2.211486     2.203843     2.196199     2.188556     2.180913     2.173270
      2.165627     2.157983     2.150340     2.142697     2.135054     2.127410     2.119767     2.112124     2.104481     2.096838
      2.089194     2.081551     2.073908     2.066265     2.058621     2.050978     2.043335     2.035692     2.028049     2.020405
      2.012762     2.005119     1.997476     1.989833     1.982190     1.974546     1.966903     1.959260     1.951617     1.943974
      1.936331     1.928688     1.921045     1.913402     1.905759     1.898115     1.890472     1.882829     1.875186     1.867543
      1.859900     1.852257     1.844614     1.836971     1.829327     1.821684     1.814041     1.806398     1.798755     1.791112
      1.783469     1.775826     1.768183     1.760540     1.752896     1.745253     1.737610     1.729967     1.722324     1.714681
      1.707038     1.699395     1.691752     1.684108     1.676465     1.668822     1.661179     1.653536     1.645893     1.638250
      1.630607     1.622964     1.615321     1.607677     1.600034     1.592391     1.584748     1.577105     1.569462     1.561819
      1.554176     1.546533     1.538890     1.531246     1.523603     1.515960     1.508317     1.500674     1.493031     1.485388
      1.477745     1.470102     1.462458     1.454815     1.447172     1.439529     1.431886     1.424243     1.416600     1.408957
      1.401314     1.393671     1.386027     1.378384     1.370741     1.363098     1.355455     1.347812     1.340169     1.332526
      1.324883     1.317240     1.309596     1.301953     1.294310     1.286667     1.279024     1.271381     1.263738     1.256095
      1.248452     1.240808     1.233165     1.225522     1.217879     1.210236     1.202593     1.194950     1.187307     1.179664
      1.172021     1.164377     1.156734     1.149091     1.141448     1.133805     1.126162     1.118519     1.110876     1.103233
      1.095590     1.087946     1.080303     1.072660     1.065017     1.057374     1.049731     1.042088     1.034445     1.026802
      1.019158     1.011515     1.003872     0.996229     0.988586     0.980943     0.973300     0.965657     0.958014     0.950371
      0.942727     0.935084     0.927441     0.919798     0.912155     0.904512     0.896869     0.889226     0.881583     0.873940
      0.866296     0.858653     0.851010     0.843367     0.835724     0.828081     0.820438     0.812795     0.805152     0.797508
      0.789865     0.782222     0.774579     0.766936     0.759293     0.751650     0.744007     0.736364     0.728721     0.721077
      0.713434     0.705791     0.698148     0.690505     0.682862     0.675219     0.667576     0.659933     0.652290     0.644646
      0.637003     0.629360     0.621717     0.614074     0.606431     0.598788     0.591145     0.583502     0.575858     0.568215
      0.560572     0.552929     0.545286     0.537643     0.530000     0.522357     0.514714     0.507071     0.499427     0.491784
      0.484141     0.476498     0.468855     0.461212     0.453569     0.445925     0.438282     0.430639     0.422996     0.415353
      0.407710     0.400067     0.392424     0.384780     0.377137     0.369494     0.361851     0.354208     0.346565     0.338922
      0.331278     0.323635     0.315992     0.308349     0.300706     0.293063     0.285420     0.277777     0.270133     0.262490
      0.254847     0.247204     0.239561     0.231918     0.224275     0.216631     0.208988     0.201345
 NY phased data points follow
  -7.51410E+00 -6.96328E+00 -1.04796E+01 -8.36945E+00 -4.90995E+00 -3.86426E+00 -6.71104E+00 -4.02212E+00 -6.78911E+00 -5.66107E+00
  -5.25026E+00 -5.78730E+00 -6.65212E+00 -9.05681E+00 -7.34356E+00 -8.22097E+00 -1.24963E+01 -1.08117E+01 -1.02315E+01 -9.01597E+00
  -9.39558E+00 -9.56376E+00 -1.12662E+01 -5.33750E+00 -1.11371E+01 -8.76896E+00 -5.17541E+00 -5.72744E+00 -8.52677E+00 -7.86379E+00
  -7.87753E+00 -4.82243E+00 -7.18830E+00 -6.30286E+00 -5.71718E+00 -6.58797E+00 -8.27646E+00 -5.39274E+00 -8.62812E+00 -6.79134E+00
  -6.77317E+00 -4.25748E+00 -5.75079E+00 -5.38004E+00 -6.79327E+00 -8.11614E+00 -5.86416E+00 -8.78541E+00 -4.78316E+00 -8.16535E+00
  -6.29705E+00 -5.66260E+00 -3.25364E+00 -8.27813E+00 -7.81505E+00 -9.34594E+00 -6.22609E+00 -7.54175E+00 -8.84355E+00 -6.34757E+00
  -6.82795E+00 -3.01062E+00 -9.95697E+00 -6.65396E+00 -7.60116E+00 -7.11552E+00 -1.05823E+01 -5.94937E+00 -7.83278E+00 -7.69612E+00
  -7.81175E+00 -8.68112E+00 -7.54038E+00 -1.88016E+00 -8.58499E+00 -8.69049E+00 -6.24099E+00 -7.92008E+00 -5.83721E+00 -8.30116E+00
  -4.39829E+00 -6.00798E+00 -3.70117E+00 -5.13193E+00 -7.59351E+00 -3.39952E+00 -8.12377E+00 -5.29826E+00 -8.40486E+00 -1.87464E+00
  -3.14118E+00 -2.72469E+00 -5.79986E+00 -3.41283E+00 -2.83215E+00 -4.83826E+00 -4.07616E+00 -2.64162E+00  1.43479E+00  8.12252E-01
   7.98473E+00  9.14307E+00  6.38031E+00  8.24480E+00  4.57332E+00  2.54297E+00  3.16789E+00 -8.61145E-01 -4.52009E+00 -4.71790E+00
  -4.24073E+00  1.57953E-01 -2.85740E+00 -5.13155E+00 -2.29400E+00 -6.15880E+00 -6.81029E-01 -3.09002E+00  6.15858E-01 -6.16366E+00
  -3.11710E+00 -3.81348E+00 -1.48601E-01  2.93605E+00  1.05563E+00  5.31515E+00  7.47617E+00  1.09601E+01  6.61836E+00  7.95049E+00
   3.22634E+00  2.34878E-02  1.17990E+00  3.08074E-01 -3.48250E+00 -1.96303E+00 -6.64334E+00 -5.06851E-01 -2.25619E+00  8.27987E-02
  -3.73587E+00 -1.65512E+00 -3.98685E+00 -3.20396E+00 -7.75085E+00 -7.56154E+00 -6.65550E+00 -5.91571E+00 -5.48603E+00 -8.56307E+00
  -6.71296E+00 -7.10459E+00 -6.93096E+00 -1.59504E+00 -3.21439E+00 -5.67321E+00 -4.80973E+00 -7.08906E+00 -1.23092E+00 -7.12684E+00
  -4.66129E+00 -3.21817E+00 -6.21016E+00 -4.38686E+00 -5.52763E+00 -1.73784E+00 -8.33990E+00 -3.93955E+00 -4.19169E+00 -4.22350E+00
  -6.88869E+00 -4.25881E+00 -5.39919E+00 -5.62428E+00 -5.65984E+00 -8.96751E+00 -8.50969E+00 -1.07900E+01 -1.05565E+01 -1.39111E+01
  -8.35020E+00 -1.04166E+01 -2.89891E+00 -8.98522E+00 -6.55321E+00 -8.20299E+00 -5.72472E+00 -6.00902E+00 -2.86350E+00 -1.52914E+00
  -2.34534E+00 -1.84290E-01 -1.74713E+00 -3.95784E+00 -7.27840E+00 -6.02107E+00 -6.63183E+00 -7.10308E+00 -5.12060E+00 -7.27055E+00
  -7.00516E+00 -2.70957E+00  4.10644E-01 -1.97558E+00 -2.12079E+00  1.13653E+00 -4.23740E+00 -2.47270E+00 -6.04052E+00 -3.57741E+00
  -3.72251E+00  1.02262E+00 -4.66449E+00 -8.66178E-03  1.22255E+00 -1.98309E+00 -1.01940E+00 -2.38225E+00  1.64402E-01 -8.56264E-03
  -2.58469E+00 -4.35284E+00 -7.78230E-01  2.89503E-01 -6.02419E+00  4.51671E-01 -3.63121E+00 -3.01149E+00  1.66847E+00  4.39747E-01
  -2.90103E+00 -1.39487E+00  2.24647E+00 -1.22166E+00 -5.22384E-01 -6.99279E-01  9.17982E-01  2.42062E+00 -2.03581E-01 -1.71334E+00
   6.71548E-01 -1.91946E+00 -1.84729E+00 -9.91840E-01  1.63078E+00  2.60946E-01 -9.71798E-01 -6.14885E+00  1.10868E+00  4.14412E+00
  -2.22795E-01  1.46634E+00  6.07834E+00  3.81970E+00  1.92024E+00  6.59570E+00  1.14513E+01  1.70643E+01  2.18199E+01  2.44535E+01
   2.75372E+01  2.40703E+01  2.59515E+01  2.17908E+01  2.13775E+01  1.98609E+01  1.53839E+01  1.21767E+01  9.43699E+00  7.81605E+00
   7.22427E+00  4.54012E+00  3.72189E+00  2.27680E+00  1.94984E+00 -2.44469E-01 -3.33166E-01 -2.09322E-01  4.17208E+00  4.46399E-01
   2.85731E-01 -8.91421E-01 -4.85309E-01 -1.88508E+00  8.43402E-01 -3.65740E+00 -3.33330E-01 -1.70798E+00 -6.41059E-01 -1.14381E+00
  -5.08453E+00 -1.32328E+00 -3.97437E+00 -4.19284E+00  5.19244E-01  2.75389E+00 -5.23338E+00 -1.68928E+00  1.59689E+00 -2.86882E+00
  -1.52932E+00 -1.23222E+00 -1.80526E+00 -4.00196E+00 -4.09374E+00  1.72936E+00 -2.33750E+00 -6.41668E-01  7.57183E-01 -2.65694E+00
  -4.39294E-01  3.16227E+00 -1.38521E+00 -2.42556E+00  3.30534E+00  2.97377E+00  5.61652E+00 -1.51271E-02  1.65461E+00  8.89171E-01
   5.24551E+00  3.85679E+00  4.29840E+00  3.73053E+00  8.97786E+00  1.28743E+00  2.43585E+00  3.60771E+00  6.10551E+00  2.35509E+00
   4.62780E+00  1.87743E+00  7.64559E-01 -5.90645E-01 -6.21705E-01  2.54030E+00 -1.78737E-01  5.62455E+00  2.90187E+00  1.69107E+00
   3.63272E+00 -1.29316E+00  3.25741E+00  4.90917E+00  5.15801E+00  4.98560E+00  1.06293E+01  7.65151E+00  1.77031E+00  2.13427E+00
   3.89788E+00  4.95281E+00  1.04357E+01  8.55442E+00  5.66530E+00  4.57688E+00  4.65574E+00  3.15268E+00  3.22005E+00  6.73929E+00
   7.76709E-01  8.38379E+00  1.60928E+00  1.94960E+00  7.50147E-01 -6.21454E-02  4.51016E+00  3.98247E+00 -4.64039E-02 -1.14772E-01
  -1.26961E+00  3.80538E+00  1.58187E-01  2.47307E+00  1.47711E+00 -1.00183E+00  3.73202E+00  4.77831E+00  2.74283E+00 -5.77491E-01
   5.35487E+00  1.07120E+00  2.97330E+00 -2.06538E-01 -1.21132E-01  2.95805E+00  3.39449E-01  4.38238E-01 -2.17287E+00  2.18351E+00
  -1.38956E-02 -2.24821E+00 -3.88779E+00  2.04565E+00 -5.62370E-01 -2.96142E+00  1.17488E+00 -2.25699E+00 -2.46659E-01 -3.93232E+00
  -1.72948E+00  2.07741E+00  3.49750E+00 -4.32554E-01  2.40072E+00 -2.48164E-01 -1.01948E+00  2.69668E+00 -1.59880E-01  3.79415E+00
   2.85272E+00 -2.54086E+00  1.11651E+00  2.44086E+00  4.22726E+00  3.97983E+00  5.22427E-01 -1.85556E+00  2.42057E+00  5.60853E-01
   1.89363E+00  4.31900E-01  3.36086E+00  2.55427E+00  1.80829E+00  1.23336E+00  1.81147E+00  1.89631E+00  1.58484E+00 -6.78092E-02
   2.24865E+00  3.87614E+00 -2.03405E+00  2.16291E-01  2.73664E+00  2.22566E+00 -1.14400E+00  3.96100E+00 -2.20800E-01  7.21124E-01
   5.65818E-01  4.59284E-01  4.18530E+00  2.19579E+00  2.00843E+00  4.16080E+00  9.53927E-01 -1.15997E+00  3.74346E+00  1.49797E+00
  -2.56215E-01  1.32345E+00  2.84895E-01 -1.62806E+00  4.33798E-01  8.32931E-01  2.78479E+00 -1.13931E-01  3.37412E+00 -2.93792E-01
   2.76696E+00  1.91669E+00  4.24887E+00  4.79114E+00 -4.18881E-01 -2.44223E+00 -1.33561E+00  1.54917E+00 -2.82644E+00  4.91528E-01
   1.34177E+00  1.30580E+00  2.73977E+00  4.59263E-01 -1.02336E-01  2.54871E+00 -1.37781E+00  1.37828E+00 -1.33901E+00  8.51961E-01
  -4.29595E-01  3.72630E+00  2.84706E+00  1.95751E+00 -1.74222E+00  4.12032E+00  3.74462E+00  5.60974E-01  3.97700E+00  2.09749E+00
   4.63201E+00 -1.25816E+00  1.79947E+00  3.21912E+00  1.93903E+00  1.57982E+00  7.77420E-01  1.65280E+00
 NY points of the fit to the data follow
  -7.40464E+00 -7.16678E+00 -6.86156E+00 -6.48245E+00 -6.08816E+00 -5.75954E+00 -5.54936E+00 -5.47847E+00 -5.54413E+00 -5.72240E+00
  -5.97143E+00 -6.24594E+00 -6.51348E+00 -6.75916E+00 -6.96994E+00 -7.13537E+00 -7.24644E+00 -7.31013E+00 -7.31506E+00 -7.22492E+00
  -6.99087E+00 -6.72682E+00 -6.61907E+00 -6.62184E+00 -6.69153E+00 -6.79900E+00 -6.91445E+00 -6.99294E+00 -7.00089E+00 -6.92732E+00
  -6.79313E+00 -6.63342E+00 -6.47895E+00 -6.35087E+00 -6.26288E+00 -6.20957E+00 -6.17285E+00 -6.13315E+00 -6.10141E+00 -6.11241E+00
  -6.17330E+00 -6.26321E+00 -6.36196E+00 -6.45622E+00 -6.52653E+00 -6.55800E+00 -6.53965E+00 -6.49043E+00 -6.44464E+00 -6.41582E+00
  -6.40631E+00 -6.40540E+00 -6.40746E+00 -6.41842E+00 -6.43829E+00 -6.46385E+00 -6.49391E+00 -6.52217E+00 -6.54779E+00 -6.57306E+00
  -6.59690E+00 -6.61256E+00 -6.62083E+00 -6.62438E+00 -6.62332E+00 -6.61671E+00 -6.60453E+00 -6.58762E+00 -6.56719E+00 -6.54272E+00
  -6.51428E+00 -6.48184E+00 -6.44709E+00 -6.41222E+00 -6.38006E+00 -6.34914E+00 -6.30838E+00 -6.24971E+00 -6.17413E+00 -6.07746E+00
  -5.95335E+00 -5.79911E+00 -5.62471E+00 -5.44857E+00 -5.29187E+00 -5.17195E+00 -5.09899E+00 -5.07247E+00 -5.08649E+00 -5.13169E+00
  -5.19318E+00 -5.23540E+00 -5.16500E+00 -4.89713E+00 -4.42240E+00 -3.73226E+00 -2.77610E+00 -1.51616E+00  4.31841E-03  1.62309E+00
   3.12043E+00  4.30492E+00  5.04235E+00  5.27727E+00  5.03093E+00  4.38002E+00  3.42990E+00  2.29256E+00  1.06663E+00 -1.76087E-01
  -1.39280E+00 -2.55385E+00 -3.61348E+00 -4.46616E+00 -4.96378E+00 -5.10482E+00 -4.97203E+00 -4.58934E+00 -4.00748E+00 -3.22123E+00
  -2.17162E+00 -8.30116E-01  7.34027E-01  2.35800E+00  3.83899E+00  4.99139E+00  5.68637E+00  5.87541E+00  5.58630E+00  4.90119E+00
   3.92727E+00  2.77294E+00  1.53185E+00  2.72570E-01 -9.64525E-01 -2.15133E+00 -3.23756E+00 -4.11009E+00 -4.60144E+00 -4.74777E+00
  -4.78892E+00 -4.79945E+00 -4.79503E+00 -4.78324E+00 -4.77019E+00 -4.75924E+00 -4.75316E+00 -4.75390E+00 -4.75999E+00 -4.77054E+00
  -4.78464E+00 -4.80353E+00 -4.83147E+00 -4.86811E+00 -4.91579E+00 -4.97440E+00 -5.04331E+00 -5.12229E+00 -5.20041E+00 -5.26394E+00
  -5.30341E+00 -5.31637E+00 -5.31041E+00 -5.29823E+00 -5.29331E+00 -5.30651E+00 -5.34710E+00 -5.42003E+00 -5.51384E+00 -5.61710E+00
  -5.72681E+00 -5.84570E+00 -5.97616E+00 -6.11152E+00 -6.23501E+00 -6.32359E+00 -6.36924E+00 -6.37204E+00 -6.34482E+00 -6.29496E+00
  -6.22175E+00 -6.12747E+00 -6.01254E+00 -5.87194E+00 -5.69751E+00 -5.48359E+00 -5.23478E+00 -4.96429E+00 -4.69584E+00 -4.44518E+00
  -4.20010E+00 -3.96239E+00 -3.74692E+00 -3.56973E+00 -3.42465E+00 -3.28498E+00 -3.13893E+00 -2.98606E+00 -2.83285E+00 -2.68912E+00
  -2.56663E+00 -2.46443E+00 -2.40406E+00 -2.42383E+00 -2.55123E+00 -2.77902E+00 -3.06474E+00 -3.36140E+00 -3.62516E+00 -3.80562E+00
  -3.87513E+00 -3.83849E+00 -3.72488E+00 -3.57595E+00 -3.42743E+00 -3.30850E+00 -3.23956E+00 -3.22968E+00 -3.27002E+00 -3.33226E+00
  -3.38137E+00 -3.39761E+00 -3.37977E+00 -3.30475E+00 -3.17192E+00 -3.01632E+00 -2.85414E+00 -2.66879E+00 -2.45001E+00 -2.22862E+00
  -2.03096E+00 -1.85643E+00 -1.70411E+00 -1.58796E+00 -1.51439E+00 -1.46261E+00 -1.40117E+00 -1.32567E+00 -1.25309E+00 -1.19055E+00
  -1.14232E+00 -1.10870E+00 -1.08588E+00 -1.06633E+00 -1.03706E+00 -9.84913E-01 -9.06087E-01 -8.02477E-01 -6.72322E-01 -4.74010E-01
  -4.84764E-02  8.67719E-01  2.25648E+00  4.08530E+00  6.45684E+00  9.46509E+00  1.30393E+01  1.68663E+01  2.04822E+01  2.34242E+01
   2.53386E+01  2.60442E+01  2.55528E+01  2.40323E+01  2.17375E+01  1.89439E+01  1.59004E+01  1.27928E+01  9.72957E+00  6.77476E+00
   4.01253E+00  1.65251E+00  7.69530E-02 -5.53391E-01 -7.78006E-01 -8.98389E-01 -9.77459E-01 -1.03954E+00 -1.09637E+00 -1.14750E+00
  -1.19354E+00 -1.23552E+00 -1.27382E+00 -1.30710E+00 -1.33460E+00 -1.35330E+00 -1.36063E+00 -1.35696E+00 -1.34332E+00 -1.32110E+00
  -1.29274E+00 -1.25981E+00 -1.22342E+00 -1.18450E+00 -1.14277E+00 -1.09801E+00 -1.05017E+00 -9.98521E-01 -9.42645E-01 -8.82982E-01
  -8.20372E-01 -7.55220E-01 -6.88061E-01 -6.19639E-01 -5.50569E-01 -4.81074E-01 -4.11580E-01 -3.41915E-01 -2.71630E-01 -1.99810E-01
  -1.25238E-01 -4.61255E-02  3.98154E-02  1.35845E-01  2.46504E-01  3.78890E-01  5.45253E-01  7.71753E-01  1.08432E+00  1.44162E+00
   1.81295E+00  2.19418E+00  2.55847E+00  2.83149E+00  2.90836E+00  2.70511E+00  2.24049E+00  1.56704E+00  7.45646E-01 -1.14344E-01
  -8.64385E-01 -1.36389E+00 -1.52889E+00 -1.35032E+00 -8.83323E-01 -2.21487E-01  5.41272E-01  1.35006E+00  2.17681E+00  2.99917E+00
   3.77264E+00  4.37320E+00  4.78245E+00  5.01291E+00  5.05077E+00  4.90781E+00  4.62701E+00  4.30026E+00  4.10307E+00  4.09296E+00
   4.24768E+00  4.53990E+00  4.91298E+00  5.28591E+00  5.57139E+00  5.69878E+00  5.63540E+00  5.39629E+00  5.03776E+00  4.62511E+00
   4.16600E+00  3.65216E+00  3.13217E+00  2.63839E+00  2.17814E+00  1.74849E+00  1.36401E+00  1.08089E+00  9.08395E-01  8.00480E-01
   7.30478E-01  6.84287E-01  6.53589E-01  6.33532E-01  6.21273E-01  6.15331E-01  6.14922E-01  6.19798E-01  6.29910E-01  6.45454E-01
   6.66654E-01  6.93875E-01  7.27436E-01  7.67742E-01  8.15121E-01  8.69966E-01  9.32568E-01  1.00324E+00  1.08214E+00  1.16937E+00
   1.26483E+00  1.36831E+00  1.47934E+00  1.59726E+00  1.72107E+00  1.84958E+00  1.98123E+00  2.11424E+00  2.24657E+00  2.37601E+00
   2.50016E+00  2.61663E+00  2.72298E+00  2.81700E+00  2.89663E+00  2.96019E+00  3.00634E+00  3.03427E+00  3.04360E+00  3.03456E+00
   3.00783E+00  2.96460E+00  2.90643E+00  2.83526E+00  2.75323E+00  2.66271E+00  2.56603E+00  2.46554E+00  2.36340E+00  2.26165E+00
   2.16204E+00  2.06608E+00  1.97495E+00  1.88960E+00  1.81061E+00  1.73843E+00  1.67317E+00  1.61487E+00  1.56332E+00  1.51825E+00
   1.47927E+00  1.44599E+00  1.41794E+00  1.39469E+00  1.37577E+00  1.36075E+00  1.34921E+00  1.34081E+00  1.33517E+00  1.33202E+00
   1.33105E+00  1.33203E+00  1.33471E+00  1.33895E+00  1.34455E+00  1.35138E+00  1.35928E+00  1.36817E+00  1.37791E+00  1.38847E+00
   1.39972E+00  1.41163E+00  1.42410E+00  1.43712E+00  1.45060E+00  1.46455E+00  1.47889E+00  1.49361E+00  1.50865E+00  1.52401E+00
   1.53966E+00  1.55559E+00  1.57176E+00  1.58817E+00  1.60477E+00  1.62159E+00  1.63858E+00  1.65576E+00  1.67309E+00  1.69058E+00
   1.70819E+00  1.72596E+00  1.74384E+00  1.76186E+00  1.77997E+00  1.79820E+00  1.81651E+00  1.83493E+00  1.85344E+00  1.87204E+00
   1.89071E+00  1.90946E+00  1.92828E+00  1.94718E+00  1.96614E+00  1.98518E+00  2.00426E+00  2.02342E+00  2.04262E+00  2.06190E+00
   2.08122E+00  2.10061E+00  2.12004E+00  2.13953E+00  2.15908E+00  2.17869E+00  2.19835E+00  2.21807E+00
 NY background values follow
    -8.228E+00   -8.207E+00   -8.187E+00   -8.166E+00   -8.145E+00   -8.124E+00   -8.103E+00   -8.082E+00   -8.061E+00   -8.041E+00
    -8.020E+00   -7.999E+00   -7.978E+00   -7.957E+00   -7.936E+00   -7.915E+00   -7.895E+00   -7.874E+00   -7.853E+00   -7.832E+00
    -7.811E+00   -7.790E+00   -7.769E+00   -7.749E+00   -7.728E+00   -7.707E+00   -7.686E+00   -7.665E+00   -7.644E+00   -7.624E+00
    -7.603E+00   -7.582E+00   -7.561E+00   -7.540E+00   -7.519E+00   -7.498E+00   -7.478E+00   -7.457E+00   -7.436E+00   -7.415E+00
    -7.394E+00   -7.373E+00   -7.352E+00   -7.332E+00   -7.311E+00   -7.290E+00   -7.269E+00   -7.248E+00   -7.227E+00   -7.206E+00
    -7.186E+00   -7.165E+00   -7.144E+00   -7.123E+00   -7.102E+00   -7.081E+00   -7.060E+00   -7.040E+00   -7.019E+00   -6.998E+00
    -6.977E+00   -6.956E+00   -6.935E+00   -6.914E+00   -6.894E+00   -6.873E+00   -6.852E+00   -6.831E+00   -6.810E+00   -6.789E+00
    -6.768E+00   -6.748E+00   -6.727E+00   -6.706E+00   -6.685E+00   -6.664E+00   -6.643E+00   -6.622E+00   -6.602E+00   -6.581E+00
    -6.560E+00   -6.539E+00   -6.518E+00   -6.497E+00   -6.476E+00   -6.456E+00   -6.435E+00   -6.414E+00   -6.393E+00   -6.372E+00
    -6.351E+00   -6.330E+00   -6.310E+00   -6.289E+00   -6.268E+00   -6.247E+00   -6.226E+00   -6.205E+00   -6.184E+00   -6.164E+00
    -6.143E+00   -6.122E+00   -6.101E+00   -6.080E+00   -6.059E+00   -6.038E+00   -6.018E+00   -5.997E+00   -5.976E+00   -5.955E+00
    -5.934E+00   -5.913E+00   -5.893E+00   -5.872E+00   -5.851E+00   -5.830E+00   -5.809E+00   -5.788E+00   -5.767E+00   -5.747E+00
    -5.726E+00   -5.705E+00   -5.684E+00   -5.663E+00   -5.642E+00   -5.621E+00   -5.601E+00   -5.580E+00   -5.559E+00   -5.538E+00
    -5.517E+00   -5.496E+00   -5.475E+00   -5.455E+00   -5.434E+00   -5.413E+00   -5.392E+00   -5.371E+00   -5.350E+00   -5.329E+00
    -5.309E+00   -5.288E+00   -5.267E+00   -5.246E+00   -5.225E+00   -5.204E+00   -5.183E+00   -5.163E+00   -5.142E+00   -5.121E+00
    -5.100E+00   -5.079E+00   -5.058E+00   -5.037E+00   -5.017E+00   -4.996E+00   -4.975E+00   -4.954E+00   -4.933E+00   -4.912E+00
    -4.891E+00   -4.871E+00   -4.850E+00   -4.829E+00   -4.808E+00   -4.787E+00   -4.766E+00   -4.746E+00   -4.725E+00   -4.704E+00
    -4.683E+00   -4.662E+00   -4.641E+00   -4.620E+00   -4.600E+00   -4.579E+00   -4.558E+00   -4.537E+00   -4.516E+00   -4.495E+00
    -4.474E+00   -4.454E+00   -4.433E+00   -4.412E+00   -4.391E+00   -4.370E+00   -4.349E+00   -4.328E+00   -4.308E+00   -4.287E+00
    -4.266E+00   -4.245E+00   -4.224E+00   -4.203E+00   -4.182E+00   -4.162E+00   -4.141E+00   -4.120E+00   -4.099E+00   -4.078E+00
    -4.057E+00   -4.037E+00   -4.016E+00   -3.995E+00   -3.974E+00   -3.953E+00   -3.932E+00   -3.911E+00   -3.891E+00   -3.870E+00
    -3.849E+00   -3.828E+00   -3.807E+00   -3.786E+00   -3.765E+00   -3.745E+00   -3.724E+00   -3.703E+00   -3.682E+00   -3.661E+00
    -3.640E+00   -3.619E+00   -3.599E+00   -3.578E+00   -3.557E+00   -3.536E+00   -3.515E+00   -3.494E+00   -3.473E+00   -3.453E+00
    -3.432E+00   -3.411E+00   -3.390E+00   -3.369E+00   -3.348E+00   -3.328E+00   -3.307E+00   -3.286E+00   -3.265E+00   -3.244E+00
    -3.223E+00   -3.202E+00   -3.182E+00   -3.161E+00   -3.140E+00   -3.119E+00   -3.098E+00   -3.077E+00   -3.056E+00   -3.036E+00
    -3.015E+00   -2.994E+00   -2.973E+00   -2.952E+00   -2.931E+00   -2.910E+00   -2.890E+00   -2.869E+00   -2.848E+00   -2.827E+00
    -2.806E+00   -2.785E+00   -2.765E+00   -2.744E+00   -2.723E+00   -2.702E+00   -2.681E+00   -2.660E+00   -2.639E+00   -2.619E+00
    -2.598E+00   -2.577E+00   -2.556E+00   -2.535E+00   -2.514E+00   -2.493E+00   -2.473E+00   -2.452E+00   -2.431E+00   -2.410E+00
    -2.389E+00   -2.368E+00   -2.348E+00   -2.327E+00   -2.306E+00   -2.285E+00   -2.264E+00   -2.243E+00   -2.222E+00   -2.202E+00
    -2.181E+00   -2.160E+00   -2.139E+00   -2.118E+00   -2.097E+00   -2.076E+00   -2.056E+00   -2.035E+00   -2.014E+00   -1.993E+00
    -1.972E+00   -1.951E+00   -1.931E+00   -1.910E+00   -1.889E+00   -1.868E+00   -1.847E+00   -1.826E+00   -1.805E+00   -1.785E+00
    -1.764E+00   -1.743E+00   -1.722E+00   -1.701E+00   -1.680E+00   -1.660E+00   -1.639E+00   -1.618E+00   -1.597E+00   -1.576E+00
    -1.555E+00   -1.534E+00   -1.514E+00   -1.493E+00   -1.472E+00   -1.451E+00   -1.430E+00   -1.409E+00   -1.388E+00   -1.368E+00
    -1.347E+00   -1.326E+00   -1.305E+00   -1.284E+00   -1.263E+00   -1.243E+00   -1.222E+00   -1.201E+00   -1.180E+00   -1.159E+00
    -1.138E+00   -1.117E+00   -1.097E+00   -1.076E+00   -1.055E+00   -1.034E+00   -1.013E+00   -9.924E-01   -9.715E-01   -9.507E-01
    -9.299E-01   -9.090E-01   -8.882E-01   -8.673E-01   -8.465E-01   -8.256E-01   -8.048E-01   -7.839E-01   -7.631E-01   -7.422E-01
    -7.214E-01   -7.005E-01   -6.797E-01   -6.588E-01   -6.380E-01   -6.171E-01   -5.963E-01   -5.755E-01   -5.546E-01   -5.338E-01
    -5.129E-01   -4.921E-01   -4.712E-01   -4.504E-01   -4.295E-01   -4.087E-01   -3.878E-01   -3.670E-01   -3.461E-01   -3.253E-01
    -3.044E-01   -2.836E-01   -2.628E-01   -2.419E-01   -2.211E-01   -2.002E-01   -1.794E-01   -1.585E-01   -1.377E-01   -1.168E-01
    -9.599E-02   -7.514E-02   -5.429E-02   -3.345E-02   -1.260E-02    8.244E-03    2.909E-02    4.994E-02    7.078E-02    9.163E-02
     1.125E-01    1.333E-01    1.542E-01    1.750E-01    1.959E-01    2.167E-01    2.376E-01    2.584E-01    2.792E-01    3.001E-01
     3.209E-01    3.418E-01    3.626E-01    3.835E-01    4.043E-01    4.252E-01    4.460E-01    4.669E-01    4.877E-01    5.085E-01
     5.294E-01    5.502E-01    5.711E-01    5.919E-01    6.128E-01    6.336E-01    6.545E-01    6.753E-01    6.962E-01    7.170E-01
     7.379E-01    7.587E-01    7.795E-01    8.004E-01    8.212E-01    8.421E-01    8.629E-01    8.838E-01    9.046E-01    9.255E-01
     9.463E-01    9.672E-01    9.880E-01    1.009E+00    1.030E+00    1.051E+00    1.071E+00    1.092E+00    1.113E+00    1.134E+00
     1.155E+00    1.176E+00    1.196E+00    1.217E+00    1.238E+00    1.259E+00    1.280E+00    1.301E+00    1.322E+00    1.342E+00
     1.363E+00    1.384E+00    1.405E+00    1.426E+00    1.447E+00    1.467E+00    1.488E+00    1.509E+00    1.530E+00    1.551E+00
     1.572E+00    1.593E+00    1.613E+00    1.634E+00    1.655E+00    1.676E+00    1.697E+00    1.718E+00    1.738E+00    1.759E+00
     1.780E+00    1.801E+00    1.822E+00    1.843E+00    1.864E+00    1.884E+00    1.905E+00    1.926E+00    1.947E+00    1.968E+00
     1.989E+00    2.009E+00    2.030E+00    2.051E+00    2.072E+00    2.093E+00    2.114E+00    2.135E+00
 Ala      Conc. = 5.02E+02
