 LCModel (Version 6.3-1L) Copyright: S.W. Provencher.          Ref.: Magn. Reson. Med. 30:672-679 (1993).                
 Slice#3 Row#8 Col#4  PD_24_press_1_raw_act
 36 lines in following concentration table = NCONC+1
    Conc.  %SD /Cr+PCr  Metabolite                                         
    0.000 999%   0.000 Ala                                                 
    0.000 999%   0.000 Asp                                                 
  294.176  82%   0.182 Cr                                                  
 1.32E+03  19%   0.818 PCr                                                 
    0.000 999%   0.000 GABA                                                
    0.000 999%   0.000 Glc                                                 
  524.909  45%   0.325 Gln                                                 
 1.42E+03  18%   0.882 Glu                                                 
  492.387   4%   0.305 GPC                                                 
    0.000 999%   0.000 PCh                                                 
  293.065  23%   0.181 GSH                                                 
    0.000 999%   0.000 Ins                                                 
  322.808  37%   0.200 Lac                                                 
 2.04E+03   7%   1.263 NAA                                                 
  197.161  77%   0.122 NAAG                                                
   41.887  60% 2.6E-02 Scyllo                                              
    0.000 999%   0.000 Tau                                                 
    0.000 999%   0.000 -CrCH2                                              
  492.387   4%   0.305 GPC+PCh                                             
 2.24E+03   3%   1.385 NAA+NAAG                                            
 1.62E+03   4%   1.000 Cr+PCr                                              
 1.95E+03  20%   1.207 Glu+Gln                                             
    0.000 999%   0.000 Lip13a                                              
    0.000 999%   0.000 Lip13b                                              
    0.000 999%   0.000 Lip09                                               
 1.22E+03  18%   0.752 MM09                                                
    0.000 999%   0.000 Lip20                                               
 1.79E+03  18%   1.107 MM20                                                
  356.649  19%   0.221 MM12                                                
 1.05E+03  17%   0.653 MM14                                                
  685.264  14%   0.424 MM17                                                
    0.000 999%   0.000 Lip13a+Lip13b                                       
 1.41E+03  17%   0.873 MM14+Lip13a+Lip13b+MM12                             
 1.22E+03  18%   0.752 MM09+Lip09                                          
 1.79E+03  18%   1.107 MM20+Lip20                                          
   6 lines in following misc. output table
  FWHM = 0.061 ppm    S/N =  11                                            
  Data shift = 0.023 ppm                                                   
  Ph: -17 deg      -7.2 deg/ppm                                            
  alphaB,S = 3.1E-01,   9.9E+01                                            
   14 spline knots.   Ns = 8(1)                                            
  (14) 3 infls.   ( 9) 1 extrs.                                            
  498 points on ppm-axis = NY
      4.000000     3.992357     3.984714     3.977070     3.969427     3.961784     3.954141     3.946497     3.938854     3.931211
      3.923568     3.915925     3.908281     3.900638     3.892995     3.885352     3.877708     3.870065     3.862422     3.854779
      3.847136     3.839492     3.831849     3.824206     3.816563     3.808919     3.801276     3.793633     3.785990     3.778347
      3.770703     3.763060     3.755417     3.747774     3.740130     3.732487     3.724844     3.717201     3.709558     3.701914
      3.694271     3.686628     3.678985     3.671341     3.663698     3.656055     3.648412     3.640769     3.633125     3.625482
      3.617839     3.610196     3.602552     3.594909     3.587266     3.579623     3.571980     3.564336     3.556693     3.549050
      3.541407     3.533763     3.526120     3.518477     3.510834     3.503191     3.495547     3.487904     3.480261     3.472618
      3.464974     3.457331     3.449688     3.442045     3.434402     3.426758     3.419115     3.411472     3.403829     3.396185
      3.388542     3.380899     3.373256     3.365613     3.357969     3.350326     3.342683     3.335040     3.327396     3.319753
      3.312110     3.304467     3.296824     3.289180     3.281537     3.273894     3.266251     3.258607     3.250964     3.243321
      3.235678     3.228034     3.220391     3.212748     3.205105     3.197462     3.189818     3.182175     3.174532     3.166889
      3.159245     3.151602     3.143959     3.136316     3.128673     3.121029     3.113386     3.105743     3.098100     3.090456
      3.082813     3.075170     3.067527     3.059884     3.052240     3.044597     3.036954     3.029311     3.021667     3.014024
      3.006381     2.998738     2.991095     2.983451     2.975808     2.968165     2.960522     2.952878     2.945235     2.937592
      2.929949     2.922306     2.914662     2.907019     2.899376     2.891733     2.884089     2.876446     2.868803     2.861160
      2.853517     2.845873     2.838230     2.830587     2.822944     2.815300     2.807657     2.800014     2.792371     2.784728
      2.777084     2.769441     2.761798     2.754155     2.746511     2.738868     2.731225     2.723582     2.715939     2.708295
      2.700652     2.693009     2.685366     2.677722     2.670079     2.662436     2.654793     2.647150     2.639506     2.631863
      2.624220     2.616577     2.608933     2.601290     2.593647     2.586004     2.578361     2.570717     2.563074     2.555431
      2.547788     2.540144     2.532501     2.524858     2.517215     2.509572     2.501928     2.494285     2.486642     2.478999
      2.471355     2.463712     2.456069     2.448426     2.440783     2.433139     2.425496     2.417853     2.410210     2.402566
      2.394923     2.387280     2.379637     2.371994     2.364350     2.356707     2.349064     2.341421     2.333777     2.326134
      2.318491     2.310848     2.303205     2.295561     2.287918     2.280275     2.272632     2.264988     2.257345     2.249702
      2.242059     2.234416     2.226772     2.219129     2.211486     2.203843     2.196199     2.188556     2.180913     2.173270
      2.165627     2.157983     2.150340     2.142697     2.135054     2.127410     2.119767     2.112124     2.104481     2.096838
      2.089194     2.081551     2.073908     2.066265     2.058621     2.050978     2.043335     2.035692     2.028049     2.020405
      2.012762     2.005119     1.997476     1.989833     1.982190     1.974546     1.966903     1.959260     1.951617     1.943974
      1.936331     1.928688     1.921045     1.913402     1.905759     1.898115     1.890472     1.882829     1.875186     1.867543
      1.859900     1.852257     1.844614     1.836971     1.829327     1.821684     1.814041     1.806398     1.798755     1.791112
      1.783469     1.775826     1.768183     1.760540     1.752896     1.745253     1.737610     1.729967     1.722324     1.714681
      1.707038     1.699395     1.691752     1.684108     1.676465     1.668822     1.661179     1.653536     1.645893     1.638250
      1.630607     1.622964     1.615321     1.607677     1.600034     1.592391     1.584748     1.577105     1.569462     1.561819
      1.554176     1.546533     1.538890     1.531246     1.523603     1.515960     1.508317     1.500674     1.493031     1.485388
      1.477745     1.470102     1.462458     1.454815     1.447172     1.439529     1.431886     1.424243     1.416600     1.408957
      1.401314     1.393671     1.386027     1.378384     1.370741     1.363098     1.355455     1.347812     1.340169     1.332526
      1.324883     1.317240     1.309596     1.301953     1.294310     1.286667     1.279024     1.271381     1.263738     1.256095
      1.248452     1.240808     1.233165     1.225522     1.217879     1.210236     1.202593     1.194950     1.187307     1.179664
      1.172021     1.164377     1.156734     1.149091     1.141448     1.133805     1.126162     1.118519     1.110876     1.103233
      1.095590     1.087946     1.080303     1.072660     1.065017     1.057374     1.049731     1.042088     1.034445     1.026802
      1.019158     1.011515     1.003872     0.996229     0.988586     0.980943     0.973300     0.965657     0.958014     0.950371
      0.942727     0.935084     0.927441     0.919798     0.912155     0.904512     0.896869     0.889226     0.881583     0.873940
      0.866296     0.858653     0.851010     0.843367     0.835724     0.828081     0.820438     0.812795     0.805152     0.797508
      0.789865     0.782222     0.774579     0.766936     0.759293     0.751650     0.744007     0.736364     0.728721     0.721077
      0.713434     0.705791     0.698148     0.690505     0.682862     0.675219     0.667576     0.659933     0.652290     0.644646
      0.637003     0.629360     0.621717     0.614074     0.606431     0.598788     0.591145     0.583502     0.575858     0.568215
      0.560572     0.552929     0.545286     0.537643     0.530000     0.522357     0.514714     0.507071     0.499427     0.491784
      0.484141     0.476498     0.468855     0.461212     0.453569     0.445925     0.438282     0.430639     0.422996     0.415353
      0.407710     0.400067     0.392424     0.384780     0.377137     0.369494     0.361851     0.354208     0.346565     0.338922
      0.331278     0.323635     0.315992     0.308349     0.300706     0.293063     0.285420     0.277777     0.270133     0.262490
      0.254847     0.247204     0.239561     0.231918     0.224275     0.216631     0.208988     0.201345
 NY phased data points follow
   9.35423E+01  9.69302E+01  9.50755E+01  9.55186E+01  9.89382E+01  1.04444E+02  1.03419E+02  1.13228E+02  1.13682E+02  1.18905E+02
   1.15344E+02  1.15365E+02  1.10845E+02  1.07936E+02  1.01265E+02  9.59997E+01  8.76152E+01  8.58060E+01  7.90084E+01  8.23818E+01
   7.71424E+01  7.90727E+01  7.01429E+01  7.69240E+01  7.65037E+01  6.94269E+01  7.44792E+01  7.22410E+01  7.43999E+01  7.58182E+01
   7.68689E+01  7.50842E+01  7.47949E+01  7.34826E+01  6.73837E+01  6.61289E+01  6.43647E+01  6.47477E+01  6.24977E+01  6.46448E+01
   5.95266E+01  6.38633E+01  6.04140E+01  6.82591E+01  6.22884E+01  6.02740E+01  6.07123E+01  6.33322E+01  6.29445E+01  6.05867E+01
   5.85684E+01  6.29543E+01  5.69747E+01  5.68223E+01  5.41526E+01  5.55777E+01  5.42208E+01  5.23714E+01  5.06305E+01  5.08534E+01
   4.59149E+01  4.56477E+01  4.69191E+01  4.86839E+01  4.20483E+01  4.24548E+01  4.10887E+01  3.88664E+01  3.63923E+01  4.08413E+01
   3.92092E+01  3.88391E+01  3.64050E+01  3.76010E+01  3.98405E+01  3.98045E+01  4.00337E+01  3.88521E+01  3.89035E+01  3.78853E+01
   3.83210E+01  4.03838E+01  3.72993E+01  3.70052E+01  3.85227E+01  3.95136E+01  4.16253E+01  3.66540E+01  4.00486E+01  3.69765E+01
   3.55570E+01  4.08233E+01  3.15813E+01  4.12566E+01  3.43431E+01  3.68549E+01  3.68343E+01  3.88528E+01  4.53967E+01  5.46971E+01
   6.39101E+01  7.03939E+01  7.20814E+01  7.43409E+01  7.27861E+01  6.64653E+01  6.32322E+01  5.52132E+01  4.94438E+01  4.30734E+01
   3.93440E+01  3.72728E+01  3.70327E+01  3.17290E+01  3.39866E+01  3.25808E+01  3.40835E+01  3.35346E+01  3.90059E+01  3.83243E+01
   3.47360E+01  3.66986E+01  4.28290E+01  4.77580E+01  5.97397E+01  7.32553E+01  7.39326E+01  7.25180E+01  7.18262E+01  6.68524E+01
   6.52289E+01  5.65294E+01  4.89715E+01  4.47611E+01  3.62781E+01  3.92123E+01  3.18138E+01  3.18106E+01  3.05100E+01  3.25757E+01
   3.11459E+01  2.73260E+01  2.69595E+01  2.95923E+01  2.60352E+01  2.59610E+01  2.67554E+01  2.87283E+01  2.79125E+01  2.75127E+01
   2.65330E+01  2.43961E+01  2.58356E+01  2.38302E+01  2.20974E+01  1.97434E+01  2.24786E+01  2.65015E+01  2.39325E+01  2.19881E+01
   2.15905E+01  1.90854E+01  2.31317E+01  1.80383E+01  1.86552E+01  1.85033E+01  2.14173E+01  2.24845E+01  1.71848E+01  1.67698E+01
   1.42153E+01  1.45458E+01  1.21787E+01  1.51675E+01  1.00377E+01  1.59963E+01  1.49708E+01  1.33915E+01  1.51087E+01  1.38909E+01
   1.40617E+01  1.32213E+01  1.79653E+01  1.26819E+01  1.69520E+01  1.27001E+01  1.61044E+01  1.97760E+01  2.04355E+01  2.23576E+01
   2.40672E+01  2.80985E+01  2.74836E+01  2.82692E+01  2.68678E+01  3.00944E+01  2.42925E+01  2.33311E+01  1.94052E+01  2.76693E+01
   2.22346E+01  2.40230E+01  2.39652E+01  2.30965E+01  2.49359E+01  2.17887E+01  1.86528E+01  2.09683E+01  2.03720E+01  2.39629E+01
   2.14675E+01  1.99767E+01  2.70251E+01  2.70414E+01  3.20904E+01  3.44871E+01  3.35570E+01  3.16355E+01  3.00496E+01  2.80163E+01
   1.90506E+01  1.97835E+01  2.30789E+01  2.41419E+01  2.76550E+01  2.53605E+01  2.73784E+01  2.79828E+01  2.91699E+01  2.71801E+01
   3.18716E+01  2.99604E+01  3.08675E+01  3.35041E+01  2.49044E+01  2.72254E+01  2.89540E+01  2.88890E+01  2.88838E+01  2.94669E+01
   2.57602E+01  2.78840E+01  2.68138E+01  2.60129E+01  3.07218E+01  3.25581E+01  2.96988E+01  3.51560E+01  3.10301E+01  3.30952E+01
   3.64043E+01  4.20856E+01  4.13037E+01  4.81287E+01  4.63767E+01  5.76114E+01  6.76112E+01  8.64990E+01  9.37865E+01  9.84131E+01
   9.46453E+01  9.23834E+01  8.52983E+01  7.80758E+01  6.21001E+01  5.26929E+01  4.45663E+01  4.08703E+01  3.65423E+01  3.85974E+01
   3.19338E+01  2.91723E+01  3.34154E+01  2.58230E+01  2.81483E+01  2.81252E+01  2.98111E+01  3.19180E+01  3.18399E+01  3.52217E+01
   2.86555E+01  3.00672E+01  3.30084E+01  2.79124E+01  3.12562E+01  3.10346E+01  2.52847E+01  2.78146E+01  2.60295E+01  3.17231E+01
   2.68951E+01  3.16210E+01  3.11915E+01  2.95587E+01  3.22113E+01  3.20901E+01  3.59634E+01  3.41975E+01  3.22420E+01  2.90345E+01
   3.80879E+01  3.22530E+01  3.61532E+01  3.88840E+01  2.93369E+01  3.76391E+01  3.05922E+01  3.76849E+01  3.58951E+01  3.09316E+01
   3.47488E+01  3.16904E+01  3.39401E+01  3.21653E+01  3.19094E+01  2.90556E+01  2.92140E+01  3.27016E+01  2.84321E+01  2.60236E+01
   2.60455E+01  3.08211E+01  2.18134E+01  2.35222E+01  2.60860E+01  2.59267E+01  2.41806E+01  2.65627E+01  2.35856E+01  2.01845E+01
   1.73661E+01  2.42400E+01  2.18398E+01  2.33688E+01  2.24750E+01  1.96003E+01  2.22186E+01  2.28468E+01  1.86198E+01  1.73699E+01
   1.13313E+01  1.83326E+01  1.39649E+01  9.66573E+00  1.04435E+01  8.20480E+00  1.08244E+01  1.14278E+01  6.65495E+00  3.45027E+00
   8.51224E-01  9.35474E-01  2.98593E+00  2.51379E+00  3.07253E+00  4.36125E+00  6.41152E+00  6.76041E+00  3.87815E+00  6.15392E+00
   7.54924E+00  6.89566E+00  6.48619E+00  3.65868E+00  2.26868E+00  1.05654E+00  3.84797E+00 -2.07450E+00 -1.56871E+00 -1.77229E+00
  -3.82131E+00 -1.03186E+00  1.25962E-01  1.60824E+00 -5.14529E-01 -4.86692E-01  1.20972E+00  1.76806E+00  1.27315E+00  1.01423E+00
   1.38807E+00 -1.87032E+00 -4.30730E+00 -2.19415E+00 -3.22814E+00 -1.96673E+00 -4.15166E+00 -6.91929E-01 -4.37757E+00 -1.49546E+00
  -2.30869E+00  5.14297E-01  4.13351E-01 -2.66910E+00  6.56703E-01  1.79780E+00  9.90928E-01  1.54193E+00  1.29850E+00  6.96690E-01
  -1.81466E+00  1.05704E+00 -2.16501E+00  3.23341E-01 -8.32273E-01 -5.93328E-01 -2.00246E+00 -2.70957E+00  3.83318E-02 -1.32812E+00
   4.63634E-01  6.21595E-01  2.25552E-01  6.62406E-01 -2.36000E-01 -9.97808E-01 -8.07663E-01  4.63750E-01 -1.58253E+00 -6.56614E-01
  -1.59866E+00 -3.42181E+00 -6.52485E+00  1.11226E+00 -7.31614E-01 -2.10828E+00 -3.03791E+00 -1.35663E+00 -5.70680E+00 -1.54093E+00
  -5.23193E-01 -9.13240E-01 -1.92795E+00 -1.90402E+00 -3.00198E-01 -1.30660E+00 -2.81598E+00  2.36725E+00 -3.44950E+00 -5.03642E+00
  -1.77124E-01  1.52378E+00 -2.44739E+00  1.12395E-01 -1.50716E+00  2.50902E+00  3.64952E+00  1.12352E+00  1.07639E+00 -3.60188E+00
  -5.09802E+00 -9.62768E-01 -2.24965E+00 -1.93386E+00 -3.71030E+00  4.86996E-02 -4.21621E+00 -1.90298E+00 -4.32351E-01  3.18925E+00
  -2.24872E+00 -1.50807E+00 -3.36260E+00 -2.21578E+00 -1.44673E+00  7.69191E-01 -2.47065E+00 -2.55003E+00  1.32717E+00  9.34204E-01
  -2.07800E+00 -3.68553E+00 -3.48746E+00 -3.17026E+00 -1.82803E+00  1.90910E+00  3.20222E+00  2.54564E-01  2.66321E+00 -9.41095E-01
  -5.13942E+00 -1.90441E+00 -1.96398E+00  2.34285E-01 -2.07621E-01 -7.17802E-01 -8.27658E-01 -2.19184E+00 -3.84319E+00 -1.58766E+00
  -1.33860E+00 -5.84887E-01  9.84184E-01  1.07211E+00 -3.56358E+00  1.06026E+00  7.27979E-01  3.86813E-01
 NY points of the fit to the data follow
   9.14999E+01  9.17232E+01  9.27386E+01  9.41098E+01  9.65105E+01  1.00664E+02  1.06284E+02  1.11856E+02  1.15628E+02  1.16931E+02
   1.16055E+02  1.13546E+02  1.09691E+02  1.04669E+02  9.90865E+01  9.38720E+01  8.96371E+01  8.63794E+01  8.36040E+01  8.12333E+01
   7.94263E+01  7.79277E+01  7.67570E+01  7.56881E+01  7.45583E+01  7.36977E+01  7.35400E+01  7.41336E+01  7.50189E+01  7.57315E+01
   7.60243E+01  7.57702E+01  7.49103E+01  7.32974E+01  7.10891E+01  6.88054E+01  6.68860E+01  6.54746E+01  6.44572E+01  6.37082E+01
   6.32054E+01  6.28860E+01  6.25819E+01  6.21379E+01  6.14844E+01  6.07089E+01  5.99056E+01  5.91662E+01  5.84621E+01  5.77081E+01
   5.69371E+01  5.61499E+01  5.53470E+01  5.45495E+01  5.37227E+01  5.28090E+01  5.18828E+01  5.10401E+01  5.02497E+01  4.94611E+01
   4.87040E+01  4.80063E+01  4.73593E+01  4.67487E+01  4.61586E+01  4.55904E+01  4.50462E+01  4.45204E+01  4.40095E+01  4.35105E+01
   4.30236E+01  4.25492E+01  4.20871E+01  4.16363E+01  4.11965E+01  4.07685E+01  4.03551E+01  3.99685E+01  3.96561E+01  3.93974E+01
   3.91621E+01  3.90579E+01  3.91461E+01  3.93360E+01  3.94413E+01  3.93358E+01  3.90349E+01  3.86114E+01  3.81054E+01  3.75141E+01
   3.68575E+01  3.62268E+01  3.57294E+01  3.54380E+01  3.55288E+01  3.67636E+01  3.88270E+01  4.12654E+01  4.58474E+01  5.35667E+01
   6.28425E+01  7.04695E+01  7.42706E+01  7.44752E+01  7.23026E+01  6.84157E+01  6.27450E+01  5.55811E+01  4.83547E+01  4.26096E+01
   3.87952E+01  3.61357E+01  3.36710E+01  3.19494E+01  3.13438E+01  3.10940E+01  3.09724E+01  3.09794E+01  3.13046E+01  3.27325E+01
   3.51908E+01  3.79792E+01  4.27889E+01  5.08951E+01  6.09545E+01  6.97034E+01  7.45770E+01  7.54680E+01  7.36214E+01  6.99081E+01
   6.42898E+01  5.68575E+01  4.89068E+01  4.21256E+01  3.72925E+01  3.38628E+01  3.08578E+01  2.86640E+01  2.78409E+01  2.75990E+01
   2.75439E+01  2.75242E+01  2.74431E+01  2.72639E+01  2.70180E+01  2.67091E+01  2.63373E+01  2.59473E+01  2.55655E+01  2.51942E+01
   2.48381E+01  2.44950E+01  2.41785E+01  2.38716E+01  2.36366E+01  2.34114E+01  2.30892E+01  2.26488E+01  2.21304E+01  2.17610E+01
   2.16506E+01  2.16709E+01  2.16188E+01  2.14114E+01  2.11194E+01  2.08053E+01  2.04470E+01  1.99843E+01  1.94072E+01  1.88962E+01
   1.85000E+01  1.80465E+01  1.75345E+01  1.70773E+01  1.69012E+01  1.69891E+01  1.70671E+01  1.70098E+01  1.69138E+01  1.69401E+01
   1.71505E+01  1.73237E+01  1.73187E+01  1.73063E+01  1.75982E+01  1.83040E+01  1.92260E+01  2.02163E+01  2.12057E+01  2.21280E+01
   2.28269E+01  2.32496E+01  2.34113E+01  2.32879E+01  2.29363E+01  2.25827E+01  2.24667E+01  2.26462E+01  2.31741E+01  2.39665E+01
   2.48740E+01  2.57266E+01  2.62742E+01  2.64004E+01  2.58817E+01  2.46742E+01  2.31853E+01  2.18137E+01  2.08605E+01  2.04026E+01
   2.06140E+01  2.18374E+01  2.39353E+01  2.62687E+01  2.80058E+01  2.87144E+01  2.85462E+01  2.75745E+01  2.57370E+01  2.33834E+01
   2.12304E+01  2.01302E+01  2.02897E+01  2.12853E+01  2.27324E+01  2.44374E+01  2.63094E+01  2.79433E+01  2.89512E+01  2.94133E+01
   2.95927E+01  2.97153E+01  2.98613E+01  3.00805E+01  3.04657E+01  3.09781E+01  3.14247E+01  3.15918E+01  3.13998E+01  3.09294E+01
   3.04399E+01  3.01267E+01  3.00461E+01  3.02359E+01  3.06928E+01  3.13390E+01  3.20317E+01  3.27332E+01  3.35171E+01  3.43010E+01
   3.52483E+01  3.71197E+01  4.12830E+01  4.59148E+01  5.07178E+01  5.86552E+01  7.07541E+01  8.40515E+01  9.36941E+01  9.73168E+01
   9.60171E+01  9.17752E+01  8.53416E+01  7.64149E+01  6.55688E+01  5.51463E+01  4.73196E+01  4.23128E+01  3.85295E+01  3.48627E+01
   3.27631E+01  3.21191E+01  3.18071E+01  3.15668E+01  3.13718E+01  3.12035E+01  3.10079E+01  3.07790E+01  3.05224E+01  3.02657E+01
   3.00380E+01  2.98480E+01  2.96781E+01  2.95215E+01  2.93918E+01  2.92939E+01  2.92213E+01  2.91717E+01  2.91542E+01  2.91814E+01
   2.92557E+01  2.93694E+01  2.95227E+01  2.97148E+01  2.99391E+01  3.01862E+01  3.04489E+01  3.07215E+01  3.09964E+01  3.12626E+01
   3.15064E+01  3.17140E+01  3.18746E+01  3.19776E+01  3.20132E+01  3.19750E+01  3.18614E+01  3.16752E+01  3.14225E+01  3.11105E+01
   3.07497E+01  3.03520E+01  2.99294E+01  2.94936E+01  2.90549E+01  2.86213E+01  2.81982E+01  2.77887E+01  2.73937E+01  2.70119E+01
   2.66393E+01  2.62700E+01  2.58975E+01  2.55147E+01  2.51148E+01  2.46912E+01  2.42384E+01  2.37523E+01  2.32304E+01  2.26726E+01
   2.20801E+01  2.14560E+01  2.08047E+01  2.01326E+01  1.94477E+01  1.87601E+01  1.80828E+01  1.74344E+01  1.68508E+01  1.63824E+01
   1.59224E+01  1.54888E+01  1.52298E+01  1.50199E+01  1.45214E+01  1.34680E+01  1.19262E+01  1.02798E+01  8.64438E+00  7.03548E+00
   5.69112E+00  4.94294E+00  4.93757E+00  5.43530E+00  6.03924E+00  6.48968E+00  6.75635E+00  6.93827E+00  6.91800E+00  6.55502E+00
   5.95890E+00  5.31232E+00  4.73722E+00  4.20388E+00  3.62763E+00  3.10077E+00  2.66038E+00  2.26585E+00  1.89926E+00  1.55308E+00
   1.22368E+00  9.09304E-01  6.09325E-01  3.23929E-01  5.38751E-02 -1.99756E-01 -4.35744E-01 -6.52777E-01 -8.49423E-01 -1.02413E+00
  -1.17533E+00 -1.30153E+00 -1.40142E+00 -1.47383E+00 -1.51767E+00 -1.53204E+00 -1.51629E+00 -1.47023E+00 -1.39411E+00 -1.28863E+00
  -1.15500E+00 -9.95030E-01 -8.11236E-01 -6.06921E-01 -3.86114E-01 -1.53473E-01  8.57826E-02  3.25916E-01  5.60769E-01  7.83955E-01
   9.89139E-01  1.17032E+00  1.32201E+00  1.43944E+00  1.51870E+00  1.55698E+00  1.55273E+00  1.50575E+00  1.41711E+00  1.28893E+00
   1.12444E+00  9.27840E-01  7.04104E-01  4.58788E-01  1.97700E-01 -7.33595E-02 -3.48781E-01 -6.23260E-01 -8.91948E-01 -1.15060E+00
  -1.39569E+00 -1.62446E+00 -1.83486E+00 -2.02544E+00 -2.19535E+00 -2.34429E+00 -2.47246E+00 -2.58049E+00 -2.66925E+00 -2.73977E+00
  -2.79321E+00 -2.83088E+00 -2.85414E+00 -2.86437E+00 -2.86287E+00 -2.85083E+00 -2.82943E+00 -2.79978E+00 -2.76296E+00 -2.71996E+00
  -2.67162E+00 -2.61872E+00 -2.56200E+00 -2.50219E+00 -2.43996E+00 -2.37590E+00 -2.31052E+00 -2.24431E+00 -2.17774E+00 -2.11131E+00
  -2.04547E+00 -1.98060E+00 -1.91702E+00 -1.85501E+00 -1.79465E+00 -1.73601E+00 -1.67910E+00 -1.62389E+00 -1.57033E+00 -1.51841E+00
  -1.46814E+00 -1.41953E+00 -1.37251E+00 -1.32700E+00 -1.28294E+00 -1.24029E+00 -1.19906E+00 -1.15918E+00 -1.12057E+00 -1.08312E+00
  -1.04677E+00 -1.01149E+00 -9.77229E-01 -9.43905E-01 -9.11409E-01 -8.79643E-01 -8.48550E-01 -8.18091E-01 -7.88197E-01 -7.58762E-01
  -7.29672E-01 -7.00838E-01 -6.72209E-01 -6.43730E-01 -6.15310E-01 -5.86829E-01 -5.58175E-01 -5.29277E-01 -5.00081E-01 -4.70515E-01
  -4.40470E-01 -4.09819E-01 -3.78464E-01 -3.46341E-01 -3.13386E-01 -2.79508E-01 -2.44579E-01 -2.08477E-01
 NY background values follow
     9.008E+01    8.928E+01    8.848E+01    8.768E+01    8.688E+01    8.609E+01    8.529E+01    8.449E+01    8.370E+01    8.290E+01
     8.211E+01    8.132E+01    8.053E+01    7.974E+01    7.896E+01    7.817E+01    7.739E+01    7.661E+01    7.584E+01    7.506E+01
     7.429E+01    7.352E+01    7.276E+01    7.200E+01    7.124E+01    7.049E+01    6.974E+01    6.899E+01    6.825E+01    6.751E+01
     6.678E+01    6.605E+01    6.533E+01    6.461E+01    6.390E+01    6.320E+01    6.249E+01    6.180E+01    6.111E+01    6.043E+01
     5.975E+01    5.908E+01    5.841E+01    5.776E+01    5.711E+01    5.646E+01    5.583E+01    5.520E+01    5.458E+01    5.396E+01
     5.336E+01    5.276E+01    5.217E+01    5.158E+01    5.100E+01    5.043E+01    4.987E+01    4.931E+01    4.877E+01    4.823E+01
     4.769E+01    4.717E+01    4.665E+01    4.613E+01    4.563E+01    4.513E+01    4.464E+01    4.416E+01    4.369E+01    4.322E+01
     4.276E+01    4.231E+01    4.186E+01    4.142E+01    4.099E+01    4.057E+01    4.015E+01    3.974E+01    3.934E+01    3.895E+01
     3.856E+01    3.818E+01    3.781E+01    3.744E+01    3.708E+01    3.673E+01    3.639E+01    3.606E+01    3.573E+01    3.541E+01
     3.509E+01    3.479E+01    3.449E+01    3.420E+01    3.391E+01    3.364E+01    3.336E+01    3.310E+01    3.284E+01    3.259E+01
     3.234E+01    3.210E+01    3.186E+01    3.163E+01    3.141E+01    3.119E+01    3.097E+01    3.076E+01    3.055E+01    3.035E+01
     3.015E+01    2.996E+01    2.976E+01    2.958E+01    2.939E+01    2.921E+01    2.903E+01    2.886E+01    2.868E+01    2.851E+01
     2.834E+01    2.818E+01    2.801E+01    2.785E+01    2.769E+01    2.753E+01    2.737E+01    2.721E+01    2.706E+01    2.690E+01
     2.674E+01    2.659E+01    2.643E+01    2.628E+01    2.612E+01    2.596E+01    2.581E+01    2.565E+01    2.549E+01    2.533E+01
     2.517E+01    2.501E+01    2.485E+01    2.469E+01    2.454E+01    2.438E+01    2.422E+01    2.407E+01    2.391E+01    2.376E+01
     2.361E+01    2.346E+01    2.331E+01    2.317E+01    2.302E+01    2.288E+01    2.274E+01    2.261E+01    2.248E+01    2.235E+01
     2.222E+01    2.210E+01    2.198E+01    2.186E+01    2.175E+01    2.164E+01    2.154E+01    2.144E+01    2.135E+01    2.126E+01
     2.117E+01    2.110E+01    2.102E+01    2.095E+01    2.089E+01    2.083E+01    2.078E+01    2.074E+01    2.070E+01    2.067E+01
     2.064E+01    2.063E+01    2.061E+01    2.061E+01    2.061E+01    2.062E+01    2.063E+01    2.065E+01    2.068E+01    2.071E+01
     2.075E+01    2.079E+01    2.084E+01    2.089E+01    2.095E+01    2.101E+01    2.108E+01    2.115E+01    2.123E+01    2.130E+01
     2.139E+01    2.147E+01    2.156E+01    2.165E+01    2.175E+01    2.184E+01    2.194E+01    2.205E+01    2.215E+01    2.226E+01
     2.236E+01    2.247E+01    2.258E+01    2.270E+01    2.281E+01    2.292E+01    2.304E+01    2.315E+01    2.327E+01    2.339E+01
     2.350E+01    2.362E+01    2.373E+01    2.385E+01    2.396E+01    2.407E+01    2.418E+01    2.429E+01    2.440E+01    2.451E+01
     2.462E+01    2.472E+01    2.482E+01    2.493E+01    2.502E+01    2.512E+01    2.522E+01    2.531E+01    2.540E+01    2.549E+01
     2.558E+01    2.567E+01    2.575E+01    2.584E+01    2.592E+01    2.599E+01    2.607E+01    2.614E+01    2.621E+01    2.628E+01
     2.635E+01    2.641E+01    2.647E+01    2.653E+01    2.658E+01    2.664E+01    2.668E+01    2.673E+01    2.678E+01    2.682E+01
     2.685E+01    2.689E+01    2.692E+01    2.695E+01    2.698E+01    2.700E+01    2.702E+01    2.703E+01    2.705E+01    2.706E+01
     2.706E+01    2.706E+01    2.706E+01    2.706E+01    2.705E+01    2.703E+01    2.702E+01    2.699E+01    2.697E+01    2.694E+01
     2.690E+01    2.686E+01    2.681E+01    2.676E+01    2.670E+01    2.664E+01    2.657E+01    2.649E+01    2.641E+01    2.632E+01
     2.623E+01    2.612E+01    2.601E+01    2.590E+01    2.577E+01    2.564E+01    2.550E+01    2.536E+01    2.520E+01    2.504E+01
     2.486E+01    2.468E+01    2.449E+01    2.430E+01    2.409E+01    2.387E+01    2.365E+01    2.341E+01    2.316E+01    2.291E+01
     2.264E+01    2.237E+01    2.208E+01    2.178E+01    2.147E+01    2.115E+01    2.082E+01    2.048E+01    2.013E+01    1.977E+01
     1.939E+01    1.901E+01    1.862E+01    1.821E+01    1.780E+01    1.739E+01    1.696E+01    1.653E+01    1.609E+01    1.565E+01
     1.520E+01    1.475E+01    1.429E+01    1.383E+01    1.336E+01    1.289E+01    1.242E+01    1.195E+01    1.147E+01    1.100E+01
     1.052E+01    1.004E+01    9.568E+00    9.092E+00    8.618E+00    8.146E+00    7.675E+00    7.208E+00    6.744E+00    6.283E+00
     5.827E+00    5.375E+00    4.928E+00    4.487E+00    4.052E+00    3.623E+00    3.202E+00    2.788E+00    2.382E+00    1.984E+00
     1.595E+00    1.216E+00    8.462E-01    4.868E-01    1.373E-01   -2.024E-01   -5.322E-01   -8.522E-01   -1.163E+00   -1.463E+00
    -1.755E+00   -2.037E+00   -2.309E+00   -2.572E+00   -2.826E+00   -3.071E+00   -3.307E+00   -3.533E+00   -3.751E+00   -3.960E+00
    -4.161E+00   -4.352E+00   -4.535E+00   -4.709E+00   -4.875E+00   -5.033E+00   -5.182E+00   -5.323E+00   -5.456E+00   -5.581E+00
    -5.697E+00   -5.806E+00   -5.907E+00   -6.000E+00   -6.085E+00   -6.163E+00   -6.233E+00   -6.296E+00   -6.351E+00   -6.399E+00
    -6.440E+00   -6.473E+00   -6.500E+00   -6.519E+00   -6.531E+00   -6.537E+00   -6.535E+00   -6.527E+00   -6.513E+00   -6.491E+00
    -6.464E+00   -6.431E+00   -6.392E+00   -6.347E+00   -6.298E+00   -6.243E+00   -6.183E+00   -6.119E+00   -6.050E+00   -5.977E+00
    -5.900E+00   -5.819E+00   -5.735E+00   -5.647E+00   -5.556E+00   -5.463E+00   -5.366E+00   -5.267E+00   -5.166E+00   -5.063E+00
    -4.958E+00   -4.852E+00   -4.744E+00   -4.635E+00   -4.525E+00   -4.415E+00   -4.304E+00   -4.192E+00   -4.081E+00   -3.970E+00
    -3.859E+00   -3.749E+00   -3.640E+00   -3.531E+00   -3.424E+00   -3.319E+00   -3.215E+00   -3.113E+00   -3.013E+00   -2.915E+00
    -2.821E+00   -2.728E+00   -2.639E+00   -2.553E+00   -2.471E+00   -2.391E+00   -2.314E+00   -2.240E+00   -2.168E+00   -2.099E+00
    -2.033E+00   -1.969E+00   -1.908E+00   -1.848E+00   -1.791E+00   -1.736E+00   -1.682E+00   -1.631E+00   -1.581E+00   -1.533E+00
    -1.487E+00   -1.442E+00   -1.399E+00   -1.356E+00   -1.315E+00   -1.275E+00   -1.236E+00   -1.198E+00   -1.161E+00   -1.124E+00
    -1.088E+00   -1.053E+00   -1.018E+00   -9.831E-01   -9.486E-01   -9.144E-01   -8.801E-01   -8.458E-01   -8.114E-01   -7.767E-01
    -7.417E-01   -7.063E-01   -6.703E-01   -6.338E-01   -5.965E-01   -5.585E-01   -5.195E-01   -4.795E-01
 Cr       Conc. = 2.94E+02
