 LCModel (Version 6.3-1L) Copyright: S.W. Provencher.          Ref.: Magn. Reson. Med. 30:672-679 (1993).                
 Slice#3 Row#10 Col#5  PD_24_press_1_raw_act
 36 lines in following concentration table = NCONC+1
    Conc.  %SD /Cr+PCr  Metabolite                                         
   53.267 180% 2.9E-02 Ala                                                 
    0.000 999%   0.000 Asp                                                 
 1.24E+03  16%   0.677 Cr                                                  
  591.347  33%   0.323 PCr                                                 
    0.000 999%   0.000 GABA                                                
    0.000 999%   0.000 Glc                                                 
  435.994  45%   0.238 Gln                                                 
 1.63E+03  14%   0.887 Glu                                                 
  621.034   3%   0.339 GPC                                                 
    0.000 999%   0.000 PCh                                                 
  530.495  13%   0.290 GSH                                                 
  346.659  61%   0.189 Ins                                                 
    0.000 999%   0.000 Lac                                                 
 2.10E+03   5%   1.148 NAA                                                 
  540.847  19%   0.295 NAAG                                                
    0.000 999%   0.000 Scyllo                                              
    0.000 999%   0.000 Tau                                                 
    0.000 999%   0.000 -CrCH2                                              
  621.034   3%   0.339 GPC+PCh                                             
 2.64E+03   3%   1.443 NAA+NAAG                                            
 1.83E+03   3%   1.000 Cr+PCr                                              
 2.06E+03  15%   1.125 Glu+Gln                                             
 1.75E+03  30%   0.956 Lip13a                                              
   35.030 579% 1.9E-02 Lip13b                                              
    0.000 999%   0.000 Lip09                                               
 1.11E+03  18%   0.608 MM09                                                
  340.599  53%   0.186 Lip20                                               
 2.20E+03  16%   1.201 MM20                                                
  354.408  32%   0.193 MM12                                                
 1.16E+03  28%   0.631 MM14                                                
  810.594  26%   0.443 MM17                                                
 1.79E+03  25%   0.975 Lip13a+Lip13b                                       
 3.30E+03  14%   1.800 MM14+Lip13a+Lip13b+MM12                             
 1.11E+03  18%   0.608 MM09+Lip09                                          
 2.54E+03  14%   1.387 MM20+Lip20                                          
   6 lines in following misc. output table
  FWHM = 0.046 ppm    S/N =  13                                            
  Data shift = 0.031 ppm                                                   
  Ph:  16 deg       3.3 deg/ppm                                            
  alphaB,S = 8.0E-01,   9.4E+01                                            
   14 spline knots.   Ns = 6(1)                                            
  (11) 2 infls.   ( 7) 1 extrs.                                            
  498 points on ppm-axis = NY
      4.000000     3.992357     3.984714     3.977070     3.969427     3.961784     3.954141     3.946497     3.938854     3.931211
      3.923568     3.915925     3.908281     3.900638     3.892995     3.885352     3.877708     3.870065     3.862422     3.854779
      3.847136     3.839492     3.831849     3.824206     3.816563     3.808919     3.801276     3.793633     3.785990     3.778347
      3.770703     3.763060     3.755417     3.747774     3.740130     3.732487     3.724844     3.717201     3.709558     3.701914
      3.694271     3.686628     3.678985     3.671341     3.663698     3.656055     3.648412     3.640769     3.633125     3.625482
      3.617839     3.610196     3.602552     3.594909     3.587266     3.579623     3.571980     3.564336     3.556693     3.549050
      3.541407     3.533763     3.526120     3.518477     3.510834     3.503191     3.495547     3.487904     3.480261     3.472618
      3.464974     3.457331     3.449688     3.442045     3.434402     3.426758     3.419115     3.411472     3.403829     3.396185
      3.388542     3.380899     3.373256     3.365613     3.357969     3.350326     3.342683     3.335040     3.327396     3.319753
      3.312110     3.304467     3.296824     3.289180     3.281537     3.273894     3.266251     3.258607     3.250964     3.243321
      3.235678     3.228034     3.220391     3.212748     3.205105     3.197462     3.189818     3.182175     3.174532     3.166889
      3.159245     3.151602     3.143959     3.136316     3.128673     3.121029     3.113386     3.105743     3.098100     3.090456
      3.082813     3.075170     3.067527     3.059884     3.052240     3.044597     3.036954     3.029311     3.021667     3.014024
      3.006381     2.998738     2.991095     2.983451     2.975808     2.968165     2.960522     2.952878     2.945235     2.937592
      2.929949     2.922306     2.914662     2.907019     2.899376     2.891733     2.884089     2.876446     2.868803     2.861160
      2.853517     2.845873     2.838230     2.830587     2.822944     2.815300     2.807657     2.800014     2.792371     2.784728
      2.777084     2.769441     2.761798     2.754155     2.746511     2.738868     2.731225     2.723582     2.715939     2.708295
      2.700652     2.693009     2.685366     2.677722     2.670079     2.662436     2.654793     2.647150     2.639506     2.631863
      2.624220     2.616577     2.608933     2.601290     2.593647     2.586004     2.578361     2.570717     2.563074     2.555431
      2.547788     2.540144     2.532501     2.524858     2.517215     2.509572     2.501928     2.494285     2.486642     2.478999
      2.471355     2.463712     2.456069     2.448426     2.440783     2.433139     2.425496     2.417853     2.410210     2.402566
      2.394923     2.387280     2.379637     2.371994     2.364350     2.356707     2.349064     2.341421     2.333777     2.326134
      2.318491     2.310848     2.303205     2.295561     2.287918     2.280275     2.272632     2.264988     2.257345     2.249702
      2.242059     2.234416     2.226772     2.219129     2.211486     2.203843     2.196199     2.188556     2.180913     2.173270
      2.165627     2.157983     2.150340     2.142697     2.135054     2.127410     2.119767     2.112124     2.104481     2.096838
      2.089194     2.081551     2.073908     2.066265     2.058621     2.050978     2.043335     2.035692     2.028049     2.020405
      2.012762     2.005119     1.997476     1.989833     1.982190     1.974546     1.966903     1.959260     1.951617     1.943974
      1.936331     1.928688     1.921045     1.913402     1.905759     1.898115     1.890472     1.882829     1.875186     1.867543
      1.859900     1.852257     1.844614     1.836971     1.829327     1.821684     1.814041     1.806398     1.798755     1.791112
      1.783469     1.775826     1.768183     1.760540     1.752896     1.745253     1.737610     1.729967     1.722324     1.714681
      1.707038     1.699395     1.691752     1.684108     1.676465     1.668822     1.661179     1.653536     1.645893     1.638250
      1.630607     1.622964     1.615321     1.607677     1.600034     1.592391     1.584748     1.577105     1.569462     1.561819
      1.554176     1.546533     1.538890     1.531246     1.523603     1.515960     1.508317     1.500674     1.493031     1.485388
      1.477745     1.470102     1.462458     1.454815     1.447172     1.439529     1.431886     1.424243     1.416600     1.408957
      1.401314     1.393671     1.386027     1.378384     1.370741     1.363098     1.355455     1.347812     1.340169     1.332526
      1.324883     1.317240     1.309596     1.301953     1.294310     1.286667     1.279024     1.271381     1.263738     1.256095
      1.248452     1.240808     1.233165     1.225522     1.217879     1.210236     1.202593     1.194950     1.187307     1.179664
      1.172021     1.164377     1.156734     1.149091     1.141448     1.133805     1.126162     1.118519     1.110876     1.103233
      1.095590     1.087946     1.080303     1.072660     1.065017     1.057374     1.049731     1.042088     1.034445     1.026802
      1.019158     1.011515     1.003872     0.996229     0.988586     0.980943     0.973300     0.965657     0.958014     0.950371
      0.942727     0.935084     0.927441     0.919798     0.912155     0.904512     0.896869     0.889226     0.881583     0.873940
      0.866296     0.858653     0.851010     0.843367     0.835724     0.828081     0.820438     0.812795     0.805152     0.797508
      0.789865     0.782222     0.774579     0.766936     0.759293     0.751650     0.744007     0.736364     0.728721     0.721077
      0.713434     0.705791     0.698148     0.690505     0.682862     0.675219     0.667576     0.659933     0.652290     0.644646
      0.637003     0.629360     0.621717     0.614074     0.606431     0.598788     0.591145     0.583502     0.575858     0.568215
      0.560572     0.552929     0.545286     0.537643     0.530000     0.522357     0.514714     0.507071     0.499427     0.491784
      0.484141     0.476498     0.468855     0.461212     0.453569     0.445925     0.438282     0.430639     0.422996     0.415353
      0.407710     0.400067     0.392424     0.384780     0.377137     0.369494     0.361851     0.354208     0.346565     0.338922
      0.331278     0.323635     0.315992     0.308349     0.300706     0.293063     0.285420     0.277777     0.270133     0.262490
      0.254847     0.247204     0.239561     0.231918     0.224275     0.216631     0.208988     0.201345
 NY phased data points follow
   5.26849E+01  5.72859E+01  5.52989E+01  6.07931E+01  5.73296E+01  6.38633E+01  6.53523E+01  7.84296E+01  7.91870E+01  9.54255E+01
   8.93769E+01  9.93266E+01  9.14785E+01  9.16948E+01  8.09940E+01  7.37892E+01  6.16174E+01  6.55790E+01  5.64504E+01  5.52284E+01
   4.94594E+01  5.24847E+01  4.86003E+01  5.19535E+01  4.75748E+01  5.15946E+01  5.27723E+01  5.48990E+01  4.85271E+01  5.65860E+01
   5.32340E+01  5.76405E+01  5.33013E+01  5.22742E+01  4.62874E+01  4.85782E+01  4.43897E+01  4.50905E+01  3.73321E+01  4.46642E+01
   3.88061E+01  4.50543E+01  3.65548E+01  4.32733E+01  4.57929E+01  4.40621E+01  4.43434E+01  4.80258E+01  4.44929E+01  4.68767E+01
   3.51285E+01  4.12902E+01  3.56661E+01  3.96525E+01  3.20426E+01  3.89125E+01  3.41325E+01  4.23373E+01  3.58434E+01  3.78586E+01
   3.54041E+01  3.50598E+01  2.72065E+01  2.78695E+01  2.57422E+01  2.81628E+01  2.04881E+01  2.21386E+01  2.14915E+01  2.57937E+01
   1.92945E+01  2.87186E+01  1.94541E+01  2.77411E+01  2.40977E+01  2.75038E+01  2.48769E+01  2.44958E+01  1.93369E+01  2.50499E+01
   2.12372E+01  2.67521E+01  2.54598E+01  2.51793E+01  2.03840E+01  2.75627E+01  1.93392E+01  2.38465E+01  2.08313E+01  2.73210E+01
   2.11406E+01  2.30022E+01  2.03477E+01  2.21391E+01  2.12825E+01  2.39343E+01  2.13174E+01  2.73299E+01  3.05278E+01  4.15290E+01
   5.63189E+01  7.03902E+01  7.54968E+01  8.23009E+01  7.92528E+01  7.20636E+01  6.00969E+01  4.96660E+01  3.77922E+01  3.21594E+01
   2.77318E+01  2.53174E+01  2.09618E+01  2.27310E+01  2.06076E+01  2.05348E+01  1.82232E+01  1.92580E+01  1.71235E+01  1.81617E+01
   1.77678E+01  2.21450E+01  2.10382E+01  3.53216E+01  4.21116E+01  6.09135E+01  7.18308E+01  8.02422E+01  7.37521E+01  6.80646E+01
   5.72664E+01  4.83790E+01  4.20901E+01  3.32401E+01  2.05117E+01  2.21502E+01  1.52631E+01  2.20848E+01  1.58632E+01  2.04002E+01
   1.79778E+01  2.09586E+01  1.40524E+01  1.77998E+01  1.22946E+01  1.78583E+01  1.49548E+01  1.48111E+01  1.37888E+01  1.71504E+01
   1.25975E+01  1.19024E+01  1.24275E+01  1.28931E+01  7.21703E+00  1.00127E+01  6.36220E+00  1.24520E+01  1.13165E+01  1.06111E+01
   7.01014E+00  8.47568E+00  3.63555E+00  1.11335E+01  9.71538E+00  1.20385E+01  5.50995E+00  8.04200E+00  4.53077E+00  1.60410E+00
   2.25972E+00  2.83501E+00 -1.82417E+00  1.01305E+00 -4.83232E+00 -4.24968E-01 -4.86984E+00  2.28029E+00 -2.19768E+00  1.42672E+00
  -1.65917E-01 -1.55772E+00 -5.11263E+00  1.22193E+00  6.50143E-01 -1.47386E+00 -1.41221E+00  4.88236E+00  4.23463E+00  8.44793E+00
   1.36904E+01  1.88882E+01  1.57494E+01  1.79442E+01  1.33150E+01  1.53711E+01  9.64630E+00  1.37113E+01  6.85500E+00  7.46090E+00
   6.15466E+00  1.06000E+01  9.82451E+00  1.50817E+01  8.41844E+00  1.18234E+01  8.82383E+00  7.71535E+00  3.22236E+00  1.68489E+00
   2.28199E+00  7.01535E+00  8.39672E+00  1.61358E+01  1.40685E+01  2.00536E+01  1.84846E+01  2.06583E+01  1.08272E+01  1.41827E+01
   7.29380E+00  6.15811E+00  1.14654E+00  6.16831E+00  6.82201E+00  1.08500E+01  1.29020E+01  1.54392E+01  1.60437E+01  1.42935E+01
   1.42901E+01  1.24780E+01  1.53981E+01  1.94098E+01  1.17300E+01  1.85990E+01  1.73121E+01  1.51823E+01  1.45131E+01  1.40836E+01
   1.14346E+01  8.06073E+00  9.76318E+00  8.84685E+00  1.27470E+01  1.45175E+01  1.58684E+01  2.16504E+01  1.93043E+01  1.53081E+01
   1.62348E+01  2.34372E+01  2.79757E+01  3.60255E+01  3.57993E+01  4.87635E+01  4.57504E+01  6.47525E+01  8.43206E+01  9.97328E+01
   9.48508E+01  9.41883E+01  7.59505E+01  6.23942E+01  4.47085E+01  3.96640E+01  2.56828E+01  2.29745E+01  1.89659E+01  1.60108E+01
   1.08800E+01  1.40564E+01  1.24643E+01  1.24653E+01  1.23504E+01  9.21119E+00  9.88307E+00  1.11749E+01  1.33180E+01  1.23223E+01
   8.49112E+00  1.31009E+01  8.85892E+00  7.44354E+00  8.23820E+00  1.08685E+01  1.07131E+01  1.07552E+01  6.28552E+00  1.30705E+01
   8.12443E+00  8.48825E+00  6.04259E+00  1.14359E+01  7.04416E+00  1.05492E+01  7.29318E+00  1.04229E+01  8.86403E+00  1.17848E+01
   1.49084E+01  1.36872E+01  8.81617E+00  1.42462E+01  9.87112E+00  1.42392E+01  1.19814E+01  1.80633E+01  1.00907E+01  1.23956E+01
   1.42647E+01  1.38540E+01  9.29773E+00  1.13359E+01  1.37177E+01  1.52097E+01  1.00053E+01  1.10001E+01  1.10991E+01  1.49176E+01
   1.08288E+01  1.25940E+01  1.34705E+01  1.24616E+01  7.77941E+00  1.42999E+01  1.12490E+01  1.28154E+01  1.19635E+01  1.44746E+01
   1.18434E+01  1.30442E+01  1.44973E+01  1.14477E+01  9.83124E+00  1.18390E+01  1.18703E+01  1.48770E+01  1.48449E+01  1.68780E+01
   1.42121E+01  1.44871E+01  1.35826E+01  1.67087E+01  1.27130E+01  2.26346E+01  1.42068E+01  1.81350E+01  1.35841E+01  1.89380E+01
   1.24867E+01  1.79559E+01  1.80378E+01  1.61640E+01  1.92057E+01  1.92814E+01  1.44471E+01  1.90344E+01  1.50333E+01  1.75839E+01
   1.05229E+01  1.31764E+01  1.25325E+01  1.03932E+01  1.21093E+01  1.44502E+01  7.55190E+00  1.87882E+01  1.12731E+01  1.30121E+01
   1.25133E+01  1.12796E+01  1.24487E+01  1.37907E+01  1.17160E+01  1.71926E+01  1.05661E+01  1.06484E+01  7.93270E+00  1.19185E+01
   1.03286E+01  8.30033E+00  6.14996E+00  1.04943E+01  9.82697E+00  1.04737E+01  1.00021E+01  1.28669E+01  3.85888E+00  7.85598E+00
   8.06665E+00  8.52644E+00  1.08880E+01  1.38622E+01  1.25898E+01  1.17852E+01  8.65645E+00  1.44726E+01  7.50029E+00  9.50129E+00
   9.15024E+00  1.39921E+01  1.04079E+01  1.05790E+01  9.86013E+00  9.52441E+00  1.20026E+01  1.13076E+01  1.04161E+01  8.78512E+00
   8.85813E+00  1.15729E+01  7.63154E+00  8.44658E+00  9.47711E+00  1.02089E+01  4.34199E+00  6.43172E+00  5.59956E+00  8.71913E+00
   6.10245E+00  7.49028E+00  5.72845E+00  4.20182E+00  3.25115E+00  6.66937E+00  2.12977E+00  1.03090E+01  4.95149E+00  7.86769E+00
  -3.04818E-01  5.81690E+00  3.11993E+00  7.66961E+00  3.26208E+00  5.96956E+00  6.72234E+00  3.91774E+00  6.42729E-01  5.38858E+00
   4.34601E-01  8.17462E+00  4.32412E+00  7.59895E+00  4.33912E+00  5.81253E+00  3.13375E+00  6.52469E+00 -2.98549E-01  3.21485E+00
   3.46778E+00  5.82263E+00  4.53046E+00  5.88946E+00 -7.75389E-01  4.94191E+00  3.06664E+00  2.87337E+00  4.05367E+00  3.96437E+00
  -1.20312E-01  7.92988E+00  1.52303E+00  4.71222E+00  4.10310E+00  4.41759E+00  3.01691E+00  5.88705E+00  3.19055E+00  7.42637E-01
   2.52131E+00  2.37000E+00  1.76763E+00  2.70935E+00 -2.31856E+00  4.19583E+00  4.55482E+00  5.71503E+00  3.06885E+00  4.94619E+00
   5.85623E+00  4.46001E+00  1.83490E+00 -1.74255E+00  1.95463E+00  3.86253E+00  3.32902E+00  1.00254E+00  2.61597E+00  4.38666E+00
   2.28330E+00  2.35939E+00 -2.15518E+00  3.88200E-01 -2.84521E+00  4.94150E+00  4.51705E+00  5.47308E+00
 NY points of the fit to the data follow
   5.39312E+01  5.38536E+01  5.40660E+01  5.48185E+01  5.65060E+01  5.95279E+01  6.45297E+01  7.12964E+01  7.90468E+01  8.64135E+01
   9.13460E+01  9.24031E+01  8.95896E+01  8.40932E+01  7.73994E+01  7.06948E+01  6.47188E+01  5.98097E+01  5.58117E+01  5.25347E+01
   5.06718E+01  4.96204E+01  4.86917E+01  4.78448E+01  4.73842E+01  4.75685E+01  4.87916E+01  5.10720E+01  5.37171E+01  5.59166E+01
   5.71032E+01  5.70260E+01  5.56132E+01  5.31726E+01  5.02717E+01  4.73360E+01  4.45656E+01  4.24638E+01  4.15888E+01  4.14380E+01
   4.15978E+01  4.19357E+01  4.23200E+01  4.27305E+01  4.30772E+01  4.32515E+01  4.30767E+01  4.25434E+01  4.18324E+01  4.09684E+01
   3.99662E+01  3.89892E+01  3.80927E+01  3.71664E+01  3.62843E+01  3.56195E+01  3.51402E+01  3.47147E+01  3.43063E+01  3.38920E+01
   3.33965E+01  3.27968E+01  3.21206E+01  3.14571E+01  3.08851E+01  3.04200E+01  3.00496E+01  2.97635E+01  2.95505E+01  2.93771E+01
   2.92019E+01  2.89785E+01  2.86910E+01  2.83478E+01  2.79692E+01  2.75853E+01  2.72167E+01  2.68678E+01  2.65292E+01  2.61980E+01
   2.58847E+01  2.55677E+01  2.52198E+01  2.48142E+01  2.43452E+01  2.38420E+01  2.33635E+01  2.29747E+01  2.27167E+01  2.25944E+01
   2.25867E+01  2.26554E+01  2.27631E+01  2.28910E+01  2.30371E+01  2.32488E+01  2.38294E+01  2.60136E+01  3.14129E+01  4.10155E+01
   5.48015E+01  6.95435E+01  8.02247E+01  8.36637E+01  7.97880E+01  7.07853E+01  5.96785E+01  4.91471E+01  4.02920E+01  3.25980E+01
   2.57142E+01  2.12254E+01  1.97381E+01  1.92118E+01  1.89309E+01  1.87502E+01  1.86204E+01  1.85339E+01  1.85292E+01  1.86984E+01
   1.92787E+01  2.11996E+01  2.60604E+01  3.48524E+01  4.79197E+01  6.28704E+01  7.49075E+01  8.03586E+01  7.85051E+01  7.10926E+01
   6.09015E+01  5.04869E+01  4.10798E+01  3.24132E+01  2.41570E+01  1.78016E+01  1.50413E+01  1.42984E+01  1.44557E+01  1.49984E+01
   1.55365E+01  1.59055E+01  1.60490E+01  1.59032E+01  1.55372E+01  1.50627E+01  1.45262E+01  1.39757E+01  1.34224E+01  1.28837E+01
   1.23930E+01  1.19220E+01  1.15196E+01  1.12622E+01  1.11634E+01  1.11304E+01  1.10239E+01  1.07026E+01  1.01164E+01  9.45426E+00
   8.97800E+00  8.83737E+00  8.95312E+00  9.05934E+00  8.91936E+00  8.46215E+00  7.80789E+00  7.17868E+00  6.71861E+00  6.36548E+00
   5.99129E+00  5.48207E+00  4.82872E+00  4.18121E+00  3.70929E+00  3.52669E+00  3.61117E+00  3.76241E+00  3.77698E+00  3.65688E+00
   3.54019E+00  3.51569E+00  3.59491E+00  3.72338E+00  3.88446E+00  4.29989E+00  5.32296E+00  6.96012E+00  8.89854E+00  1.06040E+01
   1.16297E+01  1.18540E+01  1.13850E+01  1.04661E+01  9.35915E+00  8.28522E+00  7.57211E+00  7.47156E+00  7.99333E+00  9.02837E+00
   1.04243E+01  1.18904E+01  1.30460E+01  1.36139E+01  1.33307E+01  1.21371E+01  1.01249E+01  7.72070E+00  5.54224E+00  4.08727E+00
   3.72740E+00  4.72236E+00  7.09340E+00  1.04037E+01  1.36754E+01  1.58359E+01  1.62031E+01  1.46542E+01  1.14519E+01  7.45382E+00
   3.74313E+00  1.23979E+00  5.16279E-01  1.58543E+00  4.10024E+00  7.27224E+00  1.00575E+01  1.19667E+01  1.29714E+01  1.33512E+01
   1.33493E+01  1.31874E+01  1.32414E+01  1.37644E+01  1.45944E+01  1.53633E+01  1.57160E+01  1.54495E+01  1.46065E+01  1.33257E+01
   1.19513E+01  1.10551E+01  1.10381E+01  1.18588E+01  1.31445E+01  1.45730E+01  1.58216E+01  1.66249E+01  1.70498E+01  1.75727E+01
   1.89556E+01  2.15746E+01  2.57085E+01  3.10141E+01  3.72709E+01  4.50896E+01  5.53857E+01  6.91728E+01  8.39175E+01  9.43589E+01
   9.68071E+01  9.08203E+01  7.85886E+01  6.38926E+01  5.05832E+01  3.96876E+01  3.02203E+01  2.14691E+01  1.53532E+01  1.31624E+01
   1.22834E+01  1.18037E+01  1.15576E+01  1.14152E+01  1.12229E+01  1.09688E+01  1.06649E+01  1.03350E+01  1.00157E+01  9.74701E+00
   9.53213E+00  9.36232E+00  9.24555E+00  9.17723E+00  9.12045E+00  9.04844E+00  8.97301E+00  8.92083E+00  8.91331E+00  8.95610E+00
   9.05489E+00  9.21009E+00  9.40262E+00  9.60821E+00  9.81532E+00  1.00189E+01  1.02225E+01  1.04334E+01  1.06537E+01  1.08857E+01
   1.11326E+01  1.13845E+01  1.16269E+01  1.18463E+01  1.20348E+01  1.21883E+01  1.23017E+01  1.23699E+01  1.23968E+01  1.23861E+01
   1.23413E+01  1.22681E+01  1.21732E+01  1.20640E+01  1.19479E+01  1.18327E+01  1.17263E+01  1.16367E+01  1.15716E+01  1.15388E+01
   1.15483E+01  1.16151E+01  1.17404E+01  1.19081E+01  1.20803E+01  1.21932E+01  1.22071E+01  1.21371E+01  1.20307E+01  1.19483E+01
   1.19486E+01  1.20714E+01  1.23405E+01  1.27370E+01  1.32065E+01  1.36935E+01  1.41236E+01  1.44461E+01  1.46744E+01  1.48438E+01
   1.49848E+01  1.51035E+01  1.51924E+01  1.52748E+01  1.53839E+01  1.55090E+01  1.56413E+01  1.57767E+01  1.59113E+01  1.60410E+01
   1.61604E+01  1.62630E+01  1.63415E+01  1.63874E+01  1.63929E+01  1.63513E+01  1.62584E+01  1.61125E+01  1.59146E+01  1.56684E+01
   1.53794E+01  1.50547E+01  1.47020E+01  1.43285E+01  1.39410E+01  1.35451E+01  1.31458E+01  1.27475E+01  1.23545E+01  1.19703E+01
   1.15983E+01  1.12417E+01  1.09037E+01  1.05874E+01  1.02958E+01  1.00311E+01  9.79565E+00  9.59109E+00  9.41912E+00  9.28121E+00
   9.17839E+00  9.11130E+00  9.08020E+00  9.08514E+00  9.12592E+00  9.20186E+00  9.31166E+00  9.45330E+00  9.62413E+00  9.82092E+00
   1.00397E+01  1.02758E+01  1.05234E+01  1.07761E+01  1.10270E+01  1.12690E+01  1.14946E+01  1.16966E+01  1.18677E+01  1.20014E+01
   1.20921E+01  1.21357E+01  1.21290E+01  1.20705E+01  1.19600E+01  1.17988E+01  1.15900E+01  1.13378E+01  1.10475E+01  1.07251E+01
   1.03771E+01  1.00101E+01  9.63123E+00  9.24687E+00  8.86299E+00  8.48477E+00  8.11668E+00  7.76247E+00  7.42510E+00  7.10662E+00
   6.80823E+00  6.53044E+00  6.27328E+00  6.03642E+00  5.81918E+00  5.62046E+00  5.43895E+00  5.27325E+00  5.12207E+00  4.98415E+00
   4.85825E+00  4.74306E+00  4.63736E+00  4.54007E+00  4.45035E+00  4.36744E+00  4.29057E+00  4.21897E+00  4.15200E+00  4.08917E+00
   4.03013E+00  3.97452E+00  3.92196E+00  3.87202E+00  3.82441E+00  3.77898E+00  3.73558E+00  3.69404E+00  3.65411E+00  3.61556E+00
   3.57829E+00  3.54225E+00  3.50743E+00  3.47367E+00  3.44081E+00  3.40873E+00  3.37743E+00  3.34694E+00  3.31721E+00  3.28813E+00
   3.25955E+00  3.23146E+00  3.20391E+00  3.17692E+00  3.15043E+00  3.12433E+00  3.09854E+00  3.07308E+00  3.04803E+00  3.02339E+00
   2.99907E+00  2.97497E+00  2.95109E+00  2.92748E+00  2.90421E+00  2.88123E+00  2.85846E+00  2.83582E+00  2.81335E+00  2.79112E+00
   2.76915E+00  2.74740E+00  2.72575E+00  2.70421E+00  2.68282E+00  2.66166E+00  2.64072E+00  2.61991E+00  2.59918E+00  2.57853E+00
   2.55806E+00  2.53781E+00  2.51773E+00  2.49774E+00  2.47782E+00  2.45802E+00  2.43843E+00  2.41906E+00
 NY background values follow
     5.142E+01    5.106E+01    5.071E+01    5.035E+01    5.000E+01    4.964E+01    4.929E+01    4.893E+01    4.857E+01    4.822E+01
     4.786E+01    4.751E+01    4.715E+01    4.679E+01    4.644E+01    4.608E+01    4.573E+01    4.537E+01    4.502E+01    4.466E+01
     4.431E+01    4.396E+01    4.360E+01    4.325E+01    4.290E+01    4.255E+01    4.220E+01    4.184E+01    4.149E+01    4.115E+01
     4.080E+01    4.045E+01    4.010E+01    3.975E+01    3.941E+01    3.906E+01    3.872E+01    3.838E+01    3.803E+01    3.769E+01
     3.735E+01    3.701E+01    3.668E+01    3.634E+01    3.600E+01    3.567E+01    3.533E+01    3.500E+01    3.467E+01    3.434E+01
     3.401E+01    3.368E+01    3.336E+01    3.303E+01    3.271E+01    3.239E+01    3.207E+01    3.175E+01    3.143E+01    3.111E+01
     3.080E+01    3.048E+01    3.017E+01    2.986E+01    2.955E+01    2.925E+01    2.894E+01    2.864E+01    2.834E+01    2.804E+01
     2.774E+01    2.744E+01    2.715E+01    2.685E+01    2.656E+01    2.627E+01    2.599E+01    2.570E+01    2.542E+01    2.514E+01
     2.486E+01    2.458E+01    2.430E+01    2.403E+01    2.376E+01    2.349E+01    2.322E+01    2.296E+01    2.269E+01    2.243E+01
     2.218E+01    2.192E+01    2.167E+01    2.141E+01    2.117E+01    2.092E+01    2.067E+01    2.043E+01    2.019E+01    1.995E+01
     1.972E+01    1.948E+01    1.925E+01    1.902E+01    1.880E+01    1.857E+01    1.835E+01    1.813E+01    1.791E+01    1.769E+01
     1.748E+01    1.727E+01    1.706E+01    1.685E+01    1.665E+01    1.644E+01    1.624E+01    1.604E+01    1.585E+01    1.565E+01
     1.546E+01    1.527E+01    1.508E+01    1.490E+01    1.471E+01    1.453E+01    1.435E+01    1.418E+01    1.400E+01    1.383E+01
     1.366E+01    1.349E+01    1.332E+01    1.316E+01    1.299E+01    1.283E+01    1.268E+01    1.252E+01    1.237E+01    1.221E+01
     1.206E+01    1.191E+01    1.177E+01    1.162E+01    1.148E+01    1.134E+01    1.120E+01    1.107E+01    1.094E+01    1.080E+01
     1.067E+01    1.055E+01    1.042E+01    1.030E+01    1.018E+01    1.006E+01    9.938E+00    9.822E+00    9.709E+00    9.597E+00
     9.487E+00    9.380E+00    9.274E+00    9.171E+00    9.069E+00    8.969E+00    8.871E+00    8.776E+00    8.682E+00    8.590E+00
     8.500E+00    8.412E+00    8.326E+00    8.242E+00    8.160E+00    8.080E+00    8.002E+00    7.926E+00    7.852E+00    7.779E+00
     7.709E+00    7.640E+00    7.574E+00    7.509E+00    7.446E+00    7.385E+00    7.326E+00    7.269E+00    7.213E+00    7.159E+00
     7.106E+00    7.055E+00    7.006E+00    6.958E+00    6.912E+00    6.867E+00    6.823E+00    6.781E+00    6.740E+00    6.701E+00
     6.663E+00    6.626E+00    6.590E+00    6.555E+00    6.522E+00    6.490E+00    6.458E+00    6.428E+00    6.399E+00    6.371E+00
     6.343E+00    6.317E+00    6.291E+00    6.266E+00    6.242E+00    6.219E+00    6.196E+00    6.174E+00    6.153E+00    6.132E+00
     6.112E+00    6.093E+00    6.074E+00    6.055E+00    6.037E+00    6.019E+00    6.001E+00    5.984E+00    5.967E+00    5.951E+00
     5.935E+00    5.919E+00    5.903E+00    5.888E+00    5.873E+00    5.858E+00    5.843E+00    5.829E+00    5.815E+00    5.801E+00
     5.788E+00    5.774E+00    5.761E+00    5.748E+00    5.736E+00    5.723E+00    5.711E+00    5.699E+00    5.687E+00    5.675E+00
     5.664E+00    5.653E+00    5.642E+00    5.631E+00    5.620E+00    5.609E+00    5.599E+00    5.588E+00    5.578E+00    5.568E+00
     5.558E+00    5.548E+00    5.538E+00    5.529E+00    5.519E+00    5.510E+00    5.500E+00    5.491E+00    5.482E+00    5.473E+00
     5.464E+00    5.455E+00    5.446E+00    5.437E+00    5.428E+00    5.419E+00    5.410E+00    5.401E+00    5.393E+00    5.384E+00
     5.375E+00    5.366E+00    5.358E+00    5.349E+00    5.340E+00    5.331E+00    5.323E+00    5.314E+00    5.305E+00    5.296E+00
     5.287E+00    5.278E+00    5.269E+00    5.260E+00    5.251E+00    5.242E+00    5.233E+00    5.223E+00    5.214E+00    5.205E+00
     5.195E+00    5.185E+00    5.176E+00    5.166E+00    5.156E+00    5.146E+00    5.136E+00    5.126E+00    5.115E+00    5.105E+00
     5.094E+00    5.083E+00    5.072E+00    5.061E+00    5.050E+00    5.039E+00    5.027E+00    5.016E+00    5.004E+00    4.992E+00
     4.980E+00    4.967E+00    4.955E+00    4.942E+00    4.929E+00    4.916E+00    4.903E+00    4.890E+00    4.876E+00    4.863E+00
     4.849E+00    4.835E+00    4.821E+00    4.807E+00    4.793E+00    4.778E+00    4.764E+00    4.749E+00    4.734E+00    4.719E+00
     4.704E+00    4.689E+00    4.673E+00    4.658E+00    4.642E+00    4.626E+00    4.610E+00    4.594E+00    4.578E+00    4.562E+00
     4.545E+00    4.529E+00    4.512E+00    4.495E+00    4.478E+00    4.461E+00    4.444E+00    4.427E+00    4.410E+00    4.392E+00
     4.375E+00    4.357E+00    4.339E+00    4.321E+00    4.303E+00    4.285E+00    4.267E+00    4.249E+00    4.231E+00    4.212E+00
     4.194E+00    4.175E+00    4.157E+00    4.138E+00    4.119E+00    4.101E+00    4.082E+00    4.063E+00    4.044E+00    4.026E+00
     4.007E+00    3.988E+00    3.969E+00    3.950E+00    3.932E+00    3.913E+00    3.894E+00    3.875E+00    3.857E+00    3.838E+00
     3.819E+00    3.801E+00    3.782E+00    3.764E+00    3.745E+00    3.727E+00    3.709E+00    3.690E+00    3.672E+00    3.654E+00
     3.636E+00    3.618E+00    3.601E+00    3.583E+00    3.566E+00    3.548E+00    3.531E+00    3.514E+00    3.497E+00    3.480E+00
     3.463E+00    3.447E+00    3.430E+00    3.414E+00    3.397E+00    3.381E+00    3.365E+00    3.349E+00    3.333E+00    3.317E+00
     3.302E+00    3.286E+00    3.270E+00    3.255E+00    3.239E+00    3.224E+00    3.209E+00    3.194E+00    3.178E+00    3.163E+00
     3.148E+00    3.133E+00    3.118E+00    3.103E+00    3.088E+00    3.073E+00    3.059E+00    3.044E+00    3.029E+00    3.014E+00
     2.999E+00    2.984E+00    2.970E+00    2.955E+00    2.940E+00    2.925E+00    2.910E+00    2.896E+00    2.881E+00    2.866E+00
     2.851E+00    2.836E+00    2.821E+00    2.806E+00    2.791E+00    2.776E+00    2.760E+00    2.745E+00    2.730E+00    2.715E+00
     2.699E+00    2.684E+00    2.669E+00    2.653E+00    2.638E+00    2.623E+00    2.607E+00    2.592E+00    2.576E+00    2.560E+00
     2.545E+00    2.529E+00    2.514E+00    2.498E+00    2.482E+00    2.467E+00    2.451E+00    2.435E+00    2.420E+00    2.404E+00
     2.388E+00    2.372E+00    2.357E+00    2.341E+00    2.325E+00    2.309E+00    2.293E+00    2.278E+00    2.262E+00    2.246E+00
     2.230E+00    2.214E+00    2.198E+00    2.183E+00    2.167E+00    2.151E+00    2.135E+00    2.119E+00
 Ala      Conc. = 5.33E+01
