 LCModel (Version 6.3-1L) Copyright: S.W. Provencher.          Ref.: Magn. Reson. Med. 30:672-679 (1993).                
 Slice#3 Row#8 Col#6  PD_24_press_1_raw_act
 36 lines in following concentration table = NCONC+1
    Conc.  %SD /Cr+PCr  Metabolite                                         
    0.000 999%   0.000 Ala                                                 
    0.000 999%   0.000 Asp                                                 
 1.00E+03  28%   0.499 Cr                                                  
 1.01E+03  28%   0.501 PCr                                                 
    0.000 999%   0.000 GABA                                                
    0.000 999%   0.000 Glc                                                 
  788.539  37%   0.392 Gln                                                 
 1.80E+03  18%   0.894 Glu                                                 
  876.281   3%   0.436 GPC                                                 
    0.000 999%   0.000 PCh                                                 
  623.579  14%   0.310 GSH                                                 
 1.49E+03  18%   0.739 Ins                                                 
    0.000 999%   0.000 Lac                                                 
 2.47E+03   6%   1.229 NAA                                                 
  172.187  96% 8.6E-02 NAAG                                                
  110.524  29% 5.5E-02 Scyllo                                              
    0.000 999%   0.000 Tau                                                 
    0.000 999%   0.000 -CrCH2                                              
  876.281   3%   0.436 GPC+PCh                                             
 2.64E+03   4%   1.314 NAA+NAAG                                            
 2.01E+03   3%   1.000 Cr+PCr                                              
 2.59E+03  18%   1.286 Glu+Gln                                             
    0.000 999%   0.000 Lip13a                                              
    0.000 999%   0.000 Lip13b                                              
    1.967 999% 9.8E-04 Lip09                                               
 1.40E+03  13%   0.696 MM09                                                
    0.000 999%   0.000 Lip20                                               
 2.30E+03  15%   1.146 MM20                                                
  470.716  31%   0.234 MM12                                                
    0.000 999%   0.000 MM14                                                
  332.502  56%   0.165 MM17                                                
    0.000 999%   0.000 Lip13a+Lip13b                                       
  470.716  31%   0.234 MM14+Lip13a+Lip13b+MM12                             
 1.40E+03  13%   0.697 MM09+Lip09                                          
 2.30E+03  15%   1.146 MM20+Lip20                                          
   6 lines in following misc. output table
  FWHM = 0.054 ppm    S/N =  10                                            
  Data shift = 0.023 ppm                                                   
  Ph: -18 deg      -5.3 deg/ppm                                            
  alphaB,S = 8.5E+01,   2.6E+02                                            
   14 spline knots.   Ns = 7(1)                                            
   2 inflections.     1 extrema                                            
  498 points on ppm-axis = NY
      4.000000     3.992357     3.984714     3.977070     3.969427     3.961784     3.954141     3.946497     3.938854     3.931211
      3.923568     3.915925     3.908281     3.900638     3.892995     3.885352     3.877708     3.870065     3.862422     3.854779
      3.847136     3.839492     3.831849     3.824206     3.816563     3.808919     3.801276     3.793633     3.785990     3.778347
      3.770703     3.763060     3.755417     3.747774     3.740130     3.732487     3.724844     3.717201     3.709558     3.701914
      3.694271     3.686628     3.678985     3.671341     3.663698     3.656055     3.648412     3.640769     3.633125     3.625482
      3.617839     3.610196     3.602552     3.594909     3.587266     3.579623     3.571980     3.564336     3.556693     3.549050
      3.541407     3.533763     3.526120     3.518477     3.510834     3.503191     3.495547     3.487904     3.480261     3.472618
      3.464974     3.457331     3.449688     3.442045     3.434402     3.426758     3.419115     3.411472     3.403829     3.396185
      3.388542     3.380899     3.373256     3.365613     3.357969     3.350326     3.342683     3.335040     3.327396     3.319753
      3.312110     3.304467     3.296824     3.289180     3.281537     3.273894     3.266251     3.258607     3.250964     3.243321
      3.235678     3.228034     3.220391     3.212748     3.205105     3.197462     3.189818     3.182175     3.174532     3.166889
      3.159245     3.151602     3.143959     3.136316     3.128673     3.121029     3.113386     3.105743     3.098100     3.090456
      3.082813     3.075170     3.067527     3.059884     3.052240     3.044597     3.036954     3.029311     3.021667     3.014024
      3.006381     2.998738     2.991095     2.983451     2.975808     2.968165     2.960522     2.952878     2.945235     2.937592
      2.929949     2.922306     2.914662     2.907019     2.899376     2.891733     2.884089     2.876446     2.868803     2.861160
      2.853517     2.845873     2.838230     2.830587     2.822944     2.815300     2.807657     2.800014     2.792371     2.784728
      2.777084     2.769441     2.761798     2.754155     2.746511     2.738868     2.731225     2.723582     2.715939     2.708295
      2.700652     2.693009     2.685366     2.677722     2.670079     2.662436     2.654793     2.647150     2.639506     2.631863
      2.624220     2.616577     2.608933     2.601290     2.593647     2.586004     2.578361     2.570717     2.563074     2.555431
      2.547788     2.540144     2.532501     2.524858     2.517215     2.509572     2.501928     2.494285     2.486642     2.478999
      2.471355     2.463712     2.456069     2.448426     2.440783     2.433139     2.425496     2.417853     2.410210     2.402566
      2.394923     2.387280     2.379637     2.371994     2.364350     2.356707     2.349064     2.341421     2.333777     2.326134
      2.318491     2.310848     2.303205     2.295561     2.287918     2.280275     2.272632     2.264988     2.257345     2.249702
      2.242059     2.234416     2.226772     2.219129     2.211486     2.203843     2.196199     2.188556     2.180913     2.173270
      2.165627     2.157983     2.150340     2.142697     2.135054     2.127410     2.119767     2.112124     2.104481     2.096838
      2.089194     2.081551     2.073908     2.066265     2.058621     2.050978     2.043335     2.035692     2.028049     2.020405
      2.012762     2.005119     1.997476     1.989833     1.982190     1.974546     1.966903     1.959260     1.951617     1.943974
      1.936331     1.928688     1.921045     1.913402     1.905759     1.898115     1.890472     1.882829     1.875186     1.867543
      1.859900     1.852257     1.844614     1.836971     1.829327     1.821684     1.814041     1.806398     1.798755     1.791112
      1.783469     1.775826     1.768183     1.760540     1.752896     1.745253     1.737610     1.729967     1.722324     1.714681
      1.707038     1.699395     1.691752     1.684108     1.676465     1.668822     1.661179     1.653536     1.645893     1.638250
      1.630607     1.622964     1.615321     1.607677     1.600034     1.592391     1.584748     1.577105     1.569462     1.561819
      1.554176     1.546533     1.538890     1.531246     1.523603     1.515960     1.508317     1.500674     1.493031     1.485388
      1.477745     1.470102     1.462458     1.454815     1.447172     1.439529     1.431886     1.424243     1.416600     1.408957
      1.401314     1.393671     1.386027     1.378384     1.370741     1.363098     1.355455     1.347812     1.340169     1.332526
      1.324883     1.317240     1.309596     1.301953     1.294310     1.286667     1.279024     1.271381     1.263738     1.256095
      1.248452     1.240808     1.233165     1.225522     1.217879     1.210236     1.202593     1.194950     1.187307     1.179664
      1.172021     1.164377     1.156734     1.149091     1.141448     1.133805     1.126162     1.118519     1.110876     1.103233
      1.095590     1.087946     1.080303     1.072660     1.065017     1.057374     1.049731     1.042088     1.034445     1.026802
      1.019158     1.011515     1.003872     0.996229     0.988586     0.980943     0.973300     0.965657     0.958014     0.950371
      0.942727     0.935084     0.927441     0.919798     0.912155     0.904512     0.896869     0.889226     0.881583     0.873940
      0.866296     0.858653     0.851010     0.843367     0.835724     0.828081     0.820438     0.812795     0.805152     0.797508
      0.789865     0.782222     0.774579     0.766936     0.759293     0.751650     0.744007     0.736364     0.728721     0.721077
      0.713434     0.705791     0.698148     0.690505     0.682862     0.675219     0.667576     0.659933     0.652290     0.644646
      0.637003     0.629360     0.621717     0.614074     0.606431     0.598788     0.591145     0.583502     0.575858     0.568215
      0.560572     0.552929     0.545286     0.537643     0.530000     0.522357     0.514714     0.507071     0.499427     0.491784
      0.484141     0.476498     0.468855     0.461212     0.453569     0.445925     0.438282     0.430639     0.422996     0.415353
      0.407710     0.400067     0.392424     0.384780     0.377137     0.369494     0.361851     0.354208     0.346565     0.338922
      0.331278     0.323635     0.315992     0.308349     0.300706     0.293063     0.285420     0.277777     0.270133     0.262490
      0.254847     0.247204     0.239561     0.231918     0.224275     0.216631     0.208988     0.201345
 NY phased data points follow
  -8.64688E+00  4.78183E+00 -1.28093E+00  9.00306E+00  6.29205E+00  1.91535E+01  1.67224E+01  3.55304E+01  3.37192E+01  4.65120E+01
   4.50916E+01  5.27355E+01  4.18894E+01  3.47648E+01  2.63647E+01  2.37883E+01  1.60758E+01  5.87286E+00  2.47150E+00  4.62260E+00
  -1.22092E+00  4.62561E+00 -3.95055E+00  1.19226E+01  3.22124E+00  9.08114E+00  3.14029E+00  1.01452E+01  1.08308E+01  7.09115E+00
   1.20341E+01  1.29808E+01  1.03651E+01  1.69615E+01  7.17715E+00  1.65018E+01  6.07157E+00  1.42141E+01  3.09538E+00  1.25092E+01
   8.99243E+00  7.55834E+00  4.62551E+00  1.34879E+01  8.24077E+00  8.03514E+00  8.13741E+00  1.61643E+01  1.66059E+01  7.33580E+00
   5.73133E+00  6.72040E+00  2.24719E+00  6.29777E+00 -2.49907E+00  4.39857E+00  2.83250E+00  8.10187E+00  1.67236E+00  3.75521E+00
   2.69593E+00  1.75418E+00 -4.77960E+00 -6.74933E+00 -5.49399E+00 -2.11176E+00 -7.29303E+00 -5.84834E+00 -1.09563E+01 -1.56573E+00
  -7.91760E+00  7.53088E-01 -1.16826E+00 -2.21207E+00 -1.04885E+00 -1.77473E+00 -4.87211E+00  3.99216E-02 -2.71528E+00  2.28244E+00
  -5.73375E+00 -9.82629E-01 -5.95593E+00  5.01072E+00 -5.24381E-01 -1.07367E-01  3.96171E+00  6.35881E+00  2.40956E+00  3.56411E+00
  -5.74738E-01  3.63862E+00  7.65879E+00  5.85308E+00  2.84660E+00  5.18853E+00  5.54332E+00  1.65633E+01  1.87321E+01  3.54189E+01
   4.47658E+01  6.65796E+01  7.02554E+01  7.86244E+01  6.67092E+01  6.37465E+01  4.44045E+01  3.37481E+01  2.34208E+01  2.08455E+01
   1.19181E+01  7.03818E+00 -1.03690E+00  2.49073E+00 -3.51047E+00  2.67612E+00  3.92770E+00  1.87062E+00 -3.70067E+00  3.81861E+00
   6.33730E+00  9.62765E+00  1.93419E+01  1.74381E+01  3.24590E+01  4.16606E+01  5.16200E+01  5.96700E+01  6.22661E+01  5.34994E+01
   3.80980E+01  3.18328E+01  1.81504E+01  1.68046E+01  4.49724E+00  2.09844E+00  3.09413E+00  2.96415E+00 -3.84470E-01 -3.17386E+00
  -6.41516E+00 -3.22573E+00 -4.66800E+00 -1.76318E+00 -7.09569E+00 -8.42388E+00 -4.07872E+00 -5.74504E+00 -7.46371E-01 -4.04699E+00
  -4.85293E+00  4.68524E+00 -2.47463E+00 -5.22268E+00 -5.75350E+00 -3.90490E+00 -5.68705E+00 -2.00572E+00 -3.92372E+00 -7.70419E+00
  -8.72772E+00 -6.38028E+00 -9.49195E+00 -2.62691E+00 -4.13726E+00 -2.38524E+00 -8.87338E-01  7.70513E-01 -7.77393E+00 -6.84806E+00
  -7.25426E+00 -5.86187E+00 -1.10565E+01 -1.36918E+01 -1.36803E+01 -1.15384E+01 -1.14686E+01 -1.23290E+01 -1.11507E+01 -1.19216E+01
  -1.38442E+01 -1.48577E+01 -1.30140E+01 -1.05492E+01 -1.64887E+01 -1.56062E+01 -8.56444E+00 -3.36949E+00 -1.76309E+00  1.10825E+00
   5.73519E+00  6.81622E+00  3.52254E+00  4.03234E+00  4.71809E+00  1.17486E+01  2.27208E+00  6.23301E+00  1.21740E+00 -3.90391E+00
  -2.30885E+00  1.15068E-01 -6.63463E-01  6.19685E+00  9.06539E+00  2.98644E+00  2.36625E+00 -3.91127E+00 -3.59947E+00  6.18569E-01
  -1.15635E+01 -1.84274E+00  2.75356E+00  7.78870E+00  6.36576E+00  6.74840E+00  1.69490E+01  1.16281E+01  7.87082E+00  5.32576E+00
  -3.08248E+00  1.30102E+00 -3.83193E-02  7.31764E-01 -2.53424E+00  3.78228E+00  3.53349E+00  7.70666E+00  1.01908E+01  1.08987E+01
   9.31258E+00  5.75519E+00  7.59878E+00  5.56589E+00  9.68431E+00  3.46202E+00  3.08940E+00  6.18055E+00  4.40466E+00  2.38875E-01
  -6.18586E-01  1.91334E+00  2.38556E+00  6.29602E+00  6.52066E+00  2.73172E+00  4.48118E+00  1.07806E+01  1.25930E+01  1.11881E+01
   1.10570E+01  1.46914E+01  1.88238E+01  2.38489E+01  3.32259E+01  3.66015E+01  4.09393E+01  5.35666E+01  7.56384E+01  9.21361E+01
   9.02283E+01  8.48528E+01  6.90007E+01  5.20242E+01  4.25076E+01  3.22588E+01  2.21104E+01  1.53644E+01  1.24731E+01  1.41862E+01
   1.02951E+01  7.20489E+00  4.88241E+00  8.65862E+00  2.59593E+00  4.52587E+00  5.38878E+00  1.24060E+00  2.49546E+00  9.81413E+00
   1.48819E+00  7.32594E+00  1.52525E+00 -7.49272E-02  1.57066E+00 -1.10566E+00 -5.03356E-01  4.08834E+00 -9.84228E-01  1.03881E+00
   9.29037E-01  3.89188E+00  1.90264E+00  3.08338E+00 -5.07157E-01 -2.46346E+00 -1.17312E+00  2.25562E+00  1.70888E+00  5.71434E+00
   2.38714E+00  2.52176E+00  3.40812E-01 -1.55241E+00  4.61858E+00  5.79788E+00  5.26943E-01 -1.13261E+00  5.17797E+00  5.38388E+00
   4.47474E+00  6.17924E+00  5.54762E+00  2.09460E+00  6.82703E+00  2.93278E+00  4.24522E+00  5.25315E+00  4.30877E+00  2.52161E+00
  -1.24617E+00  2.47832E+00 -9.43365E-01  4.30068E+00  1.46714E+00 -3.09186E-01  1.59640E+00  1.05047E-01  1.72114E-03 -1.57600E+00
  -3.87327E+00  2.64571E+00  3.01550E+00  2.96903E+00  1.63975E+00 -1.56481E+00 -4.36291E+00 -5.88484E+00 -2.64461E+00 -1.25862E+00
   4.19758E+00 -2.28590E+00 -9.03838E+00 -2.06988E+00 -4.62414E+00  1.95562E+00 -1.58421E+00  1.24278E+00 -5.98762E+00  1.09121E+00
  -4.97766E+00  5.18484E+00  3.76597E+00  6.51812E+00  4.84762E+00  4.86930E+00 -5.06362E-01  4.30150E+00  4.45940E+00  3.20190E+00
  -1.24598E+00 -5.47258E-01 -3.28733E+00  8.70935E+00  8.36133E+00  7.69906E+00  6.28599E+00  4.70359E+00  7.49145E+00  6.41424E+00
   9.59082E+00  1.16614E+01  5.22132E+00  6.28008E+00  7.36454E+00  6.99163E+00  8.12748E+00  6.98886E+00  2.12888E+00  9.27796E+00
   9.43839E+00  1.05564E+01  5.53883E+00  1.01597E+01  7.11801E+00  1.01646E+01  7.90387E+00  4.75758E+00  1.04225E+01  4.35288E+00
   4.59462E+00  7.94932E+00  9.43807E+00  8.28206E+00  1.12506E+01  5.83430E+00  1.14177E+01  1.06346E+01  8.50863E+00  9.79263E+00
   1.35866E+01  9.46564E+00  1.13632E+01  1.60184E+01  1.41409E+01  9.24055E+00  1.43931E+01  1.35589E+01  1.62555E+01  1.36167E+01
   9.62622E+00  1.31116E+01  1.11121E+01  1.00935E+01  1.21907E+01  7.97884E+00  7.38935E+00  1.13734E+01  9.24325E+00  1.18265E+01
   6.68585E+00  7.05272E+00  6.67688E+00  5.58788E+00  6.49188E+00  4.23242E+00  8.08416E+00  1.32085E+01  2.60976E+00  7.39456E+00
   9.54070E+00  4.88913E+00  6.75435E+00 -3.31180E-01  1.99954E+00  3.33302E+00  1.85023E+00  1.71855E+00  7.30025E+00  1.62557E+00
   3.70126E+00  7.78576E+00  3.45670E+00  3.30343E+00  5.86522E+00  5.58071E+00  4.40015E+00  5.25256E+00  5.52894E+00  5.29767E+00
   2.28869E-01  3.41569E+00  6.68757E+00  5.67429E+00  4.62525E+00  4.85700E+00  3.38368E+00  7.18043E+00  7.76582E+00  5.28883E+00
   4.47407E+00  7.00154E+00  2.79481E+00  7.60375E+00  4.18576E+00  5.02929E+00  6.40643E+00  3.79836E+00  4.14776E+00  8.19167E+00
   7.42657E+00  2.75387E+00  2.14009E+00  4.52740E+00  9.63442E-01  1.73893E+00  4.54809E+00  5.29451E+00  8.77823E+00  7.99211E+00
   4.71050E+00  4.34500E+00  6.95007E+00  2.46670E+00  2.71259E+00  4.94712E+00  6.88040E+00  1.35826E+01  6.87237E+00  6.20699E+00
   5.04288E+00  4.92793E+00  4.97756E+00  5.49990E+00  3.46004E+00  2.55936E+00  5.99156E+00  6.11737E+00
 NY points of the fit to the data follow
   2.00811E+00  2.30420E+00  3.34498E+00  5.60429E+00  9.46903E+00  1.48133E+01  2.12328E+01  2.83395E+01  3.53328E+01  4.08851E+01
   4.36301E+01  4.28310E+01  3.87972E+01  3.27275E+01  2.60499E+01  1.97661E+01  1.42320E+01  9.44537E+00  5.59897E+00  3.14038E+00
   1.97342E+00  1.42693E+00  1.01654E+00  9.72839E-01  1.40912E+00  2.35437E+00  4.00684E+00  6.40333E+00  9.29087E+00  1.20838E+01
   1.41508E+01  1.49920E+01  1.44208E+01  1.27021E+01  1.02917E+01  7.63091E+00  5.11457E+00  2.98415E+00  1.52283E+00  1.17198E+00
   1.88737E+00  3.29945E+00  5.10502E+00  7.10485E+00  9.11308E+00  1.07324E+01  1.15791E+01  1.13684E+01  1.01269E+01  8.23906E+00
   6.09703E+00  4.09716E+00  2.53838E+00  1.41696E+00  6.73685E-01  4.43934E-01  7.72851E-01  1.34493E+00  1.78854E+00  1.94317E+00
   1.75202E+00  1.21496E+00  4.63333E-01 -3.05599E-01 -8.65153E-01 -1.10346E+00 -1.07074E+00 -8.25503E-01 -4.04869E-01  9.29273E-02
   5.56241E-01  8.73556E-01  9.81243E-01  8.92877E-01  6.71237E-01  4.05709E-01  1.74373E-01  3.24721E-03 -9.07017E-02 -5.69034E-02
   2.21714E-01  6.52291E-01  1.14978E+00  1.69645E+00  2.21688E+00  2.56397E+00  2.61203E+00  2.35098E+00  1.90609E+00  1.49886E+00
   1.28857E+00  1.31707E+00  1.53391E+00  1.88871E+00  2.46839E+00  3.85194E+00  7.77518E+00  1.47347E+01  2.39902E+01  3.54637E+01
   4.87117E+01  6.17872E+01  7.15561E+01  7.51962E+01  7.16809E+01  6.22988E+01  4.98399E+01  3.70957E+01  2.56144E+01  1.56612E+01
   7.19036E+00  8.58432E-01 -2.05826E+00 -2.48449E+00 -2.31675E+00 -2.00619E+00 -1.61769E+00 -1.13191E+00 -4.52873E-01  7.52882E-01
   3.59214E+00  8.92323E+00  1.62746E+01  2.53548E+01  3.58962E+01  4.66871E+01  5.54985E+01  6.00269E+01  5.90154E+01  5.29582E+01
   4.37985E+01  3.37349E+01  2.41509E+01  1.54245E+01  7.57276E+00  1.15211E+00 -2.65597E+00 -3.79691E+00 -3.71020E+00 -3.14337E+00
  -2.41835E+00 -1.75629E+00 -1.25390E+00 -9.49593E-01 -8.99194E-01 -1.07055E+00 -1.37772E+00 -1.77118E+00 -2.19800E+00 -2.59063E+00
  -2.91586E+00 -3.13654E+00 -3.28049E+00 -3.38412E+00 -3.50589E+00 -3.64595E+00 -3.80827E+00 -3.99970E+00 -4.19544E+00 -4.39595E+00
  -4.53111E+00 -4.51514E+00 -4.36328E+00 -4.20762E+00 -4.19813E+00 -4.39627E+00 -4.75421E+00 -5.16317E+00 -5.55129E+00 -5.96522E+00
  -6.43108E+00 -6.87050E+00 -7.25567E+00 -7.55113E+00 -7.72902E+00 -7.77121E+00 -7.64989E+00 -7.41445E+00 -7.19359E+00 -7.08695E+00
  -7.09136E+00 -7.06306E+00 -6.89996E+00 -6.58632E+00 -6.11933E+00 -5.43553E+00 -4.38572E+00 -2.94555E+00 -1.29600E+00  2.54749E-01
   1.36393E+00  1.83075E+00  1.70345E+00  1.14798E+00  3.24816E-01 -5.66286E-01 -1.24096E+00 -1.38273E+00 -8.61212E-01  2.89715E-01
   1.85566E+00  3.47035E+00  4.74291E+00  5.24615E+00  4.84999E+00  3.63797E+00  1.69660E+00 -6.70039E-01 -2.85975E+00 -4.21640E+00
  -4.34783E+00 -3.25215E+00 -1.08359E+00  1.74273E+00  4.54747E+00  6.53217E+00  7.05830E+00  6.02002E+00  3.78468E+00  8.06432E-01
  -2.15717E+00 -4.35380E+00 -5.35731E+00 -4.95567E+00 -3.32231E+00 -9.06458E-01  1.65267E+00  3.75026E+00  5.18958E+00  5.98514E+00
   6.31982E+00  6.37927E+00  6.31120E+00  6.37651E+00  6.73823E+00  7.27391E+00  7.69822E+00  7.84386E+00  7.66048E+00  7.17111E+00
   6.42137E+00  5.63217E+00  5.15821E+00  5.19083E+00  5.68798E+00  6.47009E+00  7.42181E+00  8.42369E+00  9.37574E+00  1.04117E+01
   1.16606E+01  1.32384E+01  1.56097E+01  2.05958E+01  2.84671E+01  3.82498E+01  4.97047E+01  6.24325E+01  7.46655E+01  8.34690E+01
   8.62458E+01  8.20837E+01  7.22622E+01  5.95303E+01  4.66212E+01  3.50156E+01  2.47915E+01  1.58415E+01  8.94293E+00  5.51900E+00
   4.42896E+00  3.94448E+00  3.70383E+00  3.61361E+00  3.58058E+00  3.51141E+00  3.39962E+00  3.24645E+00  3.06057E+00  2.86038E+00
   2.66185E+00  2.47186E+00  2.30650E+00  2.18372E+00  2.09977E+00  2.03787E+00  1.98830E+00  1.95285E+00  1.93562E+00  1.93629E+00
   1.95127E+00  1.98357E+00  2.03379E+00  2.09829E+00  2.17182E+00  2.25122E+00  2.33459E+00  2.42078E+00  2.50867E+00  2.59789E+00
   2.68751E+00  2.77610E+00  2.85992E+00  2.93460E+00  2.99645E+00  3.04290E+00  3.07223E+00  3.08312E+00  3.07487E+00  3.04894E+00
   3.00716E+00  2.95130E+00  2.88364E+00  2.80671E+00  2.72288E+00  2.63481E+00  2.54504E+00  2.45589E+00  2.36935E+00  2.28719E+00
   2.21097E+00  2.14194E+00  2.08092E+00  2.02826E+00  1.98406E+00  1.94828E+00  1.92082E+00  1.90139E+00  1.88951E+00  1.88460E+00
   1.88612E+00  1.89366E+00  1.90688E+00  1.92543E+00  1.94897E+00  1.97719E+00  2.00996E+00  2.04730E+00  2.08932E+00  2.13610E+00
   2.18771E+00  2.24433E+00  2.30625E+00  2.37382E+00  2.44739E+00  2.52716E+00  2.61330E+00  2.70597E+00  2.80530E+00  2.91132E+00
   3.02383E+00  3.14238E+00  3.26632E+00  3.39491E+00  3.52718E+00  3.66196E+00  3.79778E+00  3.93298E+00  4.06583E+00  4.19460E+00
   4.31757E+00  4.43304E+00  4.53941E+00  4.63529E+00  4.71967E+00  4.79195E+00  4.85193E+00  4.89978E+00  4.93610E+00  4.96198E+00
   4.97900E+00  4.98919E+00  4.99486E+00  4.99859E+00  5.00316E+00  5.01159E+00  5.02709E+00  5.05290E+00  5.09224E+00  5.14825E+00
   5.22407E+00  5.32277E+00  5.44731E+00  5.60044E+00  5.78459E+00  6.00186E+00  6.25391E+00  6.54193E+00  6.86638E+00  7.22682E+00
   7.62175E+00  8.04853E+00  8.50329E+00  8.98083E+00  9.47454E+00  9.97643E+00  1.04773E+01  1.09670E+01  1.14346E+01  1.18693E+01
   1.22599E+01  1.25962E+01  1.28689E+01  1.30702E+01  1.31945E+01  1.32384E+01  1.32007E+01  1.30828E+01  1.28885E+01  1.26238E+01
   1.22966E+01  1.19161E+01  1.14926E+01  1.10368E+01  1.05597E+01  1.00716E+01  9.58223E+00  9.10016E+00  8.63268E+00  8.18574E+00
   7.76391E+00  7.37044E+00  7.00732E+00  6.67536E+00  6.37447E+00  6.10382E+00  5.86205E+00  5.64741E+00  5.45785E+00  5.29114E+00
   5.14508E+00  5.01752E+00  4.90647E+00  4.81003E+00  4.72644E+00  4.65410E+00  4.59161E+00  4.53778E+00  4.49154E+00  4.45197E+00
   4.41821E+00  4.38954E+00  4.36536E+00  4.34517E+00  4.32856E+00  4.31509E+00  4.30439E+00  4.29616E+00  4.29016E+00  4.28619E+00
   4.28407E+00  4.28358E+00  4.28456E+00  4.28687E+00  4.29042E+00  4.29513E+00  4.30090E+00  4.30760E+00  4.31514E+00  4.32347E+00
   4.33256E+00  4.34235E+00  4.35278E+00  4.36377E+00  4.37527E+00  4.38729E+00  4.39980E+00  4.41276E+00  4.42612E+00  4.43983E+00
   4.45388E+00  4.46828E+00  4.48301E+00  4.49805E+00  4.51335E+00  4.52888E+00  4.54465E+00  4.56068E+00  4.57694E+00  4.59340E+00
   4.61002E+00  4.62680E+00  4.64377E+00  4.66092E+00  4.67823E+00  4.69567E+00  4.71322E+00  4.73090E+00  4.74872E+00  4.76668E+00
   4.78475E+00  4.80289E+00  4.82112E+00  4.83946E+00  4.85792E+00  4.87649E+00  4.89513E+00  4.91383E+00
 NY background values follow
    -6.246E+00   -6.225E+00   -6.204E+00   -6.183E+00   -6.162E+00   -6.140E+00   -6.119E+00   -6.098E+00   -6.077E+00   -6.056E+00
    -6.035E+00   -6.013E+00   -5.992E+00   -5.971E+00   -5.950E+00   -5.929E+00   -5.907E+00   -5.886E+00   -5.865E+00   -5.844E+00
    -5.823E+00   -5.801E+00   -5.780E+00   -5.759E+00   -5.738E+00   -5.716E+00   -5.695E+00   -5.674E+00   -5.653E+00   -5.631E+00
    -5.610E+00   -5.589E+00   -5.568E+00   -5.546E+00   -5.525E+00   -5.504E+00   -5.482E+00   -5.461E+00   -5.440E+00   -5.419E+00
    -5.397E+00   -5.376E+00   -5.355E+00   -5.333E+00   -5.312E+00   -5.291E+00   -5.269E+00   -5.248E+00   -5.227E+00   -5.206E+00
    -5.184E+00   -5.163E+00   -5.142E+00   -5.120E+00   -5.099E+00   -5.078E+00   -5.056E+00   -5.035E+00   -5.014E+00   -4.992E+00
    -4.971E+00   -4.949E+00   -4.928E+00   -4.907E+00   -4.885E+00   -4.864E+00   -4.843E+00   -4.821E+00   -4.800E+00   -4.778E+00
    -4.757E+00   -4.736E+00   -4.714E+00   -4.693E+00   -4.671E+00   -4.650E+00   -4.629E+00   -4.607E+00   -4.586E+00   -4.564E+00
    -4.543E+00   -4.522E+00   -4.500E+00   -4.479E+00   -4.457E+00   -4.436E+00   -4.414E+00   -4.393E+00   -4.372E+00   -4.350E+00
    -4.329E+00   -4.307E+00   -4.286E+00   -4.264E+00   -4.243E+00   -4.221E+00   -4.200E+00   -4.178E+00   -4.157E+00   -4.135E+00
    -4.114E+00   -4.093E+00   -4.071E+00   -4.050E+00   -4.028E+00   -4.007E+00   -3.985E+00   -3.964E+00   -3.942E+00   -3.921E+00
    -3.899E+00   -3.878E+00   -3.856E+00   -3.835E+00   -3.813E+00   -3.792E+00   -3.770E+00   -3.748E+00   -3.727E+00   -3.705E+00
    -3.684E+00   -3.662E+00   -3.641E+00   -3.619E+00   -3.598E+00   -3.576E+00   -3.555E+00   -3.533E+00   -3.511E+00   -3.490E+00
    -3.468E+00   -3.447E+00   -3.425E+00   -3.404E+00   -3.382E+00   -3.361E+00   -3.339E+00   -3.317E+00   -3.296E+00   -3.274E+00
    -3.253E+00   -3.231E+00   -3.209E+00   -3.188E+00   -3.166E+00   -3.145E+00   -3.123E+00   -3.101E+00   -3.080E+00   -3.058E+00
    -3.037E+00   -3.015E+00   -2.993E+00   -2.972E+00   -2.950E+00   -2.928E+00   -2.907E+00   -2.885E+00   -2.864E+00   -2.842E+00
    -2.820E+00   -2.799E+00   -2.777E+00   -2.755E+00   -2.734E+00   -2.712E+00   -2.690E+00   -2.669E+00   -2.647E+00   -2.625E+00
    -2.604E+00   -2.582E+00   -2.560E+00   -2.539E+00   -2.517E+00   -2.495E+00   -2.474E+00   -2.452E+00   -2.430E+00   -2.409E+00
    -2.387E+00   -2.365E+00   -2.344E+00   -2.322E+00   -2.300E+00   -2.279E+00   -2.257E+00   -2.235E+00   -2.213E+00   -2.192E+00
    -2.170E+00   -2.148E+00   -2.127E+00   -2.105E+00   -2.083E+00   -2.061E+00   -2.040E+00   -2.018E+00   -1.996E+00   -1.975E+00
    -1.953E+00   -1.931E+00   -1.909E+00   -1.888E+00   -1.866E+00   -1.844E+00   -1.822E+00   -1.801E+00   -1.779E+00   -1.757E+00
    -1.735E+00   -1.714E+00   -1.692E+00   -1.670E+00   -1.648E+00   -1.627E+00   -1.605E+00   -1.583E+00   -1.561E+00   -1.540E+00
    -1.518E+00   -1.496E+00   -1.474E+00   -1.453E+00   -1.431E+00   -1.409E+00   -1.387E+00   -1.366E+00   -1.344E+00   -1.322E+00
    -1.300E+00   -1.278E+00   -1.257E+00   -1.235E+00   -1.213E+00   -1.191E+00   -1.169E+00   -1.148E+00   -1.126E+00   -1.104E+00
    -1.082E+00   -1.060E+00   -1.039E+00   -1.017E+00   -9.950E-01   -9.732E-01   -9.514E-01   -9.296E-01   -9.078E-01   -8.860E-01
    -8.642E-01   -8.424E-01   -8.205E-01   -7.987E-01   -7.769E-01   -7.551E-01   -7.333E-01   -7.114E-01   -6.896E-01   -6.678E-01
    -6.460E-01   -6.241E-01   -6.023E-01   -5.805E-01   -5.586E-01   -5.368E-01   -5.150E-01   -4.931E-01   -4.713E-01   -4.494E-01
    -4.276E-01   -4.058E-01   -3.839E-01   -3.621E-01   -3.402E-01   -3.184E-01   -2.965E-01   -2.747E-01   -2.528E-01   -2.310E-01
    -2.091E-01   -1.873E-01   -1.654E-01   -1.436E-01   -1.217E-01   -9.983E-02   -7.797E-02   -5.611E-02   -3.425E-02   -1.238E-02
     9.484E-03    3.135E-02    5.322E-02    7.509E-02    9.696E-02    1.188E-01    1.407E-01    1.626E-01    1.844E-01    2.063E-01
     2.282E-01    2.501E-01    2.720E-01    2.938E-01    3.157E-01    3.376E-01    3.595E-01    3.814E-01    4.032E-01    4.251E-01
     4.470E-01    4.689E-01    4.908E-01    5.127E-01    5.346E-01    5.565E-01    5.784E-01    6.002E-01    6.221E-01    6.440E-01
     6.659E-01    6.878E-01    7.097E-01    7.316E-01    7.535E-01    7.754E-01    7.973E-01    8.192E-01    8.411E-01    8.630E-01
     8.849E-01    9.068E-01    9.287E-01    9.506E-01    9.726E-01    9.945E-01    1.016E+00    1.038E+00    1.060E+00    1.082E+00
     1.104E+00    1.126E+00    1.148E+00    1.170E+00    1.192E+00    1.214E+00    1.235E+00    1.257E+00    1.279E+00    1.301E+00
     1.323E+00    1.345E+00    1.367E+00    1.389E+00    1.411E+00    1.433E+00    1.455E+00    1.477E+00    1.498E+00    1.520E+00
     1.542E+00    1.564E+00    1.586E+00    1.608E+00    1.630E+00    1.652E+00    1.674E+00    1.696E+00    1.718E+00    1.740E+00
     1.762E+00    1.783E+00    1.805E+00    1.827E+00    1.849E+00    1.871E+00    1.893E+00    1.915E+00    1.937E+00    1.959E+00
     1.981E+00    2.003E+00    2.025E+00    2.047E+00    2.068E+00    2.090E+00    2.112E+00    2.134E+00    2.156E+00    2.178E+00
     2.200E+00    2.222E+00    2.244E+00    2.266E+00    2.288E+00    2.310E+00    2.332E+00    2.354E+00    2.375E+00    2.397E+00
     2.419E+00    2.441E+00    2.463E+00    2.485E+00    2.507E+00    2.529E+00    2.551E+00    2.573E+00    2.595E+00    2.617E+00
     2.639E+00    2.660E+00    2.682E+00    2.704E+00    2.726E+00    2.748E+00    2.770E+00    2.792E+00    2.814E+00    2.836E+00
     2.858E+00    2.880E+00    2.902E+00    2.924E+00    2.945E+00    2.967E+00    2.989E+00    3.011E+00    3.033E+00    3.055E+00
     3.077E+00    3.099E+00    3.121E+00    3.143E+00    3.165E+00    3.187E+00    3.208E+00    3.230E+00    3.252E+00    3.274E+00
     3.296E+00    3.318E+00    3.340E+00    3.362E+00    3.384E+00    3.406E+00    3.428E+00    3.450E+00    3.471E+00    3.493E+00
     3.515E+00    3.537E+00    3.559E+00    3.581E+00    3.603E+00    3.625E+00    3.647E+00    3.669E+00    3.690E+00    3.712E+00
     3.734E+00    3.756E+00    3.778E+00    3.800E+00    3.822E+00    3.844E+00    3.866E+00    3.888E+00    3.909E+00    3.931E+00
     3.953E+00    3.975E+00    3.997E+00    4.019E+00    4.041E+00    4.063E+00    4.085E+00    4.106E+00    4.128E+00    4.150E+00
     4.172E+00    4.194E+00    4.216E+00    4.238E+00    4.260E+00    4.281E+00    4.303E+00    4.325E+00    4.347E+00    4.369E+00
     4.391E+00    4.413E+00    4.435E+00    4.456E+00    4.478E+00    4.500E+00    4.522E+00    4.544E+00
 Cr       Conc. = 1.00E+03
