 LCModel (Version 6.3-1L) Copyright: S.W. Provencher.          Ref.: Magn. Reson. Med. 30:672-679 (1993).                
 Slice#3 Row#7 Col#12  PD_24_press_1_raw_act
 36 lines in following concentration table = NCONC+1
    Conc.  %SD /Cr+PCr  Metabolite                                         
    0.000 999%   0.000 Ala                                                 
    5.885  69%   1.999 Asp                                                 
    2.944 141%   1.000 Cr                                                  
    0.000 999%   0.000 PCr                                                 
    0.000 999%   0.000 GABA                                                
    2.256 138%   0.766 Glc                                                 
   55.288  42%  18.782 Gln                                                 
   54.284  42%  18.440 Glu                                                 
    0.000 999%   0.000 GPC                                                 
    1.685  47%   0.572 PCh                                                 
    0.000 999%   0.000 GSH                                                 
   12.041  49%   4.090 Ins                                                 
   17.205  54%   5.845 Lac                                                 
    0.000 999%   0.000 NAA                                                 
    0.000 999%   0.000 NAAG                                                
    2.634  41%   0.895 Scyllo                                              
   14.205  48%   4.825 Tau                                                 
    0.000 999%   0.000 -CrCH2                                              
    1.685  47%   0.572 GPC+PCh                                             
    0.000 999%   0.000 NAA+NAAG                                            
    2.944  46%   1.000 Cr+PCr                                              
  109.572  42%  37.222 Glu+Gln                                             
 6.18E+04  16% 2.1E+04 Lip13a                                              
  159.656 267%  54.236 Lip13b                                              
 1.73E+04  19% 5.9E+03 Lip09                                               
 5.05E+03  27% 1.7E+03 MM09                                                
 2.00E+03  42% 679.411 Lip20                                               
 4.50E+03  19% 1.5E+03 MM20                                                
 1.47E+03 144% 498.678 MM12                                                
 4.19E+04  15% 1.4E+04+MM14                                                
 4.68E+04  12% 1.6E+04+MM17                                                
 6.20E+04  16% 2.1E+04 Lip13a+Lip13b                                       
 1.05E+05   8% 3.6E+04 MM14+Lip13a+Lip13b+MM12                             
 2.24E+04  15% 7.6E+03 MM09+Lip09                                          
 6.50E+03  12% 2.2E+03 MM20+Lip20                                          
   6 lines in following misc. output table
  FWHM = 0.092 ppm    S/N =  47                                            
  Data shift = 0.191 ppm                                                   
  Ph: 108 deg      -4.4 deg/ppm                                            
  alphaB,S = 3.0E+00,   3.6E-01                                            
    7 spline knots.   Ns = 9(2)                                            
   9 inflections.     2 extrema                                            
  498 points on ppm-axis = NY
      4.000000     3.992357     3.984714     3.977070     3.969427     3.961784     3.954141     3.946497     3.938854     3.931211
      3.923568     3.915925     3.908281     3.900638     3.892995     3.885352     3.877708     3.870065     3.862422     3.854779
      3.847136     3.839492     3.831849     3.824206     3.816563     3.808919     3.801276     3.793633     3.785990     3.778347
      3.770703     3.763060     3.755417     3.747774     3.740130     3.732487     3.724844     3.717201     3.709558     3.701914
      3.694271     3.686628     3.678985     3.671341     3.663698     3.656055     3.648412     3.640769     3.633125     3.625482
      3.617839     3.610196     3.602552     3.594909     3.587266     3.579623     3.571980     3.564336     3.556693     3.549050
      3.541407     3.533763     3.526120     3.518477     3.510834     3.503191     3.495547     3.487904     3.480261     3.472618
      3.464974     3.457331     3.449688     3.442045     3.434402     3.426758     3.419115     3.411472     3.403829     3.396185
      3.388542     3.380899     3.373256     3.365613     3.357969     3.350326     3.342683     3.335040     3.327396     3.319753
      3.312110     3.304467     3.296824     3.289180     3.281537     3.273894     3.266251     3.258607     3.250964     3.243321
      3.235678     3.228034     3.220391     3.212748     3.205105     3.197462     3.189818     3.182175     3.174532     3.166889
      3.159245     3.151602     3.143959     3.136316     3.128673     3.121029     3.113386     3.105743     3.098100     3.090456
      3.082813     3.075170     3.067527     3.059884     3.052240     3.044597     3.036954     3.029311     3.021667     3.014024
      3.006381     2.998738     2.991095     2.983451     2.975808     2.968165     2.960522     2.952878     2.945235     2.937592
      2.929949     2.922306     2.914662     2.907019     2.899376     2.891733     2.884089     2.876446     2.868803     2.861160
      2.853517     2.845873     2.838230     2.830587     2.822944     2.815300     2.807657     2.800014     2.792371     2.784728
      2.777084     2.769441     2.761798     2.754155     2.746511     2.738868     2.731225     2.723582     2.715939     2.708295
      2.700652     2.693009     2.685366     2.677722     2.670079     2.662436     2.654793     2.647150     2.639506     2.631863
      2.624220     2.616577     2.608933     2.601290     2.593647     2.586004     2.578361     2.570717     2.563074     2.555431
      2.547788     2.540144     2.532501     2.524858     2.517215     2.509572     2.501928     2.494285     2.486642     2.478999
      2.471355     2.463712     2.456069     2.448426     2.440783     2.433139     2.425496     2.417853     2.410210     2.402566
      2.394923     2.387280     2.379637     2.371994     2.364350     2.356707     2.349064     2.341421     2.333777     2.326134
      2.318491     2.310848     2.303205     2.295561     2.287918     2.280275     2.272632     2.264988     2.257345     2.249702
      2.242059     2.234416     2.226772     2.219129     2.211486     2.203843     2.196199     2.188556     2.180913     2.173270
      2.165627     2.157983     2.150340     2.142697     2.135054     2.127410     2.119767     2.112124     2.104481     2.096838
      2.089194     2.081551     2.073908     2.066265     2.058621     2.050978     2.043335     2.035692     2.028049     2.020405
      2.012762     2.005119     1.997476     1.989833     1.982190     1.974546     1.966903     1.959260     1.951617     1.943974
      1.936331     1.928688     1.921045     1.913402     1.905759     1.898115     1.890472     1.882829     1.875186     1.867543
      1.859900     1.852257     1.844614     1.836971     1.829327     1.821684     1.814041     1.806398     1.798755     1.791112
      1.783469     1.775826     1.768183     1.760540     1.752896     1.745253     1.737610     1.729967     1.722324     1.714681
      1.707038     1.699395     1.691752     1.684108     1.676465     1.668822     1.661179     1.653536     1.645893     1.638250
      1.630607     1.622964     1.615321     1.607677     1.600034     1.592391     1.584748     1.577105     1.569462     1.561819
      1.554176     1.546533     1.538890     1.531246     1.523603     1.515960     1.508317     1.500674     1.493031     1.485388
      1.477745     1.470102     1.462458     1.454815     1.447172     1.439529     1.431886     1.424243     1.416600     1.408957
      1.401314     1.393671     1.386027     1.378384     1.370741     1.363098     1.355455     1.347812     1.340169     1.332526
      1.324883     1.317240     1.309596     1.301953     1.294310     1.286667     1.279024     1.271381     1.263738     1.256095
      1.248452     1.240808     1.233165     1.225522     1.217879     1.210236     1.202593     1.194950     1.187307     1.179664
      1.172021     1.164377     1.156734     1.149091     1.141448     1.133805     1.126162     1.118519     1.110876     1.103233
      1.095590     1.087946     1.080303     1.072660     1.065017     1.057374     1.049731     1.042088     1.034445     1.026802
      1.019158     1.011515     1.003872     0.996229     0.988586     0.980943     0.973300     0.965657     0.958014     0.950371
      0.942727     0.935084     0.927441     0.919798     0.912155     0.904512     0.896869     0.889226     0.881583     0.873940
      0.866296     0.858653     0.851010     0.843367     0.835724     0.828081     0.820438     0.812795     0.805152     0.797508
      0.789865     0.782222     0.774579     0.766936     0.759293     0.751650     0.744007     0.736364     0.728721     0.721077
      0.713434     0.705791     0.698148     0.690505     0.682862     0.675219     0.667576     0.659933     0.652290     0.644646
      0.637003     0.629360     0.621717     0.614074     0.606431     0.598788     0.591145     0.583502     0.575858     0.568215
      0.560572     0.552929     0.545286     0.537643     0.530000     0.522357     0.514714     0.507071     0.499427     0.491784
      0.484141     0.476498     0.468855     0.461212     0.453569     0.445925     0.438282     0.430639     0.422996     0.415353
      0.407710     0.400067     0.392424     0.384780     0.377137     0.369494     0.361851     0.354208     0.346565     0.338922
      0.331278     0.323635     0.315992     0.308349     0.300706     0.293063     0.285420     0.277777     0.270133     0.262490
      0.254847     0.247204     0.239561     0.231918     0.224275     0.216631     0.208988     0.201345
 NY phased data points follow
  -3.76461E+01 -3.73558E+01 -3.80280E+01 -3.86038E+01 -3.78558E+01 -3.95782E+01 -3.93289E+01 -3.65859E+01 -3.89930E+01 -3.89060E+01
  -4.08941E+01 -3.88014E+01 -4.06989E+01 -3.93732E+01 -4.23404E+01 -3.91445E+01 -4.27276E+01 -3.88155E+01 -3.87810E+01 -3.88319E+01
  -4.09039E+01 -4.11291E+01 -4.30127E+01 -4.02555E+01 -4.10821E+01 -4.06777E+01 -4.12459E+01 -4.14629E+01 -4.26174E+01 -4.23361E+01
  -4.21369E+01 -4.05310E+01 -4.56840E+01 -3.90125E+01 -4.15079E+01 -4.30081E+01 -4.24055E+01 -3.93355E+01 -3.82779E+01 -4.34061E+01
  -4.47678E+01 -4.16021E+01 -4.32494E+01 -4.38179E+01 -4.64393E+01 -4.53479E+01 -4.43820E+01 -4.31298E+01 -4.45198E+01 -4.43707E+01
  -4.59229E+01 -4.24748E+01 -4.94004E+01 -4.42473E+01 -4.63656E+01 -4.52584E+01 -4.67727E+01 -4.76553E+01 -4.76816E+01 -4.80269E+01
  -4.73089E+01 -4.77522E+01 -4.73094E+01 -5.04104E+01 -4.77938E+01 -4.83089E+01 -5.23908E+01 -5.10015E+01 -5.04557E+01 -4.81673E+01
  -4.86252E+01 -5.08537E+01 -5.16288E+01 -4.93329E+01 -5.34815E+01 -5.33995E+01 -5.70701E+01 -6.18363E+01 -6.28834E+01 -5.89870E+01
  -5.64858E+01 -5.26209E+01 -5.36815E+01 -5.39809E+01 -5.15511E+01 -5.11918E+01 -5.10469E+01 -5.03584E+01 -5.20694E+01 -5.18568E+01
  -5.56032E+01 -5.75063E+01 -5.68092E+01 -5.66758E+01 -5.80111E+01 -5.82154E+01 -5.80006E+01 -5.90332E+01 -5.97692E+01 -6.24697E+01
  -6.36855E+01 -6.36394E+01 -6.42980E+01 -6.29985E+01 -6.05964E+01 -5.84500E+01 -5.89150E+01 -5.87827E+01 -6.10032E+01 -6.03627E+01
  -5.88281E+01 -5.57432E+01 -5.88120E+01 -5.78949E+01 -6.02755E+01 -6.48796E+01 -6.37869E+01 -6.65826E+01 -6.38398E+01 -6.42279E+01
  -6.55749E+01 -6.55132E+01 -6.76789E+01 -6.60609E+01 -6.59526E+01 -6.72046E+01 -6.98052E+01 -6.89780E+01 -7.08334E+01 -7.37695E+01
  -7.20703E+01 -7.03133E+01 -7.02475E+01 -7.40691E+01 -7.45360E+01 -7.23299E+01 -7.46969E+01 -7.27958E+01 -7.47179E+01 -7.61820E+01
  -7.49375E+01 -7.88335E+01 -7.64707E+01 -7.91271E+01 -7.77162E+01 -7.87098E+01 -8.16397E+01 -8.14102E+01 -8.33837E+01 -8.05969E+01
  -8.36776E+01 -8.59726E+01 -9.10165E+01 -8.85051E+01 -8.98726E+01 -8.84171E+01 -9.26251E+01 -9.02452E+01 -9.25036E+01 -9.42761E+01
  -9.50606E+01 -9.60228E+01 -9.82232E+01 -9.70225E+01 -1.00614E+02 -9.55032E+01 -1.03648E+02 -1.01558E+02 -1.02431E+02 -1.05052E+02
  -1.00227E+02 -1.08394E+02 -1.06025E+02 -1.07347E+02 -1.11474E+02 -1.09461E+02 -1.07593E+02 -1.11918E+02 -1.11159E+02 -1.10872E+02
  -1.14652E+02 -1.16161E+02 -1.13377E+02 -1.14734E+02 -1.17254E+02 -1.16053E+02 -1.14602E+02 -1.18316E+02 -1.15763E+02 -1.19709E+02
  -1.18549E+02 -1.19981E+02 -1.19372E+02 -1.20616E+02 -1.20045E+02 -1.21262E+02 -1.20415E+02 -1.20259E+02 -1.19913E+02 -1.22727E+02
  -1.21526E+02 -1.23003E+02 -1.24290E+02 -1.25834E+02 -1.26614E+02 -1.22763E+02 -1.21211E+02 -1.23946E+02 -1.21742E+02 -1.21258E+02
  -1.23254E+02 -1.20629E+02 -1.23206E+02 -1.23024E+02 -1.22670E+02 -1.25640E+02 -1.24581E+02 -1.22463E+02 -1.28005E+02 -1.24060E+02
  -1.25086E+02 -1.25555E+02 -1.26816E+02 -1.23471E+02 -1.25519E+02 -1.27587E+02 -1.25603E+02 -1.22415E+02 -1.22650E+02 -1.23034E+02
  -1.17104E+02 -1.11942E+02 -1.11880E+02 -1.11390E+02 -1.12154E+02 -1.09877E+02 -1.11736E+02 -1.06227E+02 -1.00343E+02 -9.73951E+01
  -1.01786E+02 -9.90716E+01 -1.01427E+02 -9.78445E+01 -9.83195E+01 -1.00066E+02 -1.00781E+02 -1.00403E+02 -1.01117E+02 -1.02443E+02
  -9.91779E+01 -1.00839E+02 -9.95788E+01 -9.78442E+01 -9.94591E+01 -9.86382E+01 -1.00273E+02 -9.89893E+01 -9.37533E+01 -9.63146E+01
  -9.47132E+01 -9.54581E+01 -9.48797E+01 -9.44225E+01 -8.82835E+01 -9.22913E+01 -9.06230E+01 -9.04928E+01 -8.72852E+01 -8.41981E+01
  -8.28709E+01 -7.92350E+01 -7.81359E+01 -7.13914E+01 -7.01278E+01 -6.63523E+01 -6.43617E+01 -6.04848E+01 -5.45542E+01 -5.14015E+01
  -4.57249E+01 -4.18539E+01 -3.93090E+01 -2.93156E+01 -2.71650E+01 -2.15606E+01 -1.36926E+01 -8.88554E+00 -2.87003E+00  2.16901E+00
   1.09408E+01  1.74329E+01  2.38264E+01  3.54287E+01  4.63147E+01  5.38507E+01  6.46647E+01  7.22880E+01  8.04594E+01  9.38850E+01
   9.80840E+01  1.09419E+02  1.17140E+02  1.24238E+02  1.30246E+02  1.39779E+02  1.44819E+02  1.52583E+02  1.55738E+02  1.61825E+02
   1.65929E+02  1.72031E+02  1.76889E+02  1.78703E+02  1.82734E+02  1.86351E+02  1.86465E+02  1.86813E+02  1.88834E+02  1.89751E+02
   1.91436E+02  1.92877E+02  1.97701E+02  2.00211E+02  1.93879E+02  1.97313E+02  1.97908E+02  1.96721E+02  1.97467E+02  1.94364E+02
   1.98311E+02  1.98448E+02  1.96248E+02  1.95857E+02  1.99684E+02  1.94866E+02  1.95892E+02  1.90337E+02  1.92939E+02  1.89651E+02
   1.89600E+02  1.87730E+02  1.87709E+02  1.86078E+02  1.84881E+02  1.83554E+02  1.80549E+02  1.77110E+02  1.77209E+02  1.74628E+02
   1.72897E+02  1.71752E+02  1.71702E+02  1.69803E+02  1.68351E+02  1.68501E+02  1.62428E+02  1.59588E+02  1.58547E+02  1.61433E+02
   1.56384E+02  1.53875E+02  1.51834E+02  1.52773E+02  1.51797E+02  1.48476E+02  1.48067E+02  1.41828E+02  1.42008E+02  1.42356E+02
   1.38107E+02  1.37805E+02  1.37834E+02  1.38853E+02  1.34018E+02  1.30448E+02  1.29230E+02  1.27817E+02  1.28889E+02  1.27337E+02
   1.26292E+02  1.22168E+02  1.20010E+02  1.19868E+02  1.20858E+02  1.16203E+02  1.18178E+02  1.15942E+02  1.11302E+02  1.11760E+02
   1.13248E+02  1.11105E+02  1.09728E+02  1.08505E+02  1.05240E+02  1.04865E+02  1.06060E+02  1.02821E+02  1.01034E+02  1.02929E+02
   9.90493E+01  9.82399E+01  9.44365E+01  9.61212E+01  9.14009E+01  9.40157E+01  9.22367E+01  9.51877E+01  8.97538E+01  8.98882E+01
   8.80991E+01  8.76260E+01  8.96932E+01  8.57325E+01  8.53347E+01  8.42950E+01  8.06502E+01  8.19492E+01  8.11338E+01  8.09027E+01
   8.08675E+01  7.93135E+01  7.98482E+01  7.80342E+01  7.91928E+01  7.45181E+01  7.51117E+01  7.13996E+01  7.43545E+01  7.53391E+01
   7.16834E+01  7.31856E+01  7.44056E+01  6.89479E+01  6.92560E+01  6.94203E+01  6.99219E+01  6.99389E+01  6.88509E+01  6.49996E+01
   6.75974E+01  6.57285E+01  6.61984E+01  6.38350E+01  6.66975E+01  6.40277E+01  6.31329E+01  6.19678E+01  6.38283E+01  6.10922E+01
   5.99647E+01  6.10010E+01  6.45794E+01  6.19175E+01  6.20634E+01  6.07311E+01  5.82641E+01  5.53494E+01  5.48306E+01  5.88476E+01
   5.52415E+01  5.83461E+01  5.61340E+01  5.55056E+01  5.66932E+01  5.60250E+01  5.96267E+01  5.49828E+01  5.37568E+01  5.69224E+01
   5.36440E+01  5.38683E+01  5.32024E+01  5.33275E+01  5.11733E+01  5.15548E+01  5.36496E+01  5.20448E+01  4.99020E+01  4.97418E+01
   4.89254E+01  4.96233E+01  5.35011E+01  4.87646E+01  5.00146E+01  4.63458E+01  4.78186E+01  4.86774E+01  4.76013E+01  4.84800E+01
   4.79828E+01  4.60428E+01  4.87043E+01  4.74997E+01  4.77412E+01  4.65564E+01  4.62085E+01  4.72418E+01
 NY points of the fit to the data follow
  -3.70852E+01 -3.69720E+01 -3.76704E+01 -3.76681E+01 -3.80440E+01 -3.80021E+01 -3.89721E+01 -3.95124E+01 -3.96378E+01 -3.90354E+01
  -3.93707E+01 -3.90725E+01 -3.96528E+01 -3.96831E+01 -4.10130E+01 -4.01470E+01 -4.11929E+01 -3.97154E+01 -4.09216E+01 -3.97684E+01
  -4.17918E+01 -4.18748E+01 -4.27929E+01 -4.19125E+01 -4.19352E+01 -4.19367E+01 -4.12722E+01 -4.23531E+01 -4.12201E+01 -4.24439E+01
  -4.04949E+01 -4.25473E+01 -4.09992E+01 -4.30923E+01 -4.17262E+01 -4.41370E+01 -4.19656E+01 -4.23771E+01 -4.11018E+01 -4.17158E+01
  -4.10146E+01 -4.17341E+01 -4.28291E+01 -4.25752E+01 -4.32793E+01 -4.25509E+01 -4.29296E+01 -4.06792E+01 -4.21638E+01 -4.13610E+01
  -4.29474E+01 -4.25999E+01 -4.51728E+01 -4.50874E+01 -4.54156E+01 -4.48863E+01 -4.49146E+01 -4.49025E+01 -4.52620E+01 -4.67855E+01
  -4.72383E+01 -4.83381E+01 -4.86426E+01 -4.97226E+01 -4.99437E+01 -5.05694E+01 -5.06780E+01 -5.11919E+01 -5.23677E+01 -5.25384E+01
  -5.32234E+01 -5.30693E+01 -5.41830E+01 -5.37087E+01 -5.53187E+01 -5.47881E+01 -5.60432E+01 -5.52599E+01 -5.59831E+01 -5.51098E+01
  -5.56168E+01 -5.50034E+01 -5.51142E+01 -5.45793E+01 -5.36510E+01 -5.39022E+01 -5.40502E+01 -5.49608E+01 -5.43639E+01 -5.56893E+01
  -5.45819E+01 -5.61780E+01 -5.62516E+01 -5.81057E+01 -5.78057E+01 -5.99469E+01 -5.99317E+01 -6.08955E+01 -6.04419E+01 -6.09975E+01
  -6.09155E+01 -6.12981E+01 -6.09011E+01 -6.04065E+01 -6.01303E+01 -5.96282E+01 -6.02983E+01 -5.95267E+01 -5.92888E+01 -5.87920E+01
  -5.87647E+01 -5.86452E+01 -5.91978E+01 -5.95453E+01 -6.05268E+01 -6.17604E+01 -6.23155E+01 -6.36687E+01 -6.47936E+01 -6.63438E+01
  -6.67545E+01 -6.79688E+01 -6.83522E+01 -6.93421E+01 -7.02098E+01 -7.08259E+01 -7.08125E+01 -7.09679E+01 -7.13256E+01 -7.12043E+01
  -7.15705E+01 -7.11484E+01 -7.18408E+01 -7.15599E+01 -7.25551E+01 -7.24593E+01 -7.37334E+01 -7.41176E+01 -7.53159E+01 -7.56507E+01
  -7.69760E+01 -7.77016E+01 -7.89231E+01 -7.97724E+01 -8.08189E+01 -8.16674E+01 -8.28321E+01 -8.41629E+01 -8.49004E+01 -8.57437E+01
  -8.64326E+01 -8.72686E+01 -8.80155E+01 -8.88449E+01 -8.97097E+01 -9.06215E+01 -9.15976E+01 -9.25464E+01 -9.35755E+01 -9.44948E+01
  -9.55558E+01 -9.64649E+01 -9.74840E+01 -9.83567E+01 -9.94116E+01 -1.00241E+02 -1.01255E+02 -1.02102E+02 -1.02953E+02 -1.03772E+02
  -1.04549E+02 -1.05337E+02 -1.06069E+02 -1.06871E+02 -1.07491E+02 -1.08179E+02 -1.08524E+02 -1.09167E+02 -1.09193E+02 -1.09546E+02
  -1.09431E+02 -1.09720E+02 -1.09595E+02 -1.10272E+02 -1.10741E+02 -1.11679E+02 -1.12587E+02 -1.14263E+02 -1.15511E+02 -1.17427E+02
  -1.18551E+02 -1.19654E+02 -1.19119E+02 -1.20216E+02 -1.20028E+02 -1.21062E+02 -1.20578E+02 -1.21857E+02 -1.20362E+02 -1.21661E+02
  -1.20701E+02 -1.23009E+02 -1.22396E+02 -1.24110E+02 -1.22512E+02 -1.24157E+02 -1.22012E+02 -1.23202E+02 -1.22503E+02 -1.22418E+02
  -1.21507E+02 -1.21812E+02 -1.22327E+02 -1.22206E+02 -1.24519E+02 -1.24409E+02 -1.26566E+02 -1.24954E+02 -1.26470E+02 -1.24342E+02
  -1.25619E+02 -1.23886E+02 -1.26727E+02 -1.25031E+02 -1.25988E+02 -1.25033E+02 -1.25298E+02 -1.23023E+02 -1.23154E+02 -1.20348E+02
  -1.18125E+02 -1.15142E+02 -1.14877E+02 -1.13154E+02 -1.13810E+02 -1.12197E+02 -1.10683E+02 -1.07919E+02 -1.06308E+02 -1.03439E+02
  -1.02918E+02 -1.00082E+02 -1.00299E+02 -9.95420E+01 -1.00921E+02 -9.92304E+01 -9.99728E+01 -9.92408E+01 -1.00647E+02 -9.98328E+01
  -1.00365E+02 -1.00002E+02 -9.97526E+01 -9.91277E+01 -9.92749E+01 -9.87629E+01 -9.69092E+01 -9.68531E+01 -9.57001E+01 -9.52470E+01
  -9.37363E+01 -9.43192E+01 -9.21009E+01 -9.13862E+01 -8.88917E+01 -8.82683E+01 -8.51770E+01 -8.46554E+01 -8.19905E+01 -8.10921E+01
  -7.82659E+01 -7.75687E+01 -7.50763E+01 -7.36749E+01 -7.07026E+01 -6.84715E+01 -6.49615E+01 -6.16081E+01 -5.78124E+01 -5.40440E+01
  -4.98677E+01 -4.54864E+01 -4.07252E+01 -3.57542E+01 -2.99977E+01 -2.40672E+01 -1.77512E+01 -1.10180E+01 -3.92051E+00  3.59237E+00
   1.14584E+01  1.96706E+01  2.80441E+01  3.67101E+01  4.56038E+01  5.47146E+01  6.39058E+01  7.31536E+01  8.23522E+01  9.14777E+01
   1.00387E+02  1.09018E+02  1.17314E+02  1.25211E+02  1.32665E+02  1.39628E+02  1.46084E+02  1.52015E+02  1.57418E+02  1.62297E+02
   1.66691E+02  1.70622E+02  1.74136E+02  1.77273E+02  1.80092E+02  1.82630E+02  1.84937E+02  1.87047E+02  1.88997E+02  1.90802E+02
   1.92482E+02  1.94031E+02  1.95445E+02  1.96707E+02  1.97791E+02  1.98658E+02  1.99256E+02  1.99500E+02  1.99185E+02  1.98143E+02
   1.98017E+02  1.97090E+02  1.96714E+02  1.95370E+02  1.94916E+02  1.93475E+02  1.93667E+02  1.91658E+02  1.91870E+02  1.90197E+02
   1.90329E+02  1.88295E+02  1.88141E+02  1.85069E+02  1.84844E+02  1.82306E+02  1.81225E+02  1.78548E+02  1.77378E+02  1.75256E+02
   1.73987E+02  1.72239E+02  1.70174E+02  1.69348E+02  1.67112E+02  1.66179E+02  1.63156E+02  1.61746E+02  1.59105E+02  1.59258E+02
   1.56327E+02  1.55971E+02  1.53238E+02  1.53186E+02  1.50638E+02  1.49558E+02  1.46400E+02  1.44994E+02  1.43393E+02  1.42883E+02
   1.40780E+02  1.39374E+02  1.37205E+02  1.35873E+02  1.33805E+02  1.30696E+02  1.28415E+02  1.26599E+02  1.25058E+02  1.23719E+02
   1.22542E+02  1.21493E+02  1.20540E+02  1.19655E+02  1.18808E+02  1.17973E+02  1.17123E+02  1.16234E+02  1.15289E+02  1.14272E+02
   1.13174E+02  1.11990E+02  1.10721E+02  1.09375E+02  1.07959E+02  1.06490E+02  1.04983E+02  1.03457E+02  1.01929E+02  1.00419E+02
   9.89424E+01  9.75146E+01  9.61474E+01  9.48502E+01  9.36290E+01  9.24866E+01  9.14233E+01  9.04366E+01  8.95221E+01  8.86734E+01
   8.78828E+01  8.71418E+01  8.64417E+01  8.57734E+01  8.51285E+01  8.44987E+01  8.38767E+01  8.32558E+01  8.26304E+01  8.19962E+01
   8.13493E+01  8.06874E+01  8.00085E+01  7.93118E+01  7.85973E+01  7.78656E+01  7.71179E+01  7.63558E+01  7.55813E+01  7.47967E+01
   7.40046E+01  7.32078E+01  7.24088E+01  7.16105E+01  7.08153E+01  7.00260E+01  6.92450E+01  6.84744E+01  6.77164E+01  6.69727E+01
   6.62450E+01  6.55347E+01  6.48431E+01  6.41709E+01  6.35191E+01  6.28882E+01  6.22785E+01  6.16903E+01  6.11237E+01  6.05786E+01
   6.00548E+01  5.95519E+01  5.90695E+01  5.86073E+01  5.81646E+01  5.77408E+01  5.73352E+01  5.69471E+01  5.65758E+01  5.62206E+01
   5.58807E+01  5.55553E+01  5.52436E+01  5.49449E+01  5.46583E+01  5.43833E+01  5.41190E+01  5.38645E+01  5.36194E+01  5.33828E+01
   5.31542E+01  5.29327E+01  5.27179E+01  5.25090E+01  5.23055E+01  5.21068E+01  5.19124E+01  5.17217E+01  5.15341E+01  5.13493E+01
   5.11667E+01  5.09858E+01  5.08063E+01  5.06276E+01  5.04493E+01  5.02712E+01  5.00927E+01  4.99136E+01  4.97333E+01  4.95517E+01
   4.93684E+01  4.91829E+01  4.89951E+01  4.88045E+01  4.86108E+01  4.84137E+01  4.82127E+01  4.80075E+01
 NY background values follow
    -3.834E+01   -3.848E+01   -3.863E+01   -3.878E+01   -3.893E+01   -3.908E+01   -3.923E+01   -3.938E+01   -3.954E+01   -3.969E+01
    -3.985E+01   -4.000E+01   -4.016E+01   -4.032E+01   -4.048E+01   -4.064E+01   -4.080E+01   -4.096E+01   -4.113E+01   -4.129E+01
    -4.146E+01   -4.163E+01   -4.180E+01   -4.198E+01   -4.215E+01   -4.233E+01   -4.251E+01   -4.269E+01   -4.287E+01   -4.306E+01
    -4.324E+01   -4.343E+01   -4.362E+01   -4.382E+01   -4.401E+01   -4.421E+01   -4.441E+01   -4.462E+01   -4.482E+01   -4.503E+01
    -4.524E+01   -4.546E+01   -4.567E+01   -4.589E+01   -4.612E+01   -4.634E+01   -4.657E+01   -4.680E+01   -4.704E+01   -4.728E+01
    -4.752E+01   -4.776E+01   -4.801E+01   -4.826E+01   -4.852E+01   -4.878E+01   -4.904E+01   -4.931E+01   -4.958E+01   -4.985E+01
    -5.013E+01   -5.041E+01   -5.070E+01   -5.099E+01   -5.128E+01   -5.158E+01   -5.188E+01   -5.219E+01   -5.250E+01   -5.281E+01
    -5.313E+01   -5.345E+01   -5.378E+01   -5.411E+01   -5.445E+01   -5.479E+01   -5.514E+01   -5.549E+01   -5.585E+01   -5.621E+01
    -5.658E+01   -5.695E+01   -5.733E+01   -5.771E+01   -5.810E+01   -5.849E+01   -5.889E+01   -5.929E+01   -5.970E+01   -6.011E+01
    -6.053E+01   -6.096E+01   -6.139E+01   -6.182E+01   -6.227E+01   -6.271E+01   -6.317E+01   -6.363E+01   -6.409E+01   -6.457E+01
    -6.504E+01   -6.553E+01   -6.602E+01   -6.652E+01   -6.702E+01   -6.753E+01   -6.805E+01   -6.857E+01   -6.910E+01   -6.963E+01
    -7.018E+01   -7.073E+01   -7.128E+01   -7.184E+01   -7.241E+01   -7.299E+01   -7.358E+01   -7.417E+01   -7.477E+01   -7.537E+01
    -7.598E+01   -7.660E+01   -7.723E+01   -7.787E+01   -7.851E+01   -7.916E+01   -7.981E+01   -8.048E+01   -8.115E+01   -8.183E+01
    -8.251E+01   -8.320E+01   -8.390E+01   -8.460E+01   -8.531E+01   -8.602E+01   -8.674E+01   -8.747E+01   -8.819E+01   -8.893E+01
    -8.966E+01   -9.040E+01   -9.115E+01   -9.190E+01   -9.265E+01   -9.340E+01   -9.416E+01   -9.492E+01   -9.568E+01   -9.645E+01
    -9.721E+01   -9.798E+01   -9.875E+01   -9.952E+01   -1.003E+02   -1.011E+02   -1.018E+02   -1.026E+02   -1.034E+02   -1.042E+02
    -1.049E+02   -1.057E+02   -1.065E+02   -1.072E+02   -1.080E+02   -1.088E+02   -1.095E+02   -1.103E+02   -1.111E+02   -1.118E+02
    -1.126E+02   -1.133E+02   -1.141E+02   -1.148E+02   -1.156E+02   -1.163E+02   -1.171E+02   -1.178E+02   -1.185E+02   -1.192E+02
    -1.200E+02   -1.207E+02   -1.214E+02   -1.221E+02   -1.228E+02   -1.235E+02   -1.241E+02   -1.248E+02   -1.255E+02   -1.261E+02
    -1.268E+02   -1.274E+02   -1.281E+02   -1.287E+02   -1.293E+02   -1.300E+02   -1.306E+02   -1.312E+02   -1.318E+02   -1.323E+02
    -1.329E+02   -1.335E+02   -1.340E+02   -1.346E+02   -1.351E+02   -1.356E+02   -1.361E+02   -1.366E+02   -1.371E+02   -1.376E+02
    -1.380E+02   -1.385E+02   -1.389E+02   -1.394E+02   -1.398E+02   -1.402E+02   -1.406E+02   -1.409E+02   -1.413E+02   -1.416E+02
    -1.420E+02   -1.423E+02   -1.426E+02   -1.429E+02   -1.432E+02   -1.434E+02   -1.437E+02   -1.439E+02   -1.441E+02   -1.443E+02
    -1.445E+02   -1.446E+02   -1.448E+02   -1.449E+02   -1.450E+02   -1.451E+02   -1.452E+02   -1.452E+02   -1.453E+02   -1.453E+02
    -1.453E+02   -1.453E+02   -1.453E+02   -1.452E+02   -1.451E+02   -1.450E+02   -1.449E+02   -1.448E+02   -1.446E+02   -1.445E+02
    -1.443E+02   -1.440E+02   -1.438E+02   -1.436E+02   -1.433E+02   -1.430E+02   -1.427E+02   -1.423E+02   -1.420E+02   -1.416E+02
    -1.412E+02   -1.408E+02   -1.404E+02   -1.399E+02   -1.395E+02   -1.390E+02   -1.385E+02   -1.380E+02   -1.375E+02   -1.369E+02
    -1.363E+02   -1.358E+02   -1.352E+02   -1.346E+02   -1.339E+02   -1.333E+02   -1.326E+02   -1.320E+02   -1.313E+02   -1.306E+02
    -1.299E+02   -1.291E+02   -1.284E+02   -1.277E+02   -1.269E+02   -1.261E+02   -1.253E+02   -1.245E+02   -1.237E+02   -1.229E+02
    -1.220E+02   -1.212E+02   -1.203E+02   -1.194E+02   -1.185E+02   -1.176E+02   -1.167E+02   -1.158E+02   -1.149E+02   -1.140E+02
    -1.130E+02   -1.121E+02   -1.111E+02   -1.101E+02   -1.091E+02   -1.081E+02   -1.071E+02   -1.061E+02   -1.051E+02   -1.041E+02
    -1.031E+02   -1.020E+02   -1.010E+02   -9.994E+01   -9.889E+01   -9.782E+01   -9.676E+01   -9.568E+01   -9.460E+01   -9.352E+01
    -9.243E+01   -9.133E+01   -9.023E+01   -8.913E+01   -8.802E+01   -8.690E+01   -8.579E+01   -8.467E+01   -8.355E+01   -8.242E+01
    -8.129E+01   -8.016E+01   -7.902E+01   -7.789E+01   -7.675E+01   -7.561E+01   -7.447E+01   -7.333E+01   -7.218E+01   -7.104E+01
    -6.989E+01   -6.875E+01   -6.760E+01   -6.645E+01   -6.531E+01   -6.416E+01   -6.302E+01   -6.188E+01   -6.073E+01   -5.959E+01
    -5.845E+01   -5.732E+01   -5.618E+01   -5.505E+01   -5.392E+01   -5.279E+01   -5.166E+01   -5.054E+01   -4.942E+01   -4.831E+01
    -4.720E+01   -4.609E+01   -4.499E+01   -4.389E+01   -4.280E+01   -4.171E+01   -4.063E+01   -3.955E+01   -3.848E+01   -3.741E+01
    -3.635E+01   -3.530E+01   -3.425E+01   -3.321E+01   -3.217E+01   -3.115E+01   -3.013E+01   -2.911E+01   -2.811E+01   -2.711E+01
    -2.612E+01   -2.513E+01   -2.415E+01   -2.318E+01   -2.222E+01   -2.126E+01   -2.031E+01   -1.937E+01   -1.844E+01   -1.751E+01
    -1.659E+01   -1.568E+01   -1.477E+01   -1.387E+01   -1.298E+01   -1.210E+01   -1.122E+01   -1.035E+01   -9.489E+00   -8.635E+00
    -7.788E+00   -6.949E+00   -6.117E+00   -5.293E+00   -4.477E+00   -3.668E+00   -2.866E+00   -2.073E+00   -1.287E+00   -5.083E-01
     2.624E-01    1.025E+00    1.781E+00    2.528E+00    3.268E+00    4.000E+00    4.724E+00    5.440E+00    6.149E+00    6.849E+00
     7.542E+00    8.226E+00    8.903E+00    9.572E+00    1.023E+01    1.089E+01    1.153E+01    1.217E+01    1.280E+01    1.342E+01
     1.403E+01    1.463E+01    1.523E+01    1.582E+01    1.640E+01    1.697E+01    1.753E+01    1.809E+01    1.863E+01    1.917E+01
     1.970E+01    2.022E+01    2.073E+01    2.124E+01    2.174E+01    2.222E+01    2.270E+01    2.317E+01    2.364E+01    2.409E+01
     2.454E+01    2.497E+01    2.540E+01    2.582E+01    2.623E+01    2.663E+01    2.703E+01    2.741E+01    2.779E+01    2.815E+01
     2.851E+01    2.886E+01    2.920E+01    2.953E+01    2.986E+01    3.017E+01    3.048E+01    3.077E+01    3.106E+01    3.134E+01
     3.161E+01    3.187E+01    3.212E+01    3.236E+01    3.260E+01    3.282E+01    3.304E+01    3.324E+01    3.344E+01    3.363E+01
     3.381E+01    3.397E+01    3.413E+01    3.429E+01    3.443E+01    3.456E+01    3.468E+01    3.479E+01    3.490E+01    3.499E+01
     3.508E+01    3.515E+01    3.522E+01    3.528E+01    3.532E+01    3.536E+01    3.539E+01    3.541E+01
 Asp      Conc. = 5.89E+00
