 LCModel (Version 6.3-1L) Copyright: S.W. Provencher.          Ref.: Magn. Reson. Med. 30:672-679 (1993).                
 Slice#3 Row#12 Col#12  PD_24_press_1_raw_act
 36 lines in following concentration table = NCONC+1
    Conc.  %SD /Cr+PCr  Metabolite                                         
   29.220 118%   0.299 Ala                                                 
    9.608 269% 9.8E-02 Asp                                                 
    0.000 999%   0.000 Cr                                                  
   97.711  21%   1.000 PCr                                                 
   10.908 142%   0.112 GABA                                                
   16.588  95%   0.170 Glc                                                 
   52.828 122%   0.541 Gln                                                 
  202.001  39%   2.067 Glu                                                 
   37.772  20%   0.387 GPC                                                 
    0.000 999%   0.000 PCh                                                 
   33.708  70%   0.345 GSH                                                 
   82.364  97%   0.843 Ins                                                 
    0.000 999%   0.000 Lac                                                 
  163.032  16%   1.669 NAA                                                 
    0.000 999%   0.000 NAAG                                                
    6.810  70% 7.0E-02 Scyllo                                              
   29.826  84%   0.305 Tau                                                 
   13.866 185%   0.142 -CrCH2                                              
   37.772  20%   0.387 GPC+PCh                                             
  163.032  16%   1.669 NAA+NAAG                                            
   97.711  21%   1.000 Cr+PCr                                              
  254.829  40%   2.608 Glu+Gln                                             
 1.52E+04   2% 155.838 Lip13a                                              
    0.000 999%   0.000 Lip13b                                              
    0.000 999%   0.000 Lip09                                               
  419.818  24%   4.297 MM09                                                
    0.000 999%   0.000 Lip20                                               
  239.968  61%   2.456 MM20                                                
  128.874  49%   1.319 MM12                                                
  607.125  32%   6.213 MM14                                                
  391.753  32%   4.009 MM17                                                
 1.52E+04   2% 155.838 Lip13a+Lip13b                                       
 1.60E+04   2% 163.371 MM14+Lip13a+Lip13b+MM12                             
  419.818  24%   4.297 MM09+Lip09                                          
  239.968  61%   2.456 MM20+Lip20                                          
   6 lines in following misc. output table
  FWHM = 0.031 ppm    S/N =  22                                            
  Data shift = 0.038 ppm                                                   
  Ph:-138 deg     -59.4 deg/ppm                                            
  alphaB,S = 1.1E+00,   1.2E+01                                            
   14 spline knots.   Ns = 5(1)                                            
  (10) 4 infls.   ( 9) 3 extrs.                                            
  498 points on ppm-axis = NY
      4.000000     3.992357     3.984714     3.977070     3.969427     3.961784     3.954141     3.946497     3.938854     3.931211
      3.923568     3.915925     3.908281     3.900638     3.892995     3.885352     3.877708     3.870065     3.862422     3.854779
      3.847136     3.839492     3.831849     3.824206     3.816563     3.808919     3.801276     3.793633     3.785990     3.778347
      3.770703     3.763060     3.755417     3.747774     3.740130     3.732487     3.724844     3.717201     3.709558     3.701914
      3.694271     3.686628     3.678985     3.671341     3.663698     3.656055     3.648412     3.640769     3.633125     3.625482
      3.617839     3.610196     3.602552     3.594909     3.587266     3.579623     3.571980     3.564336     3.556693     3.549050
      3.541407     3.533763     3.526120     3.518477     3.510834     3.503191     3.495547     3.487904     3.480261     3.472618
      3.464974     3.457331     3.449688     3.442045     3.434402     3.426758     3.419115     3.411472     3.403829     3.396185
      3.388542     3.380899     3.373256     3.365613     3.357969     3.350326     3.342683     3.335040     3.327396     3.319753
      3.312110     3.304467     3.296824     3.289180     3.281537     3.273894     3.266251     3.258607     3.250964     3.243321
      3.235678     3.228034     3.220391     3.212748     3.205105     3.197462     3.189818     3.182175     3.174532     3.166889
      3.159245     3.151602     3.143959     3.136316     3.128673     3.121029     3.113386     3.105743     3.098100     3.090456
      3.082813     3.075170     3.067527     3.059884     3.052240     3.044597     3.036954     3.029311     3.021667     3.014024
      3.006381     2.998738     2.991095     2.983451     2.975808     2.968165     2.960522     2.952878     2.945235     2.937592
      2.929949     2.922306     2.914662     2.907019     2.899376     2.891733     2.884089     2.876446     2.868803     2.861160
      2.853517     2.845873     2.838230     2.830587     2.822944     2.815300     2.807657     2.800014     2.792371     2.784728
      2.777084     2.769441     2.761798     2.754155     2.746511     2.738868     2.731225     2.723582     2.715939     2.708295
      2.700652     2.693009     2.685366     2.677722     2.670079     2.662436     2.654793     2.647150     2.639506     2.631863
      2.624220     2.616577     2.608933     2.601290     2.593647     2.586004     2.578361     2.570717     2.563074     2.555431
      2.547788     2.540144     2.532501     2.524858     2.517215     2.509572     2.501928     2.494285     2.486642     2.478999
      2.471355     2.463712     2.456069     2.448426     2.440783     2.433139     2.425496     2.417853     2.410210     2.402566
      2.394923     2.387280     2.379637     2.371994     2.364350     2.356707     2.349064     2.341421     2.333777     2.326134
      2.318491     2.310848     2.303205     2.295561     2.287918     2.280275     2.272632     2.264988     2.257345     2.249702
      2.242059     2.234416     2.226772     2.219129     2.211486     2.203843     2.196199     2.188556     2.180913     2.173270
      2.165627     2.157983     2.150340     2.142697     2.135054     2.127410     2.119767     2.112124     2.104481     2.096838
      2.089194     2.081551     2.073908     2.066265     2.058621     2.050978     2.043335     2.035692     2.028049     2.020405
      2.012762     2.005119     1.997476     1.989833     1.982190     1.974546     1.966903     1.959260     1.951617     1.943974
      1.936331     1.928688     1.921045     1.913402     1.905759     1.898115     1.890472     1.882829     1.875186     1.867543
      1.859900     1.852257     1.844614     1.836971     1.829327     1.821684     1.814041     1.806398     1.798755     1.791112
      1.783469     1.775826     1.768183     1.760540     1.752896     1.745253     1.737610     1.729967     1.722324     1.714681
      1.707038     1.699395     1.691752     1.684108     1.676465     1.668822     1.661179     1.653536     1.645893     1.638250
      1.630607     1.622964     1.615321     1.607677     1.600034     1.592391     1.584748     1.577105     1.569462     1.561819
      1.554176     1.546533     1.538890     1.531246     1.523603     1.515960     1.508317     1.500674     1.493031     1.485388
      1.477745     1.470102     1.462458     1.454815     1.447172     1.439529     1.431886     1.424243     1.416600     1.408957
      1.401314     1.393671     1.386027     1.378384     1.370741     1.363098     1.355455     1.347812     1.340169     1.332526
      1.324883     1.317240     1.309596     1.301953     1.294310     1.286667     1.279024     1.271381     1.263738     1.256095
      1.248452     1.240808     1.233165     1.225522     1.217879     1.210236     1.202593     1.194950     1.187307     1.179664
      1.172021     1.164377     1.156734     1.149091     1.141448     1.133805     1.126162     1.118519     1.110876     1.103233
      1.095590     1.087946     1.080303     1.072660     1.065017     1.057374     1.049731     1.042088     1.034445     1.026802
      1.019158     1.011515     1.003872     0.996229     0.988586     0.980943     0.973300     0.965657     0.958014     0.950371
      0.942727     0.935084     0.927441     0.919798     0.912155     0.904512     0.896869     0.889226     0.881583     0.873940
      0.866296     0.858653     0.851010     0.843367     0.835724     0.828081     0.820438     0.812795     0.805152     0.797508
      0.789865     0.782222     0.774579     0.766936     0.759293     0.751650     0.744007     0.736364     0.728721     0.721077
      0.713434     0.705791     0.698148     0.690505     0.682862     0.675219     0.667576     0.659933     0.652290     0.644646
      0.637003     0.629360     0.621717     0.614074     0.606431     0.598788     0.591145     0.583502     0.575858     0.568215
      0.560572     0.552929     0.545286     0.537643     0.530000     0.522357     0.514714     0.507071     0.499427     0.491784
      0.484141     0.476498     0.468855     0.461212     0.453569     0.445925     0.438282     0.430639     0.422996     0.415353
      0.407710     0.400067     0.392424     0.384780     0.377137     0.369494     0.361851     0.354208     0.346565     0.338922
      0.331278     0.323635     0.315992     0.308349     0.300706     0.293063     0.285420     0.277777     0.270133     0.262490
      0.254847     0.247204     0.239561     0.231918     0.224275     0.216631     0.208988     0.201345
 NY phased data points follow
   6.76084E-01  1.16807E+00  4.05238E+00  3.23729E+00  4.16588E+00  5.61267E+00  3.83713E+00  6.26957E-01 -1.59386E-01  1.07165E+00
   1.00814E+00 -1.39768E+00  7.43094E-01  3.24211E-01 -1.73886E-02  1.33995E+00  2.20980E+00  9.62934E-01 -3.65970E-01  3.14935E+00
   2.58008E+00  3.69164E+00  3.42708E+00  3.36985E+00  1.17711E+00  1.06409E+00  4.84205E+00  3.86511E+00  2.79575E+00  2.82222E-02
   3.25116E+00  2.23716E+00  1.40805E+00  4.17898E+00  3.66668E+00  4.04375E+00  3.04551E+00  3.68495E+00  5.52680E+00  4.02970E+00
   5.49741E+00  3.49665E+00  6.21494E+00  1.71421E+00  5.20818E+00  5.32506E+00  3.83901E+00  3.09973E+00  5.29204E+00  5.01397E+00
   6.21800E+00  2.29870E+00  3.71901E+00  2.45766E+00  5.68861E+00  1.81507E+00  3.54748E+00  3.33892E+00  2.43339E+00  4.00981E+00
   5.90769E+00  4.62066E+00  5.77721E+00  4.52091E+00  5.89986E+00  4.21153E+00  5.45325E+00  5.71679E+00  8.88369E+00  6.03745E+00
   7.30058E+00  7.98929E+00  4.54380E+00  4.14692E+00  5.61607E+00  5.39649E+00  5.71868E+00  4.98604E+00  5.64966E+00  5.01015E+00
   5.77343E+00  7.35814E+00  7.51203E+00  6.42572E+00  6.44067E+00  5.14179E+00  9.11032E+00  5.16321E+00  7.02904E+00  5.64021E+00
   6.71590E+00  6.40460E+00  3.48371E+00  3.98811E+00  5.60440E+00  6.65678E+00  1.12148E+01  1.23660E+01  1.21308E+01  9.82341E+00
   1.08306E+01  7.49068E+00  8.72052E+00  8.44875E+00  5.44064E+00  7.19687E+00  5.52088E+00  6.43240E+00  8.63541E+00  8.08544E+00
   6.82301E+00  7.80290E+00  5.63012E+00  7.01851E+00  6.23867E+00  5.63072E+00  5.94498E+00  5.47056E+00  7.74536E+00  7.53549E+00
   9.73079E+00  1.09903E+01  1.44072E+01  1.18511E+01  1.12946E+01  8.56336E+00  8.91367E+00  8.82843E+00  8.96374E+00  1.06453E+01
   8.66587E+00  1.00642E+01  8.37503E+00  8.16912E+00  8.61422E+00  9.18607E+00  8.31656E+00  1.10843E+01  9.93968E+00  8.75056E+00
   1.06446E+01  7.93617E+00  1.19669E+01  1.02583E+01  9.35896E+00  9.68033E+00  1.04503E+01  8.65752E+00  1.06853E+01  9.03186E+00
   8.45936E+00  9.63039E+00  9.04562E+00  1.08357E+01  1.17499E+01  1.16652E+01  1.08070E+01  9.43503E+00  1.13486E+01  1.04100E+01
   1.02318E+01  1.23568E+01  1.38476E+01  1.06683E+01  1.27527E+01  1.05851E+01  9.91980E+00  1.08522E+01  1.08326E+01  1.06663E+01
   1.15604E+01  1.02003E+01  1.14203E+01  1.19222E+01  1.02848E+01  1.46407E+01  9.95629E+00  1.09608E+01  1.09397E+01  9.97464E+00
   1.21973E+01  1.16922E+01  1.01645E+01  1.29031E+01  1.17797E+01  1.20962E+01  1.49689E+01  1.28183E+01  1.30717E+01  1.35753E+01
   1.34052E+01  1.03989E+01  1.25968E+01  1.16420E+01  1.46548E+01  9.95554E+00  1.32958E+01  1.19241E+01  1.26430E+01  1.48415E+01
   1.25079E+01  1.38005E+01  1.39388E+01  1.24604E+01  1.12208E+01  1.07590E+01  1.24340E+01  1.15758E+01  1.38664E+01  1.48144E+01
   1.33727E+01  1.44331E+01  1.69401E+01  1.36654E+01  1.73264E+01  1.43281E+01  1.37308E+01  1.32875E+01  1.07885E+01  1.58580E+01
   1.42142E+01  1.49925E+01  1.43470E+01  1.51032E+01  1.60884E+01  1.45559E+01  1.78599E+01  1.49484E+01  1.42523E+01  1.51780E+01
   1.78569E+01  1.62776E+01  1.82503E+01  1.74594E+01  1.74863E+01  1.75400E+01  1.85677E+01  1.61125E+01  1.80262E+01  1.49650E+01
   1.91621E+01  1.68460E+01  1.79228E+01  1.84928E+01  1.73702E+01  1.70942E+01  1.71996E+01  1.48216E+01  1.69082E+01  1.61248E+01
   1.67715E+01  1.62051E+01  1.79486E+01  1.64463E+01  2.10135E+01  2.50942E+01  2.53757E+01  2.74083E+01  2.51683E+01  2.58375E+01
   2.23643E+01  2.22558E+01  2.00933E+01  2.30866E+01  2.32388E+01  1.98624E+01  2.28198E+01  2.20184E+01  2.32153E+01  2.02361E+01
   2.25582E+01  2.32309E+01  2.07566E+01  2.45917E+01  2.35301E+01  2.30125E+01  2.26837E+01  2.26316E+01  2.38945E+01  2.07776E+01
   2.39397E+01  2.46556E+01  2.37840E+01  2.35919E+01  2.23306E+01  2.17038E+01  2.10836E+01  2.44268E+01  2.32426E+01  2.16606E+01
   2.38031E+01  2.38833E+01  2.28964E+01  2.31706E+01  2.30924E+01  2.19412E+01  2.37749E+01  2.28544E+01  2.31995E+01  2.06994E+01
   2.39942E+01  2.25670E+01  2.51140E+01  2.40555E+01  2.31484E+01  2.38381E+01  2.71909E+01  2.57686E+01  2.53290E+01  2.57601E+01
   2.43572E+01  2.75902E+01  2.49035E+01  2.49072E+01  2.66367E+01  2.54326E+01  2.77659E+01  2.60149E+01  2.91077E+01  2.86248E+01
   2.74006E+01  2.99426E+01  2.91489E+01  2.93404E+01  2.90231E+01  3.10015E+01  3.15511E+01  2.76794E+01  2.78345E+01  3.19385E+01
   3.17491E+01  3.17550E+01  3.18377E+01  3.12825E+01  3.42369E+01  3.55119E+01  3.45482E+01  3.37119E+01  3.87127E+01  3.79411E+01
   3.81363E+01  4.07308E+01  4.32544E+01  4.71205E+01  4.94483E+01  5.01319E+01  5.21817E+01  5.56914E+01  5.77200E+01  6.11480E+01
   6.33255E+01  6.75147E+01  6.73077E+01  7.41914E+01  7.37039E+01  7.94929E+01  8.21481E+01  8.47279E+01  8.59920E+01  8.91122E+01
   9.29779E+01  9.32669E+01  9.24843E+01  9.32898E+01  9.37722E+01  9.26746E+01  8.92961E+01  8.60447E+01  8.65250E+01  8.27592E+01
   7.71494E+01  7.60565E+01  7.17071E+01  6.83847E+01  6.54109E+01  6.18199E+01  6.08314E+01  5.46807E+01  5.06089E+01  5.10176E+01
   4.70777E+01  4.70098E+01  4.26967E+01  4.18480E+01  3.89556E+01  3.95720E+01  3.83920E+01  3.72892E+01  3.55856E+01  3.42846E+01
   3.54643E+01  3.11556E+01  3.14849E+01  3.06056E+01  3.07951E+01  3.10840E+01  2.82728E+01  2.80136E+01  2.44649E+01  2.59069E+01
   2.72662E+01  2.70340E+01  2.49629E+01  2.51148E+01  2.37262E+01  2.45194E+01  2.32094E+01  2.50568E+01  2.44599E+01  2.20185E+01
   1.91819E+01  2.06228E+01  2.11044E+01  2.07686E+01  2.06868E+01  2.19825E+01  2.01704E+01  2.17479E+01  2.08565E+01  2.03773E+01
   1.84271E+01  1.88408E+01  1.73440E+01  1.96994E+01  1.88574E+01  1.80240E+01  2.02592E+01  1.89035E+01  1.93760E+01  1.63670E+01
   1.53394E+01  1.53314E+01  1.83559E+01  1.93781E+01  1.74578E+01  1.81040E+01  1.69674E+01  1.66839E+01  1.60845E+01  1.56918E+01
   1.53033E+01  1.38838E+01  1.52798E+01  1.92116E+01  1.66177E+01  1.71045E+01  1.54149E+01  1.68421E+01  1.55786E+01  1.63680E+01
   1.50944E+01  1.21449E+01  1.50910E+01  1.56535E+01  1.30256E+01  1.45129E+01  1.41484E+01  1.30946E+01  1.42945E+01  1.37215E+01
   1.38845E+01  1.30523E+01  1.33182E+01  1.29975E+01  1.31380E+01  1.39430E+01  1.28988E+01  1.48590E+01  1.15418E+01  1.39968E+01
   1.18023E+01  1.38868E+01  1.20591E+01  1.30474E+01  1.28006E+01  1.23049E+01  1.04360E+01  1.10818E+01  1.21164E+01  1.00315E+01
   1.16559E+01  1.20202E+01  1.08709E+01  1.08612E+01  1.18952E+01  9.21393E+00  1.18103E+01  1.23619E+01  1.10263E+01  1.05130E+01
   1.20852E+01  1.01125E+01  1.00709E+01  9.79310E+00  9.54799E+00  1.24068E+01  1.13306E+01  9.03631E+00
 NY points of the fit to the data follow
   6.97075E-01  9.15954E-01  1.45897E+00  2.84777E+00  3.81206E+00  3.62442E+00  2.89212E+00  2.17050E+00  1.75158E+00  1.64591E+00
   1.75517E+00  1.93842E+00  1.96220E+00  1.82834E+00  1.61921E+00  1.56216E+00  1.65129E+00  1.79400E+00  1.94414E+00  2.05713E+00
   2.18992E+00  2.29642E+00  2.24100E+00  1.95206E+00  1.84439E+00  2.34320E+00  2.96015E+00  3.43551E+00  3.77631E+00  3.96023E+00
   3.86097E+00  3.45665E+00  3.04593E+00  2.80686E+00  2.70399E+00  2.79004E+00  2.99472E+00  3.25380E+00  3.36049E+00  3.33857E+00
   3.35658E+00  3.43832E+00  3.66063E+00  4.07133E+00  4.43220E+00  4.47340E+00  4.23779E+00  3.95266E+00  3.77450E+00  3.74413E+00
   3.80586E+00  3.90491E+00  3.98474E+00  4.00318E+00  4.04639E+00  4.18194E+00  4.35025E+00  4.47266E+00  4.49399E+00  4.44702E+00
   4.39580E+00  4.39429E+00  4.47029E+00  4.56910E+00  4.68555E+00  4.76366E+00  4.79392E+00  4.87406E+00  4.97934E+00  5.06192E+00
   5.18089E+00  5.34860E+00  5.44478E+00  5.43031E+00  5.36714E+00  5.30282E+00  5.28721E+00  5.35960E+00  5.48487E+00  5.60887E+00
   5.74145E+00  6.00470E+00  6.20903E+00  6.16409E+00  5.97481E+00  5.82162E+00  5.80049E+00  5.90084E+00  6.02623E+00  6.10811E+00
   6.13218E+00  6.15436E+00  6.20355E+00  6.32852E+00  6.57384E+00  6.96401E+00  8.33928E+00  1.09261E+01  1.21434E+01  1.14631E+01
   9.97527E+00  8.62937E+00  7.88518E+00  7.68977E+00  7.82853E+00  7.99020E+00  7.91841E+00  7.66731E+00  7.36252E+00  7.30194E+00
   7.34241E+00  7.39774E+00  7.45707E+00  7.52260E+00  7.58284E+00  7.63060E+00  7.68934E+00  7.78057E+00  7.90814E+00  8.15694E+00
   9.08632E+00  1.13891E+01  1.29746E+01  1.27943E+01  1.16153E+01  1.03528E+01  9.57912E+00  9.32905E+00  9.47157E+00  9.73269E+00
   9.67142E+00  9.33142E+00  8.86893E+00  8.63931E+00  8.66237E+00  8.82572E+00  9.04449E+00  9.24859E+00  9.35003E+00  9.36843E+00
   9.36350E+00  9.38587E+00  9.43511E+00  9.49318E+00  9.56004E+00  9.61481E+00  9.65329E+00  9.68759E+00  9.72352E+00  9.76806E+00
   9.81531E+00  9.87714E+00  9.95321E+00  1.00311E+01  1.01013E+01  1.01354E+01  1.00882E+01  1.00498E+01  1.01060E+01  1.02587E+01
   1.04811E+01  1.06227E+01  1.06444E+01  1.06205E+01  1.06078E+01  1.06387E+01  1.07055E+01  1.07924E+01  1.08725E+01  1.09238E+01
   1.09399E+01  1.08993E+01  1.08902E+01  1.10231E+01  1.12172E+01  1.13627E+01  1.13839E+01  1.13689E+01  1.14242E+01  1.15401E+01
   1.16531E+01  1.17182E+01  1.17212E+01  1.17897E+01  1.19956E+01  1.22871E+01  1.25772E+01  1.27937E+01  1.28780E+01  1.28505E+01
   1.28100E+01  1.28075E+01  1.28424E+01  1.28507E+01  1.29107E+01  1.30560E+01  1.32692E+01  1.35120E+01  1.37582E+01  1.40118E+01
   1.42239E+01  1.43314E+01  1.42560E+01  1.40814E+01  1.38603E+01  1.34781E+01  1.32769E+01  1.34066E+01  1.36929E+01  1.41511E+01
   1.48011E+01  1.57289E+01  1.62472E+01  1.60742E+01  1.55531E+01  1.49882E+01  1.44823E+01  1.38800E+01  1.34531E+01  1.37086E+01
   1.44886E+01  1.52661E+01  1.57967E+01  1.61071E+01  1.62328E+01  1.62283E+01  1.61267E+01  1.60619E+01  1.61894E+01  1.64351E+01
   1.66533E+01  1.67837E+01  1.69786E+01  1.72245E+01  1.73699E+01  1.73620E+01  1.73100E+01  1.72583E+01  1.71197E+01  1.71112E+01
   1.73604E+01  1.77213E+01  1.80148E+01  1.82253E+01  1.83455E+01  1.83407E+01  1.82797E+01  1.82985E+01  1.84934E+01  1.88023E+01
   1.90922E+01  1.92988E+01  1.94315E+01  1.95240E+01  2.00934E+01  2.28243E+01  2.65238E+01  2.77068E+01  2.64349E+01  2.42996E+01
   2.24768E+01  2.14497E+01  2.11697E+01  2.13502E+01  2.14687E+01  2.12429E+01  2.07439E+01  2.03043E+01  2.02285E+01  2.03108E+01
   2.04346E+01  2.05520E+01  2.06447E+01  2.07039E+01  2.07489E+01  2.07885E+01  2.08303E+01  2.08900E+01  2.09680E+01  2.10530E+01
   2.11434E+01  2.12435E+01  2.13490E+01  2.14537E+01  2.15611E+01  2.16775E+01  2.18016E+01  2.19317E+01  2.20683E+01  2.22108E+01
   2.23595E+01  2.25142E+01  2.26747E+01  2.28409E+01  2.30117E+01  2.31857E+01  2.33617E+01  2.35386E+01  2.37162E+01  2.38927E+01
   2.40665E+01  2.42364E+01  2.44015E+01  2.45614E+01  2.47161E+01  2.48660E+01  2.50116E+01  2.51535E+01  2.52929E+01  2.54312E+01
   2.55705E+01  2.57128E+01  2.58606E+01  2.60162E+01  2.61820E+01  2.63604E+01  2.65543E+01  2.67663E+01  2.70002E+01  2.72609E+01
   2.75585E+01  2.79197E+01  2.83891E+01  2.87670E+01  2.88697E+01  2.88959E+01  2.90263E+01  2.93073E+01  2.96958E+01  3.01223E+01
   3.07080E+01  3.15727E+01  3.24671E+01  3.32492E+01  3.39623E+01  3.46961E+01  3.55132E+01  3.64614E+01  3.75720E+01  3.88417E+01
   4.02478E+01  4.17880E+01  4.34764E+01  4.53627E+01  4.74520E+01  4.97425E+01  5.22308E+01  5.49086E+01  5.77616E+01  6.07677E+01
   6.38972E+01  6.71125E+01  7.03682E+01  7.36116E+01  7.67847E+01  7.98247E+01  8.26672E+01  8.52475E+01  8.75035E+01  8.93784E+01
   9.08231E+01  9.17984E+01  9.22767E+01  9.22437E+01  9.16985E+01  9.06542E+01  8.91370E+01  8.71850E+01  8.48465E+01  8.21776E+01
   7.92400E+01  7.60981E+01  7.28171E+01  6.94602E+01  6.60866E+01  6.27501E+01  5.94977E+01  5.63687E+01  5.33949E+01  5.06001E+01
   4.80006E+01  4.56056E+01  4.34184E+01  4.14369E+01  3.96546E+01  3.80614E+01  3.66445E+01  3.53890E+01  3.42790E+01  3.32978E+01
   3.24285E+01  3.16545E+01  3.09598E+01  3.03294E+01  2.97498E+01  2.92087E+01  2.86957E+01  2.82019E+01  2.77203E+01  2.72457E+01
   2.67747E+01  2.63053E+01  2.58369E+01  2.53701E+01  2.49063E+01  2.44474E+01  2.39961E+01  2.35547E+01  2.31258E+01  2.27115E+01
   2.23136E+01  2.19335E+01  2.15721E+01  2.12300E+01  2.09069E+01  2.06026E+01  2.03163E+01  2.00470E+01  1.97938E+01  1.95552E+01
   1.93301E+01  1.91172E+01  1.89152E+01  1.87229E+01  1.85395E+01  1.83637E+01  1.81948E+01  1.80319E+01  1.78744E+01  1.77218E+01
   1.75734E+01  1.74288E+01  1.72876E+01  1.71493E+01  1.70139E+01  1.68810E+01  1.67504E+01  1.66218E+01  1.64951E+01  1.63700E+01
   1.62466E+01  1.61247E+01  1.60041E+01  1.58847E+01  1.57665E+01  1.56494E+01  1.55333E+01  1.54181E+01  1.53038E+01  1.51903E+01
   1.50775E+01  1.49655E+01  1.48543E+01  1.47436E+01  1.46336E+01  1.45241E+01  1.44152E+01  1.43068E+01  1.41989E+01  1.40914E+01
   1.39844E+01  1.38777E+01  1.37715E+01  1.36657E+01  1.35603E+01  1.34551E+01  1.33503E+01  1.32458E+01  1.31416E+01  1.30378E+01
   1.29342E+01  1.28308E+01  1.27278E+01  1.26249E+01  1.25224E+01  1.24202E+01  1.23181E+01  1.22162E+01  1.21146E+01  1.20132E+01
   1.19121E+01  1.18112E+01  1.17105E+01  1.16099E+01  1.15096E+01  1.14095E+01  1.13097E+01  1.12100E+01  1.11105E+01  1.10112E+01
   1.09122E+01  1.08133E+01  1.07147E+01  1.06163E+01  1.05180E+01  1.04200E+01  1.03222E+01  1.02246E+01
 NY background values follow
     2.105E-01    2.753E-01    3.403E-01    4.053E-01    4.704E-01    5.356E-01    6.008E-01    6.661E-01    7.314E-01    7.967E-01
     8.620E-01    9.274E-01    9.928E-01    1.058E+00    1.124E+00    1.189E+00    1.254E+00    1.320E+00    1.385E+00    1.451E+00
     1.516E+00    1.581E+00    1.646E+00    1.711E+00    1.777E+00    1.842E+00    1.907E+00    1.971E+00    2.036E+00    2.101E+00
     2.166E+00    2.230E+00    2.295E+00    2.359E+00    2.423E+00    2.487E+00    2.551E+00    2.615E+00    2.678E+00    2.742E+00
     2.805E+00    2.868E+00    2.931E+00    2.994E+00    3.057E+00    3.119E+00    3.182E+00    3.244E+00    3.306E+00    3.367E+00
     3.429E+00    3.490E+00    3.552E+00    3.613E+00    3.674E+00    3.734E+00    3.795E+00    3.855E+00    3.916E+00    3.976E+00
     4.036E+00    4.096E+00    4.156E+00    4.216E+00    4.276E+00    4.335E+00    4.395E+00    4.454E+00    4.514E+00    4.573E+00
     4.632E+00    4.691E+00    4.751E+00    4.810E+00    4.869E+00    4.928E+00    4.987E+00    5.046E+00    5.105E+00    5.164E+00
     5.223E+00    5.282E+00    5.341E+00    5.399E+00    5.458E+00    5.517E+00    5.577E+00    5.636E+00    5.695E+00    5.754E+00
     5.813E+00    5.872E+00    5.932E+00    5.991E+00    6.050E+00    6.110E+00    6.170E+00    6.229E+00    6.289E+00    6.349E+00
     6.409E+00    6.469E+00    6.529E+00    6.589E+00    6.649E+00    6.710E+00    6.770E+00    6.831E+00    6.891E+00    6.952E+00
     7.013E+00    7.074E+00    7.135E+00    7.196E+00    7.257E+00    7.319E+00    7.380E+00    7.442E+00    7.504E+00    7.566E+00
     7.628E+00    7.690E+00    7.753E+00    7.815E+00    7.878E+00    7.941E+00    8.004E+00    8.067E+00    8.130E+00    8.193E+00
     8.257E+00    8.321E+00    8.385E+00    8.449E+00    8.513E+00    8.578E+00    8.642E+00    8.707E+00    8.772E+00    8.837E+00
     8.903E+00    8.968E+00    9.034E+00    9.100E+00    9.166E+00    9.232E+00    9.299E+00    9.365E+00    9.432E+00    9.499E+00
     9.566E+00    9.634E+00    9.701E+00    9.769E+00    9.837E+00    9.905E+00    9.974E+00    1.004E+01    1.011E+01    1.018E+01
     1.025E+01    1.032E+01    1.039E+01    1.046E+01    1.053E+01    1.060E+01    1.067E+01    1.074E+01    1.081E+01    1.088E+01
     1.095E+01    1.102E+01    1.109E+01    1.117E+01    1.124E+01    1.131E+01    1.138E+01    1.146E+01    1.153E+01    1.160E+01
     1.167E+01    1.175E+01    1.182E+01    1.190E+01    1.197E+01    1.204E+01    1.212E+01    1.219E+01    1.227E+01    1.234E+01
     1.242E+01    1.249E+01    1.257E+01    1.265E+01    1.272E+01    1.280E+01    1.287E+01    1.295E+01    1.303E+01    1.311E+01
     1.318E+01    1.326E+01    1.334E+01    1.342E+01    1.350E+01    1.357E+01    1.365E+01    1.373E+01    1.381E+01    1.389E+01
     1.397E+01    1.405E+01    1.413E+01    1.421E+01    1.429E+01    1.437E+01    1.445E+01    1.454E+01    1.462E+01    1.470E+01
     1.478E+01    1.486E+01    1.495E+01    1.503E+01    1.511E+01    1.520E+01    1.528E+01    1.536E+01    1.545E+01    1.553E+01
     1.562E+01    1.570E+01    1.578E+01    1.587E+01    1.595E+01    1.604E+01    1.612E+01    1.621E+01    1.629E+01    1.638E+01
     1.646E+01    1.654E+01    1.663E+01    1.671E+01    1.679E+01    1.688E+01    1.696E+01    1.704E+01    1.712E+01    1.720E+01
     1.728E+01    1.736E+01    1.744E+01    1.752E+01    1.760E+01    1.768E+01    1.776E+01    1.783E+01    1.791E+01    1.799E+01
     1.806E+01    1.813E+01    1.821E+01    1.828E+01    1.835E+01    1.842E+01    1.849E+01    1.856E+01    1.862E+01    1.869E+01
     1.875E+01    1.882E+01    1.888E+01    1.894E+01    1.900E+01    1.906E+01    1.912E+01    1.918E+01    1.923E+01    1.929E+01
     1.934E+01    1.939E+01    1.945E+01    1.950E+01    1.955E+01    1.959E+01    1.964E+01    1.969E+01    1.973E+01    1.977E+01
     1.982E+01    1.986E+01    1.990E+01    1.993E+01    1.997E+01    2.001E+01    2.004E+01    2.008E+01    2.011E+01    2.014E+01
     2.017E+01    2.020E+01    2.023E+01    2.026E+01    2.028E+01    2.031E+01    2.033E+01    2.035E+01    2.037E+01    2.039E+01
     2.041E+01    2.043E+01    2.045E+01    2.046E+01    2.048E+01    2.049E+01    2.050E+01    2.051E+01    2.052E+01    2.053E+01
     2.054E+01    2.054E+01    2.055E+01    2.055E+01    2.055E+01    2.056E+01    2.056E+01    2.056E+01    2.055E+01    2.055E+01
     2.055E+01    2.054E+01    2.054E+01    2.053E+01    2.052E+01    2.051E+01    2.050E+01    2.049E+01    2.048E+01    2.046E+01
     2.045E+01    2.043E+01    2.042E+01    2.040E+01    2.038E+01    2.036E+01    2.034E+01    2.032E+01    2.030E+01    2.027E+01
     2.025E+01    2.022E+01    2.020E+01    2.017E+01    2.014E+01    2.011E+01    2.008E+01    2.005E+01    2.002E+01    1.999E+01
     1.995E+01    1.992E+01    1.988E+01    1.985E+01    1.981E+01    1.977E+01    1.974E+01    1.970E+01    1.966E+01    1.961E+01
     1.957E+01    1.953E+01    1.949E+01    1.944E+01    1.940E+01    1.935E+01    1.930E+01    1.926E+01    1.921E+01    1.916E+01
     1.911E+01    1.906E+01    1.901E+01    1.895E+01    1.890E+01    1.885E+01    1.879E+01    1.874E+01    1.868E+01    1.862E+01
     1.857E+01    1.851E+01    1.845E+01    1.839E+01    1.833E+01    1.827E+01    1.821E+01    1.815E+01    1.808E+01    1.802E+01
     1.795E+01    1.789E+01    1.782E+01    1.776E+01    1.769E+01    1.762E+01    1.755E+01    1.749E+01    1.742E+01    1.735E+01
     1.727E+01    1.720E+01    1.713E+01    1.706E+01    1.699E+01    1.691E+01    1.684E+01    1.676E+01    1.669E+01    1.661E+01
     1.654E+01    1.646E+01    1.638E+01    1.630E+01    1.623E+01    1.615E+01    1.607E+01    1.599E+01    1.591E+01    1.583E+01
     1.575E+01    1.567E+01    1.558E+01    1.550E+01    1.542E+01    1.534E+01    1.525E+01    1.517E+01    1.508E+01    1.500E+01
     1.492E+01    1.483E+01    1.475E+01    1.466E+01    1.457E+01    1.449E+01    1.440E+01    1.431E+01    1.423E+01    1.414E+01
     1.405E+01    1.397E+01    1.388E+01    1.379E+01    1.370E+01    1.361E+01    1.352E+01    1.343E+01    1.335E+01    1.326E+01
     1.317E+01    1.308E+01    1.299E+01    1.290E+01    1.281E+01    1.272E+01    1.263E+01    1.254E+01    1.245E+01    1.236E+01
     1.227E+01    1.217E+01    1.208E+01    1.199E+01    1.190E+01    1.181E+01    1.172E+01    1.163E+01    1.154E+01    1.144E+01
     1.135E+01    1.126E+01    1.117E+01    1.108E+01    1.099E+01    1.090E+01    1.080E+01    1.071E+01    1.062E+01    1.053E+01
     1.044E+01    1.035E+01    1.025E+01    1.016E+01    1.007E+01    9.981E+00    9.889E+00    9.798E+00
 Ala      Conc. = 2.92E+01
