 LCModel (Version 6.3-1L) Copyright: S.W. Provencher.          Ref.: Magn. Reson. Med. 30:672-679 (1993).                
 Slice#1 Row#3 Col#3  PD_24_press_1_raw_act
 36 lines in following concentration table = NCONC+1
    Conc.  %SD /Cr+PCr  Metabolite                                         
   37.589 122%   0.507 Ala                                                 
    7.145 267% 9.6E-02 Asp                                                 
   74.142  35%   1.000 Cr                                                  
    0.000 999%   0.000 PCr                                                 
    5.894 194% 7.9E-02 GABA                                                
    7.282 158% 9.8E-02 Glc                                                 
   23.540 372%   0.317 Gln                                                 
  240.850  45%   3.248 Glu                                                 
   27.433 207%   0.370 GPC                                                 
    6.508 874% 8.8E-02 PCh                                                 
    0.000 999%   0.000 GSH                                                 
    0.000 999%   0.000 Ins                                                 
    5.999 806% 8.1E-02 Lac                                                 
   58.975  49%   0.795 NAA                                                 
    0.000 999%   0.000 NAAG                                                
    3.803  98% 5.1E-02 Scyllo                                              
   13.944 136%   0.188 Tau                                                 
    7.246 254% 9.8E-02 -CrCH2                                              
   33.941  30%   0.458 GPC+PCh                                             
   58.975  49%   0.795 NAA+NAAG                                            
   74.142  35%   1.000 Cr+PCr                                              
  264.389  50%   3.566 Glu+Gln                                             
 4.78E+03  13%  64.496 Lip13a                                              
    0.000 999%   0.000 Lip13b                                              
 1.80E+03  15%  24.240 Lip09                                               
    0.144 999% 1.9E-03 MM09                                                
    0.000 999%   0.000 Lip20                                               
    0.000 999%   0.000 MM20                                                
 3.92E-02 999% 5.3E-04 MM12                                                
    0.188 999% 2.5E-03 MM14                                                
    1.172 432% 1.6E-02 MM17                                                
 4.78E+03  13%  64.496 Lip13a+Lip13b                                       
 4.78E+03  13%  64.499 MM14+Lip13a+Lip13b+MM12                             
 1.80E+03  15%  24.242 MM09+Lip09                                          
    0.000 999%   0.000 MM20+Lip20                                          
   6 lines in following misc. output table
  FWHM = 0.038 ppm    S/N =   2                                            
  Data shift =-0.008 ppm                                                   
  Ph: 136 deg      -2.5 deg/ppm                                            
  alphaB,S = 4.3E-01,   2.2E+01                                            
   14 spline knots.   Ns = 5(1)                                            
  ( 5) 2 infls.   ( 3) 1 extrs.                                            
  498 points on ppm-axis = NY
      4.000000     3.992357     3.984714     3.977070     3.969427     3.961784     3.954141     3.946497     3.938854     3.931211
      3.923568     3.915925     3.908281     3.900638     3.892995     3.885352     3.877708     3.870065     3.862422     3.854779
      3.847136     3.839492     3.831849     3.824206     3.816563     3.808919     3.801276     3.793633     3.785990     3.778347
      3.770703     3.763060     3.755417     3.747774     3.740130     3.732487     3.724844     3.717201     3.709558     3.701914
      3.694271     3.686628     3.678985     3.671341     3.663698     3.656055     3.648412     3.640769     3.633125     3.625482
      3.617839     3.610196     3.602552     3.594909     3.587266     3.579623     3.571980     3.564336     3.556693     3.549050
      3.541407     3.533763     3.526120     3.518477     3.510834     3.503191     3.495547     3.487904     3.480261     3.472618
      3.464974     3.457331     3.449688     3.442045     3.434402     3.426758     3.419115     3.411472     3.403829     3.396185
      3.388542     3.380899     3.373256     3.365613     3.357969     3.350326     3.342683     3.335040     3.327396     3.319753
      3.312110     3.304467     3.296824     3.289180     3.281537     3.273894     3.266251     3.258607     3.250964     3.243321
      3.235678     3.228034     3.220391     3.212748     3.205105     3.197462     3.189818     3.182175     3.174532     3.166889
      3.159245     3.151602     3.143959     3.136316     3.128673     3.121029     3.113386     3.105743     3.098100     3.090456
      3.082813     3.075170     3.067527     3.059884     3.052240     3.044597     3.036954     3.029311     3.021667     3.014024
      3.006381     2.998738     2.991095     2.983451     2.975808     2.968165     2.960522     2.952878     2.945235     2.937592
      2.929949     2.922306     2.914662     2.907019     2.899376     2.891733     2.884089     2.876446     2.868803     2.861160
      2.853517     2.845873     2.838230     2.830587     2.822944     2.815300     2.807657     2.800014     2.792371     2.784728
      2.777084     2.769441     2.761798     2.754155     2.746511     2.738868     2.731225     2.723582     2.715939     2.708295
      2.700652     2.693009     2.685366     2.677722     2.670079     2.662436     2.654793     2.647150     2.639506     2.631863
      2.624220     2.616577     2.608933     2.601290     2.593647     2.586004     2.578361     2.570717     2.563074     2.555431
      2.547788     2.540144     2.532501     2.524858     2.517215     2.509572     2.501928     2.494285     2.486642     2.478999
      2.471355     2.463712     2.456069     2.448426     2.440783     2.433139     2.425496     2.417853     2.410210     2.402566
      2.394923     2.387280     2.379637     2.371994     2.364350     2.356707     2.349064     2.341421     2.333777     2.326134
      2.318491     2.310848     2.303205     2.295561     2.287918     2.280275     2.272632     2.264988     2.257345     2.249702
      2.242059     2.234416     2.226772     2.219129     2.211486     2.203843     2.196199     2.188556     2.180913     2.173270
      2.165627     2.157983     2.150340     2.142697     2.135054     2.127410     2.119767     2.112124     2.104481     2.096838
      2.089194     2.081551     2.073908     2.066265     2.058621     2.050978     2.043335     2.035692     2.028049     2.020405
      2.012762     2.005119     1.997476     1.989833     1.982190     1.974546     1.966903     1.959260     1.951617     1.943974
      1.936331     1.928688     1.921045     1.913402     1.905759     1.898115     1.890472     1.882829     1.875186     1.867543
      1.859900     1.852257     1.844614     1.836971     1.829327     1.821684     1.814041     1.806398     1.798755     1.791112
      1.783469     1.775826     1.768183     1.760540     1.752896     1.745253     1.737610     1.729967     1.722324     1.714681
      1.707038     1.699395     1.691752     1.684108     1.676465     1.668822     1.661179     1.653536     1.645893     1.638250
      1.630607     1.622964     1.615321     1.607677     1.600034     1.592391     1.584748     1.577105     1.569462     1.561819
      1.554176     1.546533     1.538890     1.531246     1.523603     1.515960     1.508317     1.500674     1.493031     1.485388
      1.477745     1.470102     1.462458     1.454815     1.447172     1.439529     1.431886     1.424243     1.416600     1.408957
      1.401314     1.393671     1.386027     1.378384     1.370741     1.363098     1.355455     1.347812     1.340169     1.332526
      1.324883     1.317240     1.309596     1.301953     1.294310     1.286667     1.279024     1.271381     1.263738     1.256095
      1.248452     1.240808     1.233165     1.225522     1.217879     1.210236     1.202593     1.194950     1.187307     1.179664
      1.172021     1.164377     1.156734     1.149091     1.141448     1.133805     1.126162     1.118519     1.110876     1.103233
      1.095590     1.087946     1.080303     1.072660     1.065017     1.057374     1.049731     1.042088     1.034445     1.026802
      1.019158     1.011515     1.003872     0.996229     0.988586     0.980943     0.973300     0.965657     0.958014     0.950371
      0.942727     0.935084     0.927441     0.919798     0.912155     0.904512     0.896869     0.889226     0.881583     0.873940
      0.866296     0.858653     0.851010     0.843367     0.835724     0.828081     0.820438     0.812795     0.805152     0.797508
      0.789865     0.782222     0.774579     0.766936     0.759293     0.751650     0.744007     0.736364     0.728721     0.721077
      0.713434     0.705791     0.698148     0.690505     0.682862     0.675219     0.667576     0.659933     0.652290     0.644646
      0.637003     0.629360     0.621717     0.614074     0.606431     0.598788     0.591145     0.583502     0.575858     0.568215
      0.560572     0.552929     0.545286     0.537643     0.530000     0.522357     0.514714     0.507071     0.499427     0.491784
      0.484141     0.476498     0.468855     0.461212     0.453569     0.445925     0.438282     0.430639     0.422996     0.415353
      0.407710     0.400067     0.392424     0.384780     0.377137     0.369494     0.361851     0.354208     0.346565     0.338922
      0.331278     0.323635     0.315992     0.308349     0.300706     0.293063     0.285420     0.277777     0.270133     0.262490
      0.254847     0.247204     0.239561     0.231918     0.224275     0.216631     0.208988     0.201345
 NY phased data points follow
   1.08282E+01  1.13379E+01  1.17060E+01  1.22556E+01  1.02854E+01  1.06951E+01  1.01360E+01  1.28329E+01  9.99189E+00  1.30668E+01
   1.22935E+01  1.52405E+01  1.18409E+01  1.42526E+01  1.07021E+01  1.20836E+01  1.18978E+01  1.26705E+01  1.20386E+01  9.11161E+00
   1.22509E+01  1.05644E+01  1.24804E+01  9.86066E+00  1.38927E+01  1.00057E+01  1.59626E+01  7.89583E+00  1.20127E+01  6.93141E+00
   1.42875E+01  9.52429E+00  1.31658E+01  1.16219E+01  1.15954E+01  8.28368E+00  8.70759E+00  6.56580E+00  6.75408E+00  1.23006E+01
   1.04634E+01  8.08115E+00  5.26960E+00  8.52913E+00  9.42300E+00  9.91117E+00  1.12637E+01  8.28278E+00  1.10536E+01  6.84210E+00
   1.13914E+01  1.06600E+01  9.82396E+00  9.23158E+00  5.95065E+00  9.60335E+00  1.17814E+01  1.04563E+01  1.11742E+01  4.32222E+00
   1.01790E+01  3.33770E+00  6.26740E+00  6.43744E+00  1.09059E+01  6.53052E+00  8.92130E+00  5.13613E+00  7.30327E+00  1.03683E+01
   8.44626E+00  1.24828E+01  1.31618E+01  1.10081E+01  9.60848E+00  7.38594E+00  8.52913E+00  8.07555E+00  3.94553E+00  9.50314E+00
   4.92555E+00  7.53678E+00  1.01227E+01  4.71299E+00  8.06730E+00  1.19380E+01  9.19269E+00  7.14956E+00  1.02244E+01  8.62339E+00
   1.03050E+01  9.40942E+00  8.09942E+00  9.73463E+00  1.12289E+01  9.06932E+00  9.93338E+00  7.04710E+00  9.47338E+00  7.76661E+00
   8.44794E+00  1.08345E+01  1.37253E+01  1.07128E+01  1.15520E+01  6.57295E+00  7.67097E+00  5.48439E+00  7.12333E+00  1.35409E+00
   6.01016E+00  5.02584E+00  5.57071E+00  6.93660E+00  4.51266E+00  6.07483E+00  4.49953E+00  7.46012E+00  4.92794E+00  4.56045E+00
   5.96692E+00  6.23372E+00  2.15168E+00  5.43190E+00  6.06623E+00  9.14239E+00  9.31207E+00  6.08741E+00  1.00479E+01  7.74857E+00
   5.39994E+00  3.02857E+00  2.41078E+00  5.26757E+00  5.02242E+00  3.59068E+00  7.64432E+00  5.84051E+00  2.99652E+00  6.68806E+00
   5.91926E+00  7.93868E+00  2.56981E+00  2.72738E+00  8.11603E+00  5.44934E+00  5.30959E+00  1.45110E+00  3.16065E+00  7.06198E+00
   3.95564E+00  2.08708E+00  9.71186E-01  4.23794E+00  2.13095E+00  3.84505E+00  2.12697E+00  7.86552E+00  7.95336E+00  6.25078E+00
   5.87862E+00  5.95252E+00  4.82254E+00  2.71671E+00  2.92722E+00  2.82113E+00  2.27850E+00  5.70349E+00  2.53670E+00  1.70168E+00
   1.04417E-01  2.63162E+00  3.12776E+00  2.51832E+00  3.48023E+00  5.58800E+00  3.01892E+00  5.42053E+00  3.25334E+00  5.40580E+00
   8.53120E-01  1.00149E+00  2.12581E+00 -1.20612E+00  2.19971E+00  4.06209E+00  8.15484E-01  2.74715E+00 -7.35886E-01  2.38061E+00
   2.21562E+00  2.83893E+00  3.69871E+00  2.75453E+00  2.08940E+00  3.39033E+00  2.80147E+00  1.07548E+00  2.70983E-01  1.19202E+00
   2.35823E+00  8.88764E-01  1.80333E+00  1.37421E+00  1.05708E+00 -2.06281E-01  1.96772E+00  1.08922E+00 -8.01801E-01 -1.22440E+00
  -1.45010E-02 -7.31931E-01  7.33265E-01  3.36307E+00  2.06287E+00  1.92155E+00 -4.19715E-01 -2.12845E-01 -6.79918E-01 -1.29496E+00
  -2.81094E+00 -2.25640E+00 -2.27406E+00 -4.83936E+00 -1.21554E+00  1.17713E+00 -5.15288E-01  3.49339E-01 -4.07443E+00 -4.02055E-01
  -4.12041E-01 -7.05876E-01 -7.28578E-01  1.62454E+00 -2.93117E+00 -2.59862E+00 -5.85257E-01 -4.32793E-01  8.53359E-01 -1.03728E+00
  -9.78011E-01 -8.71794E-01  2.48219E+00 -6.70036E-01 -2.28952E+00  9.96487E-01 -5.38466E-01  4.82164E-01 -1.77433E+00 -1.94195E+00
  -7.64991E-01 -1.69306E+00 -1.28868E-01  6.31366E-02  2.99110E+00  1.65833E+00  3.10184E+00  3.91294E-01  6.16427E+00  7.58052E+00
   7.93140E+00  3.51717E+00  6.17337E+00 -1.07587E+00  1.74654E+00  4.95743E-01  5.32721E-01 -3.18040E+00  1.91871E+00  1.54155E+00
   1.46765E+00  4.67209E-01  1.88008E+00  2.35724E+00  4.40355E+00  4.36619E+00  1.38084E+00  1.15002E+00  5.34531E+00  5.65969E+00
   4.33876E+00  9.54222E+00  8.88954E+00  3.62849E+00  3.69930E+00  5.78875E+00  6.10132E+00  5.13368E+00  4.31935E+00  6.44319E+00
   6.82727E+00  6.42839E+00  7.15400E+00  5.52678E+00  5.16757E+00  6.27422E+00  1.09902E+01  7.07601E+00  8.10417E+00  1.11849E+01
   9.62427E+00  9.56137E+00  7.14728E+00  1.00375E+01  9.80733E+00  1.16923E+01  9.32456E+00  6.35553E+00  8.30525E+00  1.02579E+01
   1.23684E+01  1.17936E+01  9.67867E+00  4.87716E+00  8.48826E+00  1.04989E+01  1.13709E+01  1.04583E+01  8.10026E+00  5.76665E+00
   8.70251E+00  1.15940E+01  1.00996E+01  7.60630E+00  1.08695E+01  7.04181E+00  9.40670E+00  9.78649E+00  5.93785E+00  9.76777E+00
   1.10772E+01  1.10375E+01  1.09763E+01  9.82318E+00  1.14644E+01  1.43530E+01  9.41790E+00  1.02455E+01  1.07802E+01  1.23731E+01
   8.70928E+00  1.25263E+01  1.24376E+01  1.37339E+01  9.82474E+00  6.05290E+00  1.28686E+01  8.80013E+00  1.09862E+01  1.29367E+01
   1.14082E+01  1.03187E+01  7.50144E+00  9.53864E+00  1.34567E+01  1.28046E+01  1.17927E+01  1.03907E+01  1.24656E+01  1.34575E+01
   1.25571E+01  1.15287E+01  1.14487E+01  1.49351E+01  1.08306E+01  1.45375E+01  1.32568E+01  1.46135E+01  1.07594E+01  9.71758E+00
   1.51353E+01  1.37739E+01  1.31112E+01  8.98754E+00  1.16263E+01  1.06109E+01  1.04605E+01  1.04905E+01  1.13490E+01  1.07379E+01
   1.25446E+01  1.01527E+01  9.19627E+00  1.22583E+01  1.22377E+01  1.10843E+01  9.13471E+00  6.87069E+00  8.82578E+00  1.00341E+01
   8.35601E+00  1.32010E+01  1.10272E+01  7.98441E+00  8.05326E+00  9.65902E+00  1.10314E+01  6.81078E+00  8.19815E+00  5.26803E+00
   7.59326E+00  6.25593E+00  2.89640E+00 -5.38571E-01  3.24410E+00  9.71106E-01  1.85229E+00  1.47074E+00  2.45609E+00  5.69722E+00
   5.34253E+00  1.08773E+00  5.11212E+00  5.58622E+00  4.85198E+00  2.69796E+00  1.24340E+00  2.18391E+00  1.58672E+00  2.70079E+00
   4.25670E+00  2.11183E+00  1.27457E+00  2.96318E-01  2.38856E+00  4.91448E+00  3.17338E-02 -2.44251E+00  4.29090E+00 -1.14077E+00
  -1.76443E+00 -6.01392E+00  1.27684E-01 -6.14198E-01 -2.73134E+00  5.09515E-02 -1.52850E+00  2.29231E+00  1.63381E+00  1.48322E+00
  -1.79954E+00 -2.54430E+00 -3.69928E-01 -2.64234E+00  1.97003E+00 -1.96594E+00 -1.96127E+00 -4.78334E+00 -8.06807E-01  5.10807E-01
  -6.63981E-01 -2.88637E-01 -2.08464E+00 -5.53115E+00  3.02227E+00 -1.91193E+00 -5.42185E+00 -2.67379E+00 -2.54658E+00 -2.88022E+00
  -3.08459E+00 -1.28432E+00 -5.35233E-01 -1.13232E+00 -5.60724E-01  5.66497E-01  2.24935E+00  2.27254E+00  6.01311E-01  3.09259E+00
  -1.09277E+00  1.35973E+00 -3.91181E+00  1.73615E+00 -4.82986E+00  1.97693E+00 -3.72162E+00 -1.75247E+00 -1.60432E+00 -3.14167E+00
  -1.67351E+00  1.96774E-01 -6.22006E+00  2.67313E+00 -1.31879E+00  4.46943E-01 -2.38062E+00  3.04013E+00 -3.97842E+00 -3.17303E+00
  -8.70850E-01 -9.33388E-01  5.44578E-01 -2.78964E+00 -3.12809E+00 -3.11683E+00  1.87191E+00  7.94281E-02
 NY points of the fit to the data follow
   1.13035E+01  1.12686E+01  1.12420E+01  1.12216E+01  1.11895E+01  1.11284E+01  1.10980E+01  1.12521E+01  1.16833E+01  1.23477E+01
   1.30232E+01  1.34222E+01  1.33762E+01  1.29191E+01  1.22568E+01  1.16587E+01  1.12954E+01  1.11652E+01  1.11361E+01  1.11104E+01
   1.11204E+01  1.11835E+01  1.12770E+01  1.13212E+01  1.12254E+01  1.09381E+01  1.04894E+01  1.00168E+01  9.72181E+00  9.76683E+00
   1.01753E+01  1.07791E+01  1.12962E+01  1.14733E+01  1.12226E+01  1.06810E+01  1.00892E+01  9.68816E+00  9.60092E+00  9.76716E+00
   1.00165E+01  1.01975E+01  1.02427E+01  1.01711E+01  1.00388E+01  9.90795E+00  9.80766E+00  9.73363E+00  9.68518E+00  9.65071E+00
   9.61396E+00  9.56650E+00  9.50403E+00  9.42480E+00  9.33747E+00  9.25366E+00  9.17595E+00  9.10056E+00  9.02963E+00  8.96521E+00
   8.90695E+00  8.85353E+00  8.80350E+00  8.75509E+00  8.70734E+00  8.65672E+00  8.59857E+00  8.53143E+00  8.45805E+00  8.38427E+00
   8.32033E+00  8.27645E+00  8.25408E+00  8.24334E+00  8.22477E+00  8.17888E+00  8.09645E+00  7.98817E+00  7.87706E+00  7.78606E+00
   7.72824E+00  7.71201E+00  7.73585E+00  7.78444E+00  7.83344E+00  7.84661E+00  7.79588E+00  7.68125E+00  7.52650E+00  7.36520E+00
   7.22535E+00  7.11427E+00  7.02120E+00  6.93335E+00  6.85929E+00  6.81604E+00  6.81090E+00  6.90023E+00  7.30640E+00  8.18702E+00
   9.45891E+00  1.07411E+01  1.14880E+01  1.13340E+01  1.03238E+01  8.85719E+00  7.49025E+00  6.62372E+00  6.30888E+00  6.29865E+00
   6.27977E+00  6.20198E+00  6.11700E+00  6.03627E+00  5.95986E+00  5.88492E+00  5.81082E+00  5.73794E+00  5.66696E+00  5.60021E+00
   5.54432E+00  5.53287E+00  5.71891E+00  6.26438E+00  7.14392E+00  8.11235E+00  8.75990E+00  8.75774E+00  8.07433E+00  6.97250E+00
   5.86688E+00  5.10393E+00  4.77791E+00  4.74057E+00  4.74033E+00  4.68388E+00  4.62024E+00  4.55921E+00  4.49795E+00  4.43455E+00
   4.36941E+00  4.30531E+00  4.24486E+00  4.18800E+00  4.13294E+00  4.07612E+00  4.01451E+00  3.94879E+00  3.88232E+00  3.81885E+00
   3.75973E+00  3.70372E+00  3.64890E+00  3.59381E+00  3.53830E+00  3.48136E+00  3.41837E+00  3.34563E+00  3.26497E+00  3.18519E+00
   3.12083E+00  3.08022E+00  3.05906E+00  3.04241E+00  3.01219E+00  2.95865E+00  2.88569E+00  2.80637E+00  2.73456E+00  2.67435E+00
   2.62116E+00  2.56647E+00  2.50384E+00  2.43918E+00  2.38226E+00  2.34069E+00  2.31270E+00  2.28775E+00  2.25535E+00  2.21225E+00
   2.16450E+00  2.12123E+00  2.08507E+00  2.05416E+00  2.02460E+00  1.99498E+00  1.97319E+00  1.96420E+00  1.96305E+00  1.95564E+00
   1.93011E+00  1.88657E+00  1.83766E+00  1.79736E+00  1.77103E+00  1.75186E+00  1.73320E+00  1.71802E+00  1.71585E+00  1.73738E+00
   1.78688E+00  1.85443E+00  1.90276E+00  1.89040E+00  1.78263E+00  1.55827E+00  1.24567E+00  9.17428E-01  6.73889E-01  6.26255E-01
   8.49927E-01  1.37755E+00  2.09757E+00  2.77517E+00  3.13498E+00  2.97395E+00  2.28058E+00  1.21813E+00  4.29415E-02 -9.10534E-01
  -1.35706E+00 -1.18457E+00 -4.81950E-01  4.86619E-01  1.44575E+00  2.13296E+00  2.40051E+00  2.29401E+00  2.00152E+00  1.71960E+00
   1.53717E+00  1.44718E+00  1.43404E+00  1.48240E+00  1.55369E+00  1.60864E+00  1.62240E+00  1.58687E+00  1.50401E+00  1.40459E+00
   1.33983E+00  1.36030E+00  1.48331E+00  1.67848E+00  1.87211E+00  1.98917E+00  1.98523E+00  1.87908E+00  1.74502E+00  1.68020E+00
   1.75195E+00  1.94498E+00  2.19747E+00  2.42650E+00  2.59624E+00  2.81280E+00  3.25585E+00  3.95524E+00  4.73074E+00  5.24188E+00
   5.21098E+00  4.62355E+00  3.72089E+00  2.86060E+00  2.33222E+00  2.19948E+00  2.30529E+00  2.42904E+00  2.49904E+00  2.57850E+00
   2.68718E+00  2.82555E+00  2.98634E+00  3.14103E+00  3.25929E+00  3.33187E+00  3.36746E+00  3.38735E+00  3.41379E+00  3.46027E+00
   3.52725E+00  3.61019E+00  3.70457E+00  3.80357E+00  3.90048E+00  3.99244E+00  4.08041E+00  4.16779E+00  4.25692E+00  4.34817E+00
   4.44214E+00  4.53898E+00  4.63836E+00  4.74013E+00  4.84452E+00  4.95165E+00  5.06121E+00  5.17293E+00  5.28708E+00  5.40390E+00
   5.52346E+00  5.64579E+00  5.77071E+00  5.89801E+00  6.02770E+00  6.15999E+00  6.29528E+00  6.43397E+00  6.57629E+00  6.72233E+00
   6.87207E+00  7.02565E+00  7.18327E+00  7.34521E+00  7.51179E+00  7.68341E+00  7.86063E+00  8.04430E+00  8.23578E+00  8.43742E+00
   8.65383E+00  8.89486E+00  9.16381E+00  9.41320E+00  9.57524E+00  9.59839E+00  9.49166E+00  9.33860E+00  9.25063E+00  9.31256E+00
   9.58219E+00  1.00473E+01  1.06310E+01  1.12202E+01  1.17058E+01  1.20313E+01  1.21769E+01  1.21817E+01  1.21392E+01  1.21397E+01
   1.22217E+01  1.23626E+01  1.25070E+01  1.26320E+01  1.27315E+01  1.27959E+01  1.28228E+01  1.28225E+01  1.28129E+01  1.28102E+01
   1.28268E+01  1.28618E+01  1.29009E+01  1.29230E+01  1.29085E+01  1.28503E+01  1.27508E+01  1.26193E+01  1.24725E+01  1.23251E+01
   1.21829E+01  1.20425E+01  1.18970E+01  1.17464E+01  1.15937E+01  1.14407E+01  1.12892E+01  1.11409E+01  1.09974E+01  1.08602E+01
   1.07305E+01  1.06095E+01  1.04982E+01  1.03972E+01  1.03070E+01  1.02276E+01  1.01591E+01  1.01009E+01  1.00522E+01  1.00120E+01
   9.97877E+00  9.95083E+00  9.92609E+00  9.90220E+00  9.87658E+00  9.84642E+00  9.80880E+00  9.76071E+00  9.69913E+00  9.62114E+00
   9.52398E+00  9.40516E+00  9.26254E+00  9.09442E+00  8.89960E+00  8.67742E+00  8.42785E+00  8.15147E+00  7.84946E+00  7.52361E+00
   7.17624E+00  6.81016E+00  6.42856E+00  6.03494E+00  5.63298E+00  5.22646E+00  4.81911E+00  4.41456E+00  4.01623E+00  3.62724E+00
   3.25037E+00  2.88802E+00  2.54214E+00  2.21428E+00  1.90555E+00  1.61669E+00  1.34803E+00  1.09958E+00  8.71062E-01  6.61949E-01
   4.71519E-01  2.98898E-01  1.43094E-01  3.03909E-03 -1.22374E-01 -2.34258E-01 -3.33711E-01 -4.21806E-01 -4.99575E-01 -5.67993E-01
  -6.27974E-01 -6.80359E-01 -7.25926E-01 -7.65392E-01 -7.99412E-01 -8.28577E-01 -8.53419E-01 -8.74408E-01 -8.91973E-01 -9.06499E-01
  -9.18333E-01 -9.27783E-01 -9.35120E-01 -9.40580E-01 -9.44384E-01 -9.46725E-01 -9.47778E-01 -9.47694E-01 -9.46603E-01 -9.44624E-01
  -9.41866E-01 -9.38428E-01 -9.34398E-01 -9.29847E-01 -9.24840E-01 -9.19437E-01 -9.13698E-01 -9.07675E-01 -9.01410E-01 -8.94937E-01
  -8.88289E-01 -8.81494E-01 -8.74586E-01 -8.67593E-01 -8.60532E-01 -8.53421E-01 -8.46276E-01 -8.39113E-01 -8.31951E-01 -8.24801E-01
  -8.17669E-01 -8.10561E-01 -8.03487E-01 -7.96456E-01 -7.89480E-01 -7.82562E-01 -7.75702E-01 -7.68900E-01 -7.62164E-01 -7.55499E-01
  -7.48906E-01 -7.42385E-01 -7.35931E-01 -7.29544E-01 -7.23228E-01 -7.16985E-01 -7.10814E-01 -7.04708E-01 -6.98661E-01 -6.92673E-01
  -6.86744E-01 -6.80872E-01 -6.75050E-01 -6.69267E-01 -6.63515E-01 -6.57793E-01 -6.52096E-01 -6.46413E-01
 NY background values follow
     1.222E+01    1.218E+01    1.214E+01    1.209E+01    1.205E+01    1.201E+01    1.196E+01    1.192E+01    1.188E+01    1.183E+01
     1.179E+01    1.174E+01    1.170E+01    1.165E+01    1.161E+01    1.156E+01    1.152E+01    1.147E+01    1.142E+01    1.138E+01
     1.133E+01    1.128E+01    1.123E+01    1.119E+01    1.114E+01    1.109E+01    1.104E+01    1.099E+01    1.094E+01    1.089E+01
     1.085E+01    1.080E+01    1.075E+01    1.070E+01    1.065E+01    1.059E+01    1.054E+01    1.049E+01    1.044E+01    1.039E+01
     1.034E+01    1.029E+01    1.024E+01    1.018E+01    1.013E+01    1.008E+01    1.003E+01    9.973E+00    9.919E+00    9.866E+00
     9.813E+00    9.759E+00    9.705E+00    9.651E+00    9.597E+00    9.543E+00    9.488E+00    9.433E+00    9.378E+00    9.323E+00
     9.268E+00    9.212E+00    9.156E+00    9.100E+00    9.044E+00    8.988E+00    8.931E+00    8.874E+00    8.817E+00    8.760E+00
     8.703E+00    8.645E+00    8.587E+00    8.529E+00    8.471E+00    8.413E+00    8.354E+00    8.295E+00    8.236E+00    8.176E+00
     8.117E+00    8.057E+00    7.997E+00    7.937E+00    7.876E+00    7.816E+00    7.755E+00    7.694E+00    7.632E+00    7.571E+00
     7.509E+00    7.447E+00    7.385E+00    7.322E+00    7.259E+00    7.196E+00    7.133E+00    7.070E+00    7.006E+00    6.943E+00
     6.879E+00    6.815E+00    6.750E+00    6.686E+00    6.621E+00    6.557E+00    6.492E+00    6.427E+00    6.362E+00    6.296E+00
     6.231E+00    6.165E+00    6.100E+00    6.034E+00    5.968E+00    5.902E+00    5.837E+00    5.770E+00    5.704E+00    5.638E+00
     5.572E+00    5.506E+00    5.439E+00    5.373E+00    5.306E+00    5.240E+00    5.174E+00    5.107E+00    5.041E+00    4.974E+00
     4.908E+00    4.841E+00    4.775E+00    4.708E+00    4.642E+00    4.576E+00    4.509E+00    4.443E+00    4.377E+00    4.311E+00
     4.245E+00    4.179E+00    4.113E+00    4.047E+00    3.981E+00    3.916E+00    3.850E+00    3.785E+00    3.720E+00    3.655E+00
     3.590E+00    3.526E+00    3.461E+00    3.397E+00    3.333E+00    3.270E+00    3.206E+00    3.143E+00    3.080E+00    3.017E+00
     2.955E+00    2.893E+00    2.831E+00    2.769E+00    2.708E+00    2.647E+00    2.586E+00    2.526E+00    2.466E+00    2.406E+00
     2.347E+00    2.288E+00    2.230E+00    2.172E+00    2.114E+00    2.057E+00    2.000E+00    1.943E+00    1.887E+00    1.832E+00
     1.777E+00    1.722E+00    1.668E+00    1.614E+00    1.561E+00    1.509E+00    1.457E+00    1.405E+00    1.354E+00    1.304E+00
     1.254E+00    1.205E+00    1.157E+00    1.109E+00    1.062E+00    1.016E+00    9.703E-01    9.255E-01    8.815E-01    8.382E-01
     7.958E-01    7.542E-01    7.134E-01    6.735E-01    6.344E-01    5.962E-01    5.590E-01    5.226E-01    4.873E-01    4.528E-01
     4.194E-01    3.869E-01    3.554E-01    3.250E-01    2.956E-01    2.673E-01    2.400E-01    2.139E-01    1.888E-01    1.649E-01
     1.421E-01    1.204E-01    9.993E-02    8.065E-02    6.256E-02    4.569E-02    3.005E-02    1.565E-02    2.480E-03   -9.491E-03
    -2.028E-02   -2.990E-02   -3.839E-02   -4.575E-02   -5.201E-02   -5.720E-02   -6.132E-02   -6.440E-02   -6.647E-02   -6.754E-02
    -6.763E-02   -6.676E-02   -6.496E-02   -6.225E-02   -5.863E-02   -5.415E-02   -4.881E-02   -4.263E-02   -3.565E-02   -2.787E-02
    -1.931E-02   -1.001E-02    2.395E-05    1.077E-02    2.221E-02    3.431E-02    4.707E-02    6.046E-02    7.445E-02    8.904E-02
     1.042E-01    1.199E-01    1.361E-01    1.529E-01    1.701E-01    1.878E-01    2.060E-01    2.245E-01    2.435E-01    2.629E-01
     2.827E-01    3.028E-01    3.232E-01    3.439E-01    3.650E-01    3.863E-01    4.079E-01    4.297E-01    4.518E-01    4.741E-01
     4.966E-01    5.192E-01    5.420E-01    5.650E-01    5.881E-01    6.114E-01    6.347E-01    6.581E-01    6.816E-01    7.051E-01
     7.287E-01    7.522E-01    7.758E-01    7.994E-01    8.230E-01    8.465E-01    8.700E-01    8.933E-01    9.166E-01    9.398E-01
     9.629E-01    9.859E-01    1.009E+00    1.031E+00    1.054E+00    1.076E+00    1.098E+00    1.120E+00    1.142E+00    1.163E+00
     1.184E+00    1.205E+00    1.225E+00    1.246E+00    1.266E+00    1.285E+00    1.304E+00    1.323E+00    1.342E+00    1.360E+00
     1.378E+00    1.395E+00    1.412E+00    1.429E+00    1.446E+00    1.462E+00    1.478E+00    1.493E+00    1.508E+00    1.523E+00
     1.538E+00    1.552E+00    1.566E+00    1.580E+00    1.593E+00    1.606E+00    1.619E+00    1.632E+00    1.644E+00    1.656E+00
     1.668E+00    1.680E+00    1.691E+00    1.702E+00    1.713E+00    1.724E+00    1.734E+00    1.745E+00    1.755E+00    1.764E+00
     1.774E+00    1.783E+00    1.792E+00    1.801E+00    1.810E+00    1.819E+00    1.827E+00    1.836E+00    1.844E+00    1.852E+00
     1.859E+00    1.867E+00    1.874E+00    1.882E+00    1.889E+00    1.896E+00    1.902E+00    1.909E+00    1.916E+00    1.922E+00
     1.928E+00    1.934E+00    1.940E+00    1.945E+00    1.951E+00    1.956E+00    1.961E+00    1.966E+00    1.971E+00    1.976E+00
     1.980E+00    1.984E+00    1.988E+00    1.992E+00    1.996E+00    1.999E+00    2.003E+00    2.006E+00    2.009E+00    2.011E+00
     2.014E+00    2.016E+00    2.018E+00    2.020E+00    2.022E+00    2.024E+00    2.025E+00    2.026E+00    2.027E+00    2.028E+00
     2.029E+00    2.029E+00    2.029E+00    2.029E+00    2.029E+00    2.029E+00    2.028E+00    2.027E+00    2.026E+00    2.025E+00
     2.024E+00    2.022E+00    2.020E+00    2.018E+00    2.016E+00    2.014E+00    2.011E+00    2.009E+00    2.006E+00    2.003E+00
     2.000E+00    1.996E+00    1.993E+00    1.989E+00    1.985E+00    1.981E+00    1.977E+00    1.973E+00    1.969E+00    1.964E+00
     1.960E+00    1.955E+00    1.950E+00    1.945E+00    1.940E+00    1.935E+00    1.929E+00    1.924E+00    1.918E+00    1.912E+00
     1.907E+00    1.901E+00    1.895E+00    1.889E+00    1.883E+00    1.876E+00    1.870E+00    1.864E+00    1.857E+00    1.851E+00
     1.844E+00    1.837E+00    1.830E+00    1.824E+00    1.817E+00    1.810E+00    1.803E+00    1.796E+00    1.788E+00    1.781E+00
     1.774E+00    1.767E+00    1.759E+00    1.752E+00    1.744E+00    1.737E+00    1.729E+00    1.722E+00    1.714E+00    1.706E+00
     1.699E+00    1.691E+00    1.683E+00    1.675E+00    1.667E+00    1.660E+00    1.652E+00    1.644E+00    1.636E+00    1.628E+00
     1.620E+00    1.612E+00    1.604E+00    1.596E+00    1.588E+00    1.580E+00    1.572E+00    1.564E+00    1.555E+00    1.547E+00
     1.539E+00    1.531E+00    1.523E+00    1.515E+00    1.507E+00    1.499E+00    1.490E+00    1.482E+00
 Ala      Conc. = 3.76E+01
