 LCModel (Version 6.3-1L) Copyright: S.W. Provencher.          Ref.: Magn. Reson. Med. 30:672-679 (1993).                
 Slice#1 Row#1 Col#12  PD_24_press_1_raw_act
 36 lines in following concentration table = NCONC+1
    Conc.  %SD /Cr+PCr  Metabolite                                         
 2.85E+03  32%   0.000 Ala                                                 
    4.114 106%   0.000 Asp                                                 
    0.000 999%   0.000 Cr                                                  
    0.000 999%   0.000 PCr                                                 
    2.467 106%   0.000 GABA                                                
    2.468 106%   0.000 Glc                                                 
    0.000 999%   0.000 Gln                                                 
  678.270  83%   0.000 Glu                                                 
    0.000 999%   0.000 GPC                                                 
    7.419 206%   0.000 PCh                                                 
    0.000 999%   0.000 GSH                                                 
    0.000 999%   0.000 Ins                                                 
    0.000 999%   0.000 Lac                                                 
   59.997 138%   0.000 NAA                                                 
    0.000 999%   0.000 NAAG                                                
    0.823 106%   0.000 Scyllo                                              
    4.113 106%   0.000 Tau                                                 
    0.202 999%   0.000 -CrCH2                                              
    7.419 206%   0.000 GPC+PCh                                             
   59.997 138%   0.000 NAA+NAAG                                            
    0.000 999%   0.000 Cr+PCr                                              
  678.270  83%   0.000 Glu+Gln                                             
 6.63E+03  29%   0.000 Lip13a                                              
    0.000 999%   0.000 Lip13b                                              
 4.61E+03  16%   0.000 Lip09                                               
 4.58E+03  16%   0.000 MM09                                                
 1.50E+03  31%   0.000 Lip20                                               
  351.898  95%   0.000 MM20                                                
 4.30E+03  23%   0.000 MM12                                                
 4.55E+03  21%   0.000 MM14                                                
 3.59E+03  19%   0.000 MM17                                                
 6.63E+03  29%   0.000 Lip13a+Lip13b                                       
 1.55E+04  11%   0.000 MM14+Lip13a+Lip13b+MM12                             
 9.19E+03   8%   0.000 MM09+Lip09                                          
 1.86E+03  22%   0.000 MM20+Lip20                                          
   6 lines in following misc. output table
  FWHM = 0.168 ppm    S/N =  15                                            
  Data shift = 0.252 ppm                                                   
  Ph: -69 deg     -24.9 deg/ppm                                            
  alphaB,S = 8.5E+01,   1.5E+02                                            
    6 spline knots.   Ns = 9(2)                                            
   2 inflections.     1 extrema                                            
  498 points on ppm-axis = NY
      4.000000     3.992357     3.984714     3.977070     3.969427     3.961784     3.954141     3.946497     3.938854     3.931211
      3.923568     3.915925     3.908281     3.900638     3.892995     3.885352     3.877708     3.870065     3.862422     3.854779
      3.847136     3.839492     3.831849     3.824206     3.816563     3.808919     3.801276     3.793633     3.785990     3.778347
      3.770703     3.763060     3.755417     3.747774     3.740130     3.732487     3.724844     3.717201     3.709558     3.701914
      3.694271     3.686628     3.678985     3.671341     3.663698     3.656055     3.648412     3.640769     3.633125     3.625482
      3.617839     3.610196     3.602552     3.594909     3.587266     3.579623     3.571980     3.564336     3.556693     3.549050
      3.541407     3.533763     3.526120     3.518477     3.510834     3.503191     3.495547     3.487904     3.480261     3.472618
      3.464974     3.457331     3.449688     3.442045     3.434402     3.426758     3.419115     3.411472     3.403829     3.396185
      3.388542     3.380899     3.373256     3.365613     3.357969     3.350326     3.342683     3.335040     3.327396     3.319753
      3.312110     3.304467     3.296824     3.289180     3.281537     3.273894     3.266251     3.258607     3.250964     3.243321
      3.235678     3.228034     3.220391     3.212748     3.205105     3.197462     3.189818     3.182175     3.174532     3.166889
      3.159245     3.151602     3.143959     3.136316     3.128673     3.121029     3.113386     3.105743     3.098100     3.090456
      3.082813     3.075170     3.067527     3.059884     3.052240     3.044597     3.036954     3.029311     3.021667     3.014024
      3.006381     2.998738     2.991095     2.983451     2.975808     2.968165     2.960522     2.952878     2.945235     2.937592
      2.929949     2.922306     2.914662     2.907019     2.899376     2.891733     2.884089     2.876446     2.868803     2.861160
      2.853517     2.845873     2.838230     2.830587     2.822944     2.815300     2.807657     2.800014     2.792371     2.784728
      2.777084     2.769441     2.761798     2.754155     2.746511     2.738868     2.731225     2.723582     2.715939     2.708295
      2.700652     2.693009     2.685366     2.677722     2.670079     2.662436     2.654793     2.647150     2.639506     2.631863
      2.624220     2.616577     2.608933     2.601290     2.593647     2.586004     2.578361     2.570717     2.563074     2.555431
      2.547788     2.540144     2.532501     2.524858     2.517215     2.509572     2.501928     2.494285     2.486642     2.478999
      2.471355     2.463712     2.456069     2.448426     2.440783     2.433139     2.425496     2.417853     2.410210     2.402566
      2.394923     2.387280     2.379637     2.371994     2.364350     2.356707     2.349064     2.341421     2.333777     2.326134
      2.318491     2.310848     2.303205     2.295561     2.287918     2.280275     2.272632     2.264988     2.257345     2.249702
      2.242059     2.234416     2.226772     2.219129     2.211486     2.203843     2.196199     2.188556     2.180913     2.173270
      2.165627     2.157983     2.150340     2.142697     2.135054     2.127410     2.119767     2.112124     2.104481     2.096838
      2.089194     2.081551     2.073908     2.066265     2.058621     2.050978     2.043335     2.035692     2.028049     2.020405
      2.012762     2.005119     1.997476     1.989833     1.982190     1.974546     1.966903     1.959260     1.951617     1.943974
      1.936331     1.928688     1.921045     1.913402     1.905759     1.898115     1.890472     1.882829     1.875186     1.867543
      1.859900     1.852257     1.844614     1.836971     1.829327     1.821684     1.814041     1.806398     1.798755     1.791112
      1.783469     1.775826     1.768183     1.760540     1.752896     1.745253     1.737610     1.729967     1.722324     1.714681
      1.707038     1.699395     1.691752     1.684108     1.676465     1.668822     1.661179     1.653536     1.645893     1.638250
      1.630607     1.622964     1.615321     1.607677     1.600034     1.592391     1.584748     1.577105     1.569462     1.561819
      1.554176     1.546533     1.538890     1.531246     1.523603     1.515960     1.508317     1.500674     1.493031     1.485388
      1.477745     1.470102     1.462458     1.454815     1.447172     1.439529     1.431886     1.424243     1.416600     1.408957
      1.401314     1.393671     1.386027     1.378384     1.370741     1.363098     1.355455     1.347812     1.340169     1.332526
      1.324883     1.317240     1.309596     1.301953     1.294310     1.286667     1.279024     1.271381     1.263738     1.256095
      1.248452     1.240808     1.233165     1.225522     1.217879     1.210236     1.202593     1.194950     1.187307     1.179664
      1.172021     1.164377     1.156734     1.149091     1.141448     1.133805     1.126162     1.118519     1.110876     1.103233
      1.095590     1.087946     1.080303     1.072660     1.065017     1.057374     1.049731     1.042088     1.034445     1.026802
      1.019158     1.011515     1.003872     0.996229     0.988586     0.980943     0.973300     0.965657     0.958014     0.950371
      0.942727     0.935084     0.927441     0.919798     0.912155     0.904512     0.896869     0.889226     0.881583     0.873940
      0.866296     0.858653     0.851010     0.843367     0.835724     0.828081     0.820438     0.812795     0.805152     0.797508
      0.789865     0.782222     0.774579     0.766936     0.759293     0.751650     0.744007     0.736364     0.728721     0.721077
      0.713434     0.705791     0.698148     0.690505     0.682862     0.675219     0.667576     0.659933     0.652290     0.644646
      0.637003     0.629360     0.621717     0.614074     0.606431     0.598788     0.591145     0.583502     0.575858     0.568215
      0.560572     0.552929     0.545286     0.537643     0.530000     0.522357     0.514714     0.507071     0.499427     0.491784
      0.484141     0.476498     0.468855     0.461212     0.453569     0.445925     0.438282     0.430639     0.422996     0.415353
      0.407710     0.400067     0.392424     0.384780     0.377137     0.369494     0.361851     0.354208     0.346565     0.338922
      0.331278     0.323635     0.315992     0.308349     0.300706     0.293063     0.285420     0.277777     0.270133     0.262490
      0.254847     0.247204     0.239561     0.231918     0.224275     0.216631     0.208988     0.201345
 NY phased data points follow
   7.05256E+00  9.87283E+00  5.89619E+00  9.53681E+00  9.28263E+00  8.33377E+00  7.47214E+00  9.57775E+00  9.26696E+00  8.58142E+00
   6.60391E+00  8.31395E+00  6.07579E+00  6.23547E+00  1.12059E+01  9.51177E+00  7.38791E+00  7.36186E+00  6.78355E+00  1.11996E+01
   9.39563E+00  8.98926E+00  6.69061E+00  8.83805E+00  9.13516E+00  7.14283E+00  1.18765E+01  7.92829E+00  9.44622E+00  9.18814E+00
   5.33514E+00  6.44164E+00  6.00083E+00  1.04096E+01  8.00074E+00  8.13343E+00  7.54818E+00  7.83210E+00  9.21761E+00  7.23489E+00
   8.13124E+00  4.28287E+00  7.12051E+00  7.86904E+00  1.02137E+01  7.26347E+00  8.47223E+00  7.93899E+00  6.60046E+00  5.42193E+00
   7.86781E+00  1.15641E+01  5.78313E+00  1.00646E+01  8.47113E+00  6.78892E+00  8.18723E+00  1.13558E+01  8.01055E+00  9.84646E+00
   7.50734E+00  8.77001E+00  9.72104E+00  7.38715E+00  8.80079E+00  9.88138E+00  7.65631E+00  7.82301E+00  8.58223E+00  1.16072E+01
   9.82787E+00  5.58756E+00  8.64754E+00  6.88828E+00  9.18688E+00  9.87650E+00  7.33361E+00  1.01026E+01  7.50563E+00  8.44391E+00
   8.38709E+00  9.02251E+00  9.77222E+00  1.17376E+01  7.74692E+00  7.02660E+00  1.04812E+01  7.53165E+00  7.27268E+00  7.87952E+00
   8.85808E+00  1.05589E+01  8.51254E+00  1.15222E+01  6.42159E+00  8.36171E+00  7.94683E+00  6.84291E+00  5.49873E+00  7.92511E+00
   7.32161E+00  7.12037E+00  1.15574E+01  8.15269E+00  1.03404E+01  1.04540E+01  1.10262E+01  1.11943E+01  9.44915E+00  9.51466E+00
   9.07157E+00  8.99178E+00  1.12255E+01  9.00951E+00  9.76539E+00  6.83302E+00  8.87941E+00  7.70295E+00  8.55140E+00  9.09164E+00
   9.83043E+00  9.13093E+00  9.74212E+00  1.15096E+01  1.06861E+01  1.04939E+01  8.14581E+00  9.36741E+00  1.01103E+01  9.78982E+00
   9.14773E+00  9.75445E+00  6.21491E+00  1.05967E+01  1.00031E+01  9.12514E+00  7.71865E+00  8.72262E+00  1.02770E+01  1.20833E+01
   6.72727E+00  8.78891E+00  9.90140E+00  8.86835E+00  1.05227E+01  1.07570E+01  1.05265E+01  6.05977E+00  1.02900E+01  1.05560E+01
   1.30802E+01  9.10276E+00  1.17654E+01  9.96037E+00  1.06384E+01  9.98341E+00  1.07023E+01  7.90785E+00  1.01016E+01  1.18895E+01
   6.52574E+00  1.27398E+01  9.12377E+00  1.16618E+01  9.88301E+00  1.07771E+01  1.06731E+01  1.05305E+01  1.17965E+01  1.33070E+01
   1.12372E+01  1.10769E+01  8.56298E+00  9.74962E+00  1.01367E+01  1.25081E+01  6.88907E+00  8.73232E+00  1.14241E+01  9.20931E+00
   1.04796E+01  9.61553E+00  1.27818E+01  1.10370E+01  9.86667E+00  1.00842E+01  1.21960E+01  1.12749E+01  9.35715E+00  9.68265E+00
   9.48087E+00  1.00368E+01  1.07628E+01  1.14925E+01  9.93637E+00  1.30010E+01  1.15134E+01  1.07084E+01  1.24509E+01  1.16319E+01
   1.11384E+01  9.51348E+00  1.03794E+01  1.36072E+01  1.23886E+01  1.12057E+01  1.05696E+01  1.17171E+01  7.99686E+00  1.05142E+01
   1.24318E+01  1.27685E+01  1.29448E+01  1.47407E+01  1.16042E+01  1.21950E+01  9.05108E+00  1.31435E+01  1.01694E+01  1.07826E+01
   1.28949E+01  1.15248E+01  1.29807E+01  9.60527E+00  1.18823E+01  1.17195E+01  1.21133E+01  1.29758E+01  1.39029E+01  1.06568E+01
   1.19246E+01  1.17578E+01  1.30766E+01  1.39169E+01  1.20383E+01  1.45348E+01  1.63243E+01  1.65450E+01  1.70736E+01  1.46223E+01
   1.71715E+01  1.35794E+01  1.37802E+01  1.30455E+01  1.47949E+01  1.51383E+01  1.54667E+01  1.60298E+01  1.65409E+01  1.71981E+01
   1.60660E+01  1.66169E+01  1.65332E+01  1.60366E+01  1.67140E+01  1.68291E+01  1.78457E+01  1.68225E+01  1.77482E+01  1.67219E+01
   1.95896E+01  1.99026E+01  1.80166E+01  1.61745E+01  1.75706E+01  1.74237E+01  1.77369E+01  1.91336E+01  1.81487E+01  1.75008E+01
   2.05555E+01  1.91676E+01  1.80545E+01  1.77103E+01  1.82672E+01  2.09772E+01  1.94749E+01  2.13413E+01  1.91635E+01  2.05581E+01
   2.19336E+01  2.21929E+01  2.13155E+01  2.29786E+01  2.11026E+01  2.21652E+01  2.19571E+01  2.38122E+01  2.43749E+01  2.41031E+01
   2.53422E+01  2.61395E+01  2.72503E+01  2.85478E+01  2.77505E+01  2.49668E+01  2.75118E+01  2.83774E+01  2.80099E+01  2.89901E+01
   2.74063E+01  2.75156E+01  2.84301E+01  3.05238E+01  2.98291E+01  3.00670E+01  3.19055E+01  3.21511E+01  3.28137E+01  3.50934E+01
   3.55430E+01  3.47125E+01  3.80043E+01  3.73354E+01  4.04719E+01  3.80168E+01  4.08754E+01  4.12144E+01  4.19383E+01  3.78257E+01
   4.19017E+01  3.99061E+01  4.16542E+01  4.04237E+01  4.08815E+01  4.04929E+01  4.21449E+01  4.41385E+01  4.25351E+01  4.26424E+01
   4.25681E+01  4.31258E+01  4.10828E+01  4.55037E+01  4.26907E+01  4.58110E+01  4.22669E+01  4.49284E+01  4.41010E+01  4.42022E+01
   4.33590E+01  4.33995E+01  4.70656E+01  4.46408E+01  4.52531E+01  4.50130E+01  4.71126E+01  4.60893E+01  4.85412E+01  4.77398E+01
   5.06545E+01  5.16112E+01  5.19788E+01  5.37063E+01  5.46433E+01  5.32002E+01  5.28957E+01  5.67820E+01  5.61102E+01  5.62911E+01
   5.80684E+01  6.11579E+01  6.22690E+01  6.11984E+01  6.26137E+01  6.06918E+01  6.11058E+01  6.23077E+01  6.31671E+01  6.07658E+01
   5.92498E+01  6.36591E+01  6.00077E+01  6.37620E+01  6.27098E+01  6.21279E+01  5.98829E+01  6.17289E+01  5.90284E+01  6.03296E+01
   6.06957E+01  6.20287E+01  6.10521E+01  6.04112E+01  6.09392E+01  5.92476E+01  5.93576E+01  5.89683E+01  5.64591E+01  5.76359E+01
   5.41724E+01  5.63640E+01  5.30481E+01  5.32030E+01  5.22175E+01  5.09753E+01  4.98914E+01  4.86996E+01  4.75436E+01  4.72677E+01
   4.65122E+01  4.30732E+01  4.35800E+01  4.69119E+01  4.11284E+01  4.07931E+01  4.23707E+01  3.93110E+01  3.93563E+01  3.67830E+01
   3.79982E+01  3.72489E+01  3.42296E+01  3.22764E+01  3.12947E+01  3.27815E+01  3.28014E+01  3.03914E+01  3.10177E+01  2.80749E+01
   2.85824E+01  2.84360E+01  2.69646E+01  2.69231E+01  2.74355E+01  2.48513E+01  2.62455E+01  2.50167E+01  2.49542E+01  2.42127E+01
   2.26884E+01  2.25691E+01  2.15814E+01  2.11099E+01  2.10849E+01  2.20528E+01  2.15727E+01  2.15915E+01  1.98817E+01  2.01229E+01
   1.95999E+01  2.03319E+01  1.85861E+01  1.84745E+01  1.64843E+01  1.82937E+01  1.70086E+01  1.80846E+01  1.64367E+01  1.56224E+01
   1.68335E+01  1.23705E+01  1.77419E+01  1.70319E+01  1.54486E+01  1.42484E+01  1.55101E+01  1.69371E+01  1.40847E+01  1.48994E+01
   1.35186E+01  1.40190E+01  8.39128E+00  1.24743E+01  1.06380E+01  1.33725E+01  1.22125E+01  1.14403E+01  1.23953E+01  9.64343E+00
   1.22687E+01  1.05080E+01  1.16558E+01  1.17256E+01  1.06166E+01  1.06867E+01  9.44266E+00  8.29391E+00  1.18144E+01  9.38650E+00
   9.96263E+00  8.90724E+00  1.07222E+01  6.87064E+00  8.98334E+00  7.11158E+00  9.32847E+00  8.15106E+00  9.92322E+00  8.87035E+00
   9.32830E+00  8.64860E+00  8.03768E+00  1.15130E+01  1.09974E+01  6.86198E+00  7.47508E+00  8.16523E+00
 NY points of the fit to the data follow
   8.29836E+00  8.28875E+00  8.21882E+00  8.23593E+00  8.14881E+00  8.23495E+00  8.19019E+00  8.41612E+00  8.30684E+00  8.62849E+00
   8.44429E+00  8.82788E+00  8.49971E+00  8.87725E+00  8.36449E+00  8.83530E+00  8.17201E+00  8.66150E+00  7.93379E+00  8.51616E+00
   7.82723E+00  8.48591E+00  7.84568E+00  8.56931E+00  8.00545E+00  8.64005E+00  8.07512E+00  8.56291E+00  8.07723E+00  8.45434E+00
   8.11033E+00  8.42039E+00  8.23199E+00  8.45834E+00  8.39398E+00  8.47554E+00  8.46904E+00  8.39678E+00  8.44155E+00  8.28707E+00
   8.38510E+00  8.20344E+00  8.37789E+00  8.19246E+00  8.44723E+00  8.28050E+00  8.58943E+00  8.47961E+00  8.70209E+00  8.54380E+00
   8.67858E+00  8.47091E+00  8.52223E+00  8.30580E+00  8.30887E+00  8.23696E+00  8.31170E+00  8.30118E+00  8.37550E+00  8.39262E+00
   8.44013E+00  8.46024E+00  8.46121E+00  8.46142E+00  8.45851E+00  8.45822E+00  8.45623E+00  8.45657E+00  8.45638E+00  8.45772E+00
   8.45917E+00  8.46124E+00  8.46456E+00  8.46712E+00  8.47200E+00  8.47488E+00  8.48079E+00  8.48358E+00  8.48962E+00  8.49239E+00
   8.49893E+00  8.50233E+00  8.50950E+00  8.51396E+00  8.52334E+00  8.53696E+00  8.55385E+00  8.57125E+00  8.59514E+00  8.61547E+00
   8.64734E+00  8.66718E+00  8.70714E+00  8.72489E+00  8.77179E+00  8.77817E+00  8.82685E+00  8.82458E+00  8.87451E+00  8.86475E+00
   8.91483E+00  8.90025E+00  8.95026E+00  8.93078E+00  8.97885E+00  8.95338E+00  8.99719E+00  8.97083E+00  9.01207E+00  8.99041E+00
   9.03011E+00  9.01271E+00  9.05065E+00  9.03890E+00  9.07532E+00  9.06920E+00  9.10386E+00  9.10580E+00  9.14025E+00  9.15041E+00
   9.18514E+00  9.20251E+00  9.23731E+00  9.26416E+00  9.30209E+00  9.34390E+00  9.38880E+00  9.43411E+00  9.48164E+00  9.52952E+00
   9.57944E+00  9.62967E+00  9.68182E+00  9.73436E+00  9.78881E+00  9.84363E+00  9.90027E+00  9.95716E+00  1.00155E+01  1.00741E+01
   1.01337E+01  1.01931E+01  1.02526E+01  1.03110E+01  1.03694E+01  1.04253E+01  1.04813E+01  1.05337E+01  1.05849E+01  1.06316E+01
   1.06759E+01  1.07148E+01  1.07506E+01  1.07806E+01  1.08057E+01  1.08253E+01  1.08378E+01  1.08450E+01  1.08439E+01  1.08386E+01
   1.08252E+01  1.08078E+01  1.07830E+01  1.07543E+01  1.07198E+01  1.06815E+01  1.06395E+01  1.05930E+01  1.05469E+01  1.04943E+01
   1.04467E+01  1.03915E+01  1.03449E+01  1.02903E+01  1.02470E+01  1.01953E+01  1.01573E+01  1.01107E+01  1.00807E+01  1.00422E+01
   1.00198E+01  9.99023E+00  9.97500E+00  9.95483E+00  9.94796E+00  9.93968E+00  9.94348E+00  9.94964E+00  9.96619E+00  9.98141E+00
   1.00042E+01  1.00307E+01  1.00423E+01  1.00784E+01  1.00736E+01  1.01254E+01  1.01102E+01  1.01957E+01  1.02075E+01  1.03322E+01
   1.03503E+01  1.05032E+01  1.05346E+01  1.06948E+01  1.07006E+01  1.08361E+01  1.08253E+01  1.09426E+01  1.08688E+01  1.09724E+01
   1.08716E+01  1.09839E+01  1.08845E+01  1.10226E+01  1.09687E+01  1.11604E+01  1.11249E+01  1.13383E+01  1.13018E+01  1.15286E+01
   1.15009E+01  1.17422E+01  1.17457E+01  1.20056E+01  1.20437E+01  1.23095E+01  1.23759E+01  1.26213E+01  1.27044E+01  1.29012E+01
   1.30148E+01  1.31780E+01  1.33092E+01  1.34342E+01  1.35972E+01  1.37142E+01  1.39288E+01  1.40424E+01  1.43277E+01  1.44322E+01
   1.47178E+01  1.48039E+01  1.51060E+01  1.51902E+01  1.54707E+01  1.55505E+01  1.58420E+01  1.59618E+01  1.62356E+01  1.63898E+01
   1.66438E+01  1.68259E+01  1.70187E+01  1.72026E+01  1.73222E+01  1.75022E+01  1.75415E+01  1.77135E+01  1.76909E+01  1.78620E+01
   1.77888E+01  1.79583E+01  1.78353E+01  1.79902E+01  1.78466E+01  1.79913E+01  1.78649E+01  1.80262E+01  1.79383E+01  1.81164E+01
   1.80860E+01  1.82878E+01  1.83113E+01  1.85395E+01  1.86372E+01  1.89141E+01  1.90997E+01  1.94291E+01  1.96968E+01  2.00761E+01
   2.04229E+01  2.08554E+01  2.13011E+01  2.17918E+01  2.22925E+01  2.28126E+01  2.33460E+01  2.38727E+01  2.44054E+01  2.49211E+01
   2.54303E+01  2.59109E+01  2.63745E+01  2.68026E+01  2.72058E+01  2.75748E+01  2.79191E+01  2.82327E+01  2.85256E+01  2.87988E+01
   2.90629E+01  2.93254E+01  2.95982E+01  2.98947E+01  3.02322E+01  3.06305E+01  3.11189E+01  3.17440E+01  3.26104E+01  3.37641E+01
   3.45956E+01  3.59296E+01  3.66090E+01  3.80541E+01  3.83304E+01  3.96081E+01  3.92659E+01  4.07126E+01  3.98713E+01  4.10699E+01
   4.00410E+01  4.12651E+01  4.03072E+01  4.15671E+01  4.08317E+01  4.22764E+01  4.18791E+01  4.29467E+01  4.25339E+01  4.30822E+01
   4.28395E+01  4.30766E+01  4.31139E+01  4.32951E+01  4.35764E+01  4.36020E+01  4.41283E+01  4.38490E+01  4.44024E+01  4.38710E+01
   4.45178E+01  4.41013E+01  4.49771E+01  4.46842E+01  4.57374E+01  4.56055E+01  4.69554E+01  4.71103E+01  4.87210E+01  4.93463E+01
   5.06761E+01  5.12282E+01  5.23701E+01  5.28271E+01  5.37062E+01  5.41195E+01  5.47894E+01  5.56479E+01  5.65747E+01  5.75111E+01
   5.84200E+01  5.92734E+01  6.00495E+01  6.07310E+01  6.13053E+01  6.17644E+01  6.21047E+01  6.23273E+01  6.24378E+01  6.24459E+01
   6.23647E+01  6.22101E+01  6.19997E+01  6.17516E+01  6.14835E+01  6.12112E+01  6.09480E+01  6.07034E+01  6.04826E+01  6.02864E+01
   6.01108E+01  5.99477E+01  5.97852E+01  5.96087E+01  5.94017E+01  5.91475E+01  5.88296E+01  5.84337E+01  5.79480E+01  5.73643E+01
   5.66784E+01  5.58905E+01  5.50049E+01  5.40299E+01  5.29770E+01  5.18603E+01  5.06958E+01  4.95000E+01  4.82897E+01  4.70807E+01
   4.58874E+01  4.47222E+01  4.35949E+01  4.25131E+01  4.14816E+01  4.05027E+01  3.95765E+01  3.87011E+01  3.78733E+01  3.70884E+01
   3.63410E+01  3.56253E+01  3.49356E+01  3.42660E+01  3.36113E+01  3.29669E+01  3.23287E+01  3.16935E+01  3.10591E+01  3.04237E+01
   2.97865E+01  2.91473E+01  2.85065E+01  2.78649E+01  2.72238E+01  2.65848E+01  2.59496E+01  2.53201E+01  2.46981E+01  2.40855E+01
   2.34840E+01  2.28952E+01  2.23206E+01  2.17613E+01  2.12185E+01  2.06930E+01  2.01854E+01  1.96962E+01  1.92255E+01  1.87735E+01
   1.83401E+01  1.79251E+01  1.75282E+01  1.71490E+01  1.67870E+01  1.64417E+01  1.61125E+01  1.57988E+01  1.54999E+01  1.52152E+01
   1.49440E+01  1.46857E+01  1.44397E+01  1.42053E+01  1.39820E+01  1.37692E+01  1.35662E+01  1.33727E+01  1.31880E+01  1.30117E+01
   1.28433E+01  1.26824E+01  1.25286E+01  1.23815E+01  1.22408E+01  1.21060E+01  1.19769E+01  1.18532E+01  1.17345E+01  1.16206E+01
   1.15113E+01  1.14063E+01  1.13054E+01  1.12084E+01  1.11150E+01  1.10251E+01  1.09386E+01  1.08552E+01  1.07749E+01  1.06973E+01
   1.06225E+01  1.05503E+01  1.04806E+01  1.04132E+01  1.03480E+01  1.02850E+01  1.02241E+01  1.01651E+01  1.01080E+01  1.00526E+01
   9.99902E+00  9.94706E+00  9.89669E+00  9.84784E+00  9.80046E+00  9.75451E+00  9.70993E+00  9.66670E+00
 NY background values follow
     7.923E+00    7.925E+00    7.926E+00    7.927E+00    7.928E+00    7.929E+00    7.931E+00    7.932E+00    7.933E+00    7.934E+00
     7.935E+00    7.936E+00    7.938E+00    7.939E+00    7.940E+00    7.941E+00    7.942E+00    7.944E+00    7.945E+00    7.946E+00
     7.947E+00    7.948E+00    7.950E+00    7.951E+00    7.952E+00    7.953E+00    7.954E+00    7.956E+00    7.957E+00    7.958E+00
     7.959E+00    7.961E+00    7.962E+00    7.963E+00    7.964E+00    7.965E+00    7.967E+00    7.968E+00    7.969E+00    7.970E+00
     7.971E+00    7.973E+00    7.974E+00    7.975E+00    7.976E+00    7.977E+00    7.979E+00    7.980E+00    7.981E+00    7.982E+00
     7.983E+00    7.985E+00    7.986E+00    7.987E+00    7.988E+00    7.989E+00    7.991E+00    7.992E+00    7.993E+00    7.994E+00
     7.995E+00    7.996E+00    7.998E+00    7.999E+00    8.000E+00    8.001E+00    8.002E+00    8.003E+00    8.005E+00    8.006E+00
     8.007E+00    8.008E+00    8.009E+00    8.010E+00    8.012E+00    8.013E+00    8.014E+00    8.015E+00    8.016E+00    8.017E+00
     8.018E+00    8.019E+00    8.020E+00    8.022E+00    8.023E+00    8.024E+00    8.025E+00    8.026E+00    8.027E+00    8.028E+00
     8.029E+00    8.030E+00    8.031E+00    8.032E+00    8.033E+00    8.034E+00    8.035E+00    8.036E+00    8.037E+00    8.038E+00
     8.039E+00    8.041E+00    8.042E+00    8.042E+00    8.043E+00    8.044E+00    8.045E+00    8.046E+00    8.047E+00    8.048E+00
     8.049E+00    8.050E+00    8.051E+00    8.052E+00    8.053E+00    8.054E+00    8.055E+00    8.056E+00    8.057E+00    8.057E+00
     8.058E+00    8.059E+00    8.060E+00    8.061E+00    8.062E+00    8.063E+00    8.063E+00    8.064E+00    8.065E+00    8.066E+00
     8.067E+00    8.067E+00    8.068E+00    8.069E+00    8.070E+00    8.070E+00    8.071E+00    8.072E+00    8.073E+00    8.073E+00
     8.074E+00    8.075E+00    8.075E+00    8.076E+00    8.077E+00    8.077E+00    8.078E+00    8.079E+00    8.079E+00    8.080E+00
     8.081E+00    8.081E+00    8.082E+00    8.082E+00    8.083E+00    8.083E+00    8.084E+00    8.085E+00    8.085E+00    8.086E+00
     8.086E+00    8.087E+00    8.087E+00    8.087E+00    8.088E+00    8.088E+00    8.089E+00    8.089E+00    8.090E+00    8.090E+00
     8.090E+00    8.091E+00    8.091E+00    8.091E+00    8.092E+00    8.092E+00    8.092E+00    8.093E+00    8.093E+00    8.093E+00
     8.093E+00    8.094E+00    8.094E+00    8.094E+00    8.094E+00    8.095E+00    8.095E+00    8.095E+00    8.095E+00    8.095E+00
     8.095E+00    8.096E+00    8.096E+00    8.096E+00    8.096E+00    8.096E+00    8.096E+00    8.096E+00    8.096E+00    8.096E+00
     8.096E+00    8.096E+00    8.096E+00    8.096E+00    8.096E+00    8.096E+00    8.096E+00    8.096E+00    8.096E+00    8.096E+00
     8.096E+00    8.096E+00    8.095E+00    8.095E+00    8.095E+00    8.095E+00    8.095E+00    8.095E+00    8.094E+00    8.094E+00
     8.094E+00    8.094E+00    8.093E+00    8.093E+00    8.093E+00    8.093E+00    8.092E+00    8.092E+00    8.092E+00    8.091E+00
     8.091E+00    8.091E+00    8.090E+00    8.090E+00    8.089E+00    8.089E+00    8.089E+00    8.088E+00    8.088E+00    8.087E+00
     8.087E+00    8.086E+00    8.086E+00    8.085E+00    8.085E+00    8.084E+00    8.084E+00    8.083E+00    8.083E+00    8.082E+00
     8.081E+00    8.081E+00    8.080E+00    8.079E+00    8.079E+00    8.078E+00    8.077E+00    8.077E+00    8.076E+00    8.075E+00
     8.075E+00    8.074E+00    8.073E+00    8.072E+00    8.072E+00    8.071E+00    8.070E+00    8.069E+00    8.068E+00    8.068E+00
     8.067E+00    8.066E+00    8.065E+00    8.064E+00    8.063E+00    8.062E+00    8.061E+00    8.060E+00    8.059E+00    8.058E+00
     8.057E+00    8.056E+00    8.055E+00    8.054E+00    8.053E+00    8.052E+00    8.051E+00    8.050E+00    8.049E+00    8.048E+00
     8.047E+00    8.046E+00    8.045E+00    8.043E+00    8.042E+00    8.041E+00    8.040E+00    8.039E+00    8.037E+00    8.036E+00
     8.035E+00    8.034E+00    8.032E+00    8.031E+00    8.030E+00    8.028E+00    8.027E+00    8.026E+00    8.024E+00    8.023E+00
     8.022E+00    8.020E+00    8.019E+00    8.018E+00    8.016E+00    8.015E+00    8.013E+00    8.012E+00    8.010E+00    8.009E+00
     8.007E+00    8.006E+00    8.004E+00    8.003E+00    8.001E+00    7.999E+00    7.998E+00    7.996E+00    7.995E+00    7.993E+00
     7.991E+00    7.990E+00    7.988E+00    7.986E+00    7.985E+00    7.983E+00    7.981E+00    7.979E+00    7.978E+00    7.976E+00
     7.974E+00    7.972E+00    7.971E+00    7.969E+00    7.967E+00    7.965E+00    7.963E+00    7.961E+00    7.959E+00    7.958E+00
     7.956E+00    7.954E+00    7.952E+00    7.950E+00    7.948E+00    7.946E+00    7.944E+00    7.942E+00    7.940E+00    7.938E+00
     7.936E+00    7.934E+00    7.932E+00    7.930E+00    7.928E+00    7.926E+00    7.924E+00    7.921E+00    7.919E+00    7.917E+00
     7.915E+00    7.913E+00    7.911E+00    7.909E+00    7.906E+00    7.904E+00    7.902E+00    7.900E+00    7.898E+00    7.895E+00
     7.893E+00    7.891E+00    7.889E+00    7.886E+00    7.884E+00    7.882E+00    7.879E+00    7.877E+00    7.875E+00    7.873E+00
     7.870E+00    7.868E+00    7.865E+00    7.863E+00    7.861E+00    7.858E+00    7.856E+00    7.854E+00    7.851E+00    7.849E+00
     7.846E+00    7.844E+00    7.841E+00    7.839E+00    7.837E+00    7.834E+00    7.832E+00    7.829E+00    7.827E+00    7.824E+00
     7.822E+00    7.819E+00    7.817E+00    7.814E+00    7.811E+00    7.809E+00    7.806E+00    7.804E+00    7.801E+00    7.799E+00
     7.796E+00    7.793E+00    7.791E+00    7.788E+00    7.786E+00    7.783E+00    7.780E+00    7.778E+00    7.775E+00    7.772E+00
     7.770E+00    7.767E+00    7.764E+00    7.762E+00    7.759E+00    7.756E+00    7.754E+00    7.751E+00    7.748E+00    7.746E+00
     7.743E+00    7.740E+00    7.737E+00    7.735E+00    7.732E+00    7.729E+00    7.727E+00    7.724E+00    7.721E+00    7.718E+00
     7.715E+00    7.713E+00    7.710E+00    7.707E+00    7.704E+00    7.702E+00    7.699E+00    7.696E+00    7.693E+00    7.690E+00
     7.688E+00    7.685E+00    7.682E+00    7.679E+00    7.676E+00    7.673E+00    7.671E+00    7.668E+00    7.665E+00    7.662E+00
     7.659E+00    7.656E+00    7.653E+00    7.651E+00    7.648E+00    7.645E+00    7.642E+00    7.639E+00    7.636E+00    7.633E+00
     7.630E+00    7.628E+00    7.625E+00    7.622E+00    7.619E+00    7.616E+00    7.613E+00    7.610E+00    7.607E+00    7.604E+00
     7.601E+00    7.598E+00    7.596E+00    7.593E+00    7.590E+00    7.587E+00    7.584E+00    7.581E+00
 Ala      Conc. = 2.85E+03
