 LCModel (Version 6.3-1L) Copyright: S.W. Provencher.          Ref.: Magn. Reson. Med. 30:672-679 (1993).                
 Slice#3 Row#7 Col#10  PD_24_press_1_raw_act
 36 lines in following concentration table = NCONC+1
    Conc.  %SD /Cr+PCr  Metabolite                                         
  210.229  56%   0.110 Ala                                                 
    0.000 999%   0.000 Asp                                                 
  892.585  26%   0.468 Cr                                                  
 1.01E+03  23%   0.532 PCr                                                 
    0.000 999%   0.000 GABA                                                
    0.000 999%   0.000 Glc                                                 
  985.308  24%   0.517 Gln                                                 
 2.26E+03  12%   1.184 Glu                                                 
  730.011   3%   0.383 GPC                                                 
    0.000 999%   0.000 PCh                                                 
  488.525  15%   0.256 GSH                                                 
 1.22E+03  20%   0.643 Ins                                                 
   67.628 189% 3.5E-02 Lac                                                 
 2.68E+03   3%   1.408 NAA                                                 
    0.000 999%   0.000 NAAG                                                
   95.356  28% 5.0E-02 Scyllo                                              
    0.000 999%   0.000 Tau                                                 
    0.000 999%   0.000 -CrCH2                                              
  730.011   3%   0.383 GPC+PCh                                             
 2.68E+03   3%   1.408 NAA+NAAG                                            
 1.91E+03   3%   1.000 Cr+PCr                                              
 3.24E+03  12%   1.702 Glu+Gln                                             
  440.581  99%   0.231 Lip13a                                              
    0.000 999%   0.000 Lip13b                                              
   37.723 459% 2.0E-02 Lip09                                               
 1.53E+03  16%   0.802 MM09                                                
   57.300 193% 3.0E-02 Lip20                                               
 2.45E+03  15%   1.286 MM20                                                
  549.662  33%   0.288 MM12                                                
 2.65E+03  16%   1.392 MM14                                                
 1.67E+03  18%   0.875 MM17                                                
  440.581  99%   0.231 Lip13a+Lip13b                                       
 3.64E+03  12%   1.911 MM14+Lip13a+Lip13b+MM12                             
 1.57E+03  12%   0.822 MM09+Lip09                                          
 2.51E+03  15%   1.316 MM20+Lip20                                          
   6 lines in following misc. output table
  FWHM = 0.061 ppm    S/N =  13                                            
  Data shift = 0.015 ppm                                                   
  Ph: -20 deg      -4.8 deg/ppm                                            
  alphaB,S = 1.2E+00,   1.9E+02                                            
   14 spline knots.   Ns = 7(1)                                            
  ( 8) 2 infls.   ( 3) 1 extrs.                                            
  498 points on ppm-axis = NY
      4.000000     3.992357     3.984714     3.977070     3.969427     3.961784     3.954141     3.946497     3.938854     3.931211
      3.923568     3.915925     3.908281     3.900638     3.892995     3.885352     3.877708     3.870065     3.862422     3.854779
      3.847136     3.839492     3.831849     3.824206     3.816563     3.808919     3.801276     3.793633     3.785990     3.778347
      3.770703     3.763060     3.755417     3.747774     3.740130     3.732487     3.724844     3.717201     3.709558     3.701914
      3.694271     3.686628     3.678985     3.671341     3.663698     3.656055     3.648412     3.640769     3.633125     3.625482
      3.617839     3.610196     3.602552     3.594909     3.587266     3.579623     3.571980     3.564336     3.556693     3.549050
      3.541407     3.533763     3.526120     3.518477     3.510834     3.503191     3.495547     3.487904     3.480261     3.472618
      3.464974     3.457331     3.449688     3.442045     3.434402     3.426758     3.419115     3.411472     3.403829     3.396185
      3.388542     3.380899     3.373256     3.365613     3.357969     3.350326     3.342683     3.335040     3.327396     3.319753
      3.312110     3.304467     3.296824     3.289180     3.281537     3.273894     3.266251     3.258607     3.250964     3.243321
      3.235678     3.228034     3.220391     3.212748     3.205105     3.197462     3.189818     3.182175     3.174532     3.166889
      3.159245     3.151602     3.143959     3.136316     3.128673     3.121029     3.113386     3.105743     3.098100     3.090456
      3.082813     3.075170     3.067527     3.059884     3.052240     3.044597     3.036954     3.029311     3.021667     3.014024
      3.006381     2.998738     2.991095     2.983451     2.975808     2.968165     2.960522     2.952878     2.945235     2.937592
      2.929949     2.922306     2.914662     2.907019     2.899376     2.891733     2.884089     2.876446     2.868803     2.861160
      2.853517     2.845873     2.838230     2.830587     2.822944     2.815300     2.807657     2.800014     2.792371     2.784728
      2.777084     2.769441     2.761798     2.754155     2.746511     2.738868     2.731225     2.723582     2.715939     2.708295
      2.700652     2.693009     2.685366     2.677722     2.670079     2.662436     2.654793     2.647150     2.639506     2.631863
      2.624220     2.616577     2.608933     2.601290     2.593647     2.586004     2.578361     2.570717     2.563074     2.555431
      2.547788     2.540144     2.532501     2.524858     2.517215     2.509572     2.501928     2.494285     2.486642     2.478999
      2.471355     2.463712     2.456069     2.448426     2.440783     2.433139     2.425496     2.417853     2.410210     2.402566
      2.394923     2.387280     2.379637     2.371994     2.364350     2.356707     2.349064     2.341421     2.333777     2.326134
      2.318491     2.310848     2.303205     2.295561     2.287918     2.280275     2.272632     2.264988     2.257345     2.249702
      2.242059     2.234416     2.226772     2.219129     2.211486     2.203843     2.196199     2.188556     2.180913     2.173270
      2.165627     2.157983     2.150340     2.142697     2.135054     2.127410     2.119767     2.112124     2.104481     2.096838
      2.089194     2.081551     2.073908     2.066265     2.058621     2.050978     2.043335     2.035692     2.028049     2.020405
      2.012762     2.005119     1.997476     1.989833     1.982190     1.974546     1.966903     1.959260     1.951617     1.943974
      1.936331     1.928688     1.921045     1.913402     1.905759     1.898115     1.890472     1.882829     1.875186     1.867543
      1.859900     1.852257     1.844614     1.836971     1.829327     1.821684     1.814041     1.806398     1.798755     1.791112
      1.783469     1.775826     1.768183     1.760540     1.752896     1.745253     1.737610     1.729967     1.722324     1.714681
      1.707038     1.699395     1.691752     1.684108     1.676465     1.668822     1.661179     1.653536     1.645893     1.638250
      1.630607     1.622964     1.615321     1.607677     1.600034     1.592391     1.584748     1.577105     1.569462     1.561819
      1.554176     1.546533     1.538890     1.531246     1.523603     1.515960     1.508317     1.500674     1.493031     1.485388
      1.477745     1.470102     1.462458     1.454815     1.447172     1.439529     1.431886     1.424243     1.416600     1.408957
      1.401314     1.393671     1.386027     1.378384     1.370741     1.363098     1.355455     1.347812     1.340169     1.332526
      1.324883     1.317240     1.309596     1.301953     1.294310     1.286667     1.279024     1.271381     1.263738     1.256095
      1.248452     1.240808     1.233165     1.225522     1.217879     1.210236     1.202593     1.194950     1.187307     1.179664
      1.172021     1.164377     1.156734     1.149091     1.141448     1.133805     1.126162     1.118519     1.110876     1.103233
      1.095590     1.087946     1.080303     1.072660     1.065017     1.057374     1.049731     1.042088     1.034445     1.026802
      1.019158     1.011515     1.003872     0.996229     0.988586     0.980943     0.973300     0.965657     0.958014     0.950371
      0.942727     0.935084     0.927441     0.919798     0.912155     0.904512     0.896869     0.889226     0.881583     0.873940
      0.866296     0.858653     0.851010     0.843367     0.835724     0.828081     0.820438     0.812795     0.805152     0.797508
      0.789865     0.782222     0.774579     0.766936     0.759293     0.751650     0.744007     0.736364     0.728721     0.721077
      0.713434     0.705791     0.698148     0.690505     0.682862     0.675219     0.667576     0.659933     0.652290     0.644646
      0.637003     0.629360     0.621717     0.614074     0.606431     0.598788     0.591145     0.583502     0.575858     0.568215
      0.560572     0.552929     0.545286     0.537643     0.530000     0.522357     0.514714     0.507071     0.499427     0.491784
      0.484141     0.476498     0.468855     0.461212     0.453569     0.445925     0.438282     0.430639     0.422996     0.415353
      0.407710     0.400067     0.392424     0.384780     0.377137     0.369494     0.361851     0.354208     0.346565     0.338922
      0.331278     0.323635     0.315992     0.308349     0.300706     0.293063     0.285420     0.277777     0.270133     0.262490
      0.254847     0.247204     0.239561     0.231918     0.224275     0.216631     0.208988     0.201345
 NY phased data points follow
   2.47239E+01  2.85624E+01  2.45533E+01  2.77112E+01  3.26578E+01  3.62129E+01  4.32453E+01  5.17715E+01  5.80902E+01  5.87506E+01
   6.23498E+01  6.70648E+01  6.21217E+01  5.70537E+01  5.25222E+01  4.09841E+01  4.14957E+01  3.80517E+01  2.84390E+01  2.68130E+01
   2.70002E+01  2.85344E+01  2.76236E+01  2.53304E+01  2.65478E+01  2.36180E+01  2.60072E+01  2.65530E+01  2.54400E+01  2.80991E+01
   2.84942E+01  2.88781E+01  2.95811E+01  3.26617E+01  3.06017E+01  2.38542E+01  2.60174E+01  2.53147E+01  2.41407E+01  2.42095E+01
   1.82587E+01  2.16598E+01  1.94531E+01  2.73429E+01  3.04180E+01  2.76148E+01  2.79368E+01  3.04825E+01  2.66153E+01  3.10680E+01
   2.22291E+01  2.12434E+01  2.57503E+01  1.40754E+01  2.03108E+01  2.08027E+01  2.12555E+01  1.87202E+01  1.51190E+01  1.38725E+01
   1.24739E+01  1.11387E+01  8.47992E+00  6.21833E+00  8.63463E+00  9.70927E-01  5.31396E+00  2.95427E+00  5.12289E+00  5.30431E+00
   7.56757E+00  5.59424E+00  6.26239E+00  3.05475E+00  8.22134E+00  1.13273E+01  9.52235E+00  8.18759E+00  7.10334E+00  8.47124E+00
   9.29313E+00  1.32058E+01  1.25688E+01  8.34177E+00  1.19738E+01  1.06201E+01  6.31285E+00  9.65847E+00  1.39636E+01  1.22567E+01
   7.76305E+00  1.01222E+01  1.31355E+01  7.51027E+00  9.76917E+00  8.73751E+00  1.04892E+01  1.13382E+01  1.78635E+01  3.47516E+01
   5.20873E+01  6.20385E+01  6.38488E+01  6.77628E+01  6.12762E+01  5.45360E+01  5.26495E+01  3.72027E+01  3.78475E+01  2.04196E+01
   1.63313E+01  1.21657E+01  1.23482E+01  1.04095E+01  4.79889E+00  3.77507E+00  4.59986E+00  1.82179E+00  2.21610E+00 -2.21648E+00
   2.12411E+00  5.72603E+00  1.37515E+01  1.93212E+01  3.73894E+01  4.55174E+01  5.87701E+01  6.45412E+01  5.86494E+01  5.23049E+01
   4.69504E+01  3.84804E+01  2.66715E+01  2.43991E+01  1.46460E+01  1.35816E+01  5.40063E+00  8.98132E+00  3.61919E+00  8.19111E+00
   4.38902E+00  3.83067E+00  7.07448E+00  3.68945E+00 -2.77999E-01  4.21288E+00 -1.13002E+00  3.85803E+00 -1.41069E-01 -1.45429E+00
   5.12628E-01 -6.88897E-01  4.11789E-01 -5.17818E-01  3.25572E-01 -2.94230E+00  1.08692E+00  3.95372E+00 -3.88227E+00 -1.61188E+00
  -2.46145E+00 -5.00613E+00 -1.85592E+00 -2.43051E+00 -6.09288E+00 -4.47207E+00 -4.99062E+00 -8.39389E+00 -8.46804E+00 -7.78490E+00
  -2.53584E+00 -4.29914E+00 -9.67905E+00 -1.03659E+01 -9.95116E+00 -1.19909E+01 -1.31717E+01 -8.58340E+00 -6.27136E+00 -9.06974E+00
  -1.12529E+01 -8.99844E+00 -5.98292E+00 -1.02092E+01 -1.14779E+01 -1.24621E+01 -8.94822E+00 -7.99707E+00 -1.14601E+01 -6.73750E+00
  -1.01592E+00 -3.01401E+00  3.68122E+00  3.95700E+00 -4.36853E-01  3.06134E+00 -7.46093E-01 -2.18838E+00 -5.28386E+00 -2.73687E+00
  -2.66180E+00 -7.59821E-01  1.07557E+00  1.88800E-01 -1.25289E-01 -3.12745E+00 -6.62018E+00 -4.49866E+00 -5.22749E+00 -1.01629E+01
  -7.78088E+00 -3.49354E+00  9.68315E-01  4.02256E+00  8.60779E+00  8.59953E+00  9.01801E+00  1.08103E+01  4.25706E+00 -5.98691E-01
  -4.87975E+00 -5.13748E+00 -3.64209E+00 -9.55972E+00 -3.74027E+00 -1.57404E+00  1.66622E+00  3.97982E+00  4.05143E+00  1.71004E+00
   4.87148E+00  2.16786E+00  4.59969E+00  1.99799E+00  3.91394E+00  3.98447E+00  3.04601E-01  1.36060E+00  7.88007E-01  2.05067E+00
   6.22914E-01  1.25840E+00 -4.72545E+00  2.87995E+00  6.03827E-01  6.97913E+00  1.25004E+00  4.28004E+00  1.33466E+01  7.24269E+00
   2.94028E+00  5.04829E+00  9.53718E+00  9.61400E+00  1.65169E+01  2.99672E+01  3.85234E+01  5.60353E+01  7.50718E+01  8.93442E+01
   9.12323E+01  8.69409E+01  7.69617E+01  5.70983E+01  4.53574E+01  3.39438E+01  2.23871E+01  1.95451E+01  6.28749E+00  6.17002E+00
   5.18971E+00  4.04959E+00  5.66916E+00  2.30491E+00  3.06433E+00 -2.42899E+00  1.95543E-01  4.26208E+00  5.87476E+00  1.66674E+00
  -2.83765E+00  2.73289E-01  2.85624E+00 -7.97458E-02  1.74111E+00  2.21355E-01  3.71964E+00  5.71093E-02  2.10997E+00 -4.22908E+00
   4.36120E+00 -2.32238E+00  5.78150E+00  2.97731E+00  2.29321E+00  3.76219E+00  3.16375E+00  3.43477E+00  3.17566E+00  7.65110E+00
   7.61929E+00  7.98540E+00  6.67172E+00  6.71709E+00  7.99267E+00  7.55667E+00  1.26912E+01  8.75383E+00  9.09359E+00  4.17754E+00
   1.03409E+01  1.46901E+01  1.08346E+01  8.37743E+00  1.23614E+01  1.26676E+01  1.04097E+01  1.07027E+01  1.09288E+01  1.38888E+01
   1.10716E+01  1.12222E+01  8.35211E+00  7.75293E+00  9.16559E+00  1.09111E+01  1.46745E+01  8.18116E+00  1.57654E+01  9.15059E+00
   9.07932E+00  1.22604E+01  9.46155E+00  1.18412E+01  1.25982E+01  9.44316E+00  1.18694E+01  1.70466E+01  1.46311E+01  1.29900E+01
   1.18255E+01  1.20814E+01  1.44576E+01  1.44689E+01  8.86970E+00  7.60710E+00  5.72170E+00  8.95635E+00  4.25423E+00  6.02646E+00
   5.08077E+00  1.05440E+01  5.64731E+00  2.44650E+00  6.42068E+00  8.90374E+00  3.33855E+00  4.23121E+00  6.88312E+00  6.62976E+00
   4.50627E+00  2.62467E+00  4.95611E+00  1.13933E+00  7.79446E+00  6.16253E+00  3.31288E+00  3.77740E+00  3.95473E+00  7.32941E+00
   2.52191E+00  1.50260E+00  3.08315E+00  9.99939E+00  4.75591E+00  5.25333E+00  3.47180E+00  8.01471E+00  2.71656E+00 -7.68635E-01
  -8.54835E-01  2.99532E+00  3.06170E+00  5.78547E+00 -6.81227E-01  2.87782E+00  4.59687E+00  8.19584E-01  1.97217E+00  3.23880E+00
   5.57721E+00  2.42763E+00  1.27632E+00  6.85502E+00  4.92532E+00  2.93103E+00  2.62137E+00  4.02582E+00  1.11850E+01  9.12590E+00
   8.96561E+00  8.66376E+00  1.15912E+01  1.50528E+01  1.30536E+01  1.42557E+01  1.22151E+01  9.18384E+00  9.24810E+00  1.45511E+01
   1.15944E+01  1.06701E+01  8.60550E+00  9.72252E+00  5.78258E+00  9.91548E+00  3.62523E+00  6.43589E+00  5.38665E+00  7.73177E+00
   7.79998E+00  2.38379E+00  5.48118E+00  1.75388E+00  8.19999E+00  4.59773E+00  5.03066E+00 -5.34872E-01  2.18040E+00  1.82669E+00
  -3.18493E-01 -7.96493E-01  1.09628E+00 -1.72367E+00  3.82041E+00  6.39335E+00  5.76693E+00 -9.23148E-01  2.55537E+00  2.53693E+00
   4.59264E+00  2.71327E+00  4.83700E+00  3.13888E+00  3.64158E+00  3.69680E+00  4.68185E+00  6.26548E+00  1.25572E+00  2.07373E+00
  -3.35788E-01  4.05127E+00  4.74608E+00 -1.60460E+00  2.33501E+00  2.64248E+00  8.91241E-01 -1.60402E+00  3.74819E+00  1.45337E+00
   3.69455E+00  2.88159E-01  4.10039E+00  4.25130E+00  1.44916E+00  1.75510E+00  4.21661E+00  2.51987E-01  2.76033E+00  2.64530E+00
   4.08578E+00  8.90547E-01  1.84618E+00 -3.26697E+00  3.00202E+00  1.87735E+00  2.74268E+00  4.87337E+00  1.57227E+00 -3.70619E-01
   8.48095E-01  2.30195E+00  2.78929E+00 -1.06280E+00 -2.42464E+00 -1.01169E+00  3.70033E+00  6.68792E-01  4.43134E+00  3.36476E-01
   3.02886E+00  1.73241E+00  6.88340E-01  4.30557E-01  1.97506E+00  4.08647E+00  7.13396E+00  4.85530E+00
 NY points of the fit to the data follow
   2.46043E+01  2.44439E+01  2.48919E+01  2.63226E+01  2.91717E+01  3.38427E+01  4.01893E+01  4.74332E+01  5.43527E+01  5.95880E+01
   6.21212E+01  6.16268E+01  5.84973E+01  5.36423E+01  4.80825E+01  4.25751E+01  3.75305E+01  3.30695E+01  2.93621E+01  2.67265E+01
   2.49323E+01  2.38630E+01  2.30019E+01  2.21563E+01  2.15780E+01  2.16095E+01  2.25370E+01  2.43866E+01  2.68635E+01  2.93779E+01
   3.12748E+01  3.20923E+01  3.16350E+01  3.00507E+01  2.77731E+01  2.52740E+01  2.29842E+01  2.10552E+01  1.96276E+01  1.90006E+01
   1.91603E+01  1.99499E+01  2.12667E+01  2.29511E+01  2.47031E+01  2.60340E+01  2.65983E+01  2.62627E+01  2.50908E+01  2.34068E+01
   2.15145E+01  1.96703E+01  1.81247E+01  1.69452E+01  1.60566E+01  1.55340E+01  1.54909E+01  1.57434E+01  1.59333E+01  1.58517E+01
   1.54599E+01  1.47907E+01  1.39655E+01  1.31405E+01  1.24709E+01  1.20534E+01  1.18682E+01  1.18511E+01  1.19665E+01  1.21452E+01
   1.22943E+01  1.23427E+01  1.22398E+01  1.19976E+01  1.16550E+01  1.12636E+01  1.08821E+01  1.05375E+01  1.02504E+01  1.00746E+01
   1.01181E+01  1.04144E+01  1.08664E+01  1.13140E+01  1.15677E+01  1.14840E+01  1.10347E+01  1.03303E+01  9.55891E+00  8.89945E+00
   8.45781E+00  8.22973E+00  8.11991E+00  8.03194E+00  7.98522E+00  8.32799E+00  1.01882E+01  1.49449E+01  2.32147E+01  3.46464E+01
   4.76030E+01  5.94023E+01  6.72923E+01  6.95802E+01  6.62918E+01  5.88851E+01  4.93484E+01  3.95554E+01  3.06640E+01  2.28781E+01
   1.59686E+01  1.01088E+01  6.56836E+00  5.43700E+00  5.04250E+00  4.84305E+00  4.73274E+00  4.70032E+00  4.78579E+00  5.11911E+00
   6.28288E+00  9.67039E+00  1.61558E+01  2.57390E+01  3.73873E+01  4.89859E+01  5.79990E+01  6.24676E+01  6.17855E+01  5.67726E+01
   4.90026E+01  4.01453E+01  3.14820E+01  2.35125E+01  1.62292E+01  9.73493E+00  4.99344E+00  3.15019E+00  2.82053E+00  2.95043E+00
   3.18664E+00  3.35081E+00  3.39987E+00  3.35449E+00  3.18490E+00  2.89196E+00  2.51891E+00  2.08421E+00  1.61662E+00  1.16523E+00
   7.57890E-01  4.43284E-01  2.08762E-01  3.01467E-02 -1.64149E-01 -4.44999E-01 -8.51554E-01 -1.35567E+00 -1.83327E+00 -2.16936E+00
  -2.29740E+00 -2.23358E+00 -2.09526E+00 -2.03849E+00 -2.18032E+00 -2.54155E+00 -3.04702E+00 -3.59180E+00 -4.10371E+00 -4.62731E+00
  -5.28181E+00 -6.01401E+00 -6.71018E+00 -7.22613E+00 -7.46948E+00 -7.52492E+00 -7.47521E+00 -7.38874E+00 -7.32538E+00 -7.31739E+00
  -7.39307E+00 -7.52103E+00 -7.61814E+00 -7.58040E+00 -7.30347E+00 -6.72269E+00 -5.74989E+00 -4.39355E+00 -2.89723E+00 -1.58396E+00
  -7.35876E-01 -4.44222E-01 -6.37034E-01 -1.15564E+00 -1.80525E+00 -2.39142E+00 -2.72140E+00 -2.51760E+00 -1.67420E+00 -3.06423E-01
   1.33077E+00  2.85317E+00  3.80938E+00  3.78356E+00  2.65985E+00  5.93677E-01 -2.06943E+00 -4.87849E+00 -7.16879E+00 -8.28055E+00
  -7.79004E+00 -5.74973E+00 -2.55390E+00  1.12226E+00  4.34974E+00  6.25854E+00  6.24758E+00  4.21963E+00  6.72826E-01 -3.57802E+00
  -7.35912E+00 -9.81068E+00 -1.06313E+01 -9.82900E+00 -7.77600E+00 -4.97668E+00 -2.08220E+00  2.07391E-01  1.69508E+00  2.48094E+00
   2.79272E+00  2.78841E+00  2.62705E+00  2.66435E+00  3.14912E+00  3.88926E+00  4.51561E+00  4.72328E+00  4.36791E+00  3.53357E+00
   2.43689E+00  1.40863E+00  8.37176E-01  8.75259E-01  1.35867E+00  2.04524E+00  2.82220E+00  3.57828E+00  4.23757E+00  4.84850E+00
   5.50176E+00  6.20978E+00  7.17798E+00  1.00099E+01  1.66646E+01  2.78994E+01  4.31436E+01  6.02068E+01  7.55963E+01  8.57289E+01
   8.84652E+01  8.39751E+01  7.42303E+01  6.18419E+01  4.92304E+01  3.77548E+01  2.75394E+01  1.81988E+01  1.01254E+01  5.44757E+00
   3.81190E+00  3.03892E+00  2.60535E+00  2.38111E+00  2.25867E+00  2.11083E+00  1.92305E+00  1.69625E+00  1.43979E+00  1.17722E+00
   9.29709E-01  7.01263E-01  5.06819E-01  3.72623E-01  3.04677E-01  2.90781E-01  3.24009E-01  4.05457E-01  5.38766E-01  7.23621E-01
   9.54704E-01  1.23747E+00  1.57744E+00  1.97502E+00  2.42805E+00  2.93250E+00  3.48271E+00  4.07072E+00  4.68637E+00  5.31957E+00
   5.95821E+00  6.58808E+00  7.19489E+00  7.76489E+00  8.28523E+00  8.74485E+00  9.13539E+00  9.45176E+00  9.69243E+00  9.85937E+00
   9.95791E+00  9.99654E+00  9.98705E+00  9.94388E+00  9.88282E+00  9.82071E+00  9.77505E+00  9.76398E+00  9.80764E+00  9.93366E+00
   1.01878E+01  1.05854E+01  1.10710E+01  1.15484E+01  1.18940E+01  1.19951E+01  1.17962E+01  1.13196E+01  1.06853E+01  1.00909E+01
   9.71341E+00  9.67194E+00  9.98968E+00  1.05825E+01  1.13030E+01  1.20064E+01  1.25990E+01  1.29653E+01  1.30278E+01  1.28557E+01
   1.25489E+01  1.21658E+01  1.17043E+01  1.11360E+01  1.04944E+01  9.84170E+00  9.14167E+00  8.38971E+00  7.63609E+00  6.95114E+00
   6.39448E+00  6.00168E+00  5.77011E+00  5.66133E+00  5.62140E+00  5.60602E+00  5.59217E+00  5.54393E+00  5.44032E+00  5.30017E+00
   5.14136E+00  4.96948E+00  4.78005E+00  4.57455E+00  4.38310E+00  4.21255E+00  4.05004E+00  3.88991E+00  3.73022E+00  3.57076E+00
   3.41233E+00  3.25641E+00  3.10496E+00  2.96031E+00  2.82503E+00  2.70190E+00  2.59381E+00  2.50366E+00  2.43438E+00  2.38890E+00
   2.37017E+00  2.38114E+00  2.42473E+00  2.50377E+00  2.62102E+00  2.77909E+00  2.98039E+00  3.22697E+00  3.52031E+00  3.86120E+00
   4.24952E+00  4.68401E+00  5.16209E+00  5.67967E+00  6.23092E+00  6.80829E+00  7.40252E+00  8.00278E+00  8.59688E+00  9.17160E+00
   9.71320E+00  1.02079E+01  1.06426E+01  1.10053E+01  1.12859E+01  1.14766E+01  1.15721E+01  1.15703E+01  1.14720E+01  1.12811E+01
   1.10043E+01  1.06504E+01  1.02303E+01  9.75630E+00  9.24120E+00  8.69805E+00  8.13944E+00  7.57707E+00  7.02138E+00  6.48134E+00
   5.96426E+00  5.47575E+00  5.01978E+00  4.59879E+00  4.21392E+00  3.86517E+00  3.55164E+00  3.27175E+00  3.02339E+00  2.80419E+00
   2.61162E+00  2.44313E+00  2.29622E+00  2.16850E+00  2.05774E+00  1.96195E+00  1.87930E+00  1.80821E+00  1.74726E+00  1.69518E+00
   1.65090E+00  1.61349E+00  1.58214E+00  1.55616E+00  1.53494E+00  1.51794E+00  1.50469E+00  1.49482E+00  1.48799E+00  1.48390E+00
   1.48227E+00  1.48286E+00  1.48548E+00  1.48995E+00  1.49613E+00  1.50387E+00  1.51303E+00  1.52349E+00  1.53515E+00  1.54794E+00
   1.56177E+00  1.57657E+00  1.59224E+00  1.60874E+00  1.62602E+00  1.64403E+00  1.66272E+00  1.68204E+00  1.70193E+00  1.72237E+00
   1.74333E+00  1.76480E+00  1.78673E+00  1.80909E+00  1.83185E+00  1.85501E+00  1.87853E+00  1.90241E+00  1.92660E+00  1.95109E+00
   1.97586E+00  2.00091E+00  2.02622E+00  2.05177E+00  2.07755E+00  2.10352E+00  2.12970E+00  2.15608E+00  2.18263E+00  2.20935E+00
   2.23621E+00  2.26320E+00  2.29032E+00  2.31756E+00  2.34492E+00  2.37236E+00  2.39987E+00  2.42745E+00
 NY background values follow
     1.955E+01    1.939E+01    1.923E+01    1.906E+01    1.890E+01    1.873E+01    1.857E+01    1.840E+01    1.824E+01    1.808E+01
     1.791E+01    1.775E+01    1.758E+01    1.742E+01    1.725E+01    1.709E+01    1.692E+01    1.676E+01    1.660E+01    1.643E+01
     1.627E+01    1.610E+01    1.594E+01    1.578E+01    1.561E+01    1.545E+01    1.529E+01    1.512E+01    1.496E+01    1.480E+01
     1.463E+01    1.447E+01    1.431E+01    1.415E+01    1.398E+01    1.382E+01    1.366E+01    1.350E+01    1.334E+01    1.318E+01
     1.302E+01    1.286E+01    1.270E+01    1.254E+01    1.238E+01    1.222E+01    1.206E+01    1.190E+01    1.174E+01    1.159E+01
     1.143E+01    1.127E+01    1.112E+01    1.096E+01    1.080E+01    1.065E+01    1.049E+01    1.034E+01    1.018E+01    1.003E+01
     9.878E+00    9.725E+00    9.573E+00    9.421E+00    9.270E+00    9.120E+00    8.970E+00    8.820E+00    8.671E+00    8.523E+00
     8.375E+00    8.228E+00    8.081E+00    7.935E+00    7.790E+00    7.646E+00    7.502E+00    7.358E+00    7.215E+00    7.074E+00
     6.932E+00    6.792E+00    6.652E+00    6.513E+00    6.374E+00    6.237E+00    6.100E+00    5.964E+00    5.828E+00    5.694E+00
     5.560E+00    5.427E+00    5.295E+00    5.164E+00    5.034E+00    4.904E+00    4.775E+00    4.647E+00    4.520E+00    4.394E+00
     4.269E+00    4.144E+00    4.021E+00    3.898E+00    3.776E+00    3.655E+00    3.535E+00    3.415E+00    3.297E+00    3.179E+00
     3.062E+00    2.946E+00    2.831E+00    2.717E+00    2.604E+00    2.491E+00    2.380E+00    2.269E+00    2.160E+00    2.051E+00
     1.943E+00    1.836E+00    1.730E+00    1.624E+00    1.520E+00    1.417E+00    1.314E+00    1.213E+00    1.112E+00    1.012E+00
     9.132E-01    8.153E-01    7.183E-01    6.222E-01    5.270E-01    4.328E-01    3.395E-01    2.471E-01    1.557E-01    6.520E-02
    -2.436E-02   -1.130E-01   -2.007E-01   -2.874E-01   -3.732E-01   -4.581E-01   -5.421E-01   -6.251E-01   -7.071E-01   -7.883E-01
    -8.685E-01   -9.477E-01   -1.026E+00   -1.103E+00   -1.180E+00   -1.255E+00   -1.330E+00   -1.404E+00   -1.476E+00   -1.548E+00
    -1.619E+00   -1.689E+00   -1.758E+00   -1.826E+00   -1.893E+00   -1.959E+00   -2.024E+00   -2.088E+00   -2.152E+00   -2.214E+00
    -2.276E+00   -2.336E+00   -2.396E+00   -2.454E+00   -2.512E+00   -2.569E+00   -2.624E+00   -2.679E+00   -2.733E+00   -2.786E+00
    -2.838E+00   -2.889E+00   -2.939E+00   -2.989E+00   -3.037E+00   -3.084E+00   -3.131E+00   -3.176E+00   -3.221E+00   -3.265E+00
    -3.308E+00   -3.350E+00   -3.391E+00   -3.432E+00   -3.471E+00   -3.510E+00   -3.548E+00   -3.585E+00   -3.621E+00   -3.657E+00
    -3.691E+00   -3.725E+00   -3.759E+00   -3.791E+00   -3.823E+00   -3.854E+00   -3.884E+00   -3.913E+00   -3.942E+00   -3.970E+00
    -3.997E+00   -4.024E+00   -4.050E+00   -4.075E+00   -4.100E+00   -4.124E+00   -4.147E+00   -4.170E+00   -4.192E+00   -4.214E+00
    -4.235E+00   -4.255E+00   -4.274E+00   -4.294E+00   -4.312E+00   -4.330E+00   -4.347E+00   -4.364E+00   -4.380E+00   -4.396E+00
    -4.411E+00   -4.426E+00   -4.440E+00   -4.454E+00   -4.467E+00   -4.479E+00   -4.491E+00   -4.503E+00   -4.514E+00   -4.524E+00
    -4.534E+00   -4.544E+00   -4.553E+00   -4.561E+00   -4.569E+00   -4.576E+00   -4.583E+00   -4.590E+00   -4.596E+00   -4.601E+00
    -4.606E+00   -4.611E+00   -4.615E+00   -4.619E+00   -4.622E+00   -4.625E+00   -4.627E+00   -4.629E+00   -4.630E+00   -4.631E+00
    -4.631E+00   -4.631E+00   -4.631E+00   -4.630E+00   -4.629E+00   -4.627E+00   -4.625E+00   -4.623E+00   -4.620E+00   -4.616E+00
    -4.612E+00   -4.608E+00   -4.604E+00   -4.599E+00   -4.593E+00   -4.587E+00   -4.581E+00   -4.575E+00   -4.568E+00   -4.560E+00
    -4.553E+00   -4.545E+00   -4.536E+00   -4.528E+00   -4.518E+00   -4.509E+00   -4.499E+00   -4.489E+00   -4.478E+00   -4.467E+00
    -4.456E+00   -4.445E+00   -4.433E+00   -4.421E+00   -4.408E+00   -4.395E+00   -4.382E+00   -4.369E+00   -4.355E+00   -4.341E+00
    -4.326E+00   -4.312E+00   -4.297E+00   -4.281E+00   -4.266E+00   -4.250E+00   -4.234E+00   -4.218E+00   -4.201E+00   -4.184E+00
    -4.167E+00   -4.150E+00   -4.132E+00   -4.114E+00   -4.096E+00   -4.077E+00   -4.059E+00   -4.040E+00   -4.021E+00   -4.001E+00
    -3.982E+00   -3.962E+00   -3.942E+00   -3.922E+00   -3.901E+00   -3.881E+00   -3.860E+00   -3.839E+00   -3.817E+00   -3.796E+00
    -3.774E+00   -3.752E+00   -3.730E+00   -3.707E+00   -3.685E+00   -3.662E+00   -3.639E+00   -3.616E+00   -3.593E+00   -3.569E+00
    -3.545E+00   -3.521E+00   -3.497E+00   -3.473E+00   -3.448E+00   -3.423E+00   -3.398E+00   -3.373E+00   -3.348E+00   -3.323E+00
    -3.297E+00   -3.271E+00   -3.245E+00   -3.219E+00   -3.193E+00   -3.166E+00   -3.140E+00   -3.113E+00   -3.086E+00   -3.059E+00
    -3.031E+00   -3.004E+00   -2.976E+00   -2.948E+00   -2.920E+00   -2.892E+00   -2.864E+00   -2.836E+00   -2.807E+00   -2.778E+00
    -2.750E+00   -2.721E+00   -2.691E+00   -2.662E+00   -2.633E+00   -2.603E+00   -2.573E+00   -2.544E+00   -2.514E+00   -2.483E+00
    -2.453E+00   -2.423E+00   -2.392E+00   -2.361E+00   -2.331E+00   -2.300E+00   -2.269E+00   -2.237E+00   -2.206E+00   -2.174E+00
    -2.143E+00   -2.111E+00   -2.079E+00   -2.047E+00   -2.015E+00   -1.983E+00   -1.950E+00   -1.918E+00   -1.885E+00   -1.852E+00
    -1.819E+00   -1.786E+00   -1.753E+00   -1.720E+00   -1.686E+00   -1.653E+00   -1.619E+00   -1.585E+00   -1.552E+00   -1.518E+00
    -1.484E+00   -1.449E+00   -1.415E+00   -1.381E+00   -1.346E+00   -1.312E+00   -1.277E+00   -1.242E+00   -1.207E+00   -1.172E+00
    -1.137E+00   -1.102E+00   -1.067E+00   -1.032E+00   -9.965E-01   -9.611E-01   -9.257E-01   -8.901E-01   -8.546E-01   -8.189E-01
    -7.832E-01   -7.475E-01   -7.117E-01   -6.759E-01   -6.400E-01   -6.041E-01   -5.682E-01   -5.322E-01   -4.962E-01   -4.601E-01
    -4.240E-01   -3.879E-01   -3.518E-01   -3.157E-01   -2.796E-01   -2.434E-01   -2.072E-01   -1.710E-01   -1.349E-01   -9.869E-02
    -6.251E-02   -2.634E-02    9.825E-03    4.598E-02    8.213E-02    1.183E-01    1.544E-01    1.905E-01    2.266E-01    2.627E-01
     2.988E-01    3.349E-01    3.710E-01    4.071E-01    4.432E-01    4.793E-01    5.153E-01    5.514E-01    5.874E-01    6.235E-01
     6.596E-01    6.956E-01    7.316E-01    7.677E-01    8.037E-01    8.398E-01    8.758E-01    9.119E-01    9.479E-01    9.840E-01
     1.020E+00    1.056E+00    1.092E+00    1.128E+00    1.164E+00    1.200E+00    1.236E+00    1.272E+00    1.308E+00    1.345E+00
     1.381E+00    1.417E+00    1.453E+00    1.489E+00    1.525E+00    1.561E+00    1.597E+00    1.633E+00
 Ala      Conc. = 2.10E+02
