 LCModel (Version 6.3-1L) Copyright: S.W. Provencher.          Ref.: Magn. Reson. Med. 30:672-679 (1993).                
 Slice#1 Row#2 Col#8  PD_24_press_1_raw_act
 36 lines in following concentration table = NCONC+1
    Conc.  %SD /Cr+PCr  Metabolite                                         
 1.05E+03  28%   7.389 Ala                                                 
   35.593  33%   0.250 Asp                                                 
  142.513  36%   1.000 Cr                                                  
    0.000 999%   0.000 PCr                                                 
   21.526  33%   0.151 GABA                                                
   21.575  33%   0.151 Glc                                                 
 1.11E+03  39%   7.812 Gln                                                 
  589.556  84%   4.137 Glu                                                 
    0.000 999%   0.000 GPC                                                 
   46.379  42%   0.325 PCh                                                 
    0.000 999%   0.000 GSH                                                 
  466.824  48%   3.276 Ins                                                 
   93.600 333%   0.657 Lac                                                 
    0.000 999%   0.000 NAA                                                 
  434.128  18%   3.046 NAAG                                                
    7.433  32% 5.2E-02 Scyllo                                              
   36.732  32%   0.258 Tau                                                 
   13.105 112% 9.2E-02 -CrCH2                                              
   46.379  42%   0.325 GPC+PCh                                             
  434.128  18%   3.046 NAA+NAAG                                            
  142.513  36%   1.000 Cr+PCr                                              
 1.70E+03  42%  11.949 Glu+Gln                                             
    0.000 999%   0.000 Lip13a                                              
  251.201  38%   1.763 Lip13b                                              
   66.900  43%   0.469 Lip09                                               
  473.815  20%   3.325 MM09                                                
   37.512  45%   0.263 Lip20                                               
  585.185  38%   4.106 MM20                                                
   97.011  70%   0.681 MM12                                                
 1.01E+03  15%   7.088 MM14                                                
  254.360  47%   1.785 MM17                                                
  251.201  38%   1.763 Lip13a+Lip13b                                       
 1.36E+03  13%   9.531 MM14+Lip13a+Lip13b+MM12                             
  540.715  17%   3.794 MM09+Lip09                                          
  622.697  35%   4.369 MM20+Lip20                                          
   6 lines in following misc. output table
  FWHM = 0.122 ppm    S/N =   2                                            
  Data shift = 0.069 ppm                                                   
  Ph: -58 deg     -22.0 deg/ppm                                            
  alphaB,S = 8.5E+01,   5.1E+01                                            
   14 spline knots.   Ns = 7(2)                                            
   2 inflections.     1 extrema                                            
  498 points on ppm-axis = NY
      4.000000     3.992357     3.984714     3.977070     3.969427     3.961784     3.954141     3.946497     3.938854     3.931211
      3.923568     3.915925     3.908281     3.900638     3.892995     3.885352     3.877708     3.870065     3.862422     3.854779
      3.847136     3.839492     3.831849     3.824206     3.816563     3.808919     3.801276     3.793633     3.785990     3.778347
      3.770703     3.763060     3.755417     3.747774     3.740130     3.732487     3.724844     3.717201     3.709558     3.701914
      3.694271     3.686628     3.678985     3.671341     3.663698     3.656055     3.648412     3.640769     3.633125     3.625482
      3.617839     3.610196     3.602552     3.594909     3.587266     3.579623     3.571980     3.564336     3.556693     3.549050
      3.541407     3.533763     3.526120     3.518477     3.510834     3.503191     3.495547     3.487904     3.480261     3.472618
      3.464974     3.457331     3.449688     3.442045     3.434402     3.426758     3.419115     3.411472     3.403829     3.396185
      3.388542     3.380899     3.373256     3.365613     3.357969     3.350326     3.342683     3.335040     3.327396     3.319753
      3.312110     3.304467     3.296824     3.289180     3.281537     3.273894     3.266251     3.258607     3.250964     3.243321
      3.235678     3.228034     3.220391     3.212748     3.205105     3.197462     3.189818     3.182175     3.174532     3.166889
      3.159245     3.151602     3.143959     3.136316     3.128673     3.121029     3.113386     3.105743     3.098100     3.090456
      3.082813     3.075170     3.067527     3.059884     3.052240     3.044597     3.036954     3.029311     3.021667     3.014024
      3.006381     2.998738     2.991095     2.983451     2.975808     2.968165     2.960522     2.952878     2.945235     2.937592
      2.929949     2.922306     2.914662     2.907019     2.899376     2.891733     2.884089     2.876446     2.868803     2.861160
      2.853517     2.845873     2.838230     2.830587     2.822944     2.815300     2.807657     2.800014     2.792371     2.784728
      2.777084     2.769441     2.761798     2.754155     2.746511     2.738868     2.731225     2.723582     2.715939     2.708295
      2.700652     2.693009     2.685366     2.677722     2.670079     2.662436     2.654793     2.647150     2.639506     2.631863
      2.624220     2.616577     2.608933     2.601290     2.593647     2.586004     2.578361     2.570717     2.563074     2.555431
      2.547788     2.540144     2.532501     2.524858     2.517215     2.509572     2.501928     2.494285     2.486642     2.478999
      2.471355     2.463712     2.456069     2.448426     2.440783     2.433139     2.425496     2.417853     2.410210     2.402566
      2.394923     2.387280     2.379637     2.371994     2.364350     2.356707     2.349064     2.341421     2.333777     2.326134
      2.318491     2.310848     2.303205     2.295561     2.287918     2.280275     2.272632     2.264988     2.257345     2.249702
      2.242059     2.234416     2.226772     2.219129     2.211486     2.203843     2.196199     2.188556     2.180913     2.173270
      2.165627     2.157983     2.150340     2.142697     2.135054     2.127410     2.119767     2.112124     2.104481     2.096838
      2.089194     2.081551     2.073908     2.066265     2.058621     2.050978     2.043335     2.035692     2.028049     2.020405
      2.012762     2.005119     1.997476     1.989833     1.982190     1.974546     1.966903     1.959260     1.951617     1.943974
      1.936331     1.928688     1.921045     1.913402     1.905759     1.898115     1.890472     1.882829     1.875186     1.867543
      1.859900     1.852257     1.844614     1.836971     1.829327     1.821684     1.814041     1.806398     1.798755     1.791112
      1.783469     1.775826     1.768183     1.760540     1.752896     1.745253     1.737610     1.729967     1.722324     1.714681
      1.707038     1.699395     1.691752     1.684108     1.676465     1.668822     1.661179     1.653536     1.645893     1.638250
      1.630607     1.622964     1.615321     1.607677     1.600034     1.592391     1.584748     1.577105     1.569462     1.561819
      1.554176     1.546533     1.538890     1.531246     1.523603     1.515960     1.508317     1.500674     1.493031     1.485388
      1.477745     1.470102     1.462458     1.454815     1.447172     1.439529     1.431886     1.424243     1.416600     1.408957
      1.401314     1.393671     1.386027     1.378384     1.370741     1.363098     1.355455     1.347812     1.340169     1.332526
      1.324883     1.317240     1.309596     1.301953     1.294310     1.286667     1.279024     1.271381     1.263738     1.256095
      1.248452     1.240808     1.233165     1.225522     1.217879     1.210236     1.202593     1.194950     1.187307     1.179664
      1.172021     1.164377     1.156734     1.149091     1.141448     1.133805     1.126162     1.118519     1.110876     1.103233
      1.095590     1.087946     1.080303     1.072660     1.065017     1.057374     1.049731     1.042088     1.034445     1.026802
      1.019158     1.011515     1.003872     0.996229     0.988586     0.980943     0.973300     0.965657     0.958014     0.950371
      0.942727     0.935084     0.927441     0.919798     0.912155     0.904512     0.896869     0.889226     0.881583     0.873940
      0.866296     0.858653     0.851010     0.843367     0.835724     0.828081     0.820438     0.812795     0.805152     0.797508
      0.789865     0.782222     0.774579     0.766936     0.759293     0.751650     0.744007     0.736364     0.728721     0.721077
      0.713434     0.705791     0.698148     0.690505     0.682862     0.675219     0.667576     0.659933     0.652290     0.644646
      0.637003     0.629360     0.621717     0.614074     0.606431     0.598788     0.591145     0.583502     0.575858     0.568215
      0.560572     0.552929     0.545286     0.537643     0.530000     0.522357     0.514714     0.507071     0.499427     0.491784
      0.484141     0.476498     0.468855     0.461212     0.453569     0.445925     0.438282     0.430639     0.422996     0.415353
      0.407710     0.400067     0.392424     0.384780     0.377137     0.369494     0.361851     0.354208     0.346565     0.338922
      0.331278     0.323635     0.315992     0.308349     0.300706     0.293063     0.285420     0.277777     0.270133     0.262490
      0.254847     0.247204     0.239561     0.231918     0.224275     0.216631     0.208988     0.201345
 NY phased data points follow
   3.20158E+00 -2.54457E+00  2.98939E-01  8.24538E-01  5.91919E+00 -1.76928E+00  2.96889E+00  2.45994E+00  6.52992E+00  3.29519E+00
   1.68803E+00  2.73849E+00  2.80283E+00  4.86321E+00  8.68687E+00  1.16501E+00  4.90217E+00 -3.46743E+00  2.55463E+00  7.03812E-01
  -5.42888E-01 -1.82327E+00  4.00715E+00 -1.03675E+00  6.16323E+00 -1.12270E-01  5.28789E+00 -2.94396E+00  2.20111E+00  5.23665E-01
  -1.09917E+00  1.36885E+00  3.51192E+00 -1.56857E+00  4.12214E+00 -2.89719E+00  3.78685E+00 -1.29286E+00  4.96880E+00  1.06955E+00
   7.04799E-01  1.64023E+00  1.79069E+00  5.64651E+00  2.99191E+00 -4.01734E+00  1.67079E+00  8.83773E-01 -4.60197E-01  1.99546E+00
   2.83948E+00  3.63168E-01  2.86318E+00 -1.98125E+00 -2.38595E+00 -8.71548E-01 -1.98051E+00 -9.17318E-02  9.47661E+00  5.90783E+00
   3.02738E+00  1.73524E+00  3.98611E+00  4.78035E-01  4.59818E+00  1.80250E+00  1.79401E+00  6.52155E-01  4.30652E+00  2.59208E+00
   4.04335E+00  6.59862E-01 -7.97118E-01  1.14948E+00  2.98482E+00 -5.27839E-01  2.66890E+00 -1.86870E+00  5.43899E-01  6.10822E-01
   1.60852E+00  7.53086E-01  3.43350E+00  5.89369E+00 -1.25935E+00  3.46049E+00 -5.28671E-01  3.36634E+00  1.26712E+00  5.20036E+00
   3.52543E+00 -4.60758E+00 -2.81571E+00 -3.68481E+00 -1.96024E+00  2.97515E-01  4.87487E+00 -3.04365E+00  6.22641E+00  6.10227E-01
   5.39413E+00  2.51667E-01  2.21468E+00 -8.30911E-01  2.56485E+00  1.57863E+00  1.64687E+00  3.57196E+00 -7.29200E-01 -3.25380E+00
   5.31302E-01 -1.99533E+00  3.82244E+00 -3.26985E+00  9.63431E+00 -1.99372E-01  1.45900E+00 -2.41304E+00 -1.64392E+00 -7.06203E+00
   1.69634E+00  4.42145E+00  9.30340E+00  8.59434E-01  1.65059E+00  1.61511E+00 -4.89948E-01  1.43723E+00  5.98675E-01 -6.94225E-01
   1.06005E-01  4.07202E-01  1.20447E+00  2.50575E+00  2.44504E+00  4.12830E+00 -1.29689E+00 -4.17637E+00 -4.29244E+00 -5.00819E+00
  -5.98047E-01  1.44468E-01  8.73032E-01 -7.02408E-01 -1.21944E+00 -3.00344E+00 -1.08019E+00 -1.98101E+00 -4.08010E+00  2.22084E+00
   5.16771E+00 -2.19603E+00  5.96596E-01 -5.53913E-01 -3.01279E+00 -5.04916E+00 -6.24011E-02 -3.68867E+00  1.31130E+00 -9.98194E-01
   1.71363E+00 -3.35207E+00  1.62009E+00 -5.37206E-01  6.43013E-01 -2.99691E+00  1.85255E+00 -5.57209E+00  2.87762E+00 -4.01845E+00
   1.42454E+00  1.06436E+00 -2.89693E+00 -6.08652E-01 -3.17854E+00 -1.69994E+00 -3.55931E+00 -3.99801E+00 -2.71181E+00 -3.66811E-01
   6.05056E-01 -2.06977E+00 -3.44263E-01 -3.08560E+00 -1.72392E-02 -4.84287E+00  2.40639E+00 -3.18899E+00 -5.66180E+00 -6.25361E+00
  -3.24638E+00 -3.77243E+00  8.90464E-01 -1.29455E+00 -3.20048E+00 -4.54353E+00 -1.21558E-01 -1.73579E+00  5.44955E-01 -9.24507E-01
   1.72652E-01 -1.00642E+01  3.42552E+00 -1.97884E+00  2.66345E+00 -6.45949E+00 -1.57738E+00 -2.32879E+00  8.59476E-01 -2.93586E+00
   3.89285E+00 -3.42200E+00  5.13440E-01 -3.58784E+00 -1.24277E+00  1.16983E+00  3.24375E+00  3.12304E+00  9.11164E-01 -1.05436E+00
  -8.17247E-01 -2.37249E+00 -2.36135E+00 -6.37350E-01 -8.53884E-01  1.69160E+00 -7.20999E-01 -7.14134E-01  3.32287E+00 -3.69833E+00
  -9.86090E-02  6.75980E-01  5.48084E+00 -2.39058E+00  4.36745E+00 -7.64661E-01  2.30401E+00  5.34146E+00  8.95716E-01 -3.16588E+00
   2.49760E-01  5.54383E-01  7.71389E-01  5.86923E+00  2.47203E+00  5.56977E+00  6.63946E+00  7.77629E+00  1.19324E+01  7.14578E+00
   3.33720E+00  5.89164E+00  7.60202E+00  9.03229E+00  1.03662E+01  9.51524E+00  4.89038E+00  6.24677E+00  9.49657E+00  6.15585E+00
   7.08388E+00  7.04804E+00  5.40602E+00 -6.11734E-01  5.72454E+00  1.24094E+00  1.50154E+00 -1.09016E+00 -1.90774E-01 -2.72245E+00
   5.21973E+00 -1.36605E+00  2.88785E+00 -4.22039E+00  4.81235E-02 -6.66985E+00  2.33564E+00  4.21362E-01 -1.92489E+00 -3.72030E+00
  -2.42142E+00 -7.77055E-01 -8.57281E-01  3.72542E-01 -1.86384E+00 -6.13344E+00 -2.24236E+00 -1.82452E+00 -1.96074E+00 -2.64212E+00
  -2.08281E+00 -9.42688E-01 -9.48296E-01  4.84236E-01 -6.22227E-01 -1.47720E+00  2.70783E+00  4.66124E+00  1.46178E+00  3.14531E+00
   2.80993E+00  8.88550E-01  6.88493E+00 -1.20743E+00  2.07623E+00  3.50185E+00 -5.98797E-01  1.76919E+00  5.39804E+00  5.30343E+00
   2.73971E+00 -2.35299E-01  1.44226E-01  3.20110E+00  8.31496E-01  8.37999E-01  3.46021E+00 -2.45092E-02  5.18647E+00  1.84137E+00
  -2.51653E+00  3.52375E-01  2.29064E+00  9.02732E-01 -3.23833E+00  4.72468E-01  3.42833E-01  6.84037E-01  6.35335E-01 -1.16652E+00
   1.84550E+00  2.55596E-02  2.85604E+00  2.58218E+00  7.57830E+00  6.63705E+00  9.24871E+00  6.05836E+00  4.60852E+00  1.59281E+01
   9.60685E+00  1.32782E+01  9.88710E+00  1.27313E+01  1.41120E+01  1.03232E+01  7.54618E+00  8.14095E+00  1.12816E+01  4.41012E+00
   4.26207E+00  8.47070E+00  5.29470E+00  4.84001E+00  6.60656E+00  2.45728E+00  6.57121E+00  3.37655E+00  6.60421E+00  2.60751E+00
   6.66099E+00  1.10598E+00  1.99153E-01  1.51720E+00  3.44682E+00  1.37296E+00  1.57417E+00 -1.66058E+00 -3.58837E+00 -4.05695E+00
  -5.44731E+00  8.34660E-01 -2.22832E+00 -1.22445E+00 -1.83632E+00 -4.75024E+00 -3.50543E+00 -5.13959E+00 -8.02683E-01 -5.31802E+00
  -2.55418E+00 -2.27068E+00 -5.82778E+00 -7.02077E+00 -2.11733E+00 -4.31315E+00  6.28947E-01  1.68841E+00 -4.80852E-01 -3.23135E-02
   1.59325E+00  5.70769E-01  9.65421E-01  4.20848E-01  1.43595E+00  4.24717E+00 -1.40869E+00  2.29429E+00  1.14995E+00 -5.37321E-01
   1.64940E+00 -1.34965E+00  2.88964E+00  2.23538E+00  6.42092E+00  4.01078E+00  1.52560E+00  4.45488E+00  6.31769E+00  1.61583E+00
   1.31419E+00  1.05478E+00 -1.38836E-02  2.89125E+00  5.31631E+00  1.26147E+00 -2.46464E+00  1.39941E+00 -1.10654E+00 -1.36120E+00
  -7.51454E-01 -1.08826E+00  1.69307E+00  2.89164E+00  4.01739E-01  7.43628E-01 -8.30520E-01  1.06926E+00 -6.81220E+00 -6.32861E+00
  -4.80031E-01 -2.71747E+00 -3.45551E-02 -8.35432E-01 -2.07244E+00 -1.76720E+00  1.96265E+00 -3.23085E+00  2.62572E+00 -4.23470E+00
  -3.35411E+00 -5.75540E+00 -2.65533E+00 -3.03783E+00 -7.69284E-01 -1.26977E+00 -1.86323E-01  1.44009E+00 -1.95892E+00 -4.10709E+00
   3.29487E+00 -1.14888E+00 -4.27175E+00 -2.21944E+00 -5.75577E+00 -1.58949E+00 -4.39191E+00 -2.20465E-01 -2.47748E+00 -9.69907E-01
  -7.25516E-01  1.41754E-01 -1.57351E+00 -1.24751E+00  1.60950E-02 -2.18939E-01 -1.81979E+00 -2.40043E+00 -1.31282E+00 -3.76065E+00
  -2.23805E+00 -3.49708E+00 -2.77169E+00 -9.71548E-01 -5.08304E+00 -3.38179E+00 -3.34663E+00  1.25194E+00  3.24167E+00 -2.06010E+00
  -4.32598E+00 -3.67341E+00  8.04246E-02  6.87002E-01  3.54880E+00 -6.77402E+00 -3.71981E+00 -2.79880E-01  1.30298E+00 -3.08434E+00
  -2.18832E+00 -9.32503E-01 -2.18932E+00  3.08517E+00  2.87914E-01  7.59269E-01 -2.28128E+00 -9.64078E-01
 NY points of the fit to the data follow
   1.91612E+00  1.80489E+00  1.99862E+00  1.77040E+00  1.99094E+00  1.71598E+00  1.98712E+00  1.74896E+00  2.08626E+00  1.91677E+00
   2.36597E+00  2.36507E+00  2.74865E+00  2.50065E+00  2.70350E+00  2.24304E+00  2.23597E+00  1.50006E+00  1.58384E+00  1.12066E+00
   1.40787E+00  1.11163E+00  1.49414E+00  1.28699E+00  1.59576E+00  1.33901E+00  1.60834E+00  1.28183E+00  1.59224E+00  1.23026E+00
   1.58050E+00  1.22871E+00  1.63198E+00  1.42756E+00  1.89805E+00  1.75223E+00  2.23763E+00  2.14587E+00  2.56159E+00  2.31996E+00
   2.58635E+00  2.24703E+00  2.35679E+00  1.84759E+00  1.94999E+00  1.66269E+00  1.81643E+00  1.71607E+00  1.87834E+00  1.85880E+00
   1.87471E+00  1.74344E+00  1.61483E+00  1.43751E+00  1.28276E+00  1.15715E+00  1.08388E+00  9.68815E-01  9.64785E-01  9.14123E-01
   9.86209E-01  9.79942E-01  1.10140E+00  1.09547E+00  1.20513E+00  1.13201E+00  1.16922E+00  1.07160E+00  1.10512E+00  1.00829E+00
   1.03333E+00  9.52467E-01  9.85912E-01  8.85150E-01  8.91426E-01  7.49892E-01  7.38296E-01  5.41591E-01  5.01478E-01  2.79008E-01
   2.49916E-01  4.92462E-02  5.49788E-02 -1.15234E-01 -8.67734E-02 -2.35685E-01 -2.00090E-01 -3.14132E-01 -2.47571E-01 -1.85642E-01
   6.56688E-02  1.38037E-01  5.22432E-01  5.68183E-01  1.08735E+00  9.77633E-01  1.51456E+00  1.25824E+00  1.79178E+00  1.44138E+00
   1.96662E+00  1.49934E+00  1.96442E+00  1.38901E+00  1.74638E+00  1.15461E+00  1.41614E+00  8.42581E-01  9.79049E-01  4.77237E-01
   5.01865E-01  1.52069E-01  1.56355E-01  1.13854E-01  2.18421E-01  3.47797E-01  6.01718E-01  8.20034E-01  1.22904E+00  1.33111E+00
   1.79920E+00  1.68217E+00  2.10448E+00  1.88750E+00  2.29398E+00  1.95736E+00  2.30068E+00  1.84238E+00  2.07952E+00  1.57293E+00
   1.70529E+00  1.16720E+00  1.18292E+00  6.78406E-01  6.05234E-01  2.22950E-01  1.12222E-01 -1.80338E-01 -3.15262E-01 -4.38813E-01
  -5.44605E-01 -5.64331E-01 -6.16496E-01 -5.84506E-01 -5.93021E-01 -6.24367E-01 -6.64839E-01 -6.96040E-01 -7.43614E-01 -7.71049E-01
  -8.42091E-01 -8.72776E-01 -9.52675E-01 -9.78305E-01 -1.06100E+00 -1.08673E+00 -1.19483E+00 -1.20234E+00 -1.30072E+00 -1.29180E+00
  -1.37747E+00 -1.36765E+00 -1.44810E+00 -1.43182E+00 -1.50094E+00 -1.48526E+00 -1.55546E+00 -1.53256E+00 -1.60615E+00 -1.58801E+00
  -1.60957E+00 -1.58721E+00 -1.56663E+00 -1.53495E+00 -1.46148E+00 -1.42179E+00 -1.32441E+00 -1.29031E+00 -1.16353E+00 -1.14276E+00
  -1.03936E+00 -1.07558E+00 -1.01513E+00 -1.19287E+00 -1.16049E+00 -1.44116E+00 -1.35631E+00 -1.66492E+00 -1.35241E+00 -1.59025E+00
  -1.13579E+00 -1.27852E+00 -6.52908E-01 -8.50679E-01 -2.34116E-01 -6.94885E-01 -4.11408E-01 -1.22877E+00 -8.35449E-01 -1.79779E+00
  -1.26256E+00 -2.16106E+00 -1.21469E+00 -2.11171E+00 -9.26356E-01 -1.91118E+00 -7.35188E-01 -1.93699E+00 -8.66786E-01 -2.12082E+00
  -9.85445E-01 -2.09182E+00 -9.69574E-01 -1.79425E+00 -5.74190E-01 -1.04872E+00  4.59826E-02 -1.91067E-01  5.89665E-01  4.53626E-01
   9.75150E-01  8.76864E-01  8.84921E-01  6.74581E-01  5.29038E-01  3.58166E-01  2.60405E-01  3.09264E-01  6.11947E-01  6.08373E-01
   1.05376E+00  8.77943E-01  1.31646E+00  7.32745E-01  1.11311E+00  3.20491E-01  6.99008E-01 -5.17282E-02  4.46954E-01 -1.64008E-01
   5.32204E-01  3.94014E-01  1.85126E+00  1.86090E+00  3.56052E+00  3.50492E+00  5.48149E+00  5.23592E+00  6.99504E+00  6.56519E+00
   8.08231E+00  7.49679E+00  8.87402E+00  8.13787E+00  9.26297E+00  8.26735E+00  8.89782E+00  7.69664E+00  7.86039E+00  6.49009E+00
   6.18384E+00  4.89516E+00  4.25503E+00  3.23534E+00  2.60476E+00  1.86000E+00  1.18528E+00  8.23889E-01  4.79064E-01  3.88072E-01
   3.05321E-01  3.21678E-01  4.33567E-01  3.42536E-01  2.96262E-01  1.97995E-01  1.56516E-01  7.27837E-02  5.01744E-02 -2.91407E-02
  -3.18220E-02 -1.05772E-01 -8.68497E-02 -1.39323E-01 -1.06966E-01 -1.41502E-01 -8.66773E-02 -9.23866E-02 -1.32354E-02  6.69674E-03
   1.04055E-01  1.46046E-01  2.50728E-01  3.08187E-01  4.19497E-01  4.96509E-01  6.09111E-01  6.96172E-01  8.04502E-01  8.92479E-01
   9.89036E-01  1.06515E+00  1.14013E+00  1.20156E+00  1.25768E+00  1.30907E+00  1.35765E+00  1.41223E+00  1.47936E+00  1.57378E+00
   1.71071E+00  1.93818E+00  2.35516E+00  3.12498E+00  3.40740E+00  3.82615E+00  3.91956E+00  3.93030E+00  3.64646E+00  2.77691E+00
   2.09883E+00  1.08824E+00  1.14260E+00  1.16238E-01  7.87218E-01 -3.31143E-01  1.19337E+00 -1.77546E-01  1.91012E+00  4.57775E-01
   2.82475E+00  1.45912E+00  4.22926E+00  3.17270E+00  6.11807E+00  5.35452E+00  7.97962E+00  7.33893E+00  9.57598E+00  9.14023E+00
   1.05918E+01  1.01255E+01  1.06611E+01  1.01325E+01  9.92732E+00  9.04163E+00  8.30186E+00  7.65238E+00  6.93537E+00  6.59576E+00
   6.14334E+00  6.11099E+00  6.05339E+00  5.96808E+00  5.79477E+00  5.56679E+00  5.21862E+00  4.79134E+00  4.27410E+00  3.70127E+00
   3.08392E+00  2.46086E+00  1.86426E+00  1.31921E+00  8.33627E-01  3.91302E-01  5.48633E-02 -2.25365E-01 -4.26073E-01 -5.77701E-01
  -6.84019E-01 -7.44320E-01 -7.92146E-01 -8.29062E-01 -8.57117E-01 -8.77188E-01 -8.90721E-01 -8.97388E-01 -8.97637E-01 -8.90400E-01
  -8.75580E-01 -8.51682E-01 -8.18275E-01 -7.73608E-01 -7.17069E-01 -6.46802E-01 -5.62172E-01 -4.61411E-01 -3.44132E-01 -2.09007E-01
  -5.62983E-02  1.14455E-01  3.01899E-01  5.05193E-01  7.21490E-01  9.48327E-01  1.18119E+00  1.41601E+00  1.64684E+00  1.86845E+00
   2.07415E+00  2.25843E+00  2.41488E+00  2.53890E+00  2.62556E+00  2.67226E+00  2.67649E+00  2.63841E+00  2.55836E+00  2.43934E+00
   2.28433E+00  2.09859E+00  1.88691E+00  1.65579E+00  1.41065E+00  1.15807E+00  9.03005E-01  6.51102E-01  4.06036E-01  1.71929E-01
  -4.91676E-02 -2.54779E-01 -4.44420E-01 -6.17043E-01 -7.73390E-01 -9.13412E-01 -1.03861E+00 -1.14950E+00 -1.24791E+00 -1.33455E+00
  -1.41131E+00 -1.47881E+00 -1.53881E+00 -1.59172E+00 -1.63911E+00 -1.68117E+00 -1.71925E+00 -1.75333E+00 -1.78456E+00 -1.81275E+00
  -1.83892E+00 -1.86276E+00 -1.88516E+00 -1.90572E+00 -1.92525E+00 -1.94330E+00 -1.96063E+00 -1.97673E+00 -1.99233E+00 -2.00689E+00
  -2.02111E+00 -2.03443E+00 -2.04753E+00 -2.05985E+00 -2.07203E+00 -2.08351E+00 -2.09493E+00 -2.10571E+00 -2.11649E+00 -2.12669E+00
  -2.13693E+00 -2.14662E+00 -2.15639E+00 -2.16565E+00 -2.17503E+00 -2.18392E+00 -2.19295E+00 -2.20151E+00 -2.21024E+00 -2.21852E+00
  -2.22698E+00 -2.23501E+00 -2.24324E+00 -2.25104E+00 -2.25906E+00 -2.26667E+00 -2.27450E+00 -2.28193E+00 -2.28959E+00 -2.29685E+00
  -2.30436E+00 -2.31148E+00 -2.31884E+00 -2.32582E+00 -2.33304E+00 -2.33989E+00 -2.34699E+00 -2.35371E+00 -2.36069E+00 -2.36729E+00
  -2.37414E+00 -2.38061E+00 -2.38733E+00 -2.39367E+00 -2.40025E+00 -2.40643E+00 -2.41284E+00 -2.41883E+00
 NY background values follow
     1.226E-01    1.173E-01    1.120E-01    1.067E-01    1.014E-01    9.613E-02    9.084E-02    8.555E-02    8.025E-02    7.496E-02
     6.966E-02    6.437E-02    5.908E-02    5.378E-02    4.849E-02    4.319E-02    3.790E-02    3.261E-02    2.731E-02    2.202E-02
     1.672E-02    1.143E-02    6.135E-03    8.408E-04   -4.453E-03   -9.747E-03   -1.504E-02   -2.034E-02   -2.563E-02   -3.092E-02
    -3.622E-02   -4.151E-02   -4.681E-02   -5.210E-02   -5.739E-02   -6.269E-02   -6.798E-02   -7.328E-02   -7.857E-02   -8.386E-02
    -8.916E-02   -9.445E-02   -9.975E-02   -1.050E-01   -1.103E-01   -1.156E-01   -1.209E-01   -1.262E-01   -1.315E-01   -1.368E-01
    -1.421E-01   -1.474E-01   -1.527E-01   -1.580E-01   -1.633E-01   -1.686E-01   -1.739E-01   -1.792E-01   -1.845E-01   -1.897E-01
    -1.950E-01   -2.003E-01   -2.056E-01   -2.109E-01   -2.162E-01   -2.215E-01   -2.268E-01   -2.321E-01   -2.374E-01   -2.427E-01
    -2.480E-01   -2.533E-01   -2.586E-01   -2.639E-01   -2.692E-01   -2.744E-01   -2.797E-01   -2.850E-01   -2.903E-01   -2.956E-01
    -3.009E-01   -3.062E-01   -3.115E-01   -3.168E-01   -3.221E-01   -3.274E-01   -3.327E-01   -3.380E-01   -3.433E-01   -3.486E-01
    -3.539E-01   -3.592E-01   -3.644E-01   -3.697E-01   -3.750E-01   -3.803E-01   -3.856E-01   -3.909E-01   -3.962E-01   -4.015E-01
    -4.068E-01   -4.121E-01   -4.174E-01   -4.227E-01   -4.280E-01   -4.333E-01   -4.386E-01   -4.439E-01   -4.492E-01   -4.544E-01
    -4.597E-01   -4.650E-01   -4.703E-01   -4.756E-01   -4.809E-01   -4.862E-01   -4.915E-01   -4.968E-01   -5.021E-01   -5.074E-01
    -5.127E-01   -5.180E-01   -5.233E-01   -5.286E-01   -5.339E-01   -5.391E-01   -5.444E-01   -5.497E-01   -5.550E-01   -5.603E-01
    -5.656E-01   -5.709E-01   -5.762E-01   -5.815E-01   -5.868E-01   -5.921E-01   -5.974E-01   -6.027E-01   -6.080E-01   -6.133E-01
    -6.186E-01   -6.239E-01   -6.291E-01   -6.344E-01   -6.397E-01   -6.450E-01   -6.503E-01   -6.556E-01   -6.609E-01   -6.662E-01
    -6.715E-01   -6.768E-01   -6.821E-01   -6.874E-01   -6.927E-01   -6.980E-01   -7.033E-01   -7.086E-01   -7.138E-01   -7.191E-01
    -7.244E-01   -7.297E-01   -7.350E-01   -7.403E-01   -7.456E-01   -7.509E-01   -7.562E-01   -7.615E-01   -7.668E-01   -7.721E-01
    -7.774E-01   -7.827E-01   -7.880E-01   -7.933E-01   -7.985E-01   -8.038E-01   -8.091E-01   -8.144E-01   -8.197E-01   -8.250E-01
    -8.303E-01   -8.356E-01   -8.409E-01   -8.462E-01   -8.515E-01   -8.568E-01   -8.621E-01   -8.674E-01   -8.727E-01   -8.780E-01
    -8.832E-01   -8.885E-01   -8.938E-01   -8.991E-01   -9.044E-01   -9.097E-01   -9.150E-01   -9.203E-01   -9.256E-01   -9.309E-01
    -9.362E-01   -9.415E-01   -9.468E-01   -9.521E-01   -9.574E-01   -9.627E-01   -9.679E-01   -9.732E-01   -9.785E-01   -9.838E-01
    -9.891E-01   -9.944E-01   -9.997E-01   -1.005E+00   -1.010E+00   -1.016E+00   -1.021E+00   -1.026E+00   -1.031E+00   -1.037E+00
    -1.042E+00   -1.047E+00   -1.053E+00   -1.058E+00   -1.063E+00   -1.069E+00   -1.074E+00   -1.079E+00   -1.084E+00   -1.090E+00
    -1.095E+00   -1.100E+00   -1.106E+00   -1.111E+00   -1.116E+00   -1.121E+00   -1.127E+00   -1.132E+00   -1.137E+00   -1.143E+00
    -1.148E+00   -1.153E+00   -1.159E+00   -1.164E+00   -1.169E+00   -1.174E+00   -1.180E+00   -1.185E+00   -1.190E+00   -1.196E+00
    -1.201E+00   -1.206E+00   -1.211E+00   -1.217E+00   -1.222E+00   -1.227E+00   -1.233E+00   -1.238E+00   -1.243E+00   -1.248E+00
    -1.254E+00   -1.259E+00   -1.264E+00   -1.270E+00   -1.275E+00   -1.280E+00   -1.286E+00   -1.291E+00   -1.296E+00   -1.301E+00
    -1.307E+00   -1.312E+00   -1.317E+00   -1.323E+00   -1.328E+00   -1.333E+00   -1.338E+00   -1.344E+00   -1.349E+00   -1.354E+00
    -1.360E+00   -1.365E+00   -1.370E+00   -1.376E+00   -1.381E+00   -1.386E+00   -1.391E+00   -1.397E+00   -1.402E+00   -1.407E+00
    -1.413E+00   -1.418E+00   -1.423E+00   -1.428E+00   -1.434E+00   -1.439E+00   -1.444E+00   -1.450E+00   -1.455E+00   -1.460E+00
    -1.466E+00   -1.471E+00   -1.476E+00   -1.481E+00   -1.487E+00   -1.492E+00   -1.497E+00   -1.503E+00   -1.508E+00   -1.513E+00
    -1.518E+00   -1.524E+00   -1.529E+00   -1.534E+00   -1.540E+00   -1.545E+00   -1.550E+00   -1.555E+00   -1.561E+00   -1.566E+00
    -1.571E+00   -1.577E+00   -1.582E+00   -1.587E+00   -1.593E+00   -1.598E+00   -1.603E+00   -1.608E+00   -1.614E+00   -1.619E+00
    -1.624E+00   -1.630E+00   -1.635E+00   -1.640E+00   -1.645E+00   -1.651E+00   -1.656E+00   -1.661E+00   -1.667E+00   -1.672E+00
    -1.677E+00   -1.683E+00   -1.688E+00   -1.693E+00   -1.698E+00   -1.704E+00   -1.709E+00   -1.714E+00   -1.720E+00   -1.725E+00
    -1.730E+00   -1.735E+00   -1.741E+00   -1.746E+00   -1.751E+00   -1.757E+00   -1.762E+00   -1.767E+00   -1.772E+00   -1.778E+00
    -1.783E+00   -1.788E+00   -1.794E+00   -1.799E+00   -1.804E+00   -1.810E+00   -1.815E+00   -1.820E+00   -1.825E+00   -1.831E+00
    -1.836E+00   -1.841E+00   -1.847E+00   -1.852E+00   -1.857E+00   -1.862E+00   -1.868E+00   -1.873E+00   -1.878E+00   -1.884E+00
    -1.889E+00   -1.894E+00   -1.899E+00   -1.905E+00   -1.910E+00   -1.915E+00   -1.921E+00   -1.926E+00   -1.931E+00   -1.937E+00
    -1.942E+00   -1.947E+00   -1.952E+00   -1.958E+00   -1.963E+00   -1.968E+00   -1.974E+00   -1.979E+00   -1.984E+00   -1.989E+00
    -1.995E+00   -2.000E+00   -2.005E+00   -2.011E+00   -2.016E+00   -2.021E+00   -2.027E+00   -2.032E+00   -2.037E+00   -2.042E+00
    -2.048E+00   -2.053E+00   -2.058E+00   -2.064E+00   -2.069E+00   -2.074E+00   -2.079E+00   -2.085E+00   -2.090E+00   -2.095E+00
    -2.101E+00   -2.106E+00   -2.111E+00   -2.116E+00   -2.122E+00   -2.127E+00   -2.132E+00   -2.138E+00   -2.143E+00   -2.148E+00
    -2.154E+00   -2.159E+00   -2.164E+00   -2.169E+00   -2.175E+00   -2.180E+00   -2.185E+00   -2.191E+00   -2.196E+00   -2.201E+00
    -2.206E+00   -2.212E+00   -2.217E+00   -2.222E+00   -2.228E+00   -2.233E+00   -2.238E+00   -2.243E+00   -2.249E+00   -2.254E+00
    -2.259E+00   -2.265E+00   -2.270E+00   -2.275E+00   -2.281E+00   -2.286E+00   -2.291E+00   -2.296E+00   -2.302E+00   -2.307E+00
    -2.312E+00   -2.318E+00   -2.323E+00   -2.328E+00   -2.333E+00   -2.339E+00   -2.344E+00   -2.349E+00   -2.355E+00   -2.360E+00
    -2.365E+00   -2.370E+00   -2.376E+00   -2.381E+00   -2.386E+00   -2.392E+00   -2.397E+00   -2.402E+00   -2.408E+00   -2.413E+00
    -2.418E+00   -2.423E+00   -2.429E+00   -2.434E+00   -2.439E+00   -2.445E+00   -2.450E+00   -2.455E+00   -2.460E+00   -2.466E+00
    -2.471E+00   -2.476E+00   -2.482E+00   -2.487E+00   -2.492E+00   -2.497E+00   -2.503E+00   -2.508E+00
 Ala      Conc. = 1.05E+03
