 LCModel (Version 6.3-1L) Copyright: S.W. Provencher.          Ref.: Magn. Reson. Med. 30:672-679 (1993).                
 Slice#1 Row#10 Col#6  PD_24_press_1_raw_act
 36 lines in following concentration table = NCONC+1
    Conc.  %SD /Cr+PCr  Metabolite                                         
    0.000 999%   0.000 Ala                                                 
   15.288 844% 2.7E-02 Asp                                                 
  226.558 117%   0.400 Cr                                                  
  340.209  79%   0.600 PCr                                                 
   83.174  97%   0.147 GABA                                                
   41.894 191% 7.4E-02 Glc                                                 
  733.795  41%   1.295 Gln                                                 
 1.13E+03  30%   1.996 Glu                                                 
    0.000 999%   0.000 GPC                                                 
  264.113   8%   0.466 PCh                                                 
   48.895 162% 8.6E-02 GSH                                                 
  106.111 234%   0.187 Ins                                                 
    0.000 999%   0.000 Lac                                                 
 1.34E+03   5%   2.357 NAA                                                 
    0.000 999%   0.000 NAAG                                                
   23.807  89% 4.2E-02 Scyllo                                              
  177.715  70%   0.314 Tau                                                 
  361.765  25%   0.638 -CrCH2                                              
  264.113   8%   0.466 GPC+PCh                                             
 1.34E+03   5%   2.357 NAA+NAAG                                            
  566.767  10%   1.000 Cr+PCr                                              
 1.86E+03  27%   3.291 Glu+Gln                                             
  952.706  34%   1.681 Lip13a                                              
    0.000 999%   0.000 Lip13b                                              
  131.854  97%   0.233 Lip09                                               
  582.617  29%   1.028 MM09                                                
  176.898  48%   0.312 Lip20                                               
 1.17E+03  22%   2.072 MM20                                                
  175.165  44%   0.309 MM12                                                
  690.095  32%   1.218 MM14                                                
  334.379  38%   0.590 MM17                                                
  952.706  34%   1.681 Lip13a+Lip13b                                       
 1.82E+03  13%   3.208 MM14+Lip13a+Lip13b+MM12                             
  714.471  18%   1.261 MM09+Lip09                                          
 1.35E+03  18%   2.385 MM20+Lip20                                          
   6 lines in following misc. output table
  FWHM = 0.061 ppm    S/N =   6                                            
  Data shift = 0.008 ppm                                                   
  Ph: -45 deg     -14.1 deg/ppm                                            
  alphaB,S = 8.5E+01,   1.7E+02                                            
   14 spline knots.   Ns = 8(1)                                            
  (12) 7 infls.   (11) 1 extrs.                                            
  498 points on ppm-axis = NY
      4.000000     3.992357     3.984714     3.977070     3.969427     3.961784     3.954141     3.946497     3.938854     3.931211
      3.923568     3.915925     3.908281     3.900638     3.892995     3.885352     3.877708     3.870065     3.862422     3.854779
      3.847136     3.839492     3.831849     3.824206     3.816563     3.808919     3.801276     3.793633     3.785990     3.778347
      3.770703     3.763060     3.755417     3.747774     3.740130     3.732487     3.724844     3.717201     3.709558     3.701914
      3.694271     3.686628     3.678985     3.671341     3.663698     3.656055     3.648412     3.640769     3.633125     3.625482
      3.617839     3.610196     3.602552     3.594909     3.587266     3.579623     3.571980     3.564336     3.556693     3.549050
      3.541407     3.533763     3.526120     3.518477     3.510834     3.503191     3.495547     3.487904     3.480261     3.472618
      3.464974     3.457331     3.449688     3.442045     3.434402     3.426758     3.419115     3.411472     3.403829     3.396185
      3.388542     3.380899     3.373256     3.365613     3.357969     3.350326     3.342683     3.335040     3.327396     3.319753
      3.312110     3.304467     3.296824     3.289180     3.281537     3.273894     3.266251     3.258607     3.250964     3.243321
      3.235678     3.228034     3.220391     3.212748     3.205105     3.197462     3.189818     3.182175     3.174532     3.166889
      3.159245     3.151602     3.143959     3.136316     3.128673     3.121029     3.113386     3.105743     3.098100     3.090456
      3.082813     3.075170     3.067527     3.059884     3.052240     3.044597     3.036954     3.029311     3.021667     3.014024
      3.006381     2.998738     2.991095     2.983451     2.975808     2.968165     2.960522     2.952878     2.945235     2.937592
      2.929949     2.922306     2.914662     2.907019     2.899376     2.891733     2.884089     2.876446     2.868803     2.861160
      2.853517     2.845873     2.838230     2.830587     2.822944     2.815300     2.807657     2.800014     2.792371     2.784728
      2.777084     2.769441     2.761798     2.754155     2.746511     2.738868     2.731225     2.723582     2.715939     2.708295
      2.700652     2.693009     2.685366     2.677722     2.670079     2.662436     2.654793     2.647150     2.639506     2.631863
      2.624220     2.616577     2.608933     2.601290     2.593647     2.586004     2.578361     2.570717     2.563074     2.555431
      2.547788     2.540144     2.532501     2.524858     2.517215     2.509572     2.501928     2.494285     2.486642     2.478999
      2.471355     2.463712     2.456069     2.448426     2.440783     2.433139     2.425496     2.417853     2.410210     2.402566
      2.394923     2.387280     2.379637     2.371994     2.364350     2.356707     2.349064     2.341421     2.333777     2.326134
      2.318491     2.310848     2.303205     2.295561     2.287918     2.280275     2.272632     2.264988     2.257345     2.249702
      2.242059     2.234416     2.226772     2.219129     2.211486     2.203843     2.196199     2.188556     2.180913     2.173270
      2.165627     2.157983     2.150340     2.142697     2.135054     2.127410     2.119767     2.112124     2.104481     2.096838
      2.089194     2.081551     2.073908     2.066265     2.058621     2.050978     2.043335     2.035692     2.028049     2.020405
      2.012762     2.005119     1.997476     1.989833     1.982190     1.974546     1.966903     1.959260     1.951617     1.943974
      1.936331     1.928688     1.921045     1.913402     1.905759     1.898115     1.890472     1.882829     1.875186     1.867543
      1.859900     1.852257     1.844614     1.836971     1.829327     1.821684     1.814041     1.806398     1.798755     1.791112
      1.783469     1.775826     1.768183     1.760540     1.752896     1.745253     1.737610     1.729967     1.722324     1.714681
      1.707038     1.699395     1.691752     1.684108     1.676465     1.668822     1.661179     1.653536     1.645893     1.638250
      1.630607     1.622964     1.615321     1.607677     1.600034     1.592391     1.584748     1.577105     1.569462     1.561819
      1.554176     1.546533     1.538890     1.531246     1.523603     1.515960     1.508317     1.500674     1.493031     1.485388
      1.477745     1.470102     1.462458     1.454815     1.447172     1.439529     1.431886     1.424243     1.416600     1.408957
      1.401314     1.393671     1.386027     1.378384     1.370741     1.363098     1.355455     1.347812     1.340169     1.332526
      1.324883     1.317240     1.309596     1.301953     1.294310     1.286667     1.279024     1.271381     1.263738     1.256095
      1.248452     1.240808     1.233165     1.225522     1.217879     1.210236     1.202593     1.194950     1.187307     1.179664
      1.172021     1.164377     1.156734     1.149091     1.141448     1.133805     1.126162     1.118519     1.110876     1.103233
      1.095590     1.087946     1.080303     1.072660     1.065017     1.057374     1.049731     1.042088     1.034445     1.026802
      1.019158     1.011515     1.003872     0.996229     0.988586     0.980943     0.973300     0.965657     0.958014     0.950371
      0.942727     0.935084     0.927441     0.919798     0.912155     0.904512     0.896869     0.889226     0.881583     0.873940
      0.866296     0.858653     0.851010     0.843367     0.835724     0.828081     0.820438     0.812795     0.805152     0.797508
      0.789865     0.782222     0.774579     0.766936     0.759293     0.751650     0.744007     0.736364     0.728721     0.721077
      0.713434     0.705791     0.698148     0.690505     0.682862     0.675219     0.667576     0.659933     0.652290     0.644646
      0.637003     0.629360     0.621717     0.614074     0.606431     0.598788     0.591145     0.583502     0.575858     0.568215
      0.560572     0.552929     0.545286     0.537643     0.530000     0.522357     0.514714     0.507071     0.499427     0.491784
      0.484141     0.476498     0.468855     0.461212     0.453569     0.445925     0.438282     0.430639     0.422996     0.415353
      0.407710     0.400067     0.392424     0.384780     0.377137     0.369494     0.361851     0.354208     0.346565     0.338922
      0.331278     0.323635     0.315992     0.308349     0.300706     0.293063     0.285420     0.277777     0.270133     0.262490
      0.254847     0.247204     0.239561     0.231918     0.224275     0.216631     0.208988     0.201345
 NY phased data points follow
  -1.37566E+01 -2.16068E+01 -1.97739E+01 -1.90127E+01 -1.36658E+01 -1.34111E+01 -5.68663E+00 -1.64592E+01 -9.64890E+00 -9.54650E+00
  -7.39163E+00 -9.54733E+00 -1.87195E+00 -7.66636E+00 -7.66307E+00 -1.18580E+01 -1.02370E+01 -1.41770E+01 -1.12721E+01 -1.56844E+01
  -1.33664E+01 -1.97487E+01 -1.02220E+01 -7.27571E+00 -1.13449E+01 -1.22144E+01 -9.17036E+00 -9.31563E+00 -7.35034E+00 -1.10470E+01
  -9.09186E+00 -1.36792E+01 -6.66398E+00 -9.07116E+00 -3.74531E+00 -1.17561E+01 -7.62700E+00 -1.54795E+01 -1.33656E+01 -1.23117E+01
  -1.34031E+01 -5.44219E+00 -5.40895E+00 -6.83935E+00  3.33953E-01 -7.80407E+00 -8.31664E+00 -6.70959E+00 -2.22631E+00 -8.53953E+00
  -7.48866E+00 -8.75999E+00 -7.04257E+00 -1.33406E+01  1.38716E+00 -1.18753E+01 -7.00613E+00 -1.37098E+01 -1.09808E+01 -7.82765E+00
  -7.70672E+00 -1.30645E+01 -6.23559E+00 -1.52527E+01 -9.14545E+00 -7.58542E+00 -1.10135E+01 -1.49963E+01 -9.85581E+00 -5.45193E+00
  -1.34074E+01 -1.28376E+01 -1.12227E+01 -8.39879E+00 -8.31821E+00 -1.22050E+01 -4.08424E+00 -5.41837E+00 -1.13821E+01 -1.00078E+01
  -8.84047E+00 -1.49667E+01 -6.58691E+00 -1.20212E+01 -9.96254E+00 -5.80882E+00 -1.28403E+01 -9.63755E+00 -6.24351E+00 -8.32931E+00
  -9.97092E+00 -7.13003E+00 -3.93753E+00 -6.80646E+00 -3.49951E+00  4.69775E-01 -1.52237E+00 -1.98086E+00  4.11227E+00  4.58225E+00
   8.88032E+00  9.91267E+00  9.85638E+00  9.75429E+00  1.49108E+01  1.11506E+01  1.01437E+01  2.89071E-01 -5.64239E-01 -2.56079E+00
  -8.23365E+00 -4.39790E+00  1.81135E+00 -5.68966E+00 -3.52009E+00 -9.87043E+00 -4.78072E+00 -8.23149E+00 -3.02410E+00 -7.48609E+00
  -7.08724E+00 -2.32537E+00  5.48355E+00 -1.96520E+00  9.09685E+00  2.89051E+00  1.08650E+01  5.54197E+00  1.00309E+01  5.82889E+00
   6.99181E+00  6.99253E+00 -1.48169E+00 -2.09037E+00  1.87028E-01 -1.03811E+01 -6.06342E+00 -4.53489E+00 -8.79206E+00 -5.40392E+00
  -7.70963E+00 -3.94948E+00 -4.70866E+00 -4.91627E+00 -6.14783E+00 -6.18400E+00 -8.85990E+00 -1.17936E+01 -5.49652E+00 -6.96535E+00
  -3.54921E+00 -7.64792E+00 -4.84745E+00 -6.26240E+00 -5.65162E+00 -8.87605E+00 -6.21878E+00 -5.83891E+00 -4.76423E+00 -4.43279E+00
  -4.77372E+00 -8.42597E+00 -4.81841E+00 -3.14743E+00 -2.73542E+00 -2.67385E+00 -6.05668E+00 -7.97115E+00 -2.96006E+00 -1.40147E+01
  -1.31663E+01 -1.32612E+01 -8.46475E+00 -1.30848E+01 -8.66492E+00 -1.13471E+01 -1.25958E+01 -1.29652E+01 -1.18153E+01 -7.74397E+00
  -4.47927E+00 -1.30622E+01 -3.94912E+00 -1.49911E+01 -6.95215E+00 -9.06918E+00 -2.47428E+00 -7.52718E+00 -9.18475E+00 -5.21075E+00
  -7.95098E+00 -6.00968E+00 -5.21924E+00 -8.28650E+00 -4.85953E+00 -8.05670E+00 -8.52509E+00 -1.21133E+01 -4.00693E+00 -1.18673E+01
  -6.29579E+00 -6.45301E+00 -8.55873E+00 -3.12120E+00 -1.56901E+00 -8.08858E+00  1.98053E+00 -8.08084E+00 -5.84085E+00 -9.92351E+00
  -8.44383E+00 -1.26248E+01 -8.54281E+00 -1.24208E+00 -1.26724E+00 -2.64895E+00  4.07591E+00  5.66930E+00 -1.68347E-01 -7.89591E+00
  -5.67606E+00 -5.98234E+00 -6.19808E+00 -1.14038E+01 -1.07966E+00 -2.02499E+00 -6.11020E+00 -5.85401E+00 -4.70260E+00 -2.77777E+00
   2.42108E+00 -2.33668E+00 -3.45459E-02  2.29232E-01 -4.32208E+00 -1.14917E-01  1.15986E+00  5.98207E-01 -1.36803E+00 -3.21144E+00
   1.81831E+00 -2.53579E+00 -9.62343E-01 -3.10529E+00  1.25087E+00 -6.09726E+00  8.35679E-01  4.22819E+00  4.28740E+00  3.38159E+00
   4.70255E+00  1.72871E+00  5.32353E+00  1.02401E+01  1.29625E+01  1.23622E+01  2.25945E+01  2.39108E+01  3.30761E+01  3.10264E+01
   3.65599E+01  3.60821E+01  4.16827E+01  2.93665E+01  1.87024E+01  1.18395E+01  7.21070E+00  8.54559E+00  3.98315E+00 -7.55094E+00
   4.88908E+00  1.13253E+00  4.80905E-01  2.68147E+00 -1.98279E-01 -2.67169E+00 -3.00143E-01 -4.78678E+00  2.02138E+00 -6.10482E-01
  -7.26953E+00 -3.02619E+00 -1.21800E+00 -4.39716E+00 -5.39904E+00 -1.99414E+00 -1.60627E+00 -3.82710E+00 -2.82821E+00 -4.17200E+00
  -2.69142E+00 -1.24330E+00  3.40083E-02  2.33421E-03 -5.19892E+00 -2.76828E+00 -1.11897E+00 -3.77223E+00  2.20277E+00 -2.56034E+00
  -5.08616E+00 -3.30239E+00  3.30700E+00 -1.85929E+00 -5.92190E+00  5.43708E-01  3.93350E+00 -3.57453E-01 -2.10113E-01 -2.16494E+00
   1.17675E+00 -3.88407E+00 -1.50052E+00  5.99014E-01 -4.32938E-01  3.63701E+00  8.81777E+00 -2.21647E+00 -2.41665E+00 -4.71171E+00
   1.62414E+00 -4.23351E+00 -1.36606E+00 -3.86145E+00  5.21140E-02 -6.76892E+00  1.91960E+00 -6.84945E-01  6.17487E+00 -1.95830E+00
  -2.61383E+00  2.34707E+00  4.83296E+00 -6.34716E-01  2.19677E-01  1.03372E+01  2.88291E+00  1.03032E+00  2.22352E+00  8.67422E-01
   6.61549E-01 -2.84024E+00  2.62209E+00  7.64156E+00  1.07728E+01  9.45015E+00  8.35197E+00  4.14674E+00  3.10894E+00  6.08572E+00
   8.46427E+00  2.84123E+00  4.83540E+00  1.77745E+00  1.94890E+00  5.52941E+00 -1.04194E-01  2.66543E+00  2.89339E+00  7.00545E-01
   4.03025E+00 -4.52267E+00 -4.47433E+00 -9.23121E-01  2.89041E-01  1.72921E+00  4.90053E+00  1.28531E+00  4.41034E+00  2.89644E+00
   5.66874E+00 -1.68777E+00  5.14098E+00 -5.64141E-01 -3.22255E+00 -2.11187E+00  8.80537E-01 -2.41358E+00 -1.32476E+00  2.51678E+00
  -2.79756E+00  3.13712E-01  8.87464E-01  1.74724E+00  2.33009E+00 -5.33469E+00 -2.73930E+00 -2.51469E+00 -1.92144E-01 -6.37164E+00
   6.96277E-01 -2.65459E+00  1.83956E+00  4.64907E+00 -3.02605E+00 -1.07490E+00  5.07269E+00  8.66694E-01 -2.92944E+00  1.05933E+00
   4.91396E+00 -5.70065E+00  3.33054E+00 -3.90238E+00  1.45660E+00  2.54158E+00  2.36295E+00  1.76084E+00  1.55173E+00  2.42181E+00
   2.02925E+00  1.25973E+00  5.26572E-02  1.29482E+00  2.05116E+00  1.54990E+00 -2.83849E-01  4.01834E+00  1.66561E+00 -2.18688E+00
   1.81411E+00  4.14385E+00 -8.63901E-01  3.64371E+00 -2.70131E+00 -1.77640E+00 -1.40837E+00  3.00244E-03 -5.21460E+00  1.02249E+00
   3.08022E+00  4.32543E+00 -2.88877E-02 -2.83442E+00  1.01950E+00 -4.29959E-01 -5.06615E-01 -2.54342E+00 -3.41215E+00  6.08244E-01
  -4.22070E-01 -2.55503E+00  1.41298E+00 -2.68999E+00 -3.19537E+00  2.19226E+00 -8.71038E-01  1.18855E+00 -6.00828E+00 -1.61875E+00
  -8.44861E-01  7.12405E-01 -1.36519E+00 -3.14733E+00 -2.24225E+00 -3.79963E+00  3.12244E-02  1.32239E+00  1.02876E-01  5.37525E-01
  -4.31469E+00  4.24226E+00  9.45440E-01  5.54333E-01 -1.58206E+00  4.36128E-01  2.51910E+00 -1.99078E+00 -3.72648E-01  2.46345E+00
   9.51516E-01  3.40696E+00  2.64664E+00 -1.79271E+00 -3.59236E+00  9.56003E-01 -1.98600E+00 -3.68887E+00  2.47234E-01 -8.95406E-01
  -5.19546E+00 -6.13189E+00 -2.19734E+00 -4.41864E+00 -2.84052E+00 -1.85253E+00  2.63015E+00  2.19495E+00 -9.99832E-01 -1.54593E+00
  -2.17369E+00 -2.97574E+00  2.23791E-02 -5.61862E+00  8.94378E-01 -8.30779E+00  2.59887E+00  1.28100E+00
 NY points of the fit to the data follow
  -1.17272E+01 -1.19942E+01 -1.21518E+01 -1.20953E+01 -1.18322E+01 -1.14471E+01 -1.09596E+01 -1.03682E+01 -9.67077E+00 -8.87258E+00
  -8.00893E+00 -7.21115E+00 -6.70193E+00 -6.65874E+00 -7.06910E+00 -7.72816E+00 -8.38906E+00 -8.89512E+00 -9.23624E+00 -9.42524E+00
  -9.51249E+00 -9.58825E+00 -9.67628E+00 -9.79505E+00 -9.87661E+00 -9.86031E+00 -9.76089E+00 -9.57406E+00 -9.31453E+00 -8.97291E+00
  -8.53808E+00 -8.03135E+00 -7.52213E+00 -7.15219E+00 -7.11241E+00 -7.48556E+00 -8.19410E+00 -9.04219E+00 -9.78361E+00 -1.02187E+01
  -1.02716E+01 -1.00141E+01 -9.61248E+00 -9.23829E+00 -8.97598E+00 -8.83005E+00 -8.77924E+00 -8.79904E+00 -8.87619E+00 -8.99855E+00
  -9.14629E+00 -9.29340E+00 -9.41527E+00 -9.49500E+00 -9.53583E+00 -9.55424E+00 -9.55820E+00 -9.54910E+00 -9.52427E+00 -9.48498E+00
  -9.44583E+00 -9.40724E+00 -9.37635E+00 -9.36538E+00 -9.36523E+00 -9.36493E+00 -9.36360E+00 -9.34459E+00 -9.28906E+00 -9.21577E+00
  -9.14163E+00 -9.07142E+00 -9.00827E+00 -8.95467E+00 -8.90703E+00 -8.87309E+00 -8.87207E+00 -8.91720E+00 -8.97968E+00 -9.01962E+00
  -9.02387E+00 -8.96954E+00 -8.84298E+00 -8.66183E+00 -8.46001E+00 -8.28045E+00 -8.16974E+00 -8.16333E+00 -8.27222E+00 -8.48259E+00
  -8.73642E+00 -8.95024E+00 -9.08406E+00 -9.07758E+00 -8.53738E+00 -6.93527E+00 -4.58696E+00 -1.83417E+00  1.18598E+00  4.34554E+00
   7.45275E+00  1.02364E+01  1.23747E+01  1.34486E+01  1.30102E+01  1.08843E+01  7.48154E+00  3.64964E+00  1.82846E-01 -2.54830E+00
  -4.55685E+00 -5.94202E+00 -6.75863E+00 -7.13395E+00 -7.32739E+00 -7.45109E+00 -7.52947E+00 -7.54846E+00 -7.35810E+00 -6.48960E+00
  -4.95645E+00 -3.08401E+00 -1.00268E+00  1.23275E+00  3.52270E+00  5.70043E+00  7.54582E+00  8.75247E+00  8.95210E+00  7.87469E+00
   5.63516E+00  2.78508E+00 -1.06319E-02 -2.33132E+00 -4.08535E+00 -5.33557E+00 -6.12698E+00 -6.50189E+00 -6.63801E+00 -6.67541E+00
  -6.65906E+00 -6.61958E+00 -6.58387E+00 -6.56979E+00 -6.58301E+00 -6.61954E+00 -6.66897E+00 -6.72323E+00 -6.77501E+00 -6.81804E+00
  -6.84914E+00 -6.86775E+00 -6.88104E+00 -6.92608E+00 -7.01346E+00 -7.12054E+00 -7.22570E+00 -7.30130E+00 -7.36103E+00 -7.43370E+00
  -7.51703E+00 -7.59437E+00 -7.64360E+00 -7.64787E+00 -7.61486E+00 -7.58883E+00 -7.63177E+00 -7.78631E+00 -8.05463E+00 -8.38566E+00
  -8.68222E+00 -8.90988E+00 -9.07794E+00 -9.21875E+00 -9.33592E+00 -9.39791E+00 -9.39685E+00 -9.33342E+00 -9.21666E+00 -9.09055E+00
  -8.98124E+00 -8.87766E+00 -8.76357E+00 -8.60227E+00 -8.36576E+00 -8.06811E+00 -7.75200E+00 -7.42186E+00 -7.06610E+00 -6.68558E+00
  -6.33799E+00 -6.10172E+00 -6.00469E+00 -6.00061E+00 -6.00744E+00 -5.95238E+00 -5.77282E+00 -5.42920E+00 -4.92567E+00 -4.32411E+00
  -3.72410E+00 -3.22630E+00 -3.03629E+00 -3.21273E+00 -3.71690E+00 -4.56556E+00 -5.67958E+00 -6.85236E+00 -7.78946E+00 -8.25900E+00
  -8.20221E+00 -7.55993E+00 -6.36488E+00 -4.84065E+00 -3.38571E+00 -2.38614E+00 -2.00104E+00 -2.22664E+00 -3.05332E+00 -4.33819E+00
  -5.75152E+00 -6.88927E+00 -7.47515E+00 -7.42383E+00 -6.75055E+00 -5.55748E+00 -4.09725E+00 -2.75004E+00 -1.84392E+00 -1.39903E+00
  -1.27685E+00 -1.33901E+00 -1.46527E+00 -1.53478E+00 -1.46593E+00 -1.32126E+00 -1.12529E+00 -8.64024E-01 -5.58607E-01 -2.91928E-01
  -1.50609E-01 -1.92549E-01 -4.14525E-01 -7.22944E-01 -9.80588E-01 -1.04941E+00 -8.59251E-01 -4.29805E-01  1.55836E-01  8.26439E-01
   1.56478E+00  2.50898E+00  4.48432E+00  8.06254E+00  1.24461E+01  1.70945E+01  2.18358E+01  2.65004E+01  3.07818E+01  3.42855E+01
   3.64860E+01  3.66601E+01  3.41299E+01  2.88768E+01  2.19151E+01  1.48063E+01  8.77643E+00  4.23618E+00  1.04000E+00 -1.01196E+00
  -2.04499E+00 -2.39096E+00 -2.50128E+00 -2.51820E+00 -2.48393E+00 -2.43783E+00 -2.41997E+00 -2.44843E+00 -2.52544E+00 -2.63843E+00
  -2.76526E+00 -2.88298E+00 -2.97346E+00 -3.02430E+00 -3.03158E+00 -3.00121E+00 -2.94440E+00 -2.87206E+00 -2.79221E+00 -2.70898E+00
  -2.62331E+00 -2.53477E+00 -2.44127E+00 -2.34176E+00 -2.23592E+00 -2.12357E+00 -2.00528E+00 -1.88343E+00 -1.76089E+00 -1.64074E+00
  -1.52587E+00 -1.41919E+00 -1.32283E+00 -1.23844E+00 -1.16719E+00 -1.10968E+00 -1.06580E+00 -1.03483E+00 -1.01514E+00 -1.00458E+00
  -1.00046E+00 -9.99985E-01 -1.00002E+00 -9.97466E-01 -9.89113E-01 -9.72108E-01 -9.43707E-01 -9.01679E-01 -8.44072E-01 -7.69546E-01
  -6.77127E-01 -5.66516E-01 -4.37814E-01 -2.91772E-01 -1.29453E-01  4.75396E-02  2.37388E-01  4.37829E-01  6.46521E-01  8.60860E-01
   1.07836E+00  1.29646E+00  1.51285E+00  1.72530E+00  1.93191E+00  2.13099E+00  2.32129E+00  2.50175E+00  2.67174E+00  2.83071E+00
   2.97843E+00  3.11465E+00  3.23928E+00  3.35203E+00  3.45260E+00  3.54033E+00  3.61449E+00  3.67400E+00  3.71768E+00  3.74409E+00
   3.75181E+00  3.73932E+00  3.70538E+00  3.64889E+00  3.56927E+00  3.46622E+00  3.34016E+00  3.19191E+00  3.02303E+00  2.83550E+00
   2.63193E+00  2.41521E+00  2.18863E+00  1.95558E+00  1.71964E+00  1.48421E+00  1.25267E+00  1.02802E+00  8.13083E-01  6.10209E-01
   4.21497E-01  2.48544E-01  9.26918E-02 -4.51846E-02 -1.64386E-01 -2.64580E-01 -3.45516E-01 -4.07219E-01 -4.49713E-01 -4.73208E-01
  -4.77822E-01 -4.63792E-01 -4.31226E-01 -3.80342E-01 -3.11244E-01 -2.24168E-01 -1.19274E-01  3.06591E-03  1.42444E-01  2.98112E-01
   4.69150E-01  6.54174E-01  8.51503E-01  1.05887E+00  1.27362E+00  1.49247E+00  1.71174E+00  1.92721E+00  2.13444E+00  2.32865E+00
   2.50509E+00  2.65905E+00  2.78620E+00  2.88267E+00  2.94537E+00  2.97200E+00  2.96135E+00  2.91318E+00  2.82845E+00  2.70912E+00
   2.55820E+00  2.37945E+00  2.17739E+00  1.95688E+00  1.72316E+00  1.48134E+00  1.23647E+00  9.93135E-01  7.55517E-01  5.27089E-01
   3.10776E-01  1.08718E-01 -7.75103E-02 -2.47063E-01 -3.99541E-01 -5.35117E-01 -6.54240E-01 -7.57758E-01 -8.46632E-01 -9.22061E-01
  -9.85204E-01 -1.03734E+00 -1.07959E+00 -1.11317E+00 -1.13908E+00 -1.15834E+00 -1.17177E+00 -1.18019E+00 -1.18424E+00 -1.18457E+00
  -1.18163E+00 -1.17593E+00 -1.16780E+00 -1.15761E+00 -1.14559E+00 -1.13203E+00 -1.11709E+00 -1.10100E+00 -1.08385E+00 -1.06581E+00
  -1.04696E+00 -1.02743E+00 -1.00727E+00 -9.86581E-01 -9.65381E-01 -9.43771E-01 -9.21750E-01 -8.99412E-01 -8.76745E-01 -8.53827E-01
  -8.30634E-01 -8.07238E-01 -7.83616E-01 -7.59837E-01 -7.35868E-01 -7.11770E-01 -6.87504E-01 -6.63134E-01 -6.38625E-01 -6.14035E-01
  -5.89320E-01 -5.64531E-01 -5.39624E-01 -5.14655E-01 -4.89582E-01 -4.64455E-01 -4.39225E-01 -4.13940E-01 -3.88554E-01 -3.63119E-01
  -3.37589E-01 -3.12006E-01 -2.86317E-01 -2.60564E-01 -2.34700E-01 -2.08769E-01 -1.82718E-01 -1.56582E-01 -1.30304E-01 -1.03921E-01
  -7.73782E-02 -5.07111E-02 -2.38549E-02  3.16793E-03  3.04265E-02  5.78975E-02  8.56530E-02  1.13683E-01
 NY background values follow
    -1.108E+01   -1.106E+01   -1.104E+01   -1.102E+01   -1.100E+01   -1.097E+01   -1.095E+01   -1.093E+01   -1.091E+01   -1.089E+01
    -1.087E+01   -1.085E+01   -1.083E+01   -1.081E+01   -1.079E+01   -1.077E+01   -1.074E+01   -1.072E+01   -1.070E+01   -1.068E+01
    -1.066E+01   -1.064E+01   -1.062E+01   -1.060E+01   -1.057E+01   -1.055E+01   -1.053E+01   -1.051E+01   -1.049E+01   -1.047E+01
    -1.045E+01   -1.042E+01   -1.040E+01   -1.038E+01   -1.036E+01   -1.034E+01   -1.032E+01   -1.029E+01   -1.027E+01   -1.025E+01
    -1.023E+01   -1.021E+01   -1.019E+01   -1.016E+01   -1.014E+01   -1.012E+01   -1.010E+01   -1.008E+01   -1.005E+01   -1.003E+01
    -1.001E+01   -9.988E+00   -9.966E+00   -9.944E+00   -9.922E+00   -9.899E+00   -9.877E+00   -9.855E+00   -9.833E+00   -9.811E+00
    -9.788E+00   -9.766E+00   -9.744E+00   -9.721E+00   -9.699E+00   -9.676E+00   -9.654E+00   -9.632E+00   -9.609E+00   -9.587E+00
    -9.564E+00   -9.542E+00   -9.519E+00   -9.496E+00   -9.474E+00   -9.451E+00   -9.428E+00   -9.406E+00   -9.383E+00   -9.360E+00
    -9.338E+00   -9.315E+00   -9.292E+00   -9.269E+00   -9.246E+00   -9.224E+00   -9.201E+00   -9.178E+00   -9.155E+00   -9.132E+00
    -9.109E+00   -9.086E+00   -9.063E+00   -9.040E+00   -9.017E+00   -8.994E+00   -8.971E+00   -8.948E+00   -8.925E+00   -8.901E+00
    -8.878E+00   -8.855E+00   -8.832E+00   -8.809E+00   -8.785E+00   -8.762E+00   -8.739E+00   -8.715E+00   -8.692E+00   -8.669E+00
    -8.645E+00   -8.622E+00   -8.599E+00   -8.575E+00   -8.552E+00   -8.528E+00   -8.505E+00   -8.481E+00   -8.458E+00   -8.434E+00
    -8.411E+00   -8.387E+00   -8.364E+00   -8.340E+00   -8.316E+00   -8.293E+00   -8.269E+00   -8.246E+00   -8.222E+00   -8.198E+00
    -8.174E+00   -8.151E+00   -8.127E+00   -8.103E+00   -8.079E+00   -8.056E+00   -8.032E+00   -8.008E+00   -7.984E+00   -7.960E+00
    -7.936E+00   -7.912E+00   -7.889E+00   -7.865E+00   -7.841E+00   -7.817E+00   -7.793E+00   -7.769E+00   -7.745E+00   -7.721E+00
    -7.697E+00   -7.673E+00   -7.649E+00   -7.625E+00   -7.601E+00   -7.576E+00   -7.552E+00   -7.528E+00   -7.504E+00   -7.480E+00
    -7.456E+00   -7.432E+00   -7.407E+00   -7.383E+00   -7.359E+00   -7.335E+00   -7.310E+00   -7.286E+00   -7.262E+00   -7.238E+00
    -7.213E+00   -7.189E+00   -7.165E+00   -7.140E+00   -7.116E+00   -7.092E+00   -7.067E+00   -7.043E+00   -7.019E+00   -6.994E+00
    -6.970E+00   -6.945E+00   -6.921E+00   -6.897E+00   -6.872E+00   -6.848E+00   -6.823E+00   -6.799E+00   -6.774E+00   -6.750E+00
    -6.725E+00   -6.701E+00   -6.676E+00   -6.652E+00   -6.627E+00   -6.602E+00   -6.578E+00   -6.553E+00   -6.529E+00   -6.504E+00
    -6.479E+00   -6.455E+00   -6.430E+00   -6.406E+00   -6.381E+00   -6.356E+00   -6.332E+00   -6.307E+00   -6.282E+00   -6.258E+00
    -6.233E+00   -6.208E+00   -6.184E+00   -6.159E+00   -6.134E+00   -6.109E+00   -6.085E+00   -6.060E+00   -6.035E+00   -6.010E+00
    -5.986E+00   -5.961E+00   -5.936E+00   -5.911E+00   -5.886E+00   -5.862E+00   -5.837E+00   -5.812E+00   -5.787E+00   -5.762E+00
    -5.738E+00   -5.713E+00   -5.688E+00   -5.663E+00   -5.638E+00   -5.613E+00   -5.589E+00   -5.564E+00   -5.539E+00   -5.514E+00
    -5.489E+00   -5.464E+00   -5.439E+00   -5.414E+00   -5.390E+00   -5.365E+00   -5.340E+00   -5.315E+00   -5.290E+00   -5.265E+00
    -5.240E+00   -5.215E+00   -5.190E+00   -5.165E+00   -5.140E+00   -5.116E+00   -5.091E+00   -5.066E+00   -5.041E+00   -5.016E+00
    -4.991E+00   -4.966E+00   -4.941E+00   -4.916E+00   -4.891E+00   -4.866E+00   -4.841E+00   -4.816E+00   -4.791E+00   -4.766E+00
    -4.741E+00   -4.716E+00   -4.691E+00   -4.666E+00   -4.641E+00   -4.617E+00   -4.592E+00   -4.567E+00   -4.542E+00   -4.517E+00
    -4.492E+00   -4.467E+00   -4.442E+00   -4.417E+00   -4.392E+00   -4.367E+00   -4.342E+00   -4.317E+00   -4.292E+00   -4.267E+00
    -4.242E+00   -4.217E+00   -4.192E+00   -4.167E+00   -4.142E+00   -4.117E+00   -4.092E+00   -4.067E+00   -4.043E+00   -4.018E+00
    -3.993E+00   -3.968E+00   -3.943E+00   -3.918E+00   -3.893E+00   -3.868E+00   -3.843E+00   -3.818E+00   -3.793E+00   -3.768E+00
    -3.743E+00   -3.719E+00   -3.694E+00   -3.669E+00   -3.644E+00   -3.619E+00   -3.594E+00   -3.569E+00   -3.544E+00   -3.519E+00
    -3.495E+00   -3.470E+00   -3.445E+00   -3.420E+00   -3.395E+00   -3.370E+00   -3.345E+00   -3.321E+00   -3.296E+00   -3.271E+00
    -3.246E+00   -3.221E+00   -3.196E+00   -3.172E+00   -3.147E+00   -3.122E+00   -3.097E+00   -3.072E+00   -3.048E+00   -3.023E+00
    -2.998E+00   -2.973E+00   -2.949E+00   -2.924E+00   -2.899E+00   -2.874E+00   -2.850E+00   -2.825E+00   -2.800E+00   -2.776E+00
    -2.751E+00   -2.726E+00   -2.702E+00   -2.677E+00   -2.652E+00   -2.628E+00   -2.603E+00   -2.578E+00   -2.554E+00   -2.529E+00
    -2.505E+00   -2.480E+00   -2.455E+00   -2.431E+00   -2.406E+00   -2.382E+00   -2.357E+00   -2.333E+00   -2.308E+00   -2.284E+00
    -2.259E+00   -2.234E+00   -2.210E+00   -2.186E+00   -2.161E+00   -2.137E+00   -2.112E+00   -2.088E+00   -2.063E+00   -2.039E+00
    -2.014E+00   -1.990E+00   -1.966E+00   -1.941E+00   -1.917E+00   -1.893E+00   -1.868E+00   -1.844E+00   -1.820E+00   -1.795E+00
    -1.771E+00   -1.747E+00   -1.722E+00   -1.698E+00   -1.674E+00   -1.650E+00   -1.626E+00   -1.601E+00   -1.577E+00   -1.553E+00
    -1.529E+00   -1.505E+00   -1.481E+00   -1.456E+00   -1.432E+00   -1.408E+00   -1.384E+00   -1.360E+00   -1.336E+00   -1.312E+00
    -1.288E+00   -1.264E+00   -1.240E+00   -1.216E+00   -1.192E+00   -1.168E+00   -1.144E+00   -1.120E+00   -1.096E+00   -1.072E+00
    -1.048E+00   -1.025E+00   -1.001E+00   -9.769E-01   -9.531E-01   -9.293E-01   -9.055E-01   -8.817E-01   -8.580E-01   -8.343E-01
    -8.105E-01   -7.868E-01   -7.631E-01   -7.395E-01   -7.158E-01   -6.922E-01   -6.686E-01   -6.450E-01   -6.214E-01   -5.978E-01
    -5.743E-01   -5.507E-01   -5.272E-01   -5.037E-01   -4.802E-01   -4.568E-01   -4.333E-01   -4.099E-01   -3.865E-01   -3.631E-01
    -3.397E-01   -3.164E-01   -2.930E-01   -2.697E-01   -2.464E-01   -2.232E-01   -1.999E-01   -1.767E-01   -1.534E-01   -1.302E-01
    -1.071E-01   -8.390E-02   -6.076E-02   -3.764E-02   -1.454E-02    8.540E-03    3.160E-02    5.464E-02    7.766E-02    1.007E-01
     1.236E-01    1.466E-01    1.695E-01    1.925E-01    2.153E-01    2.382E-01    2.611E-01    2.839E-01    3.067E-01    3.295E-01
     3.523E-01    3.750E-01    3.977E-01    4.204E-01    4.431E-01    4.658E-01    4.884E-01    5.110E-01    5.336E-01    5.562E-01
     5.787E-01    6.013E-01    6.238E-01    6.462E-01    6.687E-01    6.911E-01    7.135E-01    7.359E-01
 Asp      Conc. = 1.53E+01
