 LCModel (Version 6.3-1L) Copyright: S.W. Provencher.          Ref.: Magn. Reson. Med. 30:672-679 (1993).                
 Slice#3 Row#3 Col#5  PD_24_press_1_raw_act
 36 lines in following concentration table = NCONC+1
    Conc.  %SD /Cr+PCr  Metabolite                                         
  422.166  68%   0.606 Ala                                                 
    0.000 999%   0.000 Asp                                                 
    0.000 999%   0.000 Cr                                                  
  697.082  31%   1.000 PCr                                                 
    0.000 999%   0.000 GABA                                                
    4.702 999% 6.7E-03 Glc                                                 
 1.70E+03  50%   2.435 Gln                                                 
 3.60E+03  30%   5.170 Glu                                                 
  190.198  14%   0.273 GPC                                                 
    0.000 999%   0.000 PCh                                                 
   78.622 152%   0.113 GSH                                                 
    0.000 999%   0.000 Ins                                                 
    0.000 999%   0.000 Lac                                                 
  734.177  10%   1.053 NAA                                                 
    0.000 999%   0.000 NAAG                                                
   20.874 125% 3.0E-02 Scyllo                                              
   11.058 999% 1.6E-02 Tau                                                 
    0.000 999%   0.000 -CrCH2                                              
  190.198  14%   0.273 GPC+PCh                                             
  734.177  10%   1.053 NAA+NAAG                                            
  697.082  10%   1.000 Cr+PCr                                              
 5.30E+03  34%   7.604 Glu+Gln                                             
    0.000 999%   0.000 Lip13a                                              
  116.116  72%   0.167 Lip13b                                              
    0.000 999%   0.000 Lip09                                               
 1.02E+03  16%   1.469 MM09                                                
    0.000 999%   0.000 Lip20                                               
 1.42E+03  18%   2.043 MM20                                                
  304.635  18%   0.437 MM12                                                
 1.08E+03  12%   1.548 MM14                                                
  585.103  14%   0.839 MM17                                                
  116.116  72%   0.167 Lip13a+Lip13b                                       
 1.50E+03  13%   2.151 MM14+Lip13a+Lip13b+MM12                             
 1.02E+03  16%   1.469 MM09+Lip09                                          
 1.42E+03  18%   2.043 MM20+Lip20                                          
   6 lines in following misc. output table
  FWHM = 0.122 ppm    S/N =   3                                            
  Data shift =-0.015 ppm                                                   
  Ph:   1 deg      -4.9 deg/ppm                                            
  alphaB,S = 3.5E-01,   9.5E+01                                            
   14 spline knots.   Ns = 7(2)                                            
  (12) 2 infls.   (10) 1 extrs.                                            
  498 points on ppm-axis = NY
      4.000000     3.992357     3.984714     3.977070     3.969427     3.961784     3.954141     3.946497     3.938854     3.931211
      3.923568     3.915925     3.908281     3.900638     3.892995     3.885352     3.877708     3.870065     3.862422     3.854779
      3.847136     3.839492     3.831849     3.824206     3.816563     3.808919     3.801276     3.793633     3.785990     3.778347
      3.770703     3.763060     3.755417     3.747774     3.740130     3.732487     3.724844     3.717201     3.709558     3.701914
      3.694271     3.686628     3.678985     3.671341     3.663698     3.656055     3.648412     3.640769     3.633125     3.625482
      3.617839     3.610196     3.602552     3.594909     3.587266     3.579623     3.571980     3.564336     3.556693     3.549050
      3.541407     3.533763     3.526120     3.518477     3.510834     3.503191     3.495547     3.487904     3.480261     3.472618
      3.464974     3.457331     3.449688     3.442045     3.434402     3.426758     3.419115     3.411472     3.403829     3.396185
      3.388542     3.380899     3.373256     3.365613     3.357969     3.350326     3.342683     3.335040     3.327396     3.319753
      3.312110     3.304467     3.296824     3.289180     3.281537     3.273894     3.266251     3.258607     3.250964     3.243321
      3.235678     3.228034     3.220391     3.212748     3.205105     3.197462     3.189818     3.182175     3.174532     3.166889
      3.159245     3.151602     3.143959     3.136316     3.128673     3.121029     3.113386     3.105743     3.098100     3.090456
      3.082813     3.075170     3.067527     3.059884     3.052240     3.044597     3.036954     3.029311     3.021667     3.014024
      3.006381     2.998738     2.991095     2.983451     2.975808     2.968165     2.960522     2.952878     2.945235     2.937592
      2.929949     2.922306     2.914662     2.907019     2.899376     2.891733     2.884089     2.876446     2.868803     2.861160
      2.853517     2.845873     2.838230     2.830587     2.822944     2.815300     2.807657     2.800014     2.792371     2.784728
      2.777084     2.769441     2.761798     2.754155     2.746511     2.738868     2.731225     2.723582     2.715939     2.708295
      2.700652     2.693009     2.685366     2.677722     2.670079     2.662436     2.654793     2.647150     2.639506     2.631863
      2.624220     2.616577     2.608933     2.601290     2.593647     2.586004     2.578361     2.570717     2.563074     2.555431
      2.547788     2.540144     2.532501     2.524858     2.517215     2.509572     2.501928     2.494285     2.486642     2.478999
      2.471355     2.463712     2.456069     2.448426     2.440783     2.433139     2.425496     2.417853     2.410210     2.402566
      2.394923     2.387280     2.379637     2.371994     2.364350     2.356707     2.349064     2.341421     2.333777     2.326134
      2.318491     2.310848     2.303205     2.295561     2.287918     2.280275     2.272632     2.264988     2.257345     2.249702
      2.242059     2.234416     2.226772     2.219129     2.211486     2.203843     2.196199     2.188556     2.180913     2.173270
      2.165627     2.157983     2.150340     2.142697     2.135054     2.127410     2.119767     2.112124     2.104481     2.096838
      2.089194     2.081551     2.073908     2.066265     2.058621     2.050978     2.043335     2.035692     2.028049     2.020405
      2.012762     2.005119     1.997476     1.989833     1.982190     1.974546     1.966903     1.959260     1.951617     1.943974
      1.936331     1.928688     1.921045     1.913402     1.905759     1.898115     1.890472     1.882829     1.875186     1.867543
      1.859900     1.852257     1.844614     1.836971     1.829327     1.821684     1.814041     1.806398     1.798755     1.791112
      1.783469     1.775826     1.768183     1.760540     1.752896     1.745253     1.737610     1.729967     1.722324     1.714681
      1.707038     1.699395     1.691752     1.684108     1.676465     1.668822     1.661179     1.653536     1.645893     1.638250
      1.630607     1.622964     1.615321     1.607677     1.600034     1.592391     1.584748     1.577105     1.569462     1.561819
      1.554176     1.546533     1.538890     1.531246     1.523603     1.515960     1.508317     1.500674     1.493031     1.485388
      1.477745     1.470102     1.462458     1.454815     1.447172     1.439529     1.431886     1.424243     1.416600     1.408957
      1.401314     1.393671     1.386027     1.378384     1.370741     1.363098     1.355455     1.347812     1.340169     1.332526
      1.324883     1.317240     1.309596     1.301953     1.294310     1.286667     1.279024     1.271381     1.263738     1.256095
      1.248452     1.240808     1.233165     1.225522     1.217879     1.210236     1.202593     1.194950     1.187307     1.179664
      1.172021     1.164377     1.156734     1.149091     1.141448     1.133805     1.126162     1.118519     1.110876     1.103233
      1.095590     1.087946     1.080303     1.072660     1.065017     1.057374     1.049731     1.042088     1.034445     1.026802
      1.019158     1.011515     1.003872     0.996229     0.988586     0.980943     0.973300     0.965657     0.958014     0.950371
      0.942727     0.935084     0.927441     0.919798     0.912155     0.904512     0.896869     0.889226     0.881583     0.873940
      0.866296     0.858653     0.851010     0.843367     0.835724     0.828081     0.820438     0.812795     0.805152     0.797508
      0.789865     0.782222     0.774579     0.766936     0.759293     0.751650     0.744007     0.736364     0.728721     0.721077
      0.713434     0.705791     0.698148     0.690505     0.682862     0.675219     0.667576     0.659933     0.652290     0.644646
      0.637003     0.629360     0.621717     0.614074     0.606431     0.598788     0.591145     0.583502     0.575858     0.568215
      0.560572     0.552929     0.545286     0.537643     0.530000     0.522357     0.514714     0.507071     0.499427     0.491784
      0.484141     0.476498     0.468855     0.461212     0.453569     0.445925     0.438282     0.430639     0.422996     0.415353
      0.407710     0.400067     0.392424     0.384780     0.377137     0.369494     0.361851     0.354208     0.346565     0.338922
      0.331278     0.323635     0.315992     0.308349     0.300706     0.293063     0.285420     0.277777     0.270133     0.262490
      0.254847     0.247204     0.239561     0.231918     0.224275     0.216631     0.208988     0.201345
 NY phased data points follow
   3.73250E+01  3.49274E+01  3.91895E+01  3.46680E+01  4.16773E+01  3.83553E+01  4.33008E+01  3.91462E+01  4.59198E+01  4.06046E+01
   4.28180E+01  4.07566E+01  4.57117E+01  4.14061E+01  4.16151E+01  3.62598E+01  4.10088E+01  3.66365E+01  3.76738E+01  3.64038E+01
   3.58386E+01  3.24369E+01  3.74920E+01  3.24442E+01  3.68355E+01  3.56472E+01  3.58889E+01  3.17598E+01  3.60007E+01  3.21236E+01
   3.66418E+01  3.44707E+01  3.35799E+01  3.05589E+01  3.11249E+01  3.18565E+01  3.67392E+01  3.10131E+01  3.21829E+01  3.23747E+01
   3.44574E+01  3.14653E+01  3.21861E+01  3.32311E+01  3.40177E+01  2.96461E+01  3.49797E+01  2.79730E+01  3.29706E+01  3.13816E+01
   3.22052E+01  2.90684E+01  3.29751E+01  2.99944E+01  3.28874E+01  2.97691E+01  3.00513E+01  3.11583E+01  3.19681E+01  2.53627E+01
   2.89695E+01  2.56746E+01  2.80627E+01  2.64314E+01  2.80837E+01  2.60604E+01  3.03811E+01  2.49875E+01  2.74933E+01  2.87495E+01
   2.53634E+01  2.96879E+01  2.92882E+01  2.80447E+01  2.77850E+01  3.01723E+01  2.83806E+01  2.31175E+01  2.70801E+01  2.62766E+01
   2.64986E+01  2.55879E+01  2.82076E+01  2.64384E+01  2.88177E+01  2.94576E+01  3.15244E+01  3.06989E+01  2.95953E+01  2.88657E+01
   2.80192E+01  2.88120E+01  2.97197E+01  3.32596E+01  3.43043E+01  3.26293E+01  3.53844E+01  3.51408E+01  3.78829E+01  3.87251E+01
   3.72854E+01  3.70015E+01  4.05372E+01  3.59001E+01  3.75230E+01  3.77715E+01  4.04009E+01  3.48416E+01  3.95943E+01  4.19521E+01
   3.52027E+01  3.83200E+01  3.95329E+01  3.60975E+01  3.93765E+01  3.52363E+01  3.67943E+01  3.41492E+01  3.79739E+01  3.73166E+01
   4.04178E+01  3.93663E+01  4.32029E+01  4.36889E+01  4.75156E+01  4.74719E+01  4.53863E+01  4.35837E+01  4.67801E+01  4.70717E+01
   4.33745E+01  4.41823E+01  4.27688E+01  3.95818E+01  4.38716E+01  3.85990E+01  4.17277E+01  3.70187E+01  4.05402E+01  4.03437E+01
   4.03832E+01  3.49201E+01  3.80212E+01  3.85039E+01  4.01619E+01  3.99779E+01  4.10851E+01  3.87493E+01  4.08622E+01  3.71467E+01
   3.70124E+01  3.91778E+01  3.88185E+01  3.20202E+01  4.00679E+01  3.88727E+01  4.21067E+01  4.25587E+01  4.45191E+01  4.05767E+01
   4.18323E+01  3.90545E+01  4.18976E+01  4.47676E+01  4.36143E+01  4.35126E+01  4.27341E+01  3.88693E+01  3.94334E+01  3.83559E+01
   4.17845E+01  4.11441E+01  4.28648E+01  4.12281E+01  4.09637E+01  4.15608E+01  4.11534E+01  3.78151E+01  4.40674E+01  4.10820E+01
   4.18296E+01  4.03631E+01  3.75376E+01  3.93574E+01  4.66203E+01  4.37972E+01  3.93248E+01  4.34268E+01  4.53916E+01  4.45954E+01
   4.56504E+01  4.62327E+01  4.49519E+01  4.90137E+01  4.86380E+01  4.38633E+01  4.84067E+01  4.64282E+01  4.45987E+01  4.57256E+01
   4.74416E+01  4.81797E+01  4.61995E+01  5.01609E+01  4.82004E+01  4.52442E+01  4.73042E+01  4.99516E+01  4.82233E+01  4.91840E+01
   5.07777E+01  4.94165E+01  5.11536E+01  5.39735E+01  5.07138E+01  4.71791E+01  4.83830E+01  5.25001E+01  5.24521E+01  4.73704E+01
   4.70659E+01  4.65078E+01  4.69279E+01  4.66993E+01  4.80112E+01  4.94204E+01  4.86473E+01  4.68107E+01  4.40987E+01  4.69379E+01
   4.90497E+01  4.73350E+01  4.88432E+01  4.78658E+01  4.97012E+01  4.91843E+01  4.93601E+01  4.77697E+01  4.91566E+01  4.91094E+01
   4.83727E+01  4.22793E+01  5.15668E+01  4.79357E+01  5.15564E+01  4.90659E+01  5.00129E+01  4.63047E+01  5.11775E+01  5.25803E+01
   5.35588E+01  5.29855E+01  5.44682E+01  5.71779E+01  5.60000E+01  5.59103E+01  6.46406E+01  6.88283E+01  6.42003E+01  6.73166E+01
   6.78337E+01  6.36863E+01  6.37795E+01  6.06889E+01  6.96539E+01  6.62613E+01  6.56244E+01  6.43980E+01  6.17293E+01  6.17838E+01
   6.04906E+01  5.49313E+01  5.87140E+01  5.32694E+01  5.49470E+01  5.28619E+01  5.42132E+01  4.95672E+01  4.76057E+01  5.19235E+01
   5.23318E+01  5.25299E+01  5.36469E+01  5.01355E+01  5.52586E+01  5.25809E+01  5.56404E+01  5.42614E+01  4.98404E+01  5.02821E+01
   5.23775E+01  5.25746E+01  5.67177E+01  5.35970E+01  5.31059E+01  5.47785E+01  5.64212E+01  5.30664E+01  5.30579E+01  5.71950E+01
   5.62615E+01  5.42206E+01  5.65108E+01  5.75844E+01  5.46868E+01  5.57807E+01  6.18011E+01  5.45087E+01  5.63647E+01  5.64469E+01
   5.69545E+01  5.75271E+01  5.62697E+01  5.82399E+01  5.50390E+01  5.30494E+01  5.57669E+01  5.13427E+01  5.08168E+01  4.89808E+01
   5.51478E+01  4.93295E+01  4.73458E+01  4.86423E+01  4.92278E+01  4.70535E+01  4.36319E+01  4.16368E+01  4.26395E+01  4.14748E+01
   3.82398E+01  3.86468E+01  3.59690E+01  3.19574E+01  3.33582E+01  3.12995E+01  3.14363E+01  2.76435E+01  2.80970E+01  2.74683E+01
   2.55868E+01  2.54517E+01  2.42539E+01  2.52508E+01  2.25659E+01  2.56179E+01  1.91424E+01  2.22586E+01  2.09000E+01  2.01320E+01
   2.14892E+01  2.20537E+01  2.15751E+01  1.65788E+01  1.88778E+01  1.57642E+01  1.63646E+01  1.51410E+01  1.60175E+01  1.71711E+01
   1.88491E+01  1.47278E+01  1.77170E+01  1.29635E+01  1.24610E+01  1.33179E+01  9.71857E+00  1.07223E+01  7.13692E+00  6.28090E+00
   7.60822E+00  8.67919E+00  5.93167E+00  5.87769E+00  4.93448E+00  2.25156E+00  7.40712E+00  1.99828E+00  1.32543E+00 -3.54237E-01
   4.59140E-01 -4.24603E+00 -1.54280E+00 -1.35429E-01 -5.00850E+00 -8.54125E-01  2.73653E-02 -2.75487E+00 -3.72104E+00 -2.57917E+00
  -3.41455E+00 -4.32161E+00 -8.37914E+00 -5.54592E+00 -4.55156E+00 -6.47602E+00 -6.79925E+00 -2.46543E+00 -2.21211E+00 -4.94420E+00
  -3.58743E+00 -2.02138E+00 -2.02315E+00 -2.12164E+00 -6.20187E-01 -4.60224E-01 -3.05459E+00 -2.95264E+00  7.72814E-01 -2.70069E+00
  -2.16579E+00 -9.88667E-01 -2.28166E+00 -2.85635E+00 -3.33641E+00  3.43558E-01 -1.88115E+00 -1.91414E+00 -2.69303E+00 -4.16469E+00
  -2.86738E+00 -7.04903E+00 -4.44371E+00 -7.62003E+00 -2.65882E+00 -4.06692E+00 -5.10173E+00 -6.08580E+00 -4.83478E+00 -8.51869E+00
  -6.39721E+00 -6.70622E+00 -3.67814E+00 -9.74205E+00 -3.01739E+00 -1.06487E+01 -7.22876E+00 -5.17594E+00 -6.30735E+00 -3.06547E+00
  -4.80570E+00 -5.36953E+00 -6.45331E+00 -7.82907E+00 -2.23582E+00 -4.87811E+00 -4.76101E+00 -4.53574E+00 -6.20126E+00 -3.89176E+00
  -6.23555E+00 -7.33672E+00 -4.82717E+00 -3.51414E+00 -2.41099E+00 -8.19688E+00 -6.75963E+00 -3.76840E+00 -3.46126E+00 -5.34689E+00
  -1.74993E+00 -7.83515E+00 -6.48044E+00 -5.28185E+00 -5.49537E+00 -1.21033E+00 -5.15729E+00 -3.38127E+00 -4.06306E+00 -6.17041E+00
  -3.95359E+00 -4.79077E+00 -5.12426E+00 -2.63752E+00 -1.04816E+01 -5.84148E+00 -7.34483E+00 -3.79582E+00 -7.82044E+00 -4.34574E+00
  -5.00766E+00 -5.25204E+00 -6.18199E+00 -5.15692E+00 -5.03000E+00 -5.07551E+00 -2.88920E+00 -3.33399E+00 -8.15533E+00 -1.53866E+00
  -3.06022E+00 -1.87126E+00 -5.49730E+00 -6.89035E+00 -4.08203E+00 -6.60403E+00 -4.99906E+00 -6.92505E+00
 NY points of the fit to the data follow
   3.68658E+01  3.68219E+01  3.84961E+01  3.81958E+01  4.02792E+01  3.94191E+01  4.14335E+01  4.00837E+01  4.18578E+01  4.02547E+01
   4.17944E+01  4.01237E+01  4.14348E+01  3.96875E+01  4.04700E+01  3.88212E+01  3.91913E+01  3.76175E+01  3.76534E+01  3.62320E+01
   3.62352E+01  3.50289E+01  3.52540E+01  3.41209E+01  3.47854E+01  3.35838E+01  3.48378E+01  3.35314E+01  3.50939E+01  3.38071E+01
   3.53657E+01  3.39367E+01  3.52126E+01  3.35978E+01  3.45601E+01  3.32015E+01  3.39864E+01  3.31082E+01  3.36782E+01  3.31234E+01
   3.33219E+01  3.28964E+01  3.27380E+01  3.24973E+01  3.20928E+01  3.19494E+01  3.15084E+01  3.13410E+01  3.09645E+01  3.08630E+01
   3.06558E+01  3.06174E+01  3.04722E+01  3.03686E+01  3.01646E+01  2.99006E+01  2.96144E+01  2.93188E+01  2.90413E+01  2.88384E+01
   2.86400E+01  2.84982E+01  2.83498E+01  2.82382E+01  2.81319E+01  2.80534E+01  2.79719E+01  2.79186E+01  2.78693E+01  2.78441E+01
   2.78145E+01  2.78111E+01  2.78020E+01  2.78220E+01  2.78514E+01  2.78916E+01  2.79549E+01  2.80128E+01  2.81126E+01  2.81851E+01
   2.83158E+01  2.83973E+01  2.85515E+01  2.86294E+01  2.87662E+01  2.88339E+01  2.89497E+01  2.90187E+01  2.91440E+01  2.93012E+01
   2.95288E+01  3.00006E+01  3.04071E+01  3.10946E+01  3.17041E+01  3.25971E+01  3.34248E+01  3.44111E+01  3.54403E+01  3.64277E+01
   3.75407E+01  3.79771E+01  3.89417E+01  3.88102E+01  3.95926E+01  3.90971E+01  3.97092E+01  3.89917E+01  3.94004E+01  3.82674E+01
   3.84248E+01  3.72526E+01  3.73645E+01  3.64641E+01  3.69033E+01  3.62730E+01  3.72079E+01  3.68988E+01  3.85382E+01  3.83821E+01
   4.08012E+01  4.06970E+01  4.38207E+01  4.28071E+01  4.59132E+01  4.40802E+01  4.69016E+01  4.46095E+01  4.71130E+01  4.46193E+01
   4.67576E+01  4.39534E+01  4.53834E+01  4.27076E+01  4.35446E+01  4.12069E+01  4.15130E+01  3.97286E+01  3.96882E+01  3.85622E+01
   3.84012E+01  3.78881E+01  3.77936E+01  3.78433E+01  3.80200E+01  3.81299E+01  3.83209E+01  3.84430E+01  3.86292E+01  3.87467E+01
   3.89294E+01  3.90438E+01  3.92271E+01  3.93342E+01  3.95080E+01  3.96092E+01  3.97765E+01  3.98762E+01  4.00451E+01  4.01635E+01
   4.03294E+01  4.04651E+01  4.05970E+01  4.07246E+01  4.08202E+01  4.09392E+01  4.10243E+01  4.11495E+01  4.12258E+01  4.13412E+01
   4.14135E+01  4.15100E+01  4.16002E+01  4.16791E+01  4.18134E+01  4.18610E+01  4.20484E+01  4.20693E+01  4.23124E+01  4.23274E+01
   4.26254E+01  4.26575E+01  4.29801E+01  4.30233E+01  4.33123E+01  4.33546E+01  4.35793E+01  4.36415E+01  4.37882E+01  4.38985E+01
   4.40146E+01  4.42330E+01  4.43910E+01  4.47850E+01  4.50415E+01  4.56037E+01  4.58838E+01  4.64800E+01  4.66053E+01  4.70273E+01
   4.69732E+01  4.70921E+01  4.69072E+01  4.67827E+01  4.66588E+01  4.65414E+01  4.66260E+01  4.66349E+01  4.71229E+01  4.73676E+01
   4.79756E+01  4.82198E+01  4.85307E+01  4.87026E+01  4.85966E+01  4.82594E+01  4.79805E+01  4.73424E+01  4.70672E+01  4.64882E+01
   4.65183E+01  4.63647E+01  4.67561E+01  4.65840E+01  4.70635E+01  4.67937E+01  4.71997E+01  4.67774E+01  4.72369E+01  4.71216E+01
   4.80689E+01  4.82396E+01  4.93512E+01  4.99257E+01  5.11202E+01  5.18838E+01  5.26695E+01  5.30741E+01  5.32002E+01  5.31929E+01
   5.27156E+01  5.25677E+01  5.20094E+01  5.21452E+01  5.17910E+01  5.21272E+01  5.20249E+01  5.24381E+01  5.28820E+01  5.35068E+01
   5.44865E+01  5.52470E+01  5.67519E+01  5.76099E+01  5.94647E+01  6.03228E+01  6.24907E+01  6.32537E+01  6.49530E+01  6.53128E+01
   6.62329E+01  6.60198E+01  6.63313E+01  6.57151E+01  6.56622E+01  6.47877E+01  6.40404E+01  6.29263E+01  6.18270E+01  6.06180E+01
   5.93128E+01  5.81053E+01  5.69203E+01  5.58578E+01  5.49433E+01  5.40740E+01  5.35096E+01  5.28870E+01  5.28005E+01  5.24996E+01
   5.24165E+01  5.22473E+01  5.21318E+01  5.20557E+01  5.19052E+01  5.18413E+01  5.17014E+01  5.16627E+01  5.15585E+01  5.15588E+01
   5.15191E+01  5.15756E+01  5.16341E+01  5.17784E+01  5.19340E+01  5.21454E+01  5.23718E+01  5.26262E+01  5.28906E+01  5.31557E+01
   5.34165E+01  5.36637E+01  5.38894E+01  5.40849E+01  5.42441E+01  5.43612E+01  5.44324E+01  5.44546E+01  5.44270E+01  5.43501E+01
   5.42228E+01  5.40488E+01  5.38307E+01  5.35796E+01  5.32837E+01  5.29733E+01  5.25704E+01  5.20871E+01  5.15503E+01  5.08347E+01
   5.01338E+01  4.91080E+01  4.82405E+01  4.68924E+01  4.59501E+01  4.41749E+01  4.32496E+01  4.12118E+01  4.04547E+01  3.83317E+01
   3.78343E+01  3.57399E+01  3.55740E+01  3.34522E+01  3.34719E+01  3.14609E+01  3.15446E+01  2.97092E+01  2.98169E+01  2.82450E+01
   2.83774E+01  2.70412E+01  2.70225E+01  2.58872E+01  2.56975E+01  2.47313E+01  2.43198E+01  2.33964E+01  2.28202E+01  2.20099E+01
   2.13767E+01  2.06979E+01  2.00726E+01  1.95191E+01  1.89881E+01  1.84475E+01  1.78737E+01  1.72503E+01  1.65688E+01  1.58297E+01
   1.50416E+01  1.42190E+01  1.33795E+01  1.25405E+01  1.17164E+01  1.09177E+01  1.01498E+01  9.41418E+00  8.70901E+00  8.03083E+00
   7.37557E+00  6.73952E+00  6.11980E+00  5.51460E+00  4.92307E+00  4.34516E+00  3.78139E+00  3.23265E+00  2.70005E+00  2.18478E+00
   1.68804E+00  1.21105E+00  7.55009E-01  3.21099E-01 -8.94788E-02 -4.75492E-01 -8.35665E-01 -1.16865E+00 -1.47306E+00 -1.74742E+00
  -1.99024E+00 -2.20006E+00 -2.37548E+00 -2.51529E+00 -2.61851E+00 -2.68460E+00 -2.71349E+00 -2.70582E+00 -2.66298E+00 -2.58729E+00
  -2.48205E+00 -2.35159E+00 -2.20128E+00 -2.03741E+00 -1.86710E+00 -1.69809E+00 -1.53842E+00 -1.39616E+00 -1.27924E+00 -1.19512E+00
  -1.15024E+00 -1.14968E+00 -1.19690E+00 -1.29359E+00 -1.43959E+00 -1.63292E+00 -1.86991E+00 -2.14542E+00 -2.45313E+00 -2.78588E+00
  -3.13602E+00 -3.49579E+00 -3.85764E+00 -4.21451E+00 -4.56012E+00 -4.88909E+00 -5.19703E+00 -5.48064E+00 -5.73761E+00 -5.96662E+00
  -6.16718E+00 -6.33958E+00 -6.48463E+00 -6.60369E+00 -6.69836E+00 -6.77054E+00 -6.82218E+00 -6.85532E+00 -6.87190E+00 -6.87389E+00
  -6.86306E+00 -6.84112E+00 -6.80963E+00 -6.77003E+00 -6.72362E+00 -6.67161E+00 -6.61507E+00 -6.55499E+00 -6.49229E+00 -6.42780E+00
  -6.36227E+00 -6.29644E+00 -6.23096E+00 -6.16635E+00 -6.10278E+00 -6.04040E+00 -5.97928E+00 -5.91953E+00 -5.86116E+00 -5.80426E+00
  -5.74882E+00 -5.69489E+00 -5.64244E+00 -5.59150E+00 -5.54204E+00 -5.49407E+00 -5.44753E+00 -5.40242E+00 -5.35870E+00 -5.31634E+00
  -5.27529E+00 -5.23552E+00 -5.19697E+00 -5.15960E+00 -5.12336E+00 -5.08820E+00 -5.05406E+00 -5.02089E+00 -4.98864E+00 -4.95723E+00
  -4.92662E+00 -4.89674E+00 -4.86752E+00 -4.83892E+00 -4.81085E+00 -4.78327E+00 -4.75610E+00 -4.72927E+00 -4.70272E+00 -4.67639E+00
  -4.65019E+00 -4.62406E+00 -4.59794E+00 -4.57174E+00 -4.54540E+00 -4.51884E+00 -4.49198E+00 -4.46475E+00
 NY background values follow
     3.293E+01    3.281E+01    3.270E+01    3.258E+01    3.246E+01    3.234E+01    3.222E+01    3.210E+01    3.199E+01    3.187E+01
     3.175E+01    3.163E+01    3.151E+01    3.139E+01    3.127E+01    3.116E+01    3.104E+01    3.092E+01    3.081E+01    3.069E+01
     3.058E+01    3.047E+01    3.035E+01    3.024E+01    3.013E+01    3.002E+01    2.992E+01    2.981E+01    2.971E+01    2.960E+01
     2.950E+01    2.940E+01    2.931E+01    2.921E+01    2.912E+01    2.903E+01    2.894E+01    2.885E+01    2.877E+01    2.868E+01
     2.860E+01    2.853E+01    2.845E+01    2.838E+01    2.831E+01    2.825E+01    2.818E+01    2.812E+01    2.807E+01    2.801E+01
     2.796E+01    2.791E+01    2.787E+01    2.783E+01    2.779E+01    2.775E+01    2.772E+01    2.769E+01    2.767E+01    2.764E+01
     2.762E+01    2.761E+01    2.759E+01    2.759E+01    2.758E+01    2.758E+01    2.758E+01    2.758E+01    2.759E+01    2.760E+01
     2.761E+01    2.763E+01    2.765E+01    2.767E+01    2.770E+01    2.773E+01    2.776E+01    2.780E+01    2.784E+01    2.789E+01
     2.794E+01    2.799E+01    2.804E+01    2.810E+01    2.817E+01    2.823E+01    2.830E+01    2.838E+01    2.845E+01    2.853E+01
     2.862E+01    2.871E+01    2.880E+01    2.890E+01    2.899E+01    2.910E+01    2.920E+01    2.931E+01    2.943E+01    2.954E+01
     2.966E+01    2.979E+01    2.991E+01    3.004E+01    3.017E+01    3.031E+01    3.045E+01    3.059E+01    3.073E+01    3.088E+01
     3.103E+01    3.119E+01    3.134E+01    3.150E+01    3.166E+01    3.182E+01    3.199E+01    3.216E+01    3.233E+01    3.250E+01
     3.268E+01    3.285E+01    3.303E+01    3.322E+01    3.340E+01    3.359E+01    3.377E+01    3.396E+01    3.416E+01    3.435E+01
     3.455E+01    3.474E+01    3.494E+01    3.514E+01    3.535E+01    3.555E+01    3.576E+01    3.596E+01    3.617E+01    3.638E+01
     3.659E+01    3.680E+01    3.701E+01    3.723E+01    3.744E+01    3.765E+01    3.787E+01    3.808E+01    3.829E+01    3.850E+01
     3.872E+01    3.893E+01    3.914E+01    3.935E+01    3.956E+01    3.977E+01    3.997E+01    4.018E+01    4.038E+01    4.058E+01
     4.078E+01    4.098E+01    4.117E+01    4.136E+01    4.155E+01    4.174E+01    4.193E+01    4.211E+01    4.229E+01    4.246E+01
     4.263E+01    4.280E+01    4.297E+01    4.313E+01    4.328E+01    4.344E+01    4.358E+01    4.373E+01    4.387E+01    4.400E+01
     4.413E+01    4.426E+01    4.438E+01    4.449E+01    4.460E+01    4.471E+01    4.481E+01    4.490E+01    4.500E+01    4.508E+01
     4.517E+01    4.525E+01    4.533E+01    4.540E+01    4.547E+01    4.554E+01    4.560E+01    4.566E+01    4.572E+01    4.578E+01
     4.583E+01    4.589E+01    4.594E+01    4.599E+01    4.603E+01    4.608E+01    4.612E+01    4.616E+01    4.620E+01    4.625E+01
     4.629E+01    4.632E+01    4.636E+01    4.640E+01    4.644E+01    4.648E+01    4.652E+01    4.655E+01    4.659E+01    4.663E+01
     4.667E+01    4.671E+01    4.676E+01    4.680E+01    4.684E+01    4.689E+01    4.694E+01    4.699E+01    4.704E+01    4.709E+01
     4.715E+01    4.720E+01    4.726E+01    4.732E+01    4.738E+01    4.744E+01    4.750E+01    4.756E+01    4.762E+01    4.768E+01
     4.774E+01    4.780E+01    4.786E+01    4.793E+01    4.799E+01    4.805E+01    4.811E+01    4.817E+01    4.823E+01    4.828E+01
     4.834E+01    4.840E+01    4.845E+01    4.850E+01    4.855E+01    4.860E+01    4.865E+01    4.870E+01    4.874E+01    4.878E+01
     4.882E+01    4.886E+01    4.889E+01    4.892E+01    4.895E+01    4.897E+01    4.900E+01    4.902E+01    4.903E+01    4.904E+01
     4.905E+01    4.906E+01    4.906E+01    4.906E+01    4.905E+01    4.904E+01    4.902E+01    4.900E+01    4.897E+01    4.894E+01
     4.890E+01    4.885E+01    4.880E+01    4.873E+01    4.867E+01    4.859E+01    4.851E+01    4.842E+01    4.831E+01    4.821E+01
     4.809E+01    4.796E+01    4.782E+01    4.767E+01    4.751E+01    4.734E+01    4.716E+01    4.697E+01    4.677E+01    4.655E+01
     4.633E+01    4.609E+01    4.584E+01    4.557E+01    4.529E+01    4.500E+01    4.469E+01    4.437E+01    4.403E+01    4.368E+01
     4.332E+01    4.294E+01    4.254E+01    4.213E+01    4.170E+01    4.125E+01    4.079E+01    4.031E+01    3.981E+01    3.930E+01
     3.877E+01    3.822E+01    3.766E+01    3.709E+01    3.650E+01    3.590E+01    3.529E+01    3.467E+01    3.403E+01    3.339E+01
     3.274E+01    3.207E+01    3.140E+01    3.072E+01    3.003E+01    2.933E+01    2.863E+01    2.792E+01    2.721E+01    2.649E+01
     2.577E+01    2.505E+01    2.432E+01    2.359E+01    2.286E+01    2.213E+01    2.140E+01    2.066E+01    1.993E+01    1.920E+01
     1.847E+01    1.774E+01    1.702E+01    1.630E+01    1.559E+01    1.488E+01    1.417E+01    1.347E+01    1.278E+01    1.209E+01
     1.142E+01    1.075E+01    1.009E+01    9.436E+00    8.794E+00    8.162E+00    7.539E+00    6.926E+00    6.323E+00    5.730E+00
     5.146E+00    4.573E+00    4.010E+00    3.457E+00    2.914E+00    2.382E+00    1.860E+00    1.349E+00    8.490E-01    3.595E-01
    -1.192E-01   -5.868E-01   -1.043E+00   -1.489E+00   -1.923E+00   -2.345E+00   -2.756E+00   -3.156E+00   -3.544E+00   -3.920E+00
    -4.284E+00   -4.636E+00   -4.976E+00   -5.305E+00   -5.620E+00   -5.924E+00   -6.215E+00   -6.493E+00   -6.759E+00   -7.012E+00
    -7.252E+00   -7.479E+00   -7.693E+00   -7.895E+00   -8.082E+00   -8.257E+00   -8.418E+00   -8.566E+00   -8.700E+00   -8.821E+00
    -8.929E+00   -9.026E+00   -9.110E+00   -9.182E+00   -9.243E+00   -9.294E+00   -9.334E+00   -9.364E+00   -9.384E+00   -9.394E+00
    -9.396E+00   -9.389E+00   -9.373E+00   -9.350E+00   -9.319E+00   -9.281E+00   -9.236E+00   -9.185E+00   -9.128E+00   -9.065E+00
    -8.996E+00   -8.923E+00   -8.845E+00   -8.762E+00   -8.676E+00   -8.586E+00   -8.493E+00   -8.398E+00   -8.300E+00   -8.200E+00
    -8.098E+00   -7.995E+00   -7.891E+00   -7.786E+00   -7.681E+00   -7.576E+00   -7.472E+00   -7.369E+00   -7.267E+00   -7.167E+00
    -7.068E+00   -6.972E+00   -6.879E+00   -6.789E+00   -6.702E+00   -6.617E+00   -6.535E+00   -6.457E+00   -6.380E+00   -6.307E+00
    -6.235E+00   -6.167E+00   -6.100E+00   -6.036E+00   -5.974E+00   -5.914E+00   -5.857E+00   -5.801E+00   -5.747E+00   -5.695E+00
    -5.645E+00   -5.597E+00   -5.550E+00   -5.504E+00   -5.460E+00   -5.418E+00   -5.377E+00   -5.337E+00   -5.298E+00   -5.261E+00
    -5.224E+00   -5.189E+00   -5.154E+00   -5.120E+00   -5.087E+00   -5.054E+00   -5.022E+00   -4.991E+00   -4.960E+00   -4.929E+00
    -4.899E+00   -4.869E+00   -4.839E+00   -4.809E+00   -4.779E+00   -4.749E+00   -4.719E+00   -4.689E+00
 Ala      Conc. = 4.22E+02
