 LCModel (Version 6.3-1L) Copyright: S.W. Provencher.          Ref.: Magn. Reson. Med. 30:672-679 (1993).                
 Slice#3 Row#3 Col#6  PD_24_press_1_raw_act
 36 lines in following concentration table = NCONC+1
    Conc.  %SD /Cr+PCr  Metabolite                                         
  281.981  55%   0.206 Ala                                                 
    0.000 999%   0.000 Asp                                                 
  322.207  67%   0.235 Cr                                                  
 1.05E+03  21%   0.765 PCr                                                 
  142.758  95%   0.104 GABA                                                
    0.000 999%   0.000 Glc                                                 
  491.922  65%   0.359 Gln                                                 
 1.51E+03  24%   1.101 Glu                                                 
  389.150   5%   0.284 GPC                                                 
    0.000 999%   0.000 PCh                                                 
  343.103  22%   0.250 GSH                                                 
    0.000 999%   0.000 Ins                                                 
    0.000 999%   0.000 Lac                                                 
 1.62E+03   7%   1.179 NAA                                                 
   40.353 281% 2.9E-02 NAAG                                                
   15.708 158% 1.1E-02 Scyllo                                              
    0.000 999%   0.000 Tau                                                 
    0.000 999%   0.000 -CrCH2                                              
  389.150   5%   0.284 GPC+PCh                                             
 1.66E+03   5%   1.208 NAA+NAAG                                            
 1.37E+03   4%   1.000 Cr+PCr                                              
 2.00E+03  28%   1.459 Glu+Gln                                             
    0.000 999%   0.000 Lip13a                                              
  821.327  12%   0.599 Lip13b                                              
  103.997  95% 7.6E-02 Lip09                                               
  796.809  19%   0.581 MM09                                                
  160.489  43%   0.117 Lip20                                               
 1.37E+03  20%   1.000 MM20                                                
  238.302  37%   0.174 MM12                                                
 1.55E+03  13%   1.130 MM14                                                
  617.238  24%   0.450 MM17                                                
  821.327  12%   0.599 Lip13a+Lip13b                                       
 2.61E+03   9%   1.903 MM14+Lip13a+Lip13b+MM12                             
  900.806  15%   0.657 MM09+Lip09                                          
 1.53E+03  18%   1.117 MM20+Lip20                                          
   6 lines in following misc. output table
  FWHM = 0.061 ppm    S/N =   8                                            
  Data shift =-0.023 ppm                                                   
  Ph: -19 deg      -9.5 deg/ppm                                            
  alphaB,S = 9.5E-01,   1.3E+01                                            
   14 spline knots.   Ns =10(1)                                            
  (15)11 infls.   (21) 5 extrs.                                            
  498 points on ppm-axis = NY
      4.000000     3.992357     3.984714     3.977070     3.969427     3.961784     3.954141     3.946497     3.938854     3.931211
      3.923568     3.915925     3.908281     3.900638     3.892995     3.885352     3.877708     3.870065     3.862422     3.854779
      3.847136     3.839492     3.831849     3.824206     3.816563     3.808919     3.801276     3.793633     3.785990     3.778347
      3.770703     3.763060     3.755417     3.747774     3.740130     3.732487     3.724844     3.717201     3.709558     3.701914
      3.694271     3.686628     3.678985     3.671341     3.663698     3.656055     3.648412     3.640769     3.633125     3.625482
      3.617839     3.610196     3.602552     3.594909     3.587266     3.579623     3.571980     3.564336     3.556693     3.549050
      3.541407     3.533763     3.526120     3.518477     3.510834     3.503191     3.495547     3.487904     3.480261     3.472618
      3.464974     3.457331     3.449688     3.442045     3.434402     3.426758     3.419115     3.411472     3.403829     3.396185
      3.388542     3.380899     3.373256     3.365613     3.357969     3.350326     3.342683     3.335040     3.327396     3.319753
      3.312110     3.304467     3.296824     3.289180     3.281537     3.273894     3.266251     3.258607     3.250964     3.243321
      3.235678     3.228034     3.220391     3.212748     3.205105     3.197462     3.189818     3.182175     3.174532     3.166889
      3.159245     3.151602     3.143959     3.136316     3.128673     3.121029     3.113386     3.105743     3.098100     3.090456
      3.082813     3.075170     3.067527     3.059884     3.052240     3.044597     3.036954     3.029311     3.021667     3.014024
      3.006381     2.998738     2.991095     2.983451     2.975808     2.968165     2.960522     2.952878     2.945235     2.937592
      2.929949     2.922306     2.914662     2.907019     2.899376     2.891733     2.884089     2.876446     2.868803     2.861160
      2.853517     2.845873     2.838230     2.830587     2.822944     2.815300     2.807657     2.800014     2.792371     2.784728
      2.777084     2.769441     2.761798     2.754155     2.746511     2.738868     2.731225     2.723582     2.715939     2.708295
      2.700652     2.693009     2.685366     2.677722     2.670079     2.662436     2.654793     2.647150     2.639506     2.631863
      2.624220     2.616577     2.608933     2.601290     2.593647     2.586004     2.578361     2.570717     2.563074     2.555431
      2.547788     2.540144     2.532501     2.524858     2.517215     2.509572     2.501928     2.494285     2.486642     2.478999
      2.471355     2.463712     2.456069     2.448426     2.440783     2.433139     2.425496     2.417853     2.410210     2.402566
      2.394923     2.387280     2.379637     2.371994     2.364350     2.356707     2.349064     2.341421     2.333777     2.326134
      2.318491     2.310848     2.303205     2.295561     2.287918     2.280275     2.272632     2.264988     2.257345     2.249702
      2.242059     2.234416     2.226772     2.219129     2.211486     2.203843     2.196199     2.188556     2.180913     2.173270
      2.165627     2.157983     2.150340     2.142697     2.135054     2.127410     2.119767     2.112124     2.104481     2.096838
      2.089194     2.081551     2.073908     2.066265     2.058621     2.050978     2.043335     2.035692     2.028049     2.020405
      2.012762     2.005119     1.997476     1.989833     1.982190     1.974546     1.966903     1.959260     1.951617     1.943974
      1.936331     1.928688     1.921045     1.913402     1.905759     1.898115     1.890472     1.882829     1.875186     1.867543
      1.859900     1.852257     1.844614     1.836971     1.829327     1.821684     1.814041     1.806398     1.798755     1.791112
      1.783469     1.775826     1.768183     1.760540     1.752896     1.745253     1.737610     1.729967     1.722324     1.714681
      1.707038     1.699395     1.691752     1.684108     1.676465     1.668822     1.661179     1.653536     1.645893     1.638250
      1.630607     1.622964     1.615321     1.607677     1.600034     1.592391     1.584748     1.577105     1.569462     1.561819
      1.554176     1.546533     1.538890     1.531246     1.523603     1.515960     1.508317     1.500674     1.493031     1.485388
      1.477745     1.470102     1.462458     1.454815     1.447172     1.439529     1.431886     1.424243     1.416600     1.408957
      1.401314     1.393671     1.386027     1.378384     1.370741     1.363098     1.355455     1.347812     1.340169     1.332526
      1.324883     1.317240     1.309596     1.301953     1.294310     1.286667     1.279024     1.271381     1.263738     1.256095
      1.248452     1.240808     1.233165     1.225522     1.217879     1.210236     1.202593     1.194950     1.187307     1.179664
      1.172021     1.164377     1.156734     1.149091     1.141448     1.133805     1.126162     1.118519     1.110876     1.103233
      1.095590     1.087946     1.080303     1.072660     1.065017     1.057374     1.049731     1.042088     1.034445     1.026802
      1.019158     1.011515     1.003872     0.996229     0.988586     0.980943     0.973300     0.965657     0.958014     0.950371
      0.942727     0.935084     0.927441     0.919798     0.912155     0.904512     0.896869     0.889226     0.881583     0.873940
      0.866296     0.858653     0.851010     0.843367     0.835724     0.828081     0.820438     0.812795     0.805152     0.797508
      0.789865     0.782222     0.774579     0.766936     0.759293     0.751650     0.744007     0.736364     0.728721     0.721077
      0.713434     0.705791     0.698148     0.690505     0.682862     0.675219     0.667576     0.659933     0.652290     0.644646
      0.637003     0.629360     0.621717     0.614074     0.606431     0.598788     0.591145     0.583502     0.575858     0.568215
      0.560572     0.552929     0.545286     0.537643     0.530000     0.522357     0.514714     0.507071     0.499427     0.491784
      0.484141     0.476498     0.468855     0.461212     0.453569     0.445925     0.438282     0.430639     0.422996     0.415353
      0.407710     0.400067     0.392424     0.384780     0.377137     0.369494     0.361851     0.354208     0.346565     0.338922
      0.331278     0.323635     0.315992     0.308349     0.300706     0.293063     0.285420     0.277777     0.270133     0.262490
      0.254847     0.247204     0.239561     0.231918     0.224275     0.216631     0.208988     0.201345
 NY phased data points follow
   8.21608E+01  8.99975E+01  8.96221E+01  9.09003E+01  8.50727E+01  9.65784E+01  9.05512E+01  9.38369E+01  9.49336E+01  1.00492E+02
   9.64999E+01  9.53899E+01  9.56419E+01  9.11236E+01  8.23857E+01  8.64268E+01  7.86996E+01  8.05656E+01  7.55001E+01  7.79913E+01
   7.50987E+01  7.29225E+01  7.16973E+01  7.40936E+01  6.80376E+01  7.46320E+01  7.06377E+01  7.05751E+01  6.88017E+01  6.81069E+01
   6.76641E+01  7.56080E+01  6.54742E+01  6.83611E+01  6.54244E+01  6.67664E+01  6.14358E+01  6.16109E+01  6.18210E+01  6.47437E+01
   5.99963E+01  6.23682E+01  6.00844E+01  6.23228E+01  6.23638E+01  6.22886E+01  6.29941E+01  6.10062E+01  5.42033E+01  6.13264E+01
   5.53583E+01  5.65675E+01  5.09672E+01  5.66968E+01  5.25381E+01  5.54400E+01  5.20117E+01  5.40696E+01  5.07682E+01  5.25056E+01
   4.81119E+01  4.79935E+01  4.66252E+01  4.66013E+01  4.24867E+01  4.30421E+01  4.19248E+01  4.28446E+01  4.10679E+01  4.33208E+01
   3.87691E+01  4.42803E+01  4.30886E+01  4.41089E+01  4.63691E+01  4.47272E+01  4.50420E+01  4.19587E+01  4.09854E+01  4.17546E+01
   3.83034E+01  4.21289E+01  3.64494E+01  4.22112E+01  4.04834E+01  4.15375E+01  4.10386E+01  4.36984E+01  4.30696E+01  4.46474E+01
   3.87971E+01  3.93888E+01  4.13714E+01  3.82267E+01  4.17119E+01  4.38201E+01  4.37906E+01  4.73933E+01  4.63729E+01  5.13460E+01
   5.28772E+01  5.66746E+01  6.10169E+01  6.56747E+01  6.22729E+01  6.32264E+01  5.52288E+01  5.00823E+01  4.44233E+01  4.71733E+01
   4.15939E+01  4.25744E+01  4.26942E+01  4.07646E+01  3.82908E+01  3.82104E+01  3.75005E+01  3.88449E+01  3.70270E+01  4.16750E+01
   3.95144E+01  3.95313E+01  4.83246E+01  5.20231E+01  5.37810E+01  5.95310E+01  6.23377E+01  6.23043E+01  5.95417E+01  6.07040E+01
   4.98530E+01  4.66915E+01  4.16211E+01  3.94520E+01  4.01104E+01  3.58776E+01  3.63175E+01  3.58566E+01  3.50132E+01  3.29359E+01
   3.76957E+01  2.91599E+01  2.72692E+01  3.20736E+01  2.82803E+01  2.99129E+01  2.79720E+01  2.97755E+01  2.71157E+01  2.94957E+01
   2.60969E+01  2.43215E+01  2.68808E+01  2.33809E+01  2.55861E+01  2.67008E+01  2.66631E+01  3.00030E+01  2.59168E+01  2.54486E+01
   2.45156E+01  2.73117E+01  2.11137E+01  2.49438E+01  2.64966E+01  2.51953E+01  2.77538E+01  2.10740E+01  1.91714E+01  2.05200E+01
   2.11768E+01  2.00942E+01  2.00972E+01  1.93738E+01  1.83815E+01  2.26521E+01  1.69163E+01  1.50561E+01  1.70111E+01  2.01478E+01
   1.86945E+01  1.64021E+01  1.58533E+01  1.43759E+01  1.32903E+01  2.33501E+01  1.66558E+01  1.80445E+01  1.85939E+01  1.83234E+01
   1.62038E+01  2.03292E+01  2.28986E+01  2.30737E+01  2.36606E+01  2.18217E+01  1.98455E+01  2.02970E+01  2.09542E+01  1.92089E+01
   1.63917E+01  2.30110E+01  1.80644E+01  1.64756E+01  2.13095E+01  2.28907E+01  1.63372E+01  1.87898E+01  1.89293E+01  1.83921E+01
   1.86775E+01  2.16538E+01  1.99415E+01  2.19496E+01  2.15802E+01  1.95731E+01  2.05982E+01  2.51183E+01  2.66422E+01  2.01676E+01
   1.54484E+01  1.41408E+01  1.34647E+01  1.53049E+01  1.67244E+01  1.95613E+01  2.20126E+01  2.09856E+01  1.66932E+01  1.81516E+01
   1.51240E+01  1.80848E+01  1.80846E+01  1.95346E+01  1.91068E+01  2.06032E+01  1.66909E+01  1.88656E+01  1.85649E+01  1.89116E+01
   1.99422E+01  1.73307E+01  1.79251E+01  2.16804E+01  1.68792E+01  2.18019E+01  1.91772E+01  2.28819E+01  2.03089E+01  2.09744E+01
   2.50005E+01  2.85056E+01  2.80473E+01  2.87172E+01  3.22635E+01  3.43268E+01  3.72560E+01  4.92310E+01  5.16554E+01  5.31378E+01
   5.37975E+01  5.88662E+01  5.35155E+01  5.13362E+01  3.91091E+01  3.84953E+01  2.81899E+01  3.10942E+01  2.93258E+01  2.64963E+01
   2.24673E+01  1.97379E+01  1.18249E+01  2.03630E+01  1.67654E+01  1.85116E+01  1.61511E+01  1.37747E+01  1.13713E+01  1.17842E+01
   1.59797E+01  1.12644E+01  1.34587E+01  1.21713E+01  1.01239E+01  1.57912E+01  1.11381E+01  1.73059E+01  1.07871E+01  1.09024E+01
   8.17238E+00  1.19734E+01  8.33967E+00  1.51009E+01  8.13668E+00  1.25276E+01  1.19146E+01  1.18776E+01  1.06977E+01  1.32117E+01
   1.25254E+01  1.30232E+01  1.00930E+01  1.08024E+01  1.08203E+01  1.00505E+01  1.11835E+01  1.48721E+01  1.34948E+01  1.09293E+01
   1.68333E+01  1.90093E+01  1.68032E+01  1.62895E+01  1.51628E+01  1.72837E+01  1.44060E+01  1.00526E+01  1.28394E+01  1.34486E+01
   1.18413E+01  1.79858E+01  1.06697E+01  1.52300E+01  1.69722E+01  1.78497E+01  1.25383E+01  1.44386E+01  1.48310E+01  1.73570E+01
   1.48425E+01  1.43091E+01  1.36281E+01  1.63657E+01  1.45778E+01  1.90226E+01  1.81616E+01  1.77920E+01  1.40604E+01  1.55293E+01
   1.87164E+01  1.87598E+01  1.85149E+01  1.84841E+01  1.65394E+01  1.94331E+01  1.81093E+01  1.89146E+01  1.91748E+01  2.00068E+01
   2.04734E+01  2.19177E+01  1.96615E+01  1.98383E+01  1.62622E+01  1.45376E+01  1.75289E+01  1.12372E+01  1.30360E+01  1.27376E+01
   7.72333E+00  1.08975E+01  5.87438E+00  7.63432E+00  5.16752E+00  4.30316E+00  3.67796E+00  4.33388E+00  5.50088E+00  4.13270E+00
   2.49637E+00  7.73091E+00  8.65270E+00  4.60604E+00  5.26317E+00  2.56153E+00  6.56976E+00  1.11064E+01  3.04157E+00  5.89703E+00
   3.84146E+00  4.45400E+00  1.04587E+00  4.48837E+00  6.42666E-01  4.55213E-01  4.41308E+00  2.12142E+00  1.66842E+00  4.40438E+00
   4.35560E+00  6.19679E+00  1.27318E+00  1.06732E+00 -1.19912E-01  5.32339E+00  7.49636E-01  3.95290E+00  6.18382E+00  3.17627E+00
   2.47285E+00  7.92332E+00  4.49849E+00  3.89610E+00  7.45841E+00  1.02742E+01  8.51600E+00  9.45944E+00  8.69208E+00  5.29801E+00
   6.10960E+00  4.63051E+00  1.00872E+01  5.67913E+00  6.72685E+00  5.43945E+00  4.80227E+00  3.74353E+00  2.63355E+00  3.72844E+00
   4.98485E-01  4.06620E+00 -1.09237E-01  5.06690E+00  7.33689E-01 -3.31855E-01  1.82107E+00  4.17353E+00  2.15878E+00  1.86707E+00
  -1.00949E+00 -3.26009E-01  2.67657E-01  4.42282E+00 -1.66294E+00  9.83168E-02 -3.83592E+00 -2.76102E+00 -7.70446E-01  9.95864E-01
   3.14734E+00 -2.05733E+00 -8.47989E-01  7.69834E-01  2.59650E-01  5.09661E+00 -2.63079E+00 -3.22002E+00 -1.68599E+00 -1.49195E-01
   6.39343E-01 -4.72254E+00  1.82888E+00 -1.59549E+00  7.67779E-01 -1.21987E+00 -3.98047E+00 -7.77295E-01 -3.51953E-01 -1.77175E-01
   6.02715E-01  5.50526E+00 -6.37435E+00 -2.98268E+00 -4.59677E-01 -3.27071E+00 -1.40930E+00 -1.10422E+00  4.28161E-01 -2.76659E+00
  -4.93759E-01  1.05765E+00 -1.01823E+00  1.01539E-02 -3.31862E+00 -4.48217E+00 -6.29077E-01 -3.63505E+00 -1.16900E+00 -5.47485E+00
  -6.60962E-02 -1.80916E+00 -1.84207E+00 -4.88786E+00 -2.24425E+00  2.44845E+00 -1.25279E-02 -3.05543E-01 -1.51296E-01  4.21871E-01
  -1.01602E+00  2.38770E+00  1.57675E+00 -1.10632E+00 -9.09109E-01  5.53044E-01 -1.72269E+00 -4.38459E+00
 NY points of the fit to the data follow
   8.21337E+01  8.32485E+01  8.41827E+01  8.44720E+01  8.61005E+01  8.92748E+01  9.13829E+01  9.35650E+01  9.54011E+01  9.64858E+01
   9.63146E+01  9.42989E+01  9.03468E+01  8.68871E+01  8.36964E+01  8.16454E+01  8.02041E+01  7.88677E+01  7.75268E+01  7.63122E+01
   7.42388E+01  7.26345E+01  7.19175E+01  7.12370E+01  7.04079E+01  7.02547E+01  7.04003E+01  7.00385E+01  6.97282E+01  6.98313E+01
   7.02730E+01  7.04863E+01  6.98667E+01  6.86833E+01  6.74097E+01  6.58567E+01  6.46345E+01  6.34599E+01  6.22924E+01  6.20194E+01
   6.19996E+01  6.15101E+01  6.12755E+01  6.08588E+01  6.00650E+01  5.91645E+01  5.84032E+01  5.79469E+01  5.75727E+01  5.71637E+01
   5.67247E+01  5.62080E+01  5.56619E+01  5.50853E+01  5.43730E+01  5.35974E+01  5.29656E+01  5.24062E+01  5.17726E+01  5.12046E+01
   5.07215E+01  5.02003E+01  4.96474E+01  4.91377E+01  4.86561E+01  4.82049E+01  4.77610E+01  4.73218E+01  4.69049E+01  4.64996E+01
   4.61040E+01  4.57145E+01  4.53333E+01  4.49591E+01  4.45938E+01  4.42465E+01  4.39541E+01  4.36548E+01  4.33302E+01  4.30353E+01
   4.27165E+01  4.24114E+01  4.22048E+01  4.20112E+01  4.17674E+01  4.15283E+01  4.12850E+01  4.10189E+01  4.07013E+01  4.03128E+01
   3.99465E+01  3.97280E+01  3.99328E+01  4.18773E+01  4.39564E+01  4.44606E+01  4.60425E+01  4.66301E+01  4.71086E+01  5.09261E+01
   5.58024E+01  5.83070E+01  6.06440E+01  6.24962E+01  6.33112E+01  6.17920E+01  5.69066E+01  5.07151E+01  4.67133E+01  4.41339E+01
   4.32444E+01  4.24155E+01  4.11859E+01  4.01100E+01  3.81434E+01  3.55327E+01  3.61311E+01  3.90204E+01  3.99335E+01  4.15454E+01
   4.30026E+01  4.34953E+01  4.65912E+01  5.29164E+01  5.68534E+01  5.98055E+01  6.24065E+01  6.40681E+01  6.35003E+01  5.97142E+01
   5.25782E+01  4.71479E+01  4.34060E+01  4.15707E+01  4.03632E+01  3.86985E+01  3.68975E+01  3.50700E+01  3.16808E+01  2.99792E+01
   2.97378E+01  2.96788E+01  2.94353E+01  2.90839E+01  2.85295E+01  2.80332E+01  2.77561E+01  2.75320E+01  2.73549E+01  2.71980E+01
   2.68791E+01  2.64417E+01  2.60474E+01  2.56937E+01  2.54298E+01  2.53342E+01  2.51113E+01  2.47326E+01  2.43917E+01  2.40141E+01
   2.37032E+01  2.35162E+01  2.32489E+01  2.30157E+01  2.29345E+01  2.27863E+01  2.24375E+01  2.19307E+01  2.13992E+01  2.09397E+01
   2.06296E+01  2.02799E+01  1.99415E+01  1.96268E+01  1.93802E+01  1.91200E+01  1.87782E+01  1.83676E+01  1.83204E+01  1.85437E+01
   1.86838E+01  1.86633E+01  1.85749E+01  1.83597E+01  1.84575E+01  1.87738E+01  1.90357E+01  1.94066E+01  1.98538E+01  2.02893E+01
   2.07106E+01  2.09721E+01  2.09999E+01  2.08039E+01  2.04489E+01  2.02284E+01  2.02152E+01  2.03490E+01  2.05553E+01  2.08629E+01
   2.08965E+01  2.11949E+01  2.13116E+01  2.10764E+01  2.09065E+01  2.06390E+01  2.00322E+01  1.94674E+01  1.86516E+01  1.80123E+01
   1.74982E+01  1.75069E+01  1.82091E+01  1.92439E+01  1.98966E+01  2.04682E+01  2.06805E+01  2.04186E+01  1.91442E+01  1.69196E+01
   1.50206E+01  1.43934E+01  1.41716E+01  1.45548E+01  1.55204E+01  1.69504E+01  1.83980E+01  1.90280E+01  1.87476E+01  1.86232E+01
   1.85157E+01  1.83902E+01  1.83747E+01  1.87491E+01  1.96224E+01  2.02407E+01  2.02563E+01  2.01741E+01  2.00282E+01  1.94875E+01
   1.88425E+01  1.84395E+01  1.82800E+01  1.82883E+01  1.85437E+01  1.90011E+01  1.97232E+01  2.02084E+01  2.02809E+01  2.07214E+01
   2.37787E+01  2.69301E+01  2.82537E+01  3.11338E+01  3.26879E+01  3.40007E+01  3.97013E+01  4.65475E+01  5.00159E+01  5.31838E+01
   5.59360E+01  5.74731E+01  5.57524E+01  4.92287E+01  4.07767E+01  3.50310E+01  3.11821E+01  2.96216E+01  2.80803E+01  2.62120E+01
   2.46784E+01  2.16145E+01  1.74074E+01  1.59551E+01  1.54539E+01  1.51483E+01  1.48346E+01  1.45365E+01  1.41759E+01  1.37882E+01
   1.34348E+01  1.31537E+01  1.29152E+01  1.27275E+01  1.25763E+01  1.24094E+01  1.22487E+01  1.20981E+01  1.19531E+01  1.18288E+01
   1.17265E+01  1.16441E+01  1.16017E+01  1.15820E+01  1.15799E+01  1.16010E+01  1.16448E+01  1.17098E+01  1.17974E+01  1.19125E+01
   1.20498E+01  1.22010E+01  1.23670E+01  1.25417E+01  1.27161E+01  1.28887E+01  1.30512E+01  1.31977E+01  1.33252E+01  1.34309E+01
   1.35151E+01  1.35780E+01  1.36229E+01  1.36569E+01  1.36913E+01  1.37463E+01  1.38701E+01  1.41075E+01  1.41350E+01  1.41203E+01
   1.42086E+01  1.42006E+01  1.43683E+01  1.47808E+01  1.48720E+01  1.49226E+01  1.50922E+01  1.50301E+01  1.49169E+01  1.44830E+01
   1.37768E+01  1.37409E+01  1.43649E+01  1.50291E+01  1.57597E+01  1.64106E+01  1.70265E+01  1.75100E+01  1.74187E+01  1.70342E+01
   1.68293E+01  1.66504E+01  1.66748E+01  1.68442E+01  1.71167E+01  1.75840E+01  1.80601E+01  1.84047E+01  1.88695E+01  1.93425E+01
   1.96875E+01  1.97997E+01  1.96043E+01  1.90650E+01  1.81890E+01  1.70245E+01  1.56516E+01  1.41677E+01  1.26713E+01  1.12479E+01
   9.96087E+00  8.84713E+00  7.91859E+00  7.16722E+00  6.57189E+00  6.10513E+00  5.73845E+00  5.44599E+00  5.20636E+00  5.00318E+00
   4.82479E+00  4.66343E+00  4.51427E+00  4.37448E+00  4.24263E+00  4.11828E+00  4.00163E+00  3.89333E+00  3.79428E+00  3.70546E+00
   3.62801E+00  3.56322E+00  3.51251E+00  3.47741E+00  3.45946E+00  3.46019E+00  3.48119E+00  3.52402E+00  3.59022E+00  3.68107E+00
   3.79753E+00  3.94010E+00  4.10877E+00  4.30290E+00  4.52102E+00  4.76070E+00  5.01844E+00  5.28972E+00  5.56904E+00  5.84999E+00
   6.12537E+00  6.38738E+00  6.62794E+00  6.83905E+00  7.01320E+00  7.14369E+00  7.22490E+00  7.25260E+00  7.22422E+00  7.13899E+00
   6.99799E+00  6.80404E+00  6.56151E+00  6.27609E+00  5.95451E+00  5.60423E+00  5.23303E+00  4.84864E+00  4.45841E+00  4.06906E+00
   3.68655E+00  3.31590E+00  2.96117E+00  2.62531E+00  2.31033E+00  2.01733E+00  1.74673E+00  1.49830E+00  1.27133E+00  1.06466E+00
   8.76917E-01  7.06591E-01  5.52151E-01  4.12082E-01  2.84883E-01  1.69117E-01  6.34692E-02 -3.32228E-02 -1.21970E-01 -2.03669E-01
  -2.79154E-01 -3.49166E-01 -4.14324E-01 -4.75137E-01 -5.32028E-01 -5.85394E-01 -6.35611E-01 -6.83002E-01 -7.27820E-01 -7.70261E-01
  -8.10500E-01 -8.48727E-01 -8.85128E-01 -9.19848E-01 -9.52991E-01 -9.84635E-01 -1.01487E+00 -1.04382E+00 -1.07158E+00 -1.09823E+00
  -1.12381E+00 -1.14836E+00 -1.17194E+00 -1.19463E+00 -1.21651E+00 -1.23759E+00 -1.25790E+00 -1.27746E+00 -1.29634E+00 -1.31460E+00
  -1.33227E+00 -1.34936E+00 -1.36588E+00 -1.38185E+00 -1.39734E+00 -1.41239E+00 -1.42702E+00 -1.44122E+00 -1.45500E+00 -1.46841E+00
  -1.48150E+00 -1.49429E+00 -1.50678E+00 -1.51897E+00 -1.53088E+00 -1.54256E+00 -1.55405E+00 -1.56535E+00 -1.57647E+00 -1.58740E+00
  -1.59818E+00 -1.60885E+00 -1.61944E+00 -1.62995E+00 -1.64038E+00 -1.65072E+00 -1.66103E+00 -1.67135E+00
 NY background values follow
     7.685E+01    7.637E+01    7.590E+01    7.542E+01    7.494E+01    7.446E+01    7.399E+01    7.351E+01    7.303E+01    7.255E+01
     7.208E+01    7.160E+01    7.112E+01    7.065E+01    7.017E+01    6.969E+01    6.922E+01    6.874E+01    6.827E+01    6.780E+01
     6.732E+01    6.685E+01    6.638E+01    6.591E+01    6.544E+01    6.497E+01    6.451E+01    6.404E+01    6.358E+01    6.311E+01
     6.265E+01    6.219E+01    6.173E+01    6.127E+01    6.082E+01    6.036E+01    5.991E+01    5.946E+01    5.901E+01    5.856E+01
     5.811E+01    5.767E+01    5.723E+01    5.679E+01    5.635E+01    5.591E+01    5.548E+01    5.505E+01    5.462E+01    5.419E+01
     5.377E+01    5.334E+01    5.292E+01    5.251E+01    5.209E+01    5.168E+01    5.127E+01    5.086E+01    5.046E+01    5.005E+01
     4.966E+01    4.926E+01    4.886E+01    4.847E+01    4.808E+01    4.770E+01    4.731E+01    4.693E+01    4.655E+01    4.618E+01
     4.581E+01    4.544E+01    4.507E+01    4.471E+01    4.434E+01    4.399E+01    4.363E+01    4.328E+01    4.293E+01    4.259E+01
     4.224E+01    4.190E+01    4.157E+01    4.123E+01    4.091E+01    4.058E+01    4.026E+01    3.994E+01    3.962E+01    3.931E+01
     3.900E+01    3.869E+01    3.839E+01    3.809E+01    3.779E+01    3.750E+01    3.721E+01    3.692E+01    3.664E+01    3.636E+01
     3.608E+01    3.581E+01    3.553E+01    3.527E+01    3.500E+01    3.474E+01    3.448E+01    3.422E+01    3.397E+01    3.372E+01
     3.347E+01    3.322E+01    3.298E+01    3.274E+01    3.250E+01    3.227E+01    3.204E+01    3.181E+01    3.158E+01    3.135E+01
     3.113E+01    3.091E+01    3.069E+01    3.048E+01    3.026E+01    3.005E+01    2.984E+01    2.964E+01    2.943E+01    2.923E+01
     2.903E+01    2.883E+01    2.863E+01    2.844E+01    2.824E+01    2.805E+01    2.786E+01    2.768E+01    2.749E+01    2.731E+01
     2.712E+01    2.694E+01    2.677E+01    2.659E+01    2.641E+01    2.624E+01    2.607E+01    2.590E+01    2.573E+01    2.556E+01
     2.539E+01    2.523E+01    2.507E+01    2.490E+01    2.474E+01    2.459E+01    2.443E+01    2.427E+01    2.412E+01    2.397E+01
     2.381E+01    2.366E+01    2.352E+01    2.337E+01    2.322E+01    2.308E+01    2.293E+01    2.279E+01    2.265E+01    2.251E+01
     2.237E+01    2.223E+01    2.210E+01    2.196E+01    2.183E+01    2.169E+01    2.156E+01    2.143E+01    2.130E+01    2.117E+01
     2.104E+01    2.092E+01    2.079E+01    2.067E+01    2.054E+01    2.042E+01    2.030E+01    2.018E+01    2.005E+01    1.994E+01
     1.982E+01    1.970E+01    1.958E+01    1.946E+01    1.935E+01    1.923E+01    1.912E+01    1.900E+01    1.889E+01    1.878E+01
     1.867E+01    1.856E+01    1.845E+01    1.834E+01    1.823E+01    1.812E+01    1.801E+01    1.790E+01    1.779E+01    1.769E+01
     1.758E+01    1.747E+01    1.737E+01    1.726E+01    1.716E+01    1.705E+01    1.695E+01    1.684E+01    1.674E+01    1.664E+01
     1.653E+01    1.643E+01    1.633E+01    1.622E+01    1.612E+01    1.602E+01    1.592E+01    1.581E+01    1.571E+01    1.561E+01
     1.551E+01    1.541E+01    1.531E+01    1.520E+01    1.510E+01    1.500E+01    1.490E+01    1.480E+01    1.470E+01    1.460E+01
     1.450E+01    1.440E+01    1.430E+01    1.420E+01    1.410E+01    1.400E+01    1.390E+01    1.380E+01    1.370E+01    1.360E+01
     1.350E+01    1.340E+01    1.330E+01    1.320E+01    1.310E+01    1.300E+01    1.290E+01    1.281E+01    1.271E+01    1.261E+01
     1.251E+01    1.241E+01    1.232E+01    1.222E+01    1.212E+01    1.202E+01    1.193E+01    1.183E+01    1.173E+01    1.164E+01
     1.154E+01    1.145E+01    1.135E+01    1.125E+01    1.116E+01    1.106E+01    1.097E+01    1.087E+01    1.078E+01    1.068E+01
     1.059E+01    1.049E+01    1.040E+01    1.030E+01    1.021E+01    1.011E+01    1.002E+01    9.924E+00    9.830E+00    9.735E+00
     9.641E+00    9.548E+00    9.454E+00    9.360E+00    9.266E+00    9.172E+00    9.079E+00    8.985E+00    8.892E+00    8.798E+00
     8.705E+00    8.611E+00    8.518E+00    8.424E+00    8.331E+00    8.237E+00    8.144E+00    8.050E+00    7.957E+00    7.864E+00
     7.770E+00    7.677E+00    7.583E+00    7.490E+00    7.396E+00    7.303E+00    7.209E+00    7.115E+00    7.021E+00    6.928E+00
     6.834E+00    6.740E+00    6.646E+00    6.553E+00    6.459E+00    6.365E+00    6.271E+00    6.178E+00    6.084E+00    5.990E+00
     5.897E+00    5.804E+00    5.710E+00    5.617E+00    5.524E+00    5.431E+00    5.338E+00    5.246E+00    5.153E+00    5.061E+00
     4.969E+00    4.877E+00    4.785E+00    4.693E+00    4.602E+00    4.511E+00    4.420E+00    4.329E+00    4.239E+00    4.149E+00
     4.059E+00    3.969E+00    3.880E+00    3.791E+00    3.702E+00    3.614E+00    3.526E+00    3.438E+00    3.351E+00    3.264E+00
     3.177E+00    3.091E+00    3.005E+00    2.920E+00    2.835E+00    2.750E+00    2.666E+00    2.582E+00    2.499E+00    2.417E+00
     2.334E+00    2.253E+00    2.172E+00    2.091E+00    2.011E+00    1.932E+00    1.853E+00    1.775E+00    1.697E+00    1.620E+00
     1.544E+00    1.468E+00    1.393E+00    1.319E+00    1.246E+00    1.173E+00    1.101E+00    1.030E+00    9.596E-01    8.900E-01
     8.212E-01    7.532E-01    6.861E-01    6.198E-01    5.544E-01    4.899E-01    4.263E-01    3.636E-01    3.019E-01    2.411E-01
     1.812E-01    1.224E-01    6.453E-02    7.689E-03   -4.813E-02   -1.029E-01   -1.566E-01   -2.093E-01   -2.609E-01   -3.114E-01
    -3.608E-01   -4.093E-01   -4.567E-01   -5.030E-01   -5.484E-01   -5.928E-01   -6.362E-01   -6.787E-01   -7.202E-01   -7.608E-01
    -8.004E-01   -8.391E-01   -8.770E-01   -9.139E-01   -9.500E-01   -9.852E-01   -1.020E+00   -1.053E+00   -1.086E+00   -1.118E+00
    -1.149E+00   -1.179E+00   -1.209E+00   -1.237E+00   -1.265E+00   -1.293E+00   -1.319E+00   -1.345E+00   -1.370E+00   -1.394E+00
    -1.418E+00   -1.441E+00   -1.464E+00   -1.486E+00   -1.507E+00   -1.527E+00   -1.547E+00   -1.567E+00   -1.586E+00   -1.604E+00
    -1.622E+00   -1.639E+00   -1.655E+00   -1.672E+00   -1.687E+00   -1.702E+00   -1.717E+00   -1.731E+00   -1.745E+00   -1.758E+00
    -1.771E+00   -1.784E+00   -1.796E+00   -1.808E+00   -1.819E+00   -1.830E+00   -1.841E+00   -1.851E+00   -1.861E+00   -1.870E+00
    -1.880E+00   -1.889E+00   -1.898E+00   -1.906E+00   -1.915E+00   -1.923E+00   -1.930E+00   -1.938E+00   -1.945E+00   -1.953E+00
    -1.960E+00   -1.967E+00   -1.973E+00   -1.980E+00   -1.986E+00   -1.993E+00   -1.999E+00   -2.005E+00   -2.011E+00   -2.017E+00
    -2.023E+00   -2.029E+00   -2.035E+00   -2.041E+00   -2.047E+00   -2.053E+00   -2.059E+00   -2.065E+00
 Ala      Conc. = 2.82E+02
