 LCModel (Version 6.3-1L) Copyright: S.W. Provencher.          Ref.: Magn. Reson. Med. 30:672-679 (1993).                
 Slice#3 Row#11 Col#6  PD_24_press_1_raw_act
 36 lines in following concentration table = NCONC+1
    Conc.  %SD /Cr+PCr  Metabolite                                         
   24.967 329% 1.5E-02 Ala                                                 
    0.000 999%   0.000 Asp                                                 
  743.015  23%   0.436 Cr                                                  
  962.486  18%   0.564 PCr                                                 
    0.000 999%   0.000 GABA                                                
    0.000 999%   0.000 Glc                                                 
  675.490  26%   0.396 Gln                                                 
 1.65E+03  12%   0.965 Glu                                                 
  589.499   3%   0.346 GPC                                                 
    0.000 999%   0.000 PCh                                                 
  443.186  13%   0.260 GSH                                                 
  515.862  38%   0.302 Ins                                                 
    0.000 999%   0.000 Lac                                                 
 2.02E+03   5%   1.186 NAA                                                 
  310.476  32%   0.182 NAAG                                                
   38.381  57% 2.3E-02 Scyllo                                              
    0.000 999%   0.000 Tau                                                 
    0.000 999%   0.000 -CrCH2                                              
  589.499   3%   0.346 GPC+PCh                                             
 2.33E+03   3%   1.368 NAA+NAAG                                            
 1.71E+03   3%   1.000 Cr+PCr                                              
 2.32E+03  12%   1.361 Glu+Gln                                             
    0.000 999%   0.000 Lip13a                                              
  199.456  45%   0.117 Lip13b                                              
   53.297  70% 3.1E-02 Lip09                                               
 1.18E+03  16%   0.693 MM09                                                
   31.293  76% 1.8E-02 Lip20                                               
 2.53E+03  14%   1.486 MM20                                                
  165.795  97% 9.7E-02 MM12                                                
  495.815  49%   0.291 MM14                                                
  514.664  37%   0.302 MM17                                                
  199.456  45%   0.117 Lip13a+Lip13b                                       
  861.066  36%   0.505 MM14+Lip13a+Lip13b+MM12                             
 1.23E+03  16%   0.724 MM09+Lip09                                          
 2.57E+03  14%   1.504 MM20+Lip20                                          
   6 lines in following misc. output table
  FWHM = 0.054 ppm    S/N =  14                                            
  Data shift = 0.031 ppm                                                   
  Ph:   8 deg       1.8 deg/ppm                                            
  alphaB,S = 8.0E-01,   1.6E+02                                            
   14 spline knots.   Ns = 6(1)                                            
  ( 7) 2 infls.   ( 1) 1 extrs.                                            
  498 points on ppm-axis = NY
      4.000000     3.992357     3.984714     3.977070     3.969427     3.961784     3.954141     3.946497     3.938854     3.931211
      3.923568     3.915925     3.908281     3.900638     3.892995     3.885352     3.877708     3.870065     3.862422     3.854779
      3.847136     3.839492     3.831849     3.824206     3.816563     3.808919     3.801276     3.793633     3.785990     3.778347
      3.770703     3.763060     3.755417     3.747774     3.740130     3.732487     3.724844     3.717201     3.709558     3.701914
      3.694271     3.686628     3.678985     3.671341     3.663698     3.656055     3.648412     3.640769     3.633125     3.625482
      3.617839     3.610196     3.602552     3.594909     3.587266     3.579623     3.571980     3.564336     3.556693     3.549050
      3.541407     3.533763     3.526120     3.518477     3.510834     3.503191     3.495547     3.487904     3.480261     3.472618
      3.464974     3.457331     3.449688     3.442045     3.434402     3.426758     3.419115     3.411472     3.403829     3.396185
      3.388542     3.380899     3.373256     3.365613     3.357969     3.350326     3.342683     3.335040     3.327396     3.319753
      3.312110     3.304467     3.296824     3.289180     3.281537     3.273894     3.266251     3.258607     3.250964     3.243321
      3.235678     3.228034     3.220391     3.212748     3.205105     3.197462     3.189818     3.182175     3.174532     3.166889
      3.159245     3.151602     3.143959     3.136316     3.128673     3.121029     3.113386     3.105743     3.098100     3.090456
      3.082813     3.075170     3.067527     3.059884     3.052240     3.044597     3.036954     3.029311     3.021667     3.014024
      3.006381     2.998738     2.991095     2.983451     2.975808     2.968165     2.960522     2.952878     2.945235     2.937592
      2.929949     2.922306     2.914662     2.907019     2.899376     2.891733     2.884089     2.876446     2.868803     2.861160
      2.853517     2.845873     2.838230     2.830587     2.822944     2.815300     2.807657     2.800014     2.792371     2.784728
      2.777084     2.769441     2.761798     2.754155     2.746511     2.738868     2.731225     2.723582     2.715939     2.708295
      2.700652     2.693009     2.685366     2.677722     2.670079     2.662436     2.654793     2.647150     2.639506     2.631863
      2.624220     2.616577     2.608933     2.601290     2.593647     2.586004     2.578361     2.570717     2.563074     2.555431
      2.547788     2.540144     2.532501     2.524858     2.517215     2.509572     2.501928     2.494285     2.486642     2.478999
      2.471355     2.463712     2.456069     2.448426     2.440783     2.433139     2.425496     2.417853     2.410210     2.402566
      2.394923     2.387280     2.379637     2.371994     2.364350     2.356707     2.349064     2.341421     2.333777     2.326134
      2.318491     2.310848     2.303205     2.295561     2.287918     2.280275     2.272632     2.264988     2.257345     2.249702
      2.242059     2.234416     2.226772     2.219129     2.211486     2.203843     2.196199     2.188556     2.180913     2.173270
      2.165627     2.157983     2.150340     2.142697     2.135054     2.127410     2.119767     2.112124     2.104481     2.096838
      2.089194     2.081551     2.073908     2.066265     2.058621     2.050978     2.043335     2.035692     2.028049     2.020405
      2.012762     2.005119     1.997476     1.989833     1.982190     1.974546     1.966903     1.959260     1.951617     1.943974
      1.936331     1.928688     1.921045     1.913402     1.905759     1.898115     1.890472     1.882829     1.875186     1.867543
      1.859900     1.852257     1.844614     1.836971     1.829327     1.821684     1.814041     1.806398     1.798755     1.791112
      1.783469     1.775826     1.768183     1.760540     1.752896     1.745253     1.737610     1.729967     1.722324     1.714681
      1.707038     1.699395     1.691752     1.684108     1.676465     1.668822     1.661179     1.653536     1.645893     1.638250
      1.630607     1.622964     1.615321     1.607677     1.600034     1.592391     1.584748     1.577105     1.569462     1.561819
      1.554176     1.546533     1.538890     1.531246     1.523603     1.515960     1.508317     1.500674     1.493031     1.485388
      1.477745     1.470102     1.462458     1.454815     1.447172     1.439529     1.431886     1.424243     1.416600     1.408957
      1.401314     1.393671     1.386027     1.378384     1.370741     1.363098     1.355455     1.347812     1.340169     1.332526
      1.324883     1.317240     1.309596     1.301953     1.294310     1.286667     1.279024     1.271381     1.263738     1.256095
      1.248452     1.240808     1.233165     1.225522     1.217879     1.210236     1.202593     1.194950     1.187307     1.179664
      1.172021     1.164377     1.156734     1.149091     1.141448     1.133805     1.126162     1.118519     1.110876     1.103233
      1.095590     1.087946     1.080303     1.072660     1.065017     1.057374     1.049731     1.042088     1.034445     1.026802
      1.019158     1.011515     1.003872     0.996229     0.988586     0.980943     0.973300     0.965657     0.958014     0.950371
      0.942727     0.935084     0.927441     0.919798     0.912155     0.904512     0.896869     0.889226     0.881583     0.873940
      0.866296     0.858653     0.851010     0.843367     0.835724     0.828081     0.820438     0.812795     0.805152     0.797508
      0.789865     0.782222     0.774579     0.766936     0.759293     0.751650     0.744007     0.736364     0.728721     0.721077
      0.713434     0.705791     0.698148     0.690505     0.682862     0.675219     0.667576     0.659933     0.652290     0.644646
      0.637003     0.629360     0.621717     0.614074     0.606431     0.598788     0.591145     0.583502     0.575858     0.568215
      0.560572     0.552929     0.545286     0.537643     0.530000     0.522357     0.514714     0.507071     0.499427     0.491784
      0.484141     0.476498     0.468855     0.461212     0.453569     0.445925     0.438282     0.430639     0.422996     0.415353
      0.407710     0.400067     0.392424     0.384780     0.377137     0.369494     0.361851     0.354208     0.346565     0.338922
      0.331278     0.323635     0.315992     0.308349     0.300706     0.293063     0.285420     0.277777     0.270133     0.262490
      0.254847     0.247204     0.239561     0.231918     0.224275     0.216631     0.208988     0.201345
 NY phased data points follow
   2.64846E+01  3.43456E+01  3.78152E+01  3.86350E+01  3.60696E+01  4.84671E+01  5.02761E+01  5.71346E+01  6.13399E+01  7.44235E+01
   7.03512E+01  7.53137E+01  6.84100E+01  6.57655E+01  5.80042E+01  5.08158E+01  4.25257E+01  3.94085E+01  3.53819E+01  2.98037E+01
   2.89155E+01  3.50823E+01  2.98402E+01  3.44201E+01  3.44547E+01  3.44674E+01  3.18270E+01  3.45335E+01  3.48341E+01  3.56172E+01
   3.47737E+01  4.15187E+01  3.38709E+01  3.85595E+01  3.09757E+01  3.36258E+01  2.76876E+01  2.90951E+01  2.94884E+01  2.80502E+01
   2.75001E+01  3.05129E+01  2.87790E+01  2.58120E+01  2.71228E+01  3.15967E+01  3.24197E+01  3.41482E+01  2.69678E+01  3.27162E+01
   2.27859E+01  2.74882E+01  2.26675E+01  1.88237E+01  2.04719E+01  2.15780E+01  1.82242E+01  2.27786E+01  1.88851E+01  2.46850E+01
   2.03478E+01  1.99962E+01  1.15105E+01  1.48422E+01  1.41229E+01  1.17257E+01  1.07401E+01  1.13020E+01  8.85854E+00  1.05253E+01
   1.05908E+01  1.59528E+01  1.66312E+01  1.36284E+01  1.57415E+01  1.72192E+01  1.53873E+01  1.03945E+01  1.19992E+01  1.37602E+01
   1.10493E+01  1.32027E+01  1.17051E+01  1.18019E+01  9.60596E+00  1.51532E+01  1.23632E+01  1.58692E+01  9.84539E+00  1.28565E+01
   1.36825E+01  1.35180E+01  1.39518E+01  1.16785E+01  7.46588E+00  1.27510E+01  1.04334E+01  1.29044E+01  1.62414E+01  2.80357E+01
   4.19000E+01  5.77303E+01  6.30507E+01  6.87949E+01  6.43522E+01  5.81174E+01  4.40500E+01  3.64605E+01  2.91440E+01  2.15071E+01
   1.63910E+01  1.69821E+01  9.61075E+00  1.16382E+01  1.31346E+01  1.33660E+01  8.90619E+00  9.56291E+00  7.21034E+00  9.81220E+00
   6.19743E+00  1.10341E+01  1.04334E+01  2.33900E+01  3.47158E+01  4.87161E+01  6.11504E+01  6.81446E+01  5.85327E+01  5.74046E+01
   4.38456E+01  3.60632E+01  2.91347E+01  2.43043E+01  1.20285E+01  1.14814E+01  8.07049E+00  9.41488E+00  1.80130E+00  7.08105E+00
   7.05420E+00  5.85947E+00  8.52103E+00  8.00781E+00  6.69597E+00  4.29797E+00  4.52700E+00  4.76400E+00  5.62374E+00  2.06727E+00
   2.80449E+00  2.94170E+00 -2.64453E-01  3.45127E+00  2.23844E+00  3.11883E+00  1.72301E+00 -1.80673E-01  2.40226E+00  1.94171E+00
  -2.06903E+00  5.27098E-01  6.82907E-01  7.16518E-01  2.94893E+00  5.31522E+00  9.75816E-02  2.24546E+00 -6.53398E-01 -5.73019E+00
  -5.40229E+00  7.69990E-01 -3.83306E+00 -5.08613E+00 -8.63763E+00 -7.09572E+00 -9.63827E+00 -3.75916E+00 -8.00587E+00 -9.21753E+00
  -7.22634E+00 -9.11754E+00 -8.56303E+00 -5.81530E+00 -6.76965E+00 -9.77116E+00 -9.37686E+00 -3.24709E+00  8.70944E-01  5.20582E-01
   2.73870E+00  8.39593E+00  2.03377E+00  6.94470E+00  5.64606E+00  4.17545E+00 -8.71187E-01  2.66828E+00 -3.88138E-01 -1.98515E+00
   1.79303E-01  1.46085E+00  5.23476E-01  4.37099E+00  5.27764E+00  9.70473E-01  2.11236E+00 -1.22603E+00 -1.09919E+00 -3.20292E+00
  -7.31994E+00 -2.51547E+00 -1.02673E+00  5.64585E+00  1.10930E+01  1.25517E+01  1.24530E+01  1.18511E+01  7.67688E+00  2.65583E+00
  -1.47106E+00 -1.11889E+00 -4.77362E+00  2.07047E+00 -1.87653E-01  1.11950E+00  7.47664E+00  7.46442E+00  1.18143E+01  1.12923E+01
   1.07208E+01  7.33980E+00  7.71170E+00  1.04868E+01  7.45129E+00  9.16195E+00  4.59898E+00  7.58231E+00  2.80223E+00  5.21478E+00
   5.85783E+00  5.17481E+00  1.62592E+00  1.28474E+00  4.90114E+00  8.11706E+00  6.76766E+00  8.76911E+00  7.31686E+00  8.28060E+00
   3.51370E+00  3.92524E+00  1.10474E+01  1.89952E+01  2.52233E+01  3.09311E+01  4.04858E+01  5.19404E+01  6.63719E+01  8.31328E+01
   8.27198E+01  7.88578E+01  6.82997E+01  5.29937E+01  3.82910E+01  2.95858E+01  2.00912E+01  1.17378E+01  1.09372E+01  1.18076E+01
   4.11627E+00  5.03410E+00  3.33332E+00  3.45581E+00  2.52956E+00  5.66780E+00  5.54046E+00  3.75905E+00  5.60507E-01  5.09344E+00
   7.28788E+00  4.64203E+00  6.47620E+00  1.85699E+00 -5.79117E-01  9.74960E-02  3.98767E+00  2.33727E+00 -2.24069E-01 -1.08871E+00
   2.17791E+00  1.22361E+00  1.06843E+00 -1.24009E+00 -1.05045E-01  9.73173E-03  2.88237E-01 -1.59595E+00 -4.86786E-02  4.20872E-01
   7.43634E-01  3.59926E+00  1.10812E+00  3.25216E+00  2.07694E+00  3.33947E+00  3.48161E+00  3.91980E+00  1.94293E+00  6.62282E+00
   4.11949E+00  4.95028E+00  9.94961E-01  4.65728E+00  6.89561E+00  2.98419E+00  3.74807E+00  1.03581E+00  2.29556E+00  6.03135E+00
  -9.79213E-01  2.92837E+00  2.81015E+00  6.95195E-01  1.18122E+00 -3.90429E-01  5.32759E-01  1.40115E+00 -2.32229E-01  6.97501E-01
   2.65995E+00  2.61583E+00  4.24709E-01  3.86978E+00 -7.63458E-01 -1.16545E+00 -1.29164E-01  2.20506E+00  3.21343E+00  1.48703E+00
   4.47474E+00  1.63959E+00  3.45629E+00  4.46774E+00  2.36197E+00  6.02290E+00  2.59545E+00  4.62881E+00  9.80355E+00  3.55745E+00
   4.20479E+00  5.13603E+00  4.35793E+00  3.23590E+00  4.66322E+00  2.48765E+00  4.71989E+00  5.44823E+00  1.17773E-02  5.50806E+00
  -1.84273E+00  2.91330E-01 -8.70395E-01  9.18643E-02  1.07977E+00 -1.46008E-01 -3.30160E+00  7.00649E-01 -1.31404E+00 -5.55279E-01
   1.57440E+00 -1.97764E+00  1.88842E+00  8.30599E-01  5.48117E-01  3.49295E+00  4.42196E+00  3.29365E+00  3.22172E+00  1.24016E+00
   3.49389E+00  2.52924E+00  2.03125E+00  4.42046E+00  3.70073E+00  4.30448E+00  9.51948E+00  5.89320E+00  4.96205E+00  5.35300E+00
   7.53375E+00  8.48933E+00  5.23084E+00  7.44736E+00  6.58448E+00  4.41164E+00  7.10607E+00  3.75339E+00  6.92572E+00  8.25297E+00
   7.06106E+00  5.53986E+00  6.32033E+00  5.22998E+00  9.19715E+00  8.78828E+00  1.29667E+01  1.20036E+01  1.28829E+01  6.43468E+00
   4.47295E+00  8.24418E+00  6.73043E+00  1.12046E+01  4.46473E+00  6.54579E+00  1.94992E+00  6.07319E+00  1.65367E+00  4.40501E+00
   4.51607E+00  7.65103E+00  4.52388E+00  2.95219E+00  6.39555E+00  3.70883E+00  6.11596E+00  8.58598E+00  6.22085E-01  5.66653E+00
  -8.99867E-01  1.56429E+00  5.05384E+00  4.63664E+00  1.26304E+00  4.56739E+00  9.47058E-02  5.24050E+00  1.69574E-01  5.16865E+00
   1.20113E+00  2.56438E+00  1.08965E+00  6.67068E-01 -3.40165E-01 -2.46152E+00  6.73856E-01  3.52075E+00  7.90816E-01  3.25098E+00
   1.70473E+00  3.49477E+00  7.05840E+00  3.07966E+00  2.46489E+00  1.24595E-01 -2.31550E-01 -6.77751E-01  4.01386E+00  1.55519E+00
   3.05531E+00  1.35821E+00  2.39462E+00  5.27046E-01  1.48959E+00  9.41638E-01 -9.54158E-01  2.73004E+00  4.77147E+00  3.67687E-01
  -3.49452E-01  3.28057E+00 -4.49918E-01  1.36338E+00 -2.87118E-01  2.76172E+00  2.31293E+00  2.08568E-01  3.40243E+00 -5.53046E-01
   2.60078E+00  1.43067E+00  1.78497E+00  4.38695E-01  3.61493E+00  3.97560E+00  3.74047E+00  2.29463E+00 -2.93331E-01  2.89180E+00
   3.57925E-01 -2.37053E+00 -1.51541E+00  2.43480E+00  3.16965E-01  1.97880E+00  3.49258E+00  9.69608E-01
 NY points of the fit to the data follow
   3.41836E+01  3.40706E+01  3.42684E+01  3.51230E+01  3.73129E+01  4.13309E+01  4.74502E+01  5.50830E+01  6.28058E+01  6.87751E+01
   7.15080E+01  7.05287E+01  6.64570E+01  6.06356E+01  5.43549E+01  4.83750E+01  4.30551E+01  3.87901E+01  3.58387E+01  3.39400E+01
   3.29412E+01  3.22499E+01  3.15481E+01  3.08380E+01  3.03816E+01  3.03764E+01  3.10305E+01  3.24906E+01  3.45569E+01  3.67194E+01
   3.83933E+01  3.91095E+01  3.85545E+01  3.68154E+01  3.43226E+01  3.14446E+01  2.85971E+01  2.65059E+01  2.55776E+01  2.53464E+01
   2.55303E+01  2.60989E+01  2.68746E+01  2.76861E+01  2.84196E+01  2.89677E+01  2.90936E+01  2.87192E+01  2.79947E+01  2.69652E+01
   2.57692E+01  2.46182E+01  2.35534E+01  2.25358E+01  2.16979E+01  2.11749E+01  2.08934E+01  2.07059E+01  2.05407E+01  2.03158E+01
   1.99398E+01  1.93885E+01  1.87140E+01  1.80344E+01  1.74460E+01  1.69838E+01  1.66582E+01  1.64710E+01  1.63929E+01  1.63671E+01
   1.63336E+01  1.62300E+01  1.60303E+01  1.57419E+01  1.53948E+01  1.50333E+01  1.46871E+01  1.43662E+01  1.40652E+01  1.37986E+01
   1.36218E+01  1.35703E+01  1.36276E+01  1.37397E+01  1.38082E+01  1.37139E+01  1.33902E+01  1.28808E+01  1.23092E+01  1.18008E+01
   1.14390E+01  1.12262E+01  1.11017E+01  1.10259E+01  1.10328E+01  1.11696E+01  1.17105E+01  1.40735E+01  1.98326E+01  2.94151E+01
   4.20022E+01  5.50225E+01  6.47913E+01  6.84213E+01  6.54646E+01  5.76202E+01  4.74977E+01  3.74549E+01  2.85224E+01  2.06293E+01
   1.41647E+01  1.05639E+01  9.40014E+00  8.91964E+00  8.63506E+00  8.43459E+00  8.28135E+00  8.17122E+00  8.13555E+00  8.25691E+00
   8.79665E+00  1.08938E+01  1.61749E+01  2.51730E+01  3.73212E+01  5.04240E+01  6.10012E+01  6.59940E+01  6.45249E+01  5.79412E+01
   4.86098E+01  3.87991E+01  2.96171E+01  2.10510E+01  1.34216E+01  8.36146E+00  6.34779E+00  5.68637E+00  5.68395E+00  6.00611E+00
   6.39733E+00  6.71021E+00  6.83380E+00  6.70089E+00  6.36781E+00  5.91790E+00  5.40942E+00  4.90505E+00  4.42237E+00  3.98197E+00
   3.58962E+00  3.22595E+00  2.91248E+00  2.68825E+00  2.55783E+00  2.44274E+00  2.25014E+00  1.91107E+00  1.42618E+00  9.34358E-01
   6.03527E-01  5.21528E-01  6.22889E-01  7.29276E-01  6.60388E-01  3.35032E-01 -1.61857E-01 -6.75046E-01 -1.12621E+00 -1.55601E+00
  -2.01601E+00 -2.54817E+00 -3.10135E+00 -3.56856E+00 -3.89982E+00 -4.04684E+00 -4.00587E+00 -3.88711E+00 -3.82120E+00 -3.84813E+00
  -3.91664E+00 -3.97615E+00 -3.98793E+00 -3.94728E+00 -3.82301E+00 -3.40957E+00 -2.46804E+00 -1.02889E+00  6.18463E-01  2.05733E+00
   3.00650E+00  3.33646E+00  3.05229E+00  2.29917E+00  1.27739E+00  2.02951E-01 -5.83704E-01 -7.93665E-01 -3.10895E-01  8.22015E-01
   2.44382E+00  4.20928E+00  5.69705E+00  6.56894E+00  6.51170E+00  5.31492E+00  3.08777E+00  2.66764E-01 -2.53905E+00 -4.62605E+00
  -5.25720E+00 -4.08998E+00 -1.34397E+00  2.28134E+00  5.79167E+00  8.14386E+00  8.65945E+00  7.18561E+00  4.01209E+00  2.49380E-02
  -3.64686E+00 -6.14905E+00 -6.92285E+00 -5.86098E+00 -3.29099E+00 -1.51198E-01  2.62441E+00  4.62143E+00  5.80682E+00  6.31304E+00
   6.24623E+00  5.88714E+00  5.69452E+00  5.86350E+00  6.23392E+00  6.63320E+00  6.93482E+00  6.98296E+00  6.71212E+00  6.13897E+00
   5.42632E+00  4.85078E+00  4.67464E+00  4.98877E+00  5.61445E+00  6.33772E+00  6.97930E+00  7.38184E+00  7.59357E+00  7.92355E+00
   8.85602E+00  1.05573E+01  1.30997E+01  1.65585E+01  2.18435E+01  3.00753E+01  4.14672E+01  5.53499E+01  6.92579E+01  7.93519E+01
   8.24358E+01  7.78936E+01  6.75587E+01  5.45821E+01  4.20644E+01  3.11017E+01  2.12978E+01  1.30021E+01  8.06405E+00  6.23611E+00
   5.35394E+00  4.84541E+00  4.58310E+00  4.43064E+00  4.26168E+00  4.04781E+00  3.77080E+00  3.44501E+00  3.10427E+00  2.77581E+00
   2.47349E+00  2.21925E+00  2.02900E+00  1.88958E+00  1.77086E+00  1.65005E+00  1.52981E+00  1.42303E+00  1.33685E+00  1.27525E+00
   1.24968E+00  1.26467E+00  1.31367E+00  1.38185E+00  1.46096E+00  1.54700E+00  1.63950E+00  1.74121E+00  1.85561E+00  1.98502E+00
   2.13236E+00  2.29384E+00  2.46080E+00  2.62380E+00  2.77537E+00  2.91001E+00  3.02234E+00  3.10699E+00  3.16295E+00  3.19043E+00
   3.18934E+00  3.16118E+00  3.10830E+00  3.03368E+00  2.94130E+00  2.83582E+00  2.72231E+00  2.60618E+00  2.49314E+00  2.38920E+00
   2.30153E+00  2.23962E+00  2.20512E+00  2.18845E+00  2.17365E+00  2.14030E+00  2.07315E+00  1.97260E+00  1.85475E+00  1.74677E+00
   1.67860E+00  1.66908E+00  1.72358E+00  1.83435E+00  1.98367E+00  2.14447E+00  2.27809E+00  2.36097E+00  2.39730E+00  2.40212E+00
   2.39084E+00  2.37237E+00  2.35544E+00  2.36229E+00  2.41409E+00  2.51466E+00  2.66700E+00  2.87128E+00  3.12098E+00  3.40119E+00
   3.68877E+00  3.95457E+00  4.16729E+00  4.29861E+00  4.32827E+00  4.24812E+00  4.06380E+00  3.79366E+00  3.46515E+00  3.10969E+00
   2.75749E+00  2.43336E+00  2.15426E+00  1.92869E+00  1.75760E+00  1.63644E+00  1.55749E+00  1.51210E+00  1.49224E+00  1.49132E+00
   1.50445E+00  1.52842E+00  1.56145E+00  1.60298E+00  1.65335E+00  1.71342E+00  1.78434E+00  1.86751E+00  1.96451E+00  2.07714E+00
   2.20723E+00  2.35661E+00  2.52695E+00  2.71981E+00  2.93661E+00  3.17856E+00  3.44641E+00  3.74036E+00  4.05986E+00  4.40369E+00
   4.76977E+00  5.15513E+00  5.55570E+00  5.96634E+00  6.38092E+00  6.79248E+00  7.19343E+00  7.57568E+00  7.93090E+00  8.25084E+00
   8.52774E+00  8.75471E+00  8.92606E+00  9.03747E+00  9.08622E+00  9.07129E+00  8.99357E+00  8.85575E+00  8.66214E+00  8.41841E+00
   8.13130E+00  7.80833E+00  7.45756E+00  7.08716E+00  6.70510E+00  6.31878E+00  5.93485E+00  5.55916E+00  5.19664E+00  4.85120E+00
   4.52574E+00  4.22216E+00  3.94150E+00  3.68415E+00  3.44992E+00  3.23812E+00  3.04764E+00  2.87708E+00  2.72493E+00  2.58968E+00
   2.46979E+00  2.36376E+00  2.27009E+00  2.18738E+00  2.11438E+00  2.05001E+00  1.99330E+00  1.94335E+00  1.89929E+00  1.86041E+00
   1.82612E+00  1.79594E+00  1.76941E+00  1.74609E+00  1.72558E+00  1.70755E+00  1.69177E+00  1.67805E+00  1.66615E+00  1.65585E+00
   1.64695E+00  1.63931E+00  1.63287E+00  1.62753E+00  1.62317E+00  1.61965E+00  1.61688E+00  1.61483E+00  1.61347E+00  1.61275E+00
   1.61257E+00  1.61286E+00  1.61358E+00  1.61475E+00  1.61637E+00  1.61837E+00  1.62068E+00  1.62327E+00  1.62614E+00  1.62931E+00
   1.63277E+00  1.63648E+00  1.64037E+00  1.64445E+00  1.64874E+00  1.65327E+00  1.65801E+00  1.66290E+00  1.66791E+00  1.67306E+00
   1.67839E+00  1.68391E+00  1.68958E+00  1.69535E+00  1.70122E+00  1.70723E+00  1.71342E+00  1.71977E+00  1.72623E+00  1.73278E+00
   1.73944E+00  1.74626E+00  1.75325E+00  1.76039E+00  1.76763E+00  1.77498E+00  1.78248E+00  1.79018E+00
 NY background values follow
     3.210E+01    3.184E+01    3.158E+01    3.132E+01    3.106E+01    3.080E+01    3.053E+01    3.027E+01    3.001E+01    2.975E+01
     2.948E+01    2.922E+01    2.896E+01    2.870E+01    2.844E+01    2.817E+01    2.791E+01    2.765E+01    2.739E+01    2.713E+01
     2.687E+01    2.661E+01    2.634E+01    2.608E+01    2.582E+01    2.557E+01    2.531E+01    2.505E+01    2.479E+01    2.453E+01
     2.427E+01    2.402E+01    2.376E+01    2.350E+01    2.325E+01    2.299E+01    2.274E+01    2.248E+01    2.223E+01    2.198E+01
     2.173E+01    2.148E+01    2.123E+01    2.098E+01    2.073E+01    2.048E+01    2.023E+01    1.999E+01    1.974E+01    1.950E+01
     1.925E+01    1.901E+01    1.877E+01    1.853E+01    1.829E+01    1.805E+01    1.781E+01    1.758E+01    1.734E+01    1.711E+01
     1.687E+01    1.664E+01    1.641E+01    1.618E+01    1.595E+01    1.572E+01    1.550E+01    1.527E+01    1.505E+01    1.483E+01
     1.461E+01    1.439E+01    1.417E+01    1.395E+01    1.373E+01    1.352E+01    1.331E+01    1.309E+01    1.288E+01    1.268E+01
     1.247E+01    1.226E+01    1.206E+01    1.186E+01    1.165E+01    1.145E+01    1.126E+01    1.106E+01    1.087E+01    1.067E+01
     1.048E+01    1.029E+01    1.010E+01    9.917E+00    9.733E+00    9.550E+00    9.368E+00    9.189E+00    9.011E+00    8.835E+00
     8.660E+00    8.488E+00    8.316E+00    8.147E+00    7.979E+00    7.813E+00    7.649E+00    7.486E+00    7.325E+00    7.165E+00
     7.008E+00    6.851E+00    6.697E+00    6.544E+00    6.393E+00    6.243E+00    6.096E+00    5.949E+00    5.805E+00    5.662E+00
     5.520E+00    5.381E+00    5.243E+00    5.106E+00    4.971E+00    4.838E+00    4.707E+00    4.577E+00    4.448E+00    4.322E+00
     4.197E+00    4.073E+00    3.951E+00    3.831E+00    3.712E+00    3.595E+00    3.480E+00    3.366E+00    3.254E+00    3.143E+00
     3.034E+00    2.926E+00    2.820E+00    2.716E+00    2.613E+00    2.512E+00    2.413E+00    2.314E+00    2.218E+00    2.123E+00
     2.030E+00    1.938E+00    1.848E+00    1.759E+00    1.672E+00    1.586E+00    1.502E+00    1.420E+00    1.339E+00    1.259E+00
     1.181E+00    1.105E+00    1.030E+00    9.568E-01    8.850E-01    8.147E-01    7.459E-01    6.787E-01    6.129E-01    5.487E-01
     4.860E-01    4.248E-01    3.650E-01    3.068E-01    2.501E-01    1.948E-01    1.411E-01    8.879E-02    3.800E-02   -1.131E-02
    -5.915E-02   -1.055E-01   -1.504E-01   -1.939E-01   -2.359E-01   -2.766E-01   -3.160E-01   -3.541E-01   -3.908E-01   -4.264E-01
    -4.607E-01   -4.939E-01   -5.259E-01   -5.568E-01   -5.867E-01   -6.155E-01   -6.432E-01   -6.700E-01   -6.959E-01   -7.208E-01
    -7.448E-01   -7.680E-01   -7.904E-01   -8.119E-01   -8.327E-01   -8.528E-01   -8.722E-01   -8.909E-01   -9.090E-01   -9.265E-01
    -9.435E-01   -9.599E-01   -9.758E-01   -9.912E-01   -1.006E+00   -1.021E+00   -1.035E+00   -1.049E+00   -1.062E+00   -1.076E+00
    -1.089E+00   -1.102E+00   -1.114E+00   -1.127E+00   -1.139E+00   -1.151E+00   -1.164E+00   -1.176E+00   -1.188E+00   -1.200E+00
    -1.212E+00   -1.224E+00   -1.236E+00   -1.248E+00   -1.260E+00   -1.272E+00   -1.284E+00   -1.295E+00   -1.307E+00   -1.318E+00
    -1.330E+00   -1.341E+00   -1.352E+00   -1.363E+00   -1.374E+00   -1.385E+00   -1.395E+00   -1.406E+00   -1.416E+00   -1.426E+00
    -1.436E+00   -1.446E+00   -1.455E+00   -1.465E+00   -1.474E+00   -1.483E+00   -1.492E+00   -1.501E+00   -1.509E+00   -1.517E+00
    -1.525E+00   -1.533E+00   -1.541E+00   -1.548E+00   -1.555E+00   -1.562E+00   -1.568E+00   -1.574E+00   -1.580E+00   -1.586E+00
    -1.592E+00   -1.597E+00   -1.602E+00   -1.606E+00   -1.610E+00   -1.614E+00   -1.618E+00   -1.621E+00   -1.624E+00   -1.627E+00
    -1.629E+00   -1.632E+00   -1.633E+00   -1.635E+00   -1.636E+00   -1.637E+00   -1.638E+00   -1.638E+00   -1.638E+00   -1.638E+00
    -1.638E+00   -1.637E+00   -1.636E+00   -1.634E+00   -1.632E+00   -1.630E+00   -1.628E+00   -1.626E+00   -1.623E+00   -1.620E+00
    -1.616E+00   -1.612E+00   -1.608E+00   -1.604E+00   -1.599E+00   -1.594E+00   -1.589E+00   -1.584E+00   -1.578E+00   -1.572E+00
    -1.565E+00   -1.559E+00   -1.552E+00   -1.544E+00   -1.537E+00   -1.529E+00   -1.521E+00   -1.512E+00   -1.503E+00   -1.494E+00
    -1.485E+00   -1.476E+00   -1.466E+00   -1.455E+00   -1.445E+00   -1.434E+00   -1.423E+00   -1.412E+00   -1.401E+00   -1.389E+00
    -1.377E+00   -1.364E+00   -1.352E+00   -1.339E+00   -1.326E+00   -1.312E+00   -1.299E+00   -1.285E+00   -1.271E+00   -1.256E+00
    -1.242E+00   -1.227E+00   -1.211E+00   -1.196E+00   -1.180E+00   -1.165E+00   -1.148E+00   -1.132E+00   -1.116E+00   -1.099E+00
    -1.082E+00   -1.064E+00   -1.047E+00   -1.029E+00   -1.011E+00   -9.930E-01   -9.746E-01   -9.560E-01   -9.372E-01   -9.182E-01
    -8.989E-01   -8.795E-01   -8.598E-01   -8.399E-01   -8.199E-01   -7.996E-01   -7.792E-01   -7.586E-01   -7.378E-01   -7.168E-01
    -6.957E-01   -6.745E-01   -6.531E-01   -6.316E-01   -6.100E-01   -5.883E-01   -5.664E-01   -5.445E-01   -5.224E-01   -5.003E-01
    -4.781E-01   -4.558E-01   -4.334E-01   -4.110E-01   -3.886E-01   -3.661E-01   -3.436E-01   -3.210E-01   -2.984E-01   -2.758E-01
    -2.532E-01   -2.306E-01   -2.080E-01   -1.855E-01   -1.629E-01   -1.404E-01   -1.179E-01   -9.549E-02   -7.311E-02   -5.079E-02
    -2.853E-02   -6.354E-03    1.574E-02    3.775E-02    5.966E-02    8.147E-02    1.032E-01    1.247E-01    1.462E-01    1.675E-01
     1.887E-01    2.098E-01    2.308E-01    2.516E-01    2.723E-01    2.928E-01    3.132E-01    3.335E-01    3.537E-01    3.737E-01
     3.936E-01    4.133E-01    4.329E-01    4.523E-01    4.716E-01    4.908E-01    5.098E-01    5.287E-01    5.474E-01    5.660E-01
     5.844E-01    6.027E-01    6.208E-01    6.387E-01    6.565E-01    6.742E-01    6.917E-01    7.090E-01    7.262E-01    7.432E-01
     7.600E-01    7.767E-01    7.932E-01    8.096E-01    8.257E-01    8.417E-01    8.576E-01    8.732E-01    8.887E-01    9.040E-01
     9.192E-01    9.342E-01    9.489E-01    9.635E-01    9.780E-01    9.922E-01    1.006E+00    1.020E+00    1.034E+00    1.048E+00
     1.061E+00    1.075E+00    1.088E+00    1.101E+00    1.114E+00    1.127E+00    1.139E+00    1.152E+00    1.164E+00    1.177E+00
     1.189E+00    1.201E+00    1.213E+00    1.225E+00    1.237E+00    1.249E+00    1.261E+00    1.273E+00    1.284E+00    1.296E+00
     1.308E+00    1.319E+00    1.331E+00    1.342E+00    1.353E+00    1.365E+00    1.376E+00    1.388E+00    1.399E+00    1.410E+00
     1.422E+00    1.433E+00    1.444E+00    1.455E+00    1.467E+00    1.478E+00    1.490E+00    1.501E+00
 Ala      Conc. = 2.50E+01
