 LCModel (Version 6.3-1L) Copyright: S.W. Provencher.          Ref.: Magn. Reson. Med. 30:672-679 (1993).                
 Slice#2 Row#6 Col#10  PD_24_press_1_raw_act
 36 lines in following concentration table = NCONC+1
    Conc.  %SD /Cr+PCr  Metabolite                                         
   28.325 394% 1.6E-02 Ala                                                 
  105.118 244% 6.0E-02 Asp                                                 
  395.151  61%   0.226 Cr                                                  
 1.35E+03  18%   0.774 PCr                                                 
   28.145 673% 1.6E-02 GABA                                                
    0.000 999%   0.000 Glc                                                 
  722.830  31%   0.413 Gln                                                 
 2.18E+03  13%   1.245 Glu                                                 
  893.873   3%   0.511 GPC                                                 
    0.000 999%   0.000 PCh                                                 
  445.721  17%   0.255 GSH                                                 
 1.38E+03  19%   0.786 Ins                                                 
    0.000 999%   0.000 Lac                                                 
 2.98E+03   3%   1.703 NAA                                                 
    0.000 999%   0.000 NAAG                                                
  232.397  13%   0.133 Scyllo                                              
    0.000 999%   0.000 Tau                                                 
  315.489  37%   0.180 -CrCH2                                              
  893.873   3%   0.511 GPC+PCh                                             
 2.98E+03   3%   1.703 NAA+NAAG                                            
 1.75E+03   3%   1.000 Cr+PCr                                              
 2.90E+03  13%   1.658 Glu+Gln                                             
 1.21E+03  42%   0.689 Lip13a                                              
  210.648  81%   0.120 Lip13b                                              
    0.000 999%   0.000 Lip09                                               
 1.64E+03  13%   0.939 MM09                                                
  264.636  73%   0.151 Lip20                                               
 3.67E+03  11%   2.098 MM20                                                
  635.770  22%   0.363 MM12                                                
 1.82E+03  20%   1.040 MM14                                                
 1.52E+03  18%   0.869 MM17                                                
 1.42E+03  30%   0.810 Lip13a+Lip13b                                       
 3.87E+03  12%   2.214 MM14+Lip13a+Lip13b+MM12                             
 1.64E+03  13%   0.939 MM09+Lip09                                          
 3.93E+03  10%   2.249 MM20+Lip20                                          
   6 lines in following misc. output table
  FWHM = 0.061 ppm    S/N =  15                                            
  Data shift = 0.008 ppm                                                   
  Ph: -33 deg      -8.8 deg/ppm                                            
  alphaB,S = 1.0E+00,   1.6E+02                                            
   14 spline knots.   Ns = 7(1)                                            
  (10) 2 infls.   ( 3) 1 extrs.                                            
  498 points on ppm-axis = NY
      4.000000     3.992357     3.984714     3.977070     3.969427     3.961784     3.954141     3.946497     3.938854     3.931211
      3.923568     3.915925     3.908281     3.900638     3.892995     3.885352     3.877708     3.870065     3.862422     3.854779
      3.847136     3.839492     3.831849     3.824206     3.816563     3.808919     3.801276     3.793633     3.785990     3.778347
      3.770703     3.763060     3.755417     3.747774     3.740130     3.732487     3.724844     3.717201     3.709558     3.701914
      3.694271     3.686628     3.678985     3.671341     3.663698     3.656055     3.648412     3.640769     3.633125     3.625482
      3.617839     3.610196     3.602552     3.594909     3.587266     3.579623     3.571980     3.564336     3.556693     3.549050
      3.541407     3.533763     3.526120     3.518477     3.510834     3.503191     3.495547     3.487904     3.480261     3.472618
      3.464974     3.457331     3.449688     3.442045     3.434402     3.426758     3.419115     3.411472     3.403829     3.396185
      3.388542     3.380899     3.373256     3.365613     3.357969     3.350326     3.342683     3.335040     3.327396     3.319753
      3.312110     3.304467     3.296824     3.289180     3.281537     3.273894     3.266251     3.258607     3.250964     3.243321
      3.235678     3.228034     3.220391     3.212748     3.205105     3.197462     3.189818     3.182175     3.174532     3.166889
      3.159245     3.151602     3.143959     3.136316     3.128673     3.121029     3.113386     3.105743     3.098100     3.090456
      3.082813     3.075170     3.067527     3.059884     3.052240     3.044597     3.036954     3.029311     3.021667     3.014024
      3.006381     2.998738     2.991095     2.983451     2.975808     2.968165     2.960522     2.952878     2.945235     2.937592
      2.929949     2.922306     2.914662     2.907019     2.899376     2.891733     2.884089     2.876446     2.868803     2.861160
      2.853517     2.845873     2.838230     2.830587     2.822944     2.815300     2.807657     2.800014     2.792371     2.784728
      2.777084     2.769441     2.761798     2.754155     2.746511     2.738868     2.731225     2.723582     2.715939     2.708295
      2.700652     2.693009     2.685366     2.677722     2.670079     2.662436     2.654793     2.647150     2.639506     2.631863
      2.624220     2.616577     2.608933     2.601290     2.593647     2.586004     2.578361     2.570717     2.563074     2.555431
      2.547788     2.540144     2.532501     2.524858     2.517215     2.509572     2.501928     2.494285     2.486642     2.478999
      2.471355     2.463712     2.456069     2.448426     2.440783     2.433139     2.425496     2.417853     2.410210     2.402566
      2.394923     2.387280     2.379637     2.371994     2.364350     2.356707     2.349064     2.341421     2.333777     2.326134
      2.318491     2.310848     2.303205     2.295561     2.287918     2.280275     2.272632     2.264988     2.257345     2.249702
      2.242059     2.234416     2.226772     2.219129     2.211486     2.203843     2.196199     2.188556     2.180913     2.173270
      2.165627     2.157983     2.150340     2.142697     2.135054     2.127410     2.119767     2.112124     2.104481     2.096838
      2.089194     2.081551     2.073908     2.066265     2.058621     2.050978     2.043335     2.035692     2.028049     2.020405
      2.012762     2.005119     1.997476     1.989833     1.982190     1.974546     1.966903     1.959260     1.951617     1.943974
      1.936331     1.928688     1.921045     1.913402     1.905759     1.898115     1.890472     1.882829     1.875186     1.867543
      1.859900     1.852257     1.844614     1.836971     1.829327     1.821684     1.814041     1.806398     1.798755     1.791112
      1.783469     1.775826     1.768183     1.760540     1.752896     1.745253     1.737610     1.729967     1.722324     1.714681
      1.707038     1.699395     1.691752     1.684108     1.676465     1.668822     1.661179     1.653536     1.645893     1.638250
      1.630607     1.622964     1.615321     1.607677     1.600034     1.592391     1.584748     1.577105     1.569462     1.561819
      1.554176     1.546533     1.538890     1.531246     1.523603     1.515960     1.508317     1.500674     1.493031     1.485388
      1.477745     1.470102     1.462458     1.454815     1.447172     1.439529     1.431886     1.424243     1.416600     1.408957
      1.401314     1.393671     1.386027     1.378384     1.370741     1.363098     1.355455     1.347812     1.340169     1.332526
      1.324883     1.317240     1.309596     1.301953     1.294310     1.286667     1.279024     1.271381     1.263738     1.256095
      1.248452     1.240808     1.233165     1.225522     1.217879     1.210236     1.202593     1.194950     1.187307     1.179664
      1.172021     1.164377     1.156734     1.149091     1.141448     1.133805     1.126162     1.118519     1.110876     1.103233
      1.095590     1.087946     1.080303     1.072660     1.065017     1.057374     1.049731     1.042088     1.034445     1.026802
      1.019158     1.011515     1.003872     0.996229     0.988586     0.980943     0.973300     0.965657     0.958014     0.950371
      0.942727     0.935084     0.927441     0.919798     0.912155     0.904512     0.896869     0.889226     0.881583     0.873940
      0.866296     0.858653     0.851010     0.843367     0.835724     0.828081     0.820438     0.812795     0.805152     0.797508
      0.789865     0.782222     0.774579     0.766936     0.759293     0.751650     0.744007     0.736364     0.728721     0.721077
      0.713434     0.705791     0.698148     0.690505     0.682862     0.675219     0.667576     0.659933     0.652290     0.644646
      0.637003     0.629360     0.621717     0.614074     0.606431     0.598788     0.591145     0.583502     0.575858     0.568215
      0.560572     0.552929     0.545286     0.537643     0.530000     0.522357     0.514714     0.507071     0.499427     0.491784
      0.484141     0.476498     0.468855     0.461212     0.453569     0.445925     0.438282     0.430639     0.422996     0.415353
      0.407710     0.400067     0.392424     0.384780     0.377137     0.369494     0.361851     0.354208     0.346565     0.338922
      0.331278     0.323635     0.315992     0.308349     0.300706     0.293063     0.285420     0.277777     0.270133     0.262490
      0.254847     0.247204     0.239561     0.231918     0.224275     0.216631     0.208988     0.201345
 NY phased data points follow
   2.18278E+00  8.85913E+00  7.47649E+00  1.00644E+01  1.41117E+01  1.67001E+01  1.91796E+01  2.84739E+01  3.27453E+01  3.72120E+01
   3.81984E+01  3.58541E+01  3.21574E+01  2.98354E+01  2.58732E+01  1.97796E+01  1.27157E+01  1.38211E+01  1.11021E+01  9.61892E+00
   1.14648E+01  5.06161E+00  8.69037E+00  9.93227E+00  1.13203E+01  1.24590E+01  1.37401E+01  9.00502E+00  1.57075E+01  1.07592E+01
   1.24953E+01  1.25984E+01  1.34152E+01  1.08264E+01  1.14786E+01  1.04710E+01  1.07412E+01  1.42746E+01  1.18023E+01  1.01118E+01
   7.24110E+00  1.20632E+01  1.23509E+01  1.38775E+01  1.32536E+01  1.72249E+01  2.07797E+01  1.99717E+01  1.54171E+01  1.40396E+01
   1.69775E+01  8.45350E+00  1.31664E+01  5.95045E+00  5.59991E+00  6.80826E+00  1.01436E+01  7.74584E+00  5.77740E+00  3.95987E+00
   2.31195E+00 -2.19705E-01 -1.89390E+00 -8.15562E+00  2.01507E+00 -3.56900E+00 -2.07349E+00 -6.05102E+00 -1.76045E+00 -8.72862E-01
  -2.18532E+00  5.69318E-01 -3.50677E+00 -5.53663E+00  1.03181E+00 -2.99179E+00 -1.04725E+00 -1.99438E+00  2.87656E-01  5.45637E-01
  -1.57642E+00  3.70473E+00  4.51390E+00  4.23269E+00  6.22700E+00  7.91532E+00  8.92642E+00  6.53170E+00  7.93390E+00  9.84493E+00
   7.86209E+00  7.17194E+00  7.67739E+00  4.89948E+00  2.99356E+00  7.45576E+00  5.01167E+00  1.36769E+01  2.46310E+01  4.09532E+01
   5.73458E+01  7.14644E+01  7.70403E+01  7.21655E+01  6.99888E+01  5.59701E+01  4.61302E+01  3.40762E+01  2.20896E+01  1.78278E+01
   8.69035E+00  6.38071E+00  4.67299E+00  3.31845E+00  3.44199E+00  1.80072E+00  2.72497E+00 -2.91405E+00 -1.38991E+00 -4.50792E-01
  -1.62827E+00  3.84522E-01  1.13964E+01  2.44958E+01  3.49226E+01  4.60844E+01  5.29731E+01  5.72876E+01  5.59851E+01  4.55883E+01
   3.46855E+01  3.04604E+01  1.73434E+01  1.09327E+01  7.49270E+00  6.69154E+00  3.27025E+00  3.72497E+00  3.79368E+00 -2.10757E+00
   4.34350E-01  2.04836E-01 -9.35130E-01  1.56537E+00 -2.93771E+00  1.34336E+00 -3.00981E-01 -2.52193E+00 -3.47183E-01 -3.24296E+00
  -3.76791E+00 -4.98757E+00 -1.69906E+00 -6.60467E+00 -1.76999E+00 -1.84263E+00 -4.75860E+00 -5.01774E+00 -3.30676E+00 -4.93818E+00
  -4.96800E+00 -1.00567E+01 -4.10441E+00 -2.63097E+00 -6.60337E+00 -7.56555E+00 -6.96793E+00 -7.70230E+00 -1.11205E+01 -7.42588E+00
  -1.55527E+01 -9.71649E+00 -8.99138E+00 -1.35533E+01 -1.65393E+01 -1.40698E+01 -1.30446E+01 -1.49697E+01 -1.35310E+01 -1.19271E+01
  -1.42384E+01 -1.39201E+01 -1.02032E+01 -1.07610E+01 -1.32346E+01 -6.78624E+00 -1.07789E+01 -7.58583E+00 -1.12386E+01 -5.69720E+00
  -6.44378E+00  2.18931E+00 -2.59404E+00  3.46987E+00  1.10100E-02 -4.74530E-02 -6.02457E+00 -5.95263E+00 -3.45745E+00 -9.87496E+00
   1.74752E+00 -2.84862E+00 -1.31236E+00  4.32895E-02  3.88545E+00  2.60705E+00 -8.63767E-01 -2.97774E+00 -9.47382E+00 -2.26092E+00
  -1.85259E+00 -3.15829E+00  3.50634E-01  5.89245E+00  1.09814E+01  1.20273E+01  1.03946E+01  1.43831E+01  7.02105E+00 -4.43353E-01
  -2.49089E+00 -2.80205E+00 -3.93230E+00 -4.74882E+00 -1.99195E+00 -2.88406E-02  6.09854E+00  2.17827E+00  4.82812E+00  8.11744E+00
   7.69647E+00  8.30221E+00  6.02347E+00  4.98316E+00  1.04415E+01  1.15642E+01  9.18406E+00  4.27290E+00  1.00973E+01  7.00878E+00
   5.92203E+00  3.54157E+00  4.34389E+00  6.27811E+00  7.21874E+00  7.40147E+00  1.19622E+01  1.21829E+01  1.09171E+01  1.42756E+01
   1.33937E+01  1.02782E+01  1.53540E+01  2.16643E+01  2.15970E+01  3.02945E+01  4.80208E+01  6.95182E+01  8.22254E+01  1.03787E+02
   1.03997E+02  1.02573E+02  8.90342E+01  7.32508E+01  5.63260E+01  4.57626E+01  3.04710E+01  2.22684E+01  2.02471E+01  1.16584E+01
   5.94425E+00  8.39692E+00  1.01279E+01  9.13248E+00  8.81565E+00  7.37391E+00  3.76753E+00  3.00480E+00  3.54124E+00  3.97150E+00
   5.44692E+00  2.97789E+00  1.86000E+00  8.77252E+00  4.12628E+00  4.06792E+00  4.89489E+00  5.01259E+00  5.14208E+00  2.86273E+00
   1.61628E+00  9.95769E+00  7.13319E-01  7.29496E+00  1.57365E+00  6.73557E+00  2.21898E+00  4.11288E+00 -1.99516E+00  4.23967E+00
   5.39838E+00  7.49747E+00  6.74301E+00  1.13219E+01  8.24188E+00  9.97980E+00  1.27994E+01  1.41768E+01  8.99824E+00  9.06654E+00
   1.19354E+01  1.39012E+01  9.38739E+00  1.56427E+01  8.61675E+00  1.05495E+01  1.13273E+01  9.16812E+00  1.25462E+01  7.44687E+00
   8.50043E+00  1.08252E+01  7.62046E+00  1.15493E+01  7.26820E+00  3.74546E+00  9.37851E+00  1.20042E+01  8.61652E+00  1.06070E+01
   9.44021E+00  1.04160E+01  8.72750E+00  5.34699E+00  1.47768E+01  9.03038E+00  1.53670E+01  1.28903E+01  1.24773E+01  1.17827E+01
   7.84746E+00  7.47433E+00  1.63129E+00  4.14261E+00  2.18044E+00  1.04872E+00 -2.29673E-01  3.99925E+00  4.48659E+00  5.16764E+00
   5.53244E+00  8.01048E+00  1.29194E+01  7.35531E+00  1.25328E+01  7.62422E+00  1.15726E+01  4.33193E+00  1.25551E+01  7.65438E+00
   1.43972E+01  9.44122E+00  1.16498E+01  9.71500E+00  2.38997E+00  8.95599E+00  4.42582E+00  1.14418E+01  6.25785E+00  7.70459E+00
   4.88495E+00  9.59228E+00  8.93756E+00  9.38336E+00  9.61443E+00  6.26632E-02  5.91523E+00  5.50624E+00  3.19849E+00  3.76927E+00
   3.95834E+00  2.95747E+00  3.79790E+00  1.36467E+00  9.97929E-01  3.82223E+00  3.54089E+00  7.70270E+00  3.90626E+00  2.71339E+00
   2.42044E+00  2.18377E+00  1.79489E+00  3.71168E+00  6.27911E+00  4.40095E+00  5.73833E+00  4.49169E+00  7.41998E+00  9.19887E+00
   4.07098E+00  4.38482E+00  6.32157E+00  7.86825E+00  1.45452E+01  1.03020E+01  7.84152E+00  9.92406E+00  1.02228E+01  9.28191E+00
   1.00454E+01  7.28362E+00  5.08429E+00  2.88133E+00  2.59498E+00  4.03039E+00  5.73214E+00 -4.75265E-02  5.44602E-01 -1.20992E+00
   2.00110E+00  1.00065E+00 -2.29508E+00 -1.76601E+00 -1.26141E+00 -1.58782E+00 -1.33607E-01 -2.00734E+00 -5.69887E+00  9.63907E-03
  -5.71398E+00 -2.30255E+00 -2.17414E+00 -2.00576E+00 -5.51353E+00 -2.35380E+00 -5.17747E+00 -1.58114E+00 -3.79362E+00 -4.73588E+00
  -5.27898E-02 -4.49223E+00 -4.14575E+00 -2.30739E+00 -5.63218E+00  2.52647E-01 -6.08232E-01  1.80188E+00 -2.02495E+00 -3.20058E+00
  -3.64545E+00 -1.82351E+00  2.33133E+00 -2.52080E+00 -2.20601E+00  1.77064E+00  1.29437E-01 -2.78853E+00 -1.00917E+00 -2.93909E+00
  -6.28422E-01  5.76617E-01 -2.27852E+00 -2.45996E+00 -2.94451E+00 -2.57869E+00 -3.59309E+00 -8.75423E-01 -2.34986E+00 -1.55124E+00
  -2.02942E+00  3.06557E+00 -3.23219E-01 -4.08498E+00 -2.48954E+00 -2.04900E+00 -9.63104E-01 -1.85966E+00 -5.89059E-01 -3.20138E+00
  -4.56706E+00 -2.01808E+00 -7.34671E-01  3.20345E+00 -1.15855E+00  1.76344E-01  1.10842E+00  5.61791E+00 -6.92550E-01  3.08647E-01
   9.73948E-01  3.43831E+00 -1.43518E+00  7.42302E-01  3.84197E+00 -3.56632E+00  3.60416E+00  2.15815E+00
 NY points of the fit to the data follow
   5.78536E+00  5.67084E+00  6.29671E+00  8.04071E+00  1.12255E+01  1.60661E+01  2.20791E+01  2.83333E+01  3.36440E+01  3.69195E+01
   3.76556E+01  3.59892E+01  3.26326E+01  2.85001E+01  2.42905E+01  2.04576E+01  1.71078E+01  1.40560E+01  1.15100E+01  9.84194E+00
   8.65869E+00  7.90404E+00  7.43854E+00  7.29946E+00  7.55625E+00  8.30688E+00  9.51369E+00  1.10160E+01  1.26160E+01  1.40530E+01
   1.51346E+01  1.56990E+01  1.55952E+01  1.47777E+01  1.33174E+01  1.14094E+01  9.44354E+00  7.67233E+00  6.46296E+00  6.08048E+00
   6.39501E+00  7.41507E+00  9.03950E+00  1.10612E+01  1.31649E+01  1.48622E+01  1.57434E+01  1.56084E+01  1.44796E+01  1.26240E+01
   1.04682E+01  8.40045E+00  6.74595E+00  5.54461E+00  4.73290E+00  4.35946E+00  4.46140E+00  4.83597E+00  5.13149E+00  5.13100E+00
   4.74391E+00  4.01885E+00  3.11939E+00  2.24032E+00  1.57174E+00  1.22716E+00  1.17329E+00  1.31823E+00  1.60164E+00  1.91962E+00
   2.17424E+00  2.29064E+00  2.22637E+00  2.00624E+00  1.68413E+00  1.32246E+00  9.82832E-01  6.89732E-01  4.66725E-01  3.27233E-01
   5.07373E-01  1.26686E+00  2.67292E+00  4.62396E+00  6.74363E+00  8.54051E+00  9.54790E+00  9.52501E+00  8.57660E+00  7.06181E+00
   5.42356E+00  3.97233E+00  2.80376E+00  1.92788E+00  1.37478E+00  1.80236E+00  5.30610E+00  1.32008E+01  2.56620E+01  4.13976E+01
   5.75053E+01  7.04480E+01  7.71315E+01  7.63538E+01  6.90507E+01  5.77242E+01  4.52552E+01  3.36156E+01  2.37490E+01  1.57792E+01
   8.98815E+00  3.54778E+00  1.02067E+00  1.35300E-01 -3.04351E-01 -5.74147E-01 -7.47084E-01 -8.24190E-01 -7.53991E-01 -3.08930E-01
   1.49258E+00  5.83041E+00  1.32774E+01  2.36159E+01  3.52746E+01  4.59219E+01  5.31647E+01  5.54271E+01  5.26569E+01  4.60702E+01
   3.75798E+01  2.88725E+01  2.08884E+01  1.40906E+01  8.39479E+00  3.49825E+00  5.39738E-01 -1.73201E-01 -1.21491E-01  1.31244E-01
   3.36564E-01  3.98536E-01  3.53856E-01  1.98949E-01 -6.92358E-02 -4.04784E-01 -7.93178E-01 -1.22082E+00 -1.63828E+00 -2.03262E+00
  -2.34523E+00 -2.57987E+00 -2.74740E+00 -2.85914E+00 -2.97660E+00 -3.18162E+00 -3.53776E+00 -4.04994E+00 -4.60862E+00 -5.06784E+00
  -5.30186E+00 -5.26285E+00 -5.03646E+00 -4.79028E+00 -4.69836E+00 -4.85007E+00 -5.22379E+00 -5.73343E+00 -6.26913E+00 -6.78607E+00
  -7.38822E+00 -8.09658E+00 -8.82555E+00 -9.45492E+00 -9.82638E+00 -9.92814E+00 -9.85159E+00 -9.69263E+00 -9.53644E+00 -9.44061E+00
  -9.43593E+00 -9.48205E+00 -9.48361E+00 -9.32782E+00 -8.86504E+00 -8.03838E+00 -6.88511E+00 -5.42179E+00 -3.87140E+00 -2.54196E+00
  -1.71898E+00 -1.49719E+00 -1.69005E+00 -2.08558E+00 -2.46320E+00 -2.64120E+00 -2.59008E+00 -2.24181E+00 -1.46584E+00 -3.07344E-01
   1.08980E+00  2.45813E+00  3.45046E+00  3.70952E+00  3.05682E+00  1.48954E+00 -7.52775E-01 -3.22076E+00 -5.38620E+00 -6.69952E+00
  -6.63117E+00 -5.07334E+00 -2.26434E+00  1.25125E+00  4.61480E+00  6.90680E+00  7.38402E+00  5.79247E+00  2.53674E+00 -1.61065E+00
  -5.49508E+00 -8.09589E+00 -8.96684E+00 -8.09715E+00 -5.89165E+00 -2.99697E+00  7.37581E-02  2.59879E+00  4.32457E+00  5.35660E+00
   6.00578E+00  6.50425E+00  6.85767E+00  7.16797E+00  7.63176E+00  8.18326E+00  8.55918E+00  8.59674E+00  8.26218E+00  7.66561E+00
   7.02508E+00  6.60388E+00  6.65453E+00  7.27607E+00  8.28576E+00  9.38631E+00  1.04216E+01  1.12322E+01  1.17781E+01  1.22143E+01
   1.27245E+01  1.34372E+01  1.45122E+01  1.70414E+01  2.31736E+01  3.40534E+01  4.98133E+01  6.84444E+01  8.63514E+01  9.94477E+01
   1.04459E+02  1.00612E+02  8.95972E+01  7.47103E+01  5.92864E+01  4.53182E+01  3.36691E+01  2.42010E+01  1.58840E+01  9.58151E+00
   7.00145E+00  5.98009E+00  5.42312E+00  5.10156E+00  4.92050E+00  4.73312E+00  4.47970E+00  4.17144E+00  3.81979E+00  3.45267E+00
   3.10883E+00  2.80605E+00  2.54748E+00  2.35200E+00  2.23017E+00  2.17026E+00  2.16099E+00  2.19621E+00  2.27737E+00  2.40879E+00
   2.58577E+00  2.80864E+00  3.08370E+00  3.41160E+00  3.79109E+00  4.21904E+00  4.69055E+00  5.19874E+00  5.73398E+00  6.28651E+00
   6.84584E+00  7.39937E+00  7.93436E+00  8.43786E+00  8.89788E+00  9.30400E+00  9.64837E+00  9.92582E+00  1.01343E+01  1.02743E+01
   1.03496E+01  1.03659E+01  1.03319E+01  1.02582E+01  1.01564E+01  1.00381E+01  9.91501E+00  9.79788E+00  9.69673E+00  9.62093E+00
   9.57994E+00  9.57428E+00  9.59516E+00  9.62553E+00  9.64338E+00  9.63014E+00  9.57530E+00  9.47973E+00  9.35970E+00  9.23911E+00
   9.13884E+00  9.06976E+00  9.02783E+00  8.99762E+00  8.95507E+00  8.87890E+00  8.76299E+00  8.59762E+00  8.38461E+00  8.14351E+00
   7.89374E+00  7.65236E+00  7.43145E+00  7.23685E+00  7.08701E+00  7.00228E+00  6.98862E+00  7.05266E+00  7.20016E+00  7.43238E+00
   7.74375E+00  8.11954E+00  8.53542E+00  8.95805E+00  9.34851E+00  9.66682E+00  9.87810E+00  9.95782E+00  9.89589E+00  9.69746E+00
   9.38151E+00  8.97631E+00  8.51432E+00  8.02639E+00  7.53798E+00  7.06650E+00  6.62148E+00  6.20557E+00  5.81716E+00  5.45235E+00
   5.10728E+00  4.77903E+00  4.46664E+00  4.17080E+00  3.89396E+00  3.63948E+00  3.41150E+00  3.21419E+00  3.05177E+00  2.92807E+00
   2.84664E+00  2.81036E+00  2.82172E+00  2.88241E+00  2.99364E+00  3.15577E+00  3.36853E+00  3.63056E+00  3.93964E+00  4.29225E+00
   4.68379E+00  5.10823E+00  5.55834E+00  6.02539E+00  6.49957E+00  6.96986E+00  7.42467E+00  7.85183E+00  8.23931E+00  8.57536E+00
   8.84935E+00  9.05190E+00  9.17571E+00  9.21551E+00  9.16869E+00  9.03505E+00  8.81719E+00  8.52002E+00  8.15084E+00  7.71863E+00
   7.23388E+00  6.70782E+00  6.15222E+00  5.57860E+00  4.99811E+00  4.42079E+00  3.85565E+00  3.31011E+00  2.79033E+00  2.30079E+00
   1.84472E+00  1.42384E+00  1.03890E+00  6.89497E-01  3.74657E-01  9.26544E-02 -1.58489E-01 -3.81183E-01 -5.77797E-01 -7.50870E-01
  -9.02701E-01 -1.03563E+00 -1.15169E+00 -1.25290E+00 -1.34095E+00 -1.41746E+00 -1.48373E+00 -1.54102E+00 -1.59033E+00 -1.63266E+00
  -1.66874E+00 -1.69931E+00 -1.72490E+00 -1.74609E+00 -1.76327E+00 -1.77691E+00 -1.78729E+00 -1.79477E+00 -1.79952E+00 -1.80185E+00
  -1.80189E+00 -1.79991E+00 -1.79598E+00 -1.79029E+00 -1.78291E+00 -1.77403E+00 -1.76369E+00 -1.75208E+00 -1.73920E+00 -1.72518E+00
  -1.71003E+00 -1.69391E+00 -1.67680E+00 -1.65883E+00 -1.63997E+00 -1.62033E+00 -1.59990E+00 -1.57880E+00 -1.55700E+00 -1.53459E+00
  -1.51154E+00 -1.48793E+00 -1.46373E+00 -1.43906E+00 -1.41386E+00 -1.38822E+00 -1.36207E+00 -1.33554E+00 -1.30857E+00 -1.28125E+00
  -1.25354E+00 -1.22549E+00 -1.19707E+00 -1.16835E+00 -1.13929E+00 -1.10998E+00 -1.08033E+00 -1.05043E+00 -1.02022E+00 -9.89772E-01
  -9.59037E-01 -9.28083E-01 -8.96822E-01 -8.65325E-01 -8.33520E-01 -8.01482E-01 -7.69124E-01 -7.36494E-01
 NY background values follow
     2.539E+00    2.475E+00    2.412E+00    2.349E+00    2.286E+00    2.222E+00    2.159E+00    2.095E+00    2.032E+00    1.969E+00
     1.905E+00    1.842E+00    1.778E+00    1.715E+00    1.651E+00    1.588E+00    1.524E+00    1.461E+00    1.397E+00    1.334E+00
     1.270E+00    1.207E+00    1.144E+00    1.080E+00    1.017E+00    9.540E-01    8.908E-01    8.277E-01    7.647E-01    7.017E-01
     6.388E-01    5.759E-01    5.131E-01    4.504E-01    3.878E-01    3.253E-01    2.629E-01    2.005E-01    1.383E-01    7.614E-02
     1.411E-02   -4.781E-02   -1.096E-01   -1.713E-01   -2.329E-01   -2.943E-01   -3.556E-01   -4.168E-01   -4.778E-01   -5.387E-01
    -5.994E-01   -6.599E-01   -7.203E-01   -7.805E-01   -8.405E-01   -9.003E-01   -9.599E-01   -1.019E+00   -1.078E+00   -1.137E+00
    -1.196E+00   -1.255E+00   -1.313E+00   -1.371E+00   -1.428E+00   -1.486E+00   -1.543E+00   -1.600E+00   -1.656E+00   -1.713E+00
    -1.769E+00   -1.824E+00   -1.880E+00   -1.935E+00   -1.989E+00   -2.044E+00   -2.098E+00   -2.151E+00   -2.205E+00   -2.257E+00
    -2.310E+00   -2.362E+00   -2.414E+00   -2.465E+00   -2.516E+00   -2.566E+00   -2.616E+00   -2.666E+00   -2.715E+00   -2.764E+00
    -2.812E+00   -2.860E+00   -2.907E+00   -2.954E+00   -3.001E+00   -3.047E+00   -3.092E+00   -3.137E+00   -3.182E+00   -3.226E+00
    -3.269E+00   -3.312E+00   -3.354E+00   -3.396E+00   -3.438E+00   -3.479E+00   -3.519E+00   -3.559E+00   -3.599E+00   -3.638E+00
    -3.676E+00   -3.714E+00   -3.751E+00   -3.788E+00   -3.824E+00   -3.860E+00   -3.895E+00   -3.929E+00   -3.963E+00   -3.997E+00
    -4.029E+00   -4.062E+00   -4.093E+00   -4.124E+00   -4.155E+00   -4.185E+00   -4.214E+00   -4.243E+00   -4.271E+00   -4.299E+00
    -4.326E+00   -4.352E+00   -4.378E+00   -4.403E+00   -4.428E+00   -4.452E+00   -4.475E+00   -4.498E+00   -4.520E+00   -4.541E+00
    -4.562E+00   -4.582E+00   -4.602E+00   -4.620E+00   -4.639E+00   -4.656E+00   -4.673E+00   -4.689E+00   -4.705E+00   -4.720E+00
    -4.734E+00   -4.747E+00   -4.760E+00   -4.772E+00   -4.784E+00   -4.795E+00   -4.805E+00   -4.814E+00   -4.823E+00   -4.831E+00
    -4.838E+00   -4.845E+00   -4.850E+00   -4.855E+00   -4.860E+00   -4.863E+00   -4.866E+00   -4.869E+00   -4.870E+00   -4.871E+00
    -4.871E+00   -4.870E+00   -4.868E+00   -4.866E+00   -4.863E+00   -4.859E+00   -4.855E+00   -4.849E+00   -4.843E+00   -4.836E+00
    -4.829E+00   -4.820E+00   -4.811E+00   -4.801E+00   -4.790E+00   -4.778E+00   -4.766E+00   -4.753E+00   -4.740E+00   -4.726E+00
    -4.711E+00   -4.695E+00   -4.679E+00   -4.663E+00   -4.646E+00   -4.628E+00   -4.610E+00   -4.591E+00   -4.572E+00   -4.553E+00
    -4.533E+00   -4.512E+00   -4.492E+00   -4.471E+00   -4.449E+00   -4.427E+00   -4.405E+00   -4.383E+00   -4.360E+00   -4.338E+00
    -4.315E+00   -4.291E+00   -4.268E+00   -4.244E+00   -4.221E+00   -4.197E+00   -4.173E+00   -4.149E+00   -4.125E+00   -4.100E+00
    -4.076E+00   -4.052E+00   -4.028E+00   -4.004E+00   -3.980E+00   -3.956E+00   -3.932E+00   -3.908E+00   -3.885E+00   -3.861E+00
    -3.838E+00   -3.815E+00   -3.792E+00   -3.769E+00   -3.746E+00   -3.723E+00   -3.701E+00   -3.679E+00   -3.657E+00   -3.635E+00
    -3.613E+00   -3.591E+00   -3.570E+00   -3.549E+00   -3.528E+00   -3.507E+00   -3.486E+00   -3.466E+00   -3.446E+00   -3.426E+00
    -3.406E+00   -3.387E+00   -3.368E+00   -3.349E+00   -3.330E+00   -3.311E+00   -3.293E+00   -3.275E+00   -3.257E+00   -3.240E+00
    -3.223E+00   -3.206E+00   -3.189E+00   -3.173E+00   -3.157E+00   -3.141E+00   -3.125E+00   -3.110E+00   -3.095E+00   -3.081E+00
    -3.066E+00   -3.052E+00   -3.039E+00   -3.025E+00   -3.012E+00   -3.000E+00   -2.987E+00   -2.975E+00   -2.964E+00   -2.952E+00
    -2.941E+00   -2.930E+00   -2.920E+00   -2.910E+00   -2.900E+00   -2.890E+00   -2.881E+00   -2.872E+00   -2.863E+00   -2.855E+00
    -2.846E+00   -2.838E+00   -2.831E+00   -2.823E+00   -2.816E+00   -2.810E+00   -2.803E+00   -2.797E+00   -2.791E+00   -2.785E+00
    -2.779E+00   -2.774E+00   -2.769E+00   -2.764E+00   -2.760E+00   -2.756E+00   -2.752E+00   -2.748E+00   -2.744E+00   -2.741E+00
    -2.738E+00   -2.735E+00   -2.733E+00   -2.730E+00   -2.728E+00   -2.726E+00   -2.724E+00   -2.723E+00   -2.722E+00   -2.721E+00
    -2.720E+00   -2.719E+00   -2.719E+00   -2.718E+00   -2.718E+00   -2.718E+00   -2.718E+00   -2.719E+00   -2.719E+00   -2.720E+00
    -2.721E+00   -2.722E+00   -2.723E+00   -2.724E+00   -2.725E+00   -2.727E+00   -2.728E+00   -2.730E+00   -2.732E+00   -2.734E+00
    -2.736E+00   -2.738E+00   -2.740E+00   -2.742E+00   -2.744E+00   -2.746E+00   -2.749E+00   -2.751E+00   -2.753E+00   -2.756E+00
    -2.758E+00   -2.761E+00   -2.763E+00   -2.766E+00   -2.768E+00   -2.771E+00   -2.773E+00   -2.776E+00   -2.778E+00   -2.781E+00
    -2.783E+00   -2.786E+00   -2.788E+00   -2.790E+00   -2.793E+00   -2.795E+00   -2.797E+00   -2.799E+00   -2.801E+00   -2.803E+00
    -2.805E+00   -2.806E+00   -2.808E+00   -2.809E+00   -2.810E+00   -2.811E+00   -2.812E+00   -2.813E+00   -2.814E+00   -2.814E+00
    -2.814E+00   -2.814E+00   -2.814E+00   -2.813E+00   -2.813E+00   -2.812E+00   -2.810E+00   -2.809E+00   -2.807E+00   -2.805E+00
    -2.803E+00   -2.800E+00   -2.798E+00   -2.794E+00   -2.791E+00   -2.787E+00   -2.783E+00   -2.778E+00   -2.774E+00   -2.768E+00
    -2.763E+00   -2.757E+00   -2.750E+00   -2.744E+00   -2.736E+00   -2.729E+00   -2.721E+00   -2.712E+00   -2.704E+00   -2.694E+00
    -2.684E+00   -2.674E+00   -2.664E+00   -2.653E+00   -2.641E+00   -2.629E+00   -2.617E+00   -2.604E+00   -2.591E+00   -2.578E+00
    -2.564E+00   -2.549E+00   -2.535E+00   -2.519E+00   -2.504E+00   -2.488E+00   -2.471E+00   -2.455E+00   -2.438E+00   -2.420E+00
    -2.402E+00   -2.384E+00   -2.365E+00   -2.346E+00   -2.326E+00   -2.306E+00   -2.286E+00   -2.266E+00   -2.245E+00   -2.223E+00
    -2.201E+00   -2.179E+00   -2.157E+00   -2.134E+00   -2.111E+00   -2.087E+00   -2.063E+00   -2.039E+00   -2.014E+00   -1.989E+00
    -1.964E+00   -1.938E+00   -1.912E+00   -1.886E+00   -1.859E+00   -1.832E+00   -1.805E+00   -1.777E+00   -1.749E+00   -1.721E+00
    -1.692E+00   -1.664E+00   -1.635E+00   -1.605E+00   -1.576E+00   -1.546E+00   -1.516E+00   -1.486E+00   -1.455E+00   -1.425E+00
    -1.394E+00   -1.363E+00   -1.332E+00   -1.300E+00   -1.269E+00   -1.237E+00   -1.205E+00   -1.173E+00   -1.141E+00   -1.109E+00
    -1.077E+00   -1.044E+00   -1.012E+00   -9.795E-01   -9.469E-01   -9.143E-01   -8.816E-01   -8.489E-01   -8.161E-01   -7.833E-01
    -7.505E-01   -7.177E-01   -6.849E-01   -6.521E-01   -6.193E-01   -5.866E-01   -5.539E-01   -5.212E-01
 Ala      Conc. = 2.83E+01
