 LCModel (Version 6.3-1L) Copyright: S.W. Provencher.          Ref.: Magn. Reson. Med. 30:672-679 (1993).                
 Slice#1 Row#13 Col#8  PD_24_press_1_raw_act
 36 lines in following concentration table = NCONC+1
    Conc.  %SD /Cr+PCr  Metabolite                                         
   21.696 328% 7.8E-02 Ala                                                 
   55.510 108%   0.200 Asp                                                 
  277.280  13%   1.000 Cr                                                  
    0.000 999%   0.000 PCr                                                 
   23.532 155% 8.5E-02 GABA                                                
   33.061 110%   0.119 Glc                                                 
   28.557 511%   0.103 Gln                                                 
  194.644  84%   0.702 Glu                                                 
   82.139  16%   0.296 GPC                                                 
    0.000 999%   0.000 PCh                                                 
   57.175  81%   0.206 GSH                                                 
  351.189  41%   1.267 Ins                                                 
    0.000 999%   0.000 Lac                                                 
  450.880  19%   1.626 NAA                                                 
  194.756  41%   0.702 NAAG                                                
   20.835  50% 7.5E-02 Scyllo                                              
   62.030  93%   0.224 Tau                                                 
   91.398  56%   0.330 -CrCH2                                              
   82.139  16%   0.296 GPC+PCh                                             
  645.636   8%   2.328 NAA+NAAG                                            
  277.280  13%   1.000 Cr+PCr                                              
  223.201 102%   0.805 Glu+Gln                                             
    0.000 999%   0.000 Lip13a                                              
    0.000 999%   0.000 Lip13b                                              
 8.31E-04 999% 3.0E-06 Lip09                                               
  395.857  21%   1.428 MM09                                                
    0.000 999%   0.000 Lip20                                               
  613.207  26%   2.212 MM20                                                
   78.259  68%   0.282 MM12                                                
   18.099 642% 6.5E-02 MM14                                                
    0.000 999%   0.000 MM17                                                
    0.000 999%   0.000 Lip13a+Lip13b                                       
   96.359 135%   0.348 MM14+Lip13a+Lip13b+MM12                             
  395.858  21%   1.428 MM09+Lip09                                          
  613.207  26%   2.212 MM20+Lip20                                          
   6 lines in following misc. output table
  FWHM = 0.054 ppm    S/N =   4                                            
  Data shift =-0.031 ppm                                                   
  Ph: -41 deg      -3.7 deg/ppm                                            
  alphaB,S = 8.5E+01,   5.1E+01                                            
   14 spline knots.   Ns = 8(1)                                            
   2 inflections.     1 extrema                                            
  498 points on ppm-axis = NY
      4.000000     3.992357     3.984714     3.977070     3.969427     3.961784     3.954141     3.946497     3.938854     3.931211
      3.923568     3.915925     3.908281     3.900638     3.892995     3.885352     3.877708     3.870065     3.862422     3.854779
      3.847136     3.839492     3.831849     3.824206     3.816563     3.808919     3.801276     3.793633     3.785990     3.778347
      3.770703     3.763060     3.755417     3.747774     3.740130     3.732487     3.724844     3.717201     3.709558     3.701914
      3.694271     3.686628     3.678985     3.671341     3.663698     3.656055     3.648412     3.640769     3.633125     3.625482
      3.617839     3.610196     3.602552     3.594909     3.587266     3.579623     3.571980     3.564336     3.556693     3.549050
      3.541407     3.533763     3.526120     3.518477     3.510834     3.503191     3.495547     3.487904     3.480261     3.472618
      3.464974     3.457331     3.449688     3.442045     3.434402     3.426758     3.419115     3.411472     3.403829     3.396185
      3.388542     3.380899     3.373256     3.365613     3.357969     3.350326     3.342683     3.335040     3.327396     3.319753
      3.312110     3.304467     3.296824     3.289180     3.281537     3.273894     3.266251     3.258607     3.250964     3.243321
      3.235678     3.228034     3.220391     3.212748     3.205105     3.197462     3.189818     3.182175     3.174532     3.166889
      3.159245     3.151602     3.143959     3.136316     3.128673     3.121029     3.113386     3.105743     3.098100     3.090456
      3.082813     3.075170     3.067527     3.059884     3.052240     3.044597     3.036954     3.029311     3.021667     3.014024
      3.006381     2.998738     2.991095     2.983451     2.975808     2.968165     2.960522     2.952878     2.945235     2.937592
      2.929949     2.922306     2.914662     2.907019     2.899376     2.891733     2.884089     2.876446     2.868803     2.861160
      2.853517     2.845873     2.838230     2.830587     2.822944     2.815300     2.807657     2.800014     2.792371     2.784728
      2.777084     2.769441     2.761798     2.754155     2.746511     2.738868     2.731225     2.723582     2.715939     2.708295
      2.700652     2.693009     2.685366     2.677722     2.670079     2.662436     2.654793     2.647150     2.639506     2.631863
      2.624220     2.616577     2.608933     2.601290     2.593647     2.586004     2.578361     2.570717     2.563074     2.555431
      2.547788     2.540144     2.532501     2.524858     2.517215     2.509572     2.501928     2.494285     2.486642     2.478999
      2.471355     2.463712     2.456069     2.448426     2.440783     2.433139     2.425496     2.417853     2.410210     2.402566
      2.394923     2.387280     2.379637     2.371994     2.364350     2.356707     2.349064     2.341421     2.333777     2.326134
      2.318491     2.310848     2.303205     2.295561     2.287918     2.280275     2.272632     2.264988     2.257345     2.249702
      2.242059     2.234416     2.226772     2.219129     2.211486     2.203843     2.196199     2.188556     2.180913     2.173270
      2.165627     2.157983     2.150340     2.142697     2.135054     2.127410     2.119767     2.112124     2.104481     2.096838
      2.089194     2.081551     2.073908     2.066265     2.058621     2.050978     2.043335     2.035692     2.028049     2.020405
      2.012762     2.005119     1.997476     1.989833     1.982190     1.974546     1.966903     1.959260     1.951617     1.943974
      1.936331     1.928688     1.921045     1.913402     1.905759     1.898115     1.890472     1.882829     1.875186     1.867543
      1.859900     1.852257     1.844614     1.836971     1.829327     1.821684     1.814041     1.806398     1.798755     1.791112
      1.783469     1.775826     1.768183     1.760540     1.752896     1.745253     1.737610     1.729967     1.722324     1.714681
      1.707038     1.699395     1.691752     1.684108     1.676465     1.668822     1.661179     1.653536     1.645893     1.638250
      1.630607     1.622964     1.615321     1.607677     1.600034     1.592391     1.584748     1.577105     1.569462     1.561819
      1.554176     1.546533     1.538890     1.531246     1.523603     1.515960     1.508317     1.500674     1.493031     1.485388
      1.477745     1.470102     1.462458     1.454815     1.447172     1.439529     1.431886     1.424243     1.416600     1.408957
      1.401314     1.393671     1.386027     1.378384     1.370741     1.363098     1.355455     1.347812     1.340169     1.332526
      1.324883     1.317240     1.309596     1.301953     1.294310     1.286667     1.279024     1.271381     1.263738     1.256095
      1.248452     1.240808     1.233165     1.225522     1.217879     1.210236     1.202593     1.194950     1.187307     1.179664
      1.172021     1.164377     1.156734     1.149091     1.141448     1.133805     1.126162     1.118519     1.110876     1.103233
      1.095590     1.087946     1.080303     1.072660     1.065017     1.057374     1.049731     1.042088     1.034445     1.026802
      1.019158     1.011515     1.003872     0.996229     0.988586     0.980943     0.973300     0.965657     0.958014     0.950371
      0.942727     0.935084     0.927441     0.919798     0.912155     0.904512     0.896869     0.889226     0.881583     0.873940
      0.866296     0.858653     0.851010     0.843367     0.835724     0.828081     0.820438     0.812795     0.805152     0.797508
      0.789865     0.782222     0.774579     0.766936     0.759293     0.751650     0.744007     0.736364     0.728721     0.721077
      0.713434     0.705791     0.698148     0.690505     0.682862     0.675219     0.667576     0.659933     0.652290     0.644646
      0.637003     0.629360     0.621717     0.614074     0.606431     0.598788     0.591145     0.583502     0.575858     0.568215
      0.560572     0.552929     0.545286     0.537643     0.530000     0.522357     0.514714     0.507071     0.499427     0.491784
      0.484141     0.476498     0.468855     0.461212     0.453569     0.445925     0.438282     0.430639     0.422996     0.415353
      0.407710     0.400067     0.392424     0.384780     0.377137     0.369494     0.361851     0.354208     0.346565     0.338922
      0.331278     0.323635     0.315992     0.308349     0.300706     0.293063     0.285420     0.277777     0.270133     0.262490
      0.254847     0.247204     0.239561     0.231918     0.224275     0.216631     0.208988     0.201345
 NY phased data points follow
  -5.17619E+00 -5.59154E+00 -4.04915E+00 -2.71533E+00 -2.29207E+00 -2.75229E+00 -2.01888E+00 -4.71990E+00  1.78419E+00 -2.11434E+00
   1.94497E+00  7.83915E-01  1.23152E+00  2.55067E+00  1.81223E+00  1.95579E+00  2.17046E-01  2.38121E+00 -1.77287E+00 -1.51330E+00
   5.22665E-01 -1.80397E+00 -2.57485E+00 -4.57907E+00  1.15119E+00  1.76871E-02 -2.15035E+00 -8.27823E-02 -1.02489E+00 -1.72491E+00
  -2.79484E-02  2.27445E+00 -1.80896E+00 -4.47395E+00  1.22485E+00 -1.72232E+00  2.29115E+00 -6.80666E-01 -1.74064E+00  1.09984E+00
  -9.39672E-01 -1.23735E+00  1.00505E+00 -9.10058E-01 -1.03059E+00  3.37608E-01  1.96391E+00  1.13832E+00  9.07071E-01 -1.69551E+00
   1.29412E+00  3.19750E+00  1.78508E-01 -4.58635E+00 -1.81197E+00  1.90258E-01 -2.12660E+00 -1.45068E+00  2.13485E-01 -3.99753E+00
   4.69726E-02  3.91684E-01 -1.60589E+00 -4.40724E+00 -3.39481E+00 -4.52424E+00  1.93625E-01 -1.01022E+00 -1.88949E+00 -2.01479E+00
   1.23520E+00 -5.03525E+00 -2.19336E+00  7.07992E-01 -1.69472E-01  1.84092E+00 -2.64922E-01 -1.86258E+00 -1.30338E+00 -2.01399E+00
  -3.30367E+00 -3.61835E+00 -1.07915E+00 -6.37462E-01 -1.07533E+00  1.98102E+00 -3.99528E+00  2.54486E-01  2.34462E+00 -6.57871E-01
  -1.65291E+00 -1.31334E+00 -3.02900E-01 -9.92873E-01 -1.98007E+00  1.21048E+00 -4.26815E-01  8.45711E-01  6.80514E-01  6.84560E-01
   2.12115E+00  2.50907E+00  3.41449E+00  6.46093E+00  6.26788E+00  5.85889E+00  2.72750E+00  4.44902E+00 -1.99898E+00 -1.77863E+00
  -3.68489E+00 -1.52115E+00  1.23496E+00 -3.97811E+00 -8.29267E-01 -5.18051E+00  2.33157E+00  1.49175E+00 -2.36933E+00 -1.66453E+00
   5.69696E-01 -4.13574E-01 -1.89943E+00  9.79706E-01  9.62480E-01 -9.52736E-01  9.36147E+00  6.16461E+00  1.01423E+01  8.15625E+00
   8.70139E+00  1.47314E+00  2.39485E+00  6.97022E-01  1.97734E+00 -8.41867E-02  1.12933E+00 -7.03796E-02 -1.20006E+00 -6.17228E+00
  -4.16043E-01 -1.85381E+00 -5.76243E+00 -4.14593E+00 -1.96278E+00 -2.09072E+00 -3.08201E-01 -1.57834E+00 -5.22725E+00 -3.22260E+00
   1.96758E-01  1.77270E+00 -1.20193E+00 -2.09749E+00 -5.26282E+00 -3.14221E+00  2.77535E+00 -2.29432E+00  5.06675E-01  3.10877E+00
  -1.44454E-01 -1.27969E+00 -2.06626E+00 -4.43349E+00 -3.33719E+00 -7.43463E+00 -2.08977E+00 -2.81137E+00 -5.87544E+00 -4.94172E+00
  -3.10396E+00  2.02694E+00 -4.23863E+00 -2.21564E+00 -5.82001E+00 -7.01220E+00 -2.01118E+00 -2.49243E+00 -7.86613E+00 -2.07277E+00
  -6.17614E+00 -5.52900E+00 -2.52473E+00 -3.55332E+00  3.06651E-01 -4.81316E+00  1.81508E+00 -7.76440E-01 -3.61870E+00 -3.76596E+00
  -2.85856E+00 -1.17991E+00 -4.46442E-01 -7.10660E+00 -8.77480E-02 -1.35234E+00 -5.83401E+00 -3.37614E+00 -4.43890E+00 -4.52063E+00
  -2.19190E+00 -1.57529E+00 -4.61846E+00 -3.40243E+00 -1.65756E+00 -1.41465E+00 -1.27048E-01 -7.01644E-01 -4.51940E+00  5.85960E-01
  -8.13070E-01 -8.56976E-01 -7.83097E-01 -2.57162E+00  1.87441E+00 -1.04608E+00  4.18929E-02  2.83772E+00  9.75386E-01 -1.58674E+00
  -1.08513E+00  3.41759E-01 -1.50605E+00 -1.48662E-01  3.91585E-01 -5.06378E+00  2.19840E+00  3.24527E+00  4.54773E-01 -1.35706E+00
   3.41865E+00 -7.08991E-01  2.19805E+00  6.68205E-01 -1.02167E+00 -2.84922E-01  3.14841E+00 -4.52096E+00 -4.32328E-01  2.56118E+00
  -2.76714E+00  4.42644E-01 -2.76340E+00  1.86095E+00  1.47601E+00  2.45893E+00  3.12542E+00 -1.90891E+00  3.44306E+00  3.83360E+00
   6.36537E+00 -1.23013E-01  3.81287E+00  3.57242E-01  4.93505E+00  9.98582E+00  7.77493E+00  1.38778E+01  1.69577E+01  1.64005E+01
   2.13920E+01  1.67323E+01  1.57102E+01  1.62698E+01  1.08502E+01  1.12026E+01  6.42501E+00 -1.26659E-01  3.13058E+00  5.10124E+00
   5.14184E+00  3.31034E+00  6.77480E-01 -5.32728E-01  2.31068E+00 -3.24607E-01 -2.33194E+00 -2.76762E+00  2.45299E+00 -5.10788E+00
   4.94134E-01  4.80218E-01 -2.89371E+00  2.30192E+00  2.40009E+00 -1.14178E-01 -1.65853E+00  1.01905E+00 -6.68441E-01 -1.82542E+00
  -5.74314E+00 -2.49478E+00 -8.99541E-01 -2.49727E+00 -1.48881E+00 -1.42891E+00  9.49856E-01 -5.70599E+00 -3.24998E+00 -3.14052E+00
  -3.13168E+00 -1.39702E+00 -5.95351E-01 -3.11900E+00 -3.65796E+00 -1.86530E+00  6.84772E-01 -3.50953E+00 -6.53481E-01  1.14061E+00
  -2.09590E+00  2.04441E+00 -7.20709E-01  3.75575E+00  1.00251E+00 -7.35776E-01  3.52006E+00 -6.88684E-01  1.89273E+00 -1.69381E+00
   2.71716E+00  5.62761E-01  2.11770E+00 -3.14639E+00 -1.80148E+00 -1.26560E+00 -9.27837E-01  5.45553E+00 -5.58306E-01 -3.47888E+00
   2.17746E+00  1.30571E+00  1.18725E+00 -5.01785E+00  7.59402E-01 -7.36927E-01 -8.75539E-01 -4.96627E-02 -5.04568E-01 -1.07133E+00
   2.01413E+00  7.00152E-01  8.88923E-01 -4.60150E+00 -1.64617E-01  1.12764E+00 -6.33913E-02 -4.62074E+00  1.29009E+00 -8.57602E-01
  -1.81695E-01 -6.00244E+00 -1.27901E+00 -1.14251E+00 -4.83239E-01 -9.60276E-01 -2.66552E+00 -4.08185E+00 -2.36398E+00 -1.01851E+00
  -3.13492E+00 -7.17646E-01  1.19900E+00 -6.72727E+00 -1.14242E+00 -4.85615E+00  2.79119E+00 -2.00710E+00  1.53731E+00  4.34931E-01
  -4.92894E-01 -4.07887E+00 -8.27528E-01  9.65601E-01 -1.66987E+00  4.99506E-01 -1.24320E+00  2.30698E-01  3.18740E+00  1.57837E+00
   3.12596E+00  4.03403E+00 -2.62919E+00  6.66679E+00  5.23369E+00  5.45337E+00  4.15145E+00  5.99497E-01  2.95892E+00  8.11298E-01
   2.22097E+00  1.90719E+00  1.12367E+00  3.66821E+00  3.98188E+00 -1.07361E+00  5.61027E+00  2.14002E+00  5.34931E+00  3.33852E+00
   3.69335E+00  1.07212E+00  2.13772E+00  2.57397E+00  2.13969E+00 -1.33163E+00  2.35744E+00  1.50968E+00  3.97988E+00  3.48791E+00
   5.46231E+00  3.22143E+00  2.42350E+00  1.84902E-01  3.42726E+00 -5.28079E-01  2.63746E+00 -3.79997E+00  3.30432E+00  2.05004E+00
   1.45661E+00 -9.49981E-01  5.42742E-01 -2.78005E-01  2.96008E+00  1.08842E+00  5.81250E+00  1.99772E+00  1.91460E+00  3.75888E+00
  -3.00905E-02  1.10080E+00  4.79817E+00 -2.88964E+00 -7.46083E-01 -4.14976E+00  2.92810E+00  1.59713E+00 -7.50294E-02  2.06152E+00
   1.19870E+00 -1.13161E+00  2.38185E+00 -3.13133E+00 -2.37138E+00  7.45610E-01 -5.79398E-01  3.28129E+00  2.57238E+00 -1.27752E+00
  -1.17431E+00 -3.70596E+00  4.98544E+00  7.88080E-01  1.82636E+00  9.63105E-01  3.04752E-01  1.19613E+00 -2.70240E+00  2.80392E-01
  -1.90902E+00  1.27051E-01  2.71640E-02  5.26516E-01  1.79806E+00  6.16322E-01  2.03873E-01  1.63687E+00  8.63870E-01  7.79870E-02
   2.27712E+00 -1.93582E+00  2.08569E-02  1.23237E+00 -2.96136E+00 -1.22897E+00  2.55929E-02 -1.65753E+00  4.16402E+00 -2.08906E+00
   2.03178E+00  3.14515E+00  3.12723E+00 -1.59138E+00  1.68612E+00 -3.24874E-01 -2.35045E+00  2.18681E+00 -4.51097E-01  3.24115E-02
  -2.61805E+00 -1.10464E+00 -2.53401E-01  3.35213E+00 -1.10038E+00 -1.20840E-02  1.19741E+00  1.27958E+00
 NY points of the fit to the data follow
  -1.66957E+00 -1.89166E+00 -2.06107E+00 -2.06763E+00 -1.94036E+00 -1.84971E+00 -1.84719E+00 -1.75937E+00 -1.32428E+00 -4.61647E-01
   6.57133E-01  1.73268E+00  2.51814E+00  2.85318E+00  2.62558E+00  1.85822E+00  7.61230E-01 -3.05516E-01 -1.02671E+00 -1.42239E+00
  -1.70318E+00 -1.89390E+00 -1.90969E+00 -1.84857E+00 -1.78234E+00 -1.73319E+00 -1.66205E+00 -1.52152E+00 -1.30112E+00 -1.02397E+00
  -7.37285E-01 -4.91625E-01 -3.41084E-01 -3.28163E-01 -4.55714E-01 -6.85235E-01 -9.53257E-01 -1.20581E+00 -1.42944E+00 -1.60139E+00
  -1.66902E+00 -1.64852E+00 -1.56555E+00 -1.37690E+00 -1.01845E+00 -5.09439E-01  2.47724E-02  4.37255E-01  6.23585E-01  5.30463E-01
   1.68744E-01 -3.87713E-01 -9.95949E-01 -1.49287E+00 -1.78434E+00 -1.87282E+00 -1.81700E+00 -1.66041E+00 -1.43130E+00 -1.19173E+00
  -1.01167E+00 -9.36178E-01 -9.79195E-01 -1.12079E+00 -1.31240E+00 -1.49177E+00 -1.60105E+00 -1.61258E+00 -1.53734E+00 -1.40479E+00
  -1.25387E+00 -1.11636E+00 -1.00223E+00 -9.16605E-01 -8.65199E-01 -8.63529E-01 -9.20202E-01 -1.02154E+00 -1.13772E+00 -1.23573E+00
  -1.31716E+00 -1.37178E+00 -1.34593E+00 -1.22690E+00 -1.07318E+00 -9.65288E-01 -9.59243E-01 -1.06754E+00 -1.25703E+00 -1.48148E+00
  -1.69144E+00 -1.83797E+00 -1.88317E+00 -1.81859E+00 -1.64920E+00 -1.36993E+00 -1.04618E+00 -7.22312E-01 -2.78957E-01  5.40460E-01
   1.81451E+00  3.34012E+00  4.72713E+00  5.61117E+00  5.80953E+00  5.25296E+00  4.04252E+00  2.47470E+00  9.33968E-01 -2.08691E-01
  -8.43223E-01 -1.20618E+00 -1.49395E+00 -1.59883E+00 -1.61686E+00 -1.61362E+00 -1.60063E+00 -1.58062E+00 -1.52657E+00 -1.34756E+00
  -1.02049E+00 -6.43750E-01 -2.01748E-01  5.54142E-01  1.85655E+00  3.63412E+00  5.51629E+00  7.00554E+00  7.75595E+00  7.62652E+00
   6.61766E+00  4.95771E+00  3.05488E+00  1.35622E+00  1.81173E-01 -5.20485E-01 -1.05960E+00 -1.43707E+00 -1.57495E+00 -1.59794E+00
  -1.55289E+00 -1.47320E+00 -1.39738E+00 -1.34897E+00 -1.33329E+00 -1.35321E+00 -1.39959E+00 -1.45891E+00 -1.52344E+00 -1.58867E+00
  -1.65433E+00 -1.72270E+00 -1.79172E+00 -1.86205E+00 -1.92109E+00 -1.95337E+00 -1.95803E+00 -1.95567E+00 -1.97936E+00 -2.04476E+00
  -2.13815E+00 -2.22899E+00 -2.29278E+00 -2.31151E+00 -2.28643E+00 -2.24537E+00 -2.22142E+00 -2.24815E+00 -2.33378E+00 -2.43642E+00
  -2.50658E+00 -2.53987E+00 -2.56278E+00 -2.60823E+00 -2.68268E+00 -2.74939E+00 -2.78154E+00 -2.78146E+00 -2.76083E+00 -2.72842E+00
  -2.68732E+00 -2.63060E+00 -2.55902E+00 -2.48323E+00 -2.38790E+00 -2.24576E+00 -2.05948E+00 -1.84349E+00 -1.60163E+00 -1.34701E+00
  -1.10127E+00 -9.01671E-01 -7.80858E-01 -7.58376E-01 -8.26822E-01 -9.45832E-01 -1.05888E+00 -1.13735E+00 -1.16494E+00 -1.13492E+00
  -1.05461E+00 -9.32286E-01 -7.83800E-01 -6.43118E-01 -5.57076E-01 -5.66898E-01 -6.84272E-01 -8.79249E-01 -1.12037E+00 -1.37208E+00
  -1.57914E+00 -1.68242E+00 -1.63250E+00 -1.42656E+00 -1.11908E+00 -8.05225E-01 -5.66601E-01 -4.63140E-01 -5.35798E-01 -7.87661E-01
  -1.15578E+00 -1.50142E+00 -1.68525E+00 -1.65972E+00 -1.45459E+00 -1.13120E+00 -7.41453E-01 -3.78756E-01 -1.33678E-01 -3.53752E-02
  -4.12905E-02 -6.46153E-02 -5.09519E-02  1.73919E-02  1.50255E-01  3.30080E-01  5.08599E-01  6.38715E-01  6.78182E-01  6.18350E-01
   5.01776E-01  3.85137E-01  3.28689E-01  3.77416E-01  5.35877E-01  7.81152E-01  1.06234E+00  1.34066E+00  1.64200E+00  1.94606E+00
   2.21072E+00  2.55053E+00  3.32524E+00  4.75074E+00  6.57998E+00  8.47505E+00  1.04229E+01  1.26402E+01  1.50445E+01  1.71691E+01
   1.84374E+01  1.85248E+01  1.74500E+01  1.53285E+01  1.23388E+01  8.88805E+00  5.76800E+00  3.58982E+00  2.32862E+00  1.46720E+00
   8.25092E-01  5.51692E-01  4.27618E-01  3.55199E-01  3.03932E-01  2.50837E-01  1.80028E-01  9.01388E-02 -1.32524E-02 -1.17459E-01
  -2.08711E-01 -2.77015E-01 -3.21113E-01 -3.48805E-01 -3.68293E-01 -3.84816E-01 -4.02739E-01 -4.27775E-01 -4.59400E-01 -4.90847E-01
  -5.14249E-01 -5.27475E-01 -5.32622E-01 -5.31312E-01 -5.26255E-01 -5.25039E-01 -5.31685E-01 -5.46921E-01 -5.67625E-01 -5.87205E-01
  -6.01318E-01 -6.10054E-01 -6.12151E-01 -6.07965E-01 -6.00089E-01 -5.91514E-01 -5.84550E-01 -5.79198E-01 -5.74089E-01 -5.69445E-01
  -5.64991E-01 -5.60010E-01 -5.54473E-01 -5.48230E-01 -5.41162E-01 -5.33085E-01 -5.23709E-01 -5.12455E-01 -4.98178E-01 -4.78865E-01
  -4.56622E-01 -4.35213E-01 -4.11926E-01 -3.80118E-01 -3.41638E-01 -3.10688E-01 -3.05175E-01 -3.33603E-01 -3.90754E-01 -4.69861E-01
  -5.62469E-01 -6.46990E-01 -6.93224E-01 -6.79898E-01 -6.07229E-01 -5.00383E-01 -3.89325E-01 -2.86871E-01 -2.07236E-01 -1.64799E-01
  -1.58062E-01 -1.75112E-01 -1.96844E-01 -2.09803E-01 -2.17587E-01 -2.23411E-01 -2.22163E-01 -2.16017E-01 -2.06738E-01 -1.95074E-01
  -1.81465E-01 -1.66174E-01 -1.49447E-01 -1.31477E-01 -1.12493E-01 -9.26987E-02 -7.23417E-02 -5.16402E-02 -3.08576E-02 -1.02198E-02
   1.00188E-02  2.96654E-02  4.85262E-02  6.64889E-02  8.34545E-02  9.94231E-02  1.14428E-01  1.28620E-01  1.42193E-01  1.55464E-01
   1.68789E-01  1.82644E-01  1.97548E-01  2.14138E-01  2.33084E-01  2.55163E-01  2.81171E-01  3.11993E-01  3.48521E-01  3.91716E-01
   4.42504E-01  5.01829E-01  5.70541E-01  6.49434E-01  7.39124E-01  8.40063E-01  9.52403E-01  1.07600E+00  1.21030E+00  1.35432E+00
   1.50660E+00  1.66518E+00  1.82761E+00  1.99101E+00  2.15205E+00  2.30721E+00  2.45274E+00  2.58496E+00  2.70030E+00  2.79559E+00
   2.86811E+00  2.91584E+00  2.93748E+00  2.93258E+00  2.90153E+00  2.84553E+00  2.76653E+00  2.66715E+00  2.55046E+00  2.41990E+00
   2.27902E+00  2.13143E+00  1.98055E+00  1.82954E+00  1.68117E+00  1.53780E+00  1.40129E+00  1.27304E+00  1.15400E+00  1.04472E+00
   9.45367E-01  8.55837E-01  7.75765E-01  7.04652E-01  6.41851E-01  5.86684E-01  5.38404E-01  4.96311E-01  4.59692E-01  4.27922E-01
   4.00390E-01  3.76581E-01  3.55998E-01  3.38240E-01  3.22923E-01  3.09754E-01  2.98441E-01  2.88768E-01  2.80513E-01  2.73521E-01
   2.67627E-01  2.62726E-01  2.58689E-01  2.55439E-01  2.52873E-01  2.50939E-01  2.49557E-01  2.48696E-01  2.48286E-01  2.48304E-01
   2.48690E-01  2.49433E-01  2.50485E-01  2.51842E-01  2.53458E-01  2.55332E-01  2.57422E-01  2.59735E-01  2.62236E-01  2.64931E-01
   2.67785E-01  2.70803E-01  2.73957E-01  2.77258E-01  2.80680E-01  2.84232E-01  2.87885E-01  2.91651E-01  2.95505E-01  2.99463E-01
   3.03501E-01  3.07630E-01  3.11824E-01  3.16100E-01  3.20435E-01  3.24848E-01  3.29314E-01  3.33846E-01  3.38421E-01  3.43056E-01
   3.47731E-01  3.52465E-01  3.57232E-01  3.62048E-01  3.66890E-01  3.71780E-01  3.76696E-01  3.81657E-01  3.86637E-01  3.91653E-01
   3.96685E-01  4.01753E-01  4.06837E-01  4.11954E-01  4.17079E-01  4.22230E-01  4.27388E-01  4.32573E-01
 NY background values follow
    -2.878E+00   -2.872E+00   -2.865E+00   -2.859E+00   -2.853E+00   -2.846E+00   -2.840E+00   -2.833E+00   -2.827E+00   -2.820E+00
    -2.814E+00   -2.808E+00   -2.801E+00   -2.795E+00   -2.788E+00   -2.782E+00   -2.776E+00   -2.769E+00   -2.763E+00   -2.756E+00
    -2.750E+00   -2.743E+00   -2.737E+00   -2.731E+00   -2.724E+00   -2.718E+00   -2.711E+00   -2.705E+00   -2.698E+00   -2.692E+00
    -2.686E+00   -2.679E+00   -2.673E+00   -2.666E+00   -2.660E+00   -2.654E+00   -2.647E+00   -2.641E+00   -2.634E+00   -2.628E+00
    -2.621E+00   -2.615E+00   -2.609E+00   -2.602E+00   -2.596E+00   -2.589E+00   -2.583E+00   -2.576E+00   -2.570E+00   -2.564E+00
    -2.557E+00   -2.551E+00   -2.544E+00   -2.538E+00   -2.531E+00   -2.525E+00   -2.519E+00   -2.512E+00   -2.506E+00   -2.499E+00
    -2.493E+00   -2.486E+00   -2.480E+00   -2.474E+00   -2.467E+00   -2.461E+00   -2.454E+00   -2.448E+00   -2.441E+00   -2.435E+00
    -2.429E+00   -2.422E+00   -2.416E+00   -2.409E+00   -2.403E+00   -2.396E+00   -2.390E+00   -2.384E+00   -2.377E+00   -2.371E+00
    -2.364E+00   -2.358E+00   -2.351E+00   -2.345E+00   -2.338E+00   -2.332E+00   -2.326E+00   -2.319E+00   -2.313E+00   -2.306E+00
    -2.300E+00   -2.293E+00   -2.287E+00   -2.281E+00   -2.274E+00   -2.268E+00   -2.261E+00   -2.255E+00   -2.248E+00   -2.242E+00
    -2.236E+00   -2.229E+00   -2.223E+00   -2.216E+00   -2.210E+00   -2.203E+00   -2.197E+00   -2.190E+00   -2.184E+00   -2.178E+00
    -2.171E+00   -2.165E+00   -2.158E+00   -2.152E+00   -2.145E+00   -2.139E+00   -2.133E+00   -2.126E+00   -2.120E+00   -2.113E+00
    -2.107E+00   -2.100E+00   -2.094E+00   -2.087E+00   -2.081E+00   -2.075E+00   -2.068E+00   -2.062E+00   -2.055E+00   -2.049E+00
    -2.042E+00   -2.036E+00   -2.029E+00   -2.023E+00   -2.017E+00   -2.010E+00   -2.004E+00   -1.997E+00   -1.991E+00   -1.984E+00
    -1.978E+00   -1.971E+00   -1.965E+00   -1.959E+00   -1.952E+00   -1.946E+00   -1.939E+00   -1.933E+00   -1.926E+00   -1.920E+00
    -1.914E+00   -1.907E+00   -1.901E+00   -1.894E+00   -1.888E+00   -1.881E+00   -1.875E+00   -1.868E+00   -1.862E+00   -1.856E+00
    -1.849E+00   -1.843E+00   -1.836E+00   -1.830E+00   -1.823E+00   -1.817E+00   -1.810E+00   -1.804E+00   -1.798E+00   -1.791E+00
    -1.785E+00   -1.778E+00   -1.772E+00   -1.765E+00   -1.759E+00   -1.752E+00   -1.746E+00   -1.739E+00   -1.733E+00   -1.727E+00
    -1.720E+00   -1.714E+00   -1.707E+00   -1.701E+00   -1.694E+00   -1.688E+00   -1.681E+00   -1.675E+00   -1.669E+00   -1.662E+00
    -1.656E+00   -1.649E+00   -1.643E+00   -1.636E+00   -1.630E+00   -1.623E+00   -1.617E+00   -1.611E+00   -1.604E+00   -1.598E+00
    -1.591E+00   -1.585E+00   -1.578E+00   -1.572E+00   -1.565E+00   -1.559E+00   -1.553E+00   -1.546E+00   -1.540E+00   -1.533E+00
    -1.527E+00   -1.520E+00   -1.514E+00   -1.507E+00   -1.501E+00   -1.494E+00   -1.488E+00   -1.482E+00   -1.475E+00   -1.469E+00
    -1.462E+00   -1.456E+00   -1.449E+00   -1.443E+00   -1.436E+00   -1.430E+00   -1.424E+00   -1.417E+00   -1.411E+00   -1.404E+00
    -1.398E+00   -1.391E+00   -1.385E+00   -1.378E+00   -1.372E+00   -1.365E+00   -1.359E+00   -1.353E+00   -1.346E+00   -1.340E+00
    -1.333E+00   -1.327E+00   -1.320E+00   -1.314E+00   -1.307E+00   -1.301E+00   -1.295E+00   -1.288E+00   -1.282E+00   -1.275E+00
    -1.269E+00   -1.262E+00   -1.256E+00   -1.249E+00   -1.243E+00   -1.236E+00   -1.230E+00   -1.224E+00   -1.217E+00   -1.211E+00
    -1.204E+00   -1.198E+00   -1.191E+00   -1.185E+00   -1.178E+00   -1.172E+00   -1.165E+00   -1.159E+00   -1.153E+00   -1.146E+00
    -1.140E+00   -1.133E+00   -1.127E+00   -1.120E+00   -1.114E+00   -1.107E+00   -1.101E+00   -1.095E+00   -1.088E+00   -1.082E+00
    -1.075E+00   -1.069E+00   -1.062E+00   -1.056E+00   -1.049E+00   -1.043E+00   -1.036E+00   -1.030E+00   -1.024E+00   -1.017E+00
    -1.011E+00   -1.004E+00   -9.978E-01   -9.913E-01   -9.849E-01   -9.784E-01   -9.720E-01   -9.655E-01   -9.591E-01   -9.526E-01
    -9.462E-01   -9.397E-01   -9.333E-01   -9.268E-01   -9.204E-01   -9.139E-01   -9.075E-01   -9.010E-01   -8.946E-01   -8.881E-01
    -8.817E-01   -8.752E-01   -8.688E-01   -8.623E-01   -8.559E-01   -8.494E-01   -8.430E-01   -8.365E-01   -8.301E-01   -8.236E-01
    -8.172E-01   -8.107E-01   -8.043E-01   -7.978E-01   -7.914E-01   -7.849E-01   -7.785E-01   -7.720E-01   -7.656E-01   -7.591E-01
    -7.527E-01   -7.462E-01   -7.398E-01   -7.333E-01   -7.269E-01   -7.204E-01   -7.140E-01   -7.075E-01   -7.011E-01   -6.946E-01
    -6.882E-01   -6.817E-01   -6.753E-01   -6.688E-01   -6.624E-01   -6.559E-01   -6.495E-01   -6.430E-01   -6.366E-01   -6.301E-01
    -6.237E-01   -6.172E-01   -6.108E-01   -6.043E-01   -5.979E-01   -5.915E-01   -5.850E-01   -5.786E-01   -5.721E-01   -5.657E-01
    -5.592E-01   -5.528E-01   -5.463E-01   -5.399E-01   -5.334E-01   -5.270E-01   -5.205E-01   -5.141E-01   -5.076E-01   -5.012E-01
    -4.948E-01   -4.883E-01   -4.819E-01   -4.754E-01   -4.690E-01   -4.625E-01   -4.561E-01   -4.496E-01   -4.432E-01   -4.367E-01
    -4.303E-01   -4.239E-01   -4.174E-01   -4.110E-01   -4.045E-01   -3.981E-01   -3.916E-01   -3.852E-01   -3.787E-01   -3.723E-01
    -3.659E-01   -3.594E-01   -3.530E-01   -3.465E-01   -3.401E-01   -3.336E-01   -3.272E-01   -3.207E-01   -3.143E-01   -3.079E-01
    -3.014E-01   -2.950E-01   -2.885E-01   -2.821E-01   -2.757E-01   -2.692E-01   -2.628E-01   -2.563E-01   -2.499E-01   -2.434E-01
    -2.370E-01   -2.306E-01   -2.241E-01   -2.177E-01   -2.112E-01   -2.048E-01   -1.984E-01   -1.919E-01   -1.855E-01   -1.790E-01
    -1.726E-01   -1.662E-01   -1.597E-01   -1.533E-01   -1.468E-01   -1.404E-01   -1.340E-01   -1.275E-01   -1.211E-01   -1.146E-01
    -1.082E-01   -1.018E-01   -9.533E-02   -8.889E-02   -8.245E-02   -7.602E-02   -6.958E-02   -6.314E-02   -5.670E-02   -5.027E-02
    -4.383E-02   -3.739E-02   -3.096E-02   -2.452E-02   -1.809E-02   -1.165E-02   -5.215E-03    1.221E-03    7.656E-03    1.409E-02
     2.053E-02    2.696E-02    3.340E-02    3.983E-02    4.626E-02    5.270E-02    5.913E-02    6.557E-02    7.200E-02    7.843E-02
     8.486E-02    9.130E-02    9.773E-02    1.042E-01    1.106E-01    1.170E-01    1.235E-01    1.299E-01    1.363E-01    1.428E-01
     1.492E-01    1.556E-01    1.620E-01    1.685E-01    1.749E-01    1.813E-01    1.878E-01    1.942E-01    2.006E-01    2.071E-01
     2.135E-01    2.199E-01    2.263E-01    2.328E-01    2.392E-01    2.456E-01    2.521E-01    2.585E-01    2.649E-01    2.713E-01
     2.778E-01    2.842E-01    2.906E-01    2.970E-01    3.035E-01    3.099E-01    3.163E-01    3.227E-01
 Ala      Conc. = 2.17E+01
