 LCModel (Version 6.3-1L) Copyright: S.W. Provencher.          Ref.: Magn. Reson. Med. 30:672-679 (1993).                
 Slice#2 Row#10 Col#10  PD_24_press_1_raw_act
 36 lines in following concentration table = NCONC+1
    Conc.  %SD /Cr+PCr  Metabolite                                         
  225.065  52%   0.126 Ala                                                 
    0.000 999%   0.000 Asp                                                 
  607.821  43%   0.340 Cr                                                  
 1.18E+03  23%   0.660 PCr                                                 
    0.000 999%   0.000 GABA                                                
   47.067 417% 2.6E-02 Glc                                                 
  747.857  32%   0.419 Gln                                                 
 1.68E+03  16%   0.942 Glu                                                 
  835.376   3%   0.468 GPC                                                 
    0.000 999%   0.000 PCh                                                 
  482.455  17%   0.270 GSH                                                 
 1.74E+03  16%   0.977 Ins                                                 
   92.289 156% 5.2E-02 Lac                                                 
 2.67E+03   5%   1.495 NAA                                                 
  512.448  28%   0.287 NAAG                                                
  210.504  15%   0.118 Scyllo                                              
   17.840 999% 1.0E-02 Tau                                                 
  442.114  28%   0.247 -CrCH2                                              
  835.376   3%   0.468 GPC+PCh                                             
 3.18E+03   3%   1.782 NAA+NAAG                                            
 1.79E+03   3%   1.000 Cr+PCr                                              
 2.43E+03  16%   1.360 Glu+Gln                                             
 1.70E+03  33%   0.952 Lip13a                                              
  458.421  36%   0.257 Lip13b                                              
  413.562  74%   0.232 Lip09                                               
 1.74E+03  19%   0.971 MM09                                                
  443.586  48%   0.248 Lip20                                               
 3.56E+03  12%   1.995 MM20                                                
  720.494  34%   0.403 MM12                                                
    0.000 999%   0.000 MM14                                                
 1.05E+03  25%   0.590 MM17                                                
 2.16E+03  23%   1.208 Lip13a+Lip13b                                       
 2.88E+03  15%   1.611 MM14+Lip13a+Lip13b+MM12                             
 2.15E+03  11%   1.203 MM09+Lip09                                          
 4.01E+03  11%   2.243 MM20+Lip20                                          
   6 lines in following misc. output table
  FWHM = 0.061 ppm    S/N =  16                                            
  Data shift = 0.008 ppm                                                   
  Ph: -13 deg      -6.9 deg/ppm                                            
  alphaB,S = 1.0E+00,   7.8E+01                                            
   14 spline knots.   Ns = 8(1)                                            
  (14) 3 infls.   (13) 1 extrs.                                            
  498 points on ppm-axis = NY
      4.000000     3.992357     3.984714     3.977070     3.969427     3.961784     3.954141     3.946497     3.938854     3.931211
      3.923568     3.915925     3.908281     3.900638     3.892995     3.885352     3.877708     3.870065     3.862422     3.854779
      3.847136     3.839492     3.831849     3.824206     3.816563     3.808919     3.801276     3.793633     3.785990     3.778347
      3.770703     3.763060     3.755417     3.747774     3.740130     3.732487     3.724844     3.717201     3.709558     3.701914
      3.694271     3.686628     3.678985     3.671341     3.663698     3.656055     3.648412     3.640769     3.633125     3.625482
      3.617839     3.610196     3.602552     3.594909     3.587266     3.579623     3.571980     3.564336     3.556693     3.549050
      3.541407     3.533763     3.526120     3.518477     3.510834     3.503191     3.495547     3.487904     3.480261     3.472618
      3.464974     3.457331     3.449688     3.442045     3.434402     3.426758     3.419115     3.411472     3.403829     3.396185
      3.388542     3.380899     3.373256     3.365613     3.357969     3.350326     3.342683     3.335040     3.327396     3.319753
      3.312110     3.304467     3.296824     3.289180     3.281537     3.273894     3.266251     3.258607     3.250964     3.243321
      3.235678     3.228034     3.220391     3.212748     3.205105     3.197462     3.189818     3.182175     3.174532     3.166889
      3.159245     3.151602     3.143959     3.136316     3.128673     3.121029     3.113386     3.105743     3.098100     3.090456
      3.082813     3.075170     3.067527     3.059884     3.052240     3.044597     3.036954     3.029311     3.021667     3.014024
      3.006381     2.998738     2.991095     2.983451     2.975808     2.968165     2.960522     2.952878     2.945235     2.937592
      2.929949     2.922306     2.914662     2.907019     2.899376     2.891733     2.884089     2.876446     2.868803     2.861160
      2.853517     2.845873     2.838230     2.830587     2.822944     2.815300     2.807657     2.800014     2.792371     2.784728
      2.777084     2.769441     2.761798     2.754155     2.746511     2.738868     2.731225     2.723582     2.715939     2.708295
      2.700652     2.693009     2.685366     2.677722     2.670079     2.662436     2.654793     2.647150     2.639506     2.631863
      2.624220     2.616577     2.608933     2.601290     2.593647     2.586004     2.578361     2.570717     2.563074     2.555431
      2.547788     2.540144     2.532501     2.524858     2.517215     2.509572     2.501928     2.494285     2.486642     2.478999
      2.471355     2.463712     2.456069     2.448426     2.440783     2.433139     2.425496     2.417853     2.410210     2.402566
      2.394923     2.387280     2.379637     2.371994     2.364350     2.356707     2.349064     2.341421     2.333777     2.326134
      2.318491     2.310848     2.303205     2.295561     2.287918     2.280275     2.272632     2.264988     2.257345     2.249702
      2.242059     2.234416     2.226772     2.219129     2.211486     2.203843     2.196199     2.188556     2.180913     2.173270
      2.165627     2.157983     2.150340     2.142697     2.135054     2.127410     2.119767     2.112124     2.104481     2.096838
      2.089194     2.081551     2.073908     2.066265     2.058621     2.050978     2.043335     2.035692     2.028049     2.020405
      2.012762     2.005119     1.997476     1.989833     1.982190     1.974546     1.966903     1.959260     1.951617     1.943974
      1.936331     1.928688     1.921045     1.913402     1.905759     1.898115     1.890472     1.882829     1.875186     1.867543
      1.859900     1.852257     1.844614     1.836971     1.829327     1.821684     1.814041     1.806398     1.798755     1.791112
      1.783469     1.775826     1.768183     1.760540     1.752896     1.745253     1.737610     1.729967     1.722324     1.714681
      1.707038     1.699395     1.691752     1.684108     1.676465     1.668822     1.661179     1.653536     1.645893     1.638250
      1.630607     1.622964     1.615321     1.607677     1.600034     1.592391     1.584748     1.577105     1.569462     1.561819
      1.554176     1.546533     1.538890     1.531246     1.523603     1.515960     1.508317     1.500674     1.493031     1.485388
      1.477745     1.470102     1.462458     1.454815     1.447172     1.439529     1.431886     1.424243     1.416600     1.408957
      1.401314     1.393671     1.386027     1.378384     1.370741     1.363098     1.355455     1.347812     1.340169     1.332526
      1.324883     1.317240     1.309596     1.301953     1.294310     1.286667     1.279024     1.271381     1.263738     1.256095
      1.248452     1.240808     1.233165     1.225522     1.217879     1.210236     1.202593     1.194950     1.187307     1.179664
      1.172021     1.164377     1.156734     1.149091     1.141448     1.133805     1.126162     1.118519     1.110876     1.103233
      1.095590     1.087946     1.080303     1.072660     1.065017     1.057374     1.049731     1.042088     1.034445     1.026802
      1.019158     1.011515     1.003872     0.996229     0.988586     0.980943     0.973300     0.965657     0.958014     0.950371
      0.942727     0.935084     0.927441     0.919798     0.912155     0.904512     0.896869     0.889226     0.881583     0.873940
      0.866296     0.858653     0.851010     0.843367     0.835724     0.828081     0.820438     0.812795     0.805152     0.797508
      0.789865     0.782222     0.774579     0.766936     0.759293     0.751650     0.744007     0.736364     0.728721     0.721077
      0.713434     0.705791     0.698148     0.690505     0.682862     0.675219     0.667576     0.659933     0.652290     0.644646
      0.637003     0.629360     0.621717     0.614074     0.606431     0.598788     0.591145     0.583502     0.575858     0.568215
      0.560572     0.552929     0.545286     0.537643     0.530000     0.522357     0.514714     0.507071     0.499427     0.491784
      0.484141     0.476498     0.468855     0.461212     0.453569     0.445925     0.438282     0.430639     0.422996     0.415353
      0.407710     0.400067     0.392424     0.384780     0.377137     0.369494     0.361851     0.354208     0.346565     0.338922
      0.331278     0.323635     0.315992     0.308349     0.300706     0.293063     0.285420     0.277777     0.270133     0.262490
      0.254847     0.247204     0.239561     0.231918     0.224275     0.216631     0.208988     0.201345
 NY phased data points follow
  -1.20035E-01 -6.35279E+00 -4.20988E+00 -2.87086E+00  6.67192E+00  6.11546E+00  1.20407E+01  1.58047E+01  2.40689E+01  2.46983E+01
   2.88742E+01  2.85404E+01  2.45165E+01  1.71850E+01  1.24337E+01  7.28559E+00  6.37990E+00  2.01495E+00  2.30126E+00 -1.99296E+00
  -1.33288E+00 -3.04944E+00  3.27762E+00  2.84416E-01  2.48053E+00  4.40322E+00  6.12196E+00  5.48445E+00  4.22403E+00 -1.89685E+00
   9.62824E+00  3.95613E+00  7.69424E+00  1.76493E+00  8.06564E+00  1.60384E+00  4.39054E-01  1.61710E+00  3.45829E+00  4.01293E+00
   6.31739E+00  4.58021E+00  8.47948E+00  3.75665E+00  1.10444E+01  7.26224E+00  1.26900E+01  6.42149E+00  1.36898E+01  6.03205E+00
   5.59112E+00  1.62543E+00  2.86701E+00  1.17119E+00  7.41338E+00 -1.95344E+00  4.30901E+00  8.39837E-02  4.12995E+00  3.64273E+00
   1.12027E+00 -5.82542E+00 -2.30222E+00 -6.55784E+00 -2.30565E-02 -8.52874E+00 -7.26609E+00 -6.85573E+00 -4.12038E+00 -6.96686E+00
   1.32681E-01 -2.14232E+00 -3.22266E+00 -5.58679E+00  3.41977E-01 -3.31774E+00  5.17407E-02 -7.27206E+00  7.58670E-01 -5.42152E-01
   7.83698E-01 -5.76728E-01  4.17457E+00 -3.88973E-01  2.52524E+00  4.89892E-01  3.94863E+00  1.49069E+00  9.14331E+00 -1.14164E-01
   4.00363E+00  2.01308E+00  4.78910E+00  5.58969E+00  6.06315E+00  5.86335E+00  9.16648E+00  1.15208E+01  2.97892E+01  3.71299E+01
   5.35130E+01  5.67596E+01  6.29194E+01  6.10921E+01  5.50488E+01  4.32676E+01  3.80399E+01  2.38675E+01  1.66227E+01  1.08258E+01
   1.03250E+01  1.79680E+00  2.91375E+00  2.17034E+00 -2.04092E-01 -2.52214E+00 -3.32550E+00 -4.31698E+00  2.19275E+00 -9.97228E-01
   4.65862E+00  4.94382E+00  1.03208E+01  2.12074E+01  3.57060E+01  4.16765E+01  5.38702E+01  4.94043E+01  4.85980E+01  4.23128E+01
   3.25724E+01  2.02899E+01  1.70669E+01  8.90786E+00  8.36379E+00  8.96318E-01 -8.94412E-01 -2.17561E+00 -1.41150E-03 -1.37734E+00
  -4.31831E+00 -1.21712E+00 -2.13751E+00 -2.57613E+00 -1.08115E+00 -5.86641E+00 -3.60614E+00 -3.64027E+00  1.20312E-01 -2.54890E-01
   4.18802E-01 -3.77866E+00 -1.23007E+00 -4.05780E+00 -4.08053E+00 -5.83281E+00 -1.55957E+00 -3.83416E+00 -2.44413E+00 -4.84557E+00
  -6.36383E+00 -7.52274E+00 -8.27065E+00 -9.03793E+00 -4.53026E+00 -9.70624E+00 -5.48453E+00 -4.92998E+00 -9.07718E+00 -1.23950E+01
  -1.01802E+01 -1.40479E+01 -1.15098E+01 -1.92269E+01 -1.46951E+01 -2.02445E+01 -1.85721E+01 -1.67714E+01 -1.27509E+01 -1.34033E+01
  -1.37887E+01 -1.61807E+01 -1.09046E+01 -1.30438E+01 -1.67025E+01 -1.42819E+01 -1.10494E+01 -1.14530E+01 -8.42374E+00 -2.05489E+00
  -7.34430E+00 -2.95424E+00 -1.10388E+00 -2.88566E+00 -2.90692E+00 -4.27503E+00 -6.83324E+00 -4.23055E+00 -5.23410E+00 -5.85189E+00
  -5.66817E+00 -2.00214E+00 -1.43825E+00 -3.80729E+00  1.20898E+00 -2.04867E+00 -6.12295E-01 -1.46264E+00 -4.24941E+00  2.98268E-01
  -4.87511E+00 -1.57269E+00  4.95863E-01  5.66653E+00  5.85571E+00  1.21016E+01  1.13735E+01  9.92934E+00  7.13805E+00  2.31052E+00
   2.16577E+00 -4.04334E+00 -8.44429E-01 -3.10492E+00 -1.18415E+00  3.48516E+00  4.38067E+00  7.60653E+00  7.98044E+00  9.71160E+00
   9.06733E+00  7.82519E+00  8.48233E+00  8.42898E+00  8.64067E+00  4.31004E+00  8.59849E+00  7.67851E+00  4.36100E+00  6.59475E-01
   1.34178E+00  3.40073E+00  1.91370E+00 -8.46111E-02  2.40199E+00  7.42823E+00  6.99323E+00  1.12856E+01  1.27443E+01  1.66525E+01
   1.52693E+01  2.22741E+01  2.87553E+01  2.90309E+01  3.94922E+01  5.04316E+01  5.64401E+01  7.47268E+01  8.40015E+01  9.81070E+01
   9.91811E+01  9.13328E+01  8.43936E+01  6.77271E+01  5.28227E+01  3.95841E+01  3.14426E+01  2.19596E+01  1.45780E+01  1.59732E+01
   8.92767E+00  7.57413E+00  8.43126E+00  4.95735E+00  7.96120E+00  7.23648E+00  5.13193E+00  6.12208E+00  3.77194E+00  3.26637E+00
   2.89717E+00  4.09985E+00  3.57847E+00  6.10024E+00  4.40586E-01  3.68018E+00  2.86206E+00  4.34902E+00  3.85551E+00  3.00365E+00
   4.95084E+00  4.46768E+00  5.68328E+00  6.12544E+00  4.16280E+00  8.21219E-01  6.03191E+00  1.00274E+00  1.07697E+00 -6.03785E-01
   1.23187E+00  3.00997E+00  3.29573E+00  4.18851E+00  6.47400E+00  7.96564E+00  3.54674E+00  8.71606E+00  8.05180E+00  6.62134E+00
   7.93289E+00  9.08425E+00  5.83048E+00  9.37046E+00  8.45457E+00  6.77253E+00  4.84770E+00  8.37180E+00  4.64892E+00  5.40884E+00
   7.65822E+00  3.40190E+00  5.71540E+00  2.07456E+00  8.11447E+00  3.73358E+00  8.48389E-01  2.27603E+00  1.13329E+00 -1.06658E+00
   9.99613E-01  8.45290E-01 -1.82056E+00  1.16221E+00  3.13789E+00  3.35040E+00  4.86009E+00  3.54908E+00  4.91028E+00  4.72626E+00
   3.72200E+00  3.70788E+00  5.30923E+00  6.18070E+00  5.91941E+00  7.97181E+00  4.41541E+00  9.29412E+00  1.16581E+01  6.76713E+00
   1.00126E+01  8.27665E+00  1.24320E+01  1.13689E+01  1.54045E+01  2.18315E+01  1.96928E+01  1.75925E+01  1.72737E+01  1.47472E+01
   1.72364E+01  1.77325E+01  1.53720E+01  1.50416E+01  1.30662E+01  1.13004E+01  1.40803E+01  1.32543E+01  1.00736E+01  1.15290E+01
   1.36973E+01  1.25127E+01  9.74309E+00  8.03578E+00  6.98813E+00  6.09391E+00  5.99464E+00  1.20119E+01  6.71915E+00  7.89986E+00
   5.82343E+00  1.15120E+01  8.26410E+00  7.61849E+00  4.90702E+00  8.15143E+00  9.69993E+00  9.17958E+00  1.32501E+01  9.17055E+00
   8.83511E+00  1.12852E+01  6.98640E+00  8.14598E+00  1.09899E+01  9.65255E+00  1.28567E+01  1.10368E+01  1.04063E+01  1.22620E+01
   1.42162E+01  1.06156E+01  1.27919E+01  1.25769E+01  1.28371E+01  1.69829E+01  1.62000E+01  1.81107E+01  1.53126E+01  1.71897E+01
   1.68415E+01  1.97616E+01  1.64480E+01  1.58497E+01  1.60880E+01  1.53558E+01  1.16354E+01  9.26131E+00  1.26991E+01  1.05941E+01
   7.97404E+00  1.03079E+01  1.11900E+01  7.97290E+00  7.47460E+00  5.56413E+00  3.64773E+00  7.88766E+00  7.40029E-01  6.22167E+00
   6.63234E+00  2.11025E+00  6.82951E+00  5.22633E+00  5.22364E+00  5.79934E+00  4.50930E+00  6.89105E+00  5.16572E+00  7.54634E+00
   4.99524E+00  5.93248E+00  1.68126E+00  6.50793E+00  5.26803E+00  4.39612E+00  3.72407E+00  5.91099E+00  2.89540E+00  7.48139E+00
   3.27756E+00  4.13989E+00  2.10902E+00  4.91633E+00  1.28803E+00  1.26915E+00  3.39123E+00 -1.91347E+00  2.47043E+00 -3.26375E-02
   2.59660E+00  2.98422E+00  3.18467E+00  5.23497E+00 -8.55339E-01  3.28007E-01  4.25041E+00  3.05238E+00  3.70669E+00  2.35262E+00
  -7.94037E-02  3.82862E+00  3.54673E+00 -5.09956E-01  2.17729E+00  3.25049E+00  1.38315E+00  1.37473E+00  2.99323E+00  4.04579E+00
  -4.53100E-01  2.36085E+00 -6.16772E-01  1.31012E+00  3.70744E+00  1.97714E+00  3.30190E+00  1.28985E-02  2.47995E+00  3.42540E+00
   2.68647E+00  3.94345E+00  2.22171E+00  4.07243E+00  3.40366E+00 -9.92235E-01  2.85083E+00  1.83767E+00
 NY points of the fit to the data follow
  -1.89272E+00 -1.76311E+00 -4.62513E-01  1.35050E+00  3.68919E+00  7.08847E+00  1.18708E+01  1.74142E+01  2.25869E+01  2.60688E+01
   2.71559E+01  2.58630E+01  2.25836E+01  1.82082E+01  1.37339E+01  9.92617E+00  7.03250E+00  4.97113E+00  3.10183E+00  1.24569E+00
  -5.46977E-03 -5.77768E-01 -5.54495E-01 -4.53643E-01 -3.31752E-02  9.59192E-01  2.50032E+00  4.32103E+00  6.05132E+00  7.41004E+00
   8.25430E+00  8.39621E+00  7.82212E+00  6.72154E+00  5.30621E+00  3.78934E+00  2.20536E+00  8.40827E-01  2.73731E-02 -2.78175E-03
   7.06986E-01  1.89687E+00  3.68790E+00  5.91458E+00  8.12372E+00  9.75058E+00  1.03265E+01  9.77172E+00  8.27169E+00  6.06068E+00
   3.64287E+00  1.59965E+00  1.73649E-01 -5.50842E-01 -7.79525E-01 -7.67967E-01 -5.50178E-01 -1.10845E-01  3.00989E-01  3.74940E-01
   8.82099E-03 -7.17154E-01 -1.61278E+00 -2.38857E+00 -2.86729E+00 -2.99683E+00 -2.77369E+00 -2.33181E+00 -1.84227E+00 -1.39421E+00
  -1.08205E+00 -9.32830E-01 -9.36288E-01 -1.08081E+00 -1.31887E+00 -1.59847E+00 -1.86022E+00 -2.04483E+00 -2.09337E+00 -1.74775E+00
  -1.35419E+00 -8.66509E-01  9.12806E-02  1.48567E+00  2.94151E+00  4.06960E+00  4.54623E+00  4.27582E+00  3.48547E+00  2.33706E+00
   1.16004E+00  3.00664E-01 -8.59606E-02  8.47333E-02  1.59544E+00  5.14817E+00  9.16987E+00  1.51582E+01  2.48220E+01  3.73757E+01
   5.01580E+01  6.01175E+01  6.46595E+01  6.30356E+01  5.61687E+01  4.56120E+01  3.39740E+01  2.36210E+01  1.57018E+01  1.00386E+01
   5.81925E+00  1.97474E+00 -1.50021E+00 -3.03847E+00 -3.43523E+00 -3.51795E+00 -3.44590E+00 -3.20350E+00 -2.47516E+00 -5.90598E-02
   3.62234E+00  7.69892E+00  1.39148E+01  2.30152E+01  3.35990E+01  4.32804E+01  4.96440E+01  5.11726E+01  4.81515E+01  4.15213E+01
   3.27032E+01  2.37823E+01  1.61955E+01  1.03949E+01  6.05392E+00  2.55475E+00 -7.15287E-01 -2.71977E+00 -2.85944E+00 -2.45807E+00
  -2.05743E+00 -1.86815E+00 -1.92285E+00 -2.10789E+00 -2.34107E+00 -2.61147E+00 -2.89164E+00 -3.17334E+00 -3.47022E+00 -3.77140E+00
  -4.08548E+00 -4.33978E+00 -4.52779E+00 -4.69983E+00 -4.81028E+00 -4.86036E+00 -4.97070E+00 -5.19439E+00 -5.58100E+00 -6.04382E+00
  -6.36345E+00 -6.46017E+00 -6.41963E+00 -6.33727E+00 -6.36391E+00 -6.62500E+00 -7.09770E+00 -7.71546E+00 -8.36967E+00 -8.90570E+00
  -9.21494E+00 -9.54420E+00 -1.00227E+01 -1.05809E+01 -1.10406E+01 -1.11715E+01 -1.10400E+01 -1.08681E+01 -1.07177E+01 -1.06263E+01
  -1.05532E+01 -1.03845E+01 -1.01543E+01 -9.78798E+00 -9.12760E+00 -8.14133E+00 -6.88301E+00 -5.47325E+00 -4.05820E+00 -2.83817E+00
  -2.03158E+00 -1.80168E+00 -2.12164E+00 -2.71080E+00 -3.27343E+00 -3.54995E+00 -3.29613E+00 -2.65641E+00 -1.78427E+00 -6.89073E-01
   4.32613E-01  1.35497E+00  1.87458E+00  1.85167E+00  1.07824E+00 -4.82190E-01 -2.49794E+00 -4.42225E+00 -5.85370E+00 -6.43033E+00
  -6.19275E+00 -4.93453E+00 -2.68933E+00 -1.04946E-03  2.41625E+00  3.92077E+00  4.25229E+00  3.44073E+00  1.49103E+00 -1.25432E+00
  -3.96593E+00 -5.74162E+00 -6.09665E+00 -5.20460E+00 -3.45452E+00 -1.26346E+00  8.74191E-01  2.65185E+00  3.77853E+00  4.42882E+00
   4.79382E+00  5.15419E+00  5.74452E+00  6.42679E+00  7.01182E+00  7.53350E+00  7.88904E+00  7.93695E+00  7.59909E+00  6.91707E+00
   6.18321E+00  5.73651E+00  5.76297E+00  6.28833E+00  7.24608E+00  8.43696E+00  9.63009E+00  1.08751E+01  1.23780E+01  1.37878E+01
   1.55444E+01  1.84887E+01  2.41133E+01  3.22911E+01  3.99714E+01  4.88186E+01  6.06488E+01  7.44080E+01  8.69840E+01  9.54340E+01
   9.74557E+01  9.28519E+01  8.27418E+01  6.88010E+01  5.40096E+01  4.10279E+01  3.14168E+01  2.45928E+01  1.92885E+01  1.40383E+01
   9.46970E+00  7.61170E+00  6.81924E+00  6.27345E+00  5.81310E+00  5.41674E+00  5.01226E+00  4.58449E+00  4.17333E+00  3.80700E+00
   3.49921E+00  3.25129E+00  3.04328E+00  2.85036E+00  2.67812E+00  2.53340E+00  2.41217E+00  2.31526E+00  2.25852E+00  2.25708E+00
   2.31534E+00  2.41734E+00  2.55381E+00  2.72215E+00  2.91364E+00  3.12057E+00  3.34733E+00  3.59948E+00  3.88205E+00  4.19429E+00
   4.52742E+00  4.87008E+00  5.21507E+00  5.54911E+00  5.85936E+00  6.13533E+00  6.36939E+00  6.55642E+00  6.69256E+00  6.77110E+00
   6.79215E+00  6.75770E+00  6.67119E+00  6.53811E+00  6.36691E+00  6.16771E+00  5.95377E+00  5.74298E+00  5.56709E+00  5.46818E+00
   5.36709E+00  5.26034E+00  5.23167E+00  5.21369E+00  5.05020E+00  4.61915E+00  3.87586E+00  2.96000E+00  2.03916E+00  1.15883E+00
   5.18604E-01  3.38257E-01  6.68219E-01  1.39490E+00  2.32257E+00  3.23527E+00  4.01130E+00  4.66335E+00  5.15078E+00  5.48026E+00
   5.73499E+00  5.99624E+00  6.34881E+00  6.77520E+00  7.15721E+00  7.47408E+00  7.80876E+00  8.21067E+00  8.71773E+00  9.35990E+00
   1.02154E+01  1.13404E+01  1.26951E+01  1.41567E+01  1.55564E+01  1.67271E+01  1.75565E+01  1.80080E+01  1.80700E+01  1.77603E+01
   1.71711E+01  1.64022E+01  1.55395E+01  1.46436E+01  1.37433E+01  1.29009E+01  1.21574E+01  1.15040E+01  1.09284E+01  1.04163E+01
   9.95426E+00  9.53097E+00  9.13865E+00  8.77277E+00  8.43209E+00  8.11728E+00  7.83076E+00  7.57546E+00  7.35491E+00  7.17234E+00
   7.03109E+00  6.93399E+00  6.88384E+00  6.88291E+00  6.93346E+00  7.03716E+00  7.19560E+00  7.40966E+00  7.67999E+00  8.00629E+00
   8.38770E+00  8.82205E+00  9.30627E+00  9.83566E+00  1.04043E+01  1.10044E+01  1.16269E+01  1.22610E+01  1.28948E+01  1.35149E+01
   1.41077E+01  1.46592E+01  1.51556E+01  1.55838E+01  1.59325E+01  1.61919E+01  1.63547E+01  1.64162E+01  1.63746E+01  1.62311E+01
   1.59897E+01  1.56570E+01  1.52421E+01  1.47554E+01  1.42094E+01  1.36165E+01  1.29899E+01  1.23423E+01  1.16858E+01  1.10312E+01
   1.03881E+01  9.76445E+00  9.16682E+00  8.60001E+00  8.06751E+00  7.57126E+00  7.11220E+00  6.69012E+00  6.30421E+00  5.95284E+00
   5.63416E+00  5.34584E+00  5.08560E+00  4.85093E+00  4.63956E+00  4.44911E+00  4.27752E+00  4.12270E+00  3.98295E+00  3.85653E+00
   3.74208E+00  3.63819E+00  3.54379E+00  3.45776E+00  3.37929E+00  3.30751E+00  3.24180E+00  3.18144E+00  3.12600E+00  3.07489E+00
   3.02780E+00  2.98426E+00  2.94404E+00  2.90675E+00  2.87221E+00  2.84011E+00  2.81034E+00  2.78262E+00  2.75686E+00  2.73282E+00
   2.71046E+00  2.68957E+00  2.67013E+00  2.65195E+00  2.63502E+00  2.61917E+00  2.60441E+00  2.59058E+00  2.57772E+00  2.56567E+00
   2.55445E+00  2.54395E+00  2.53420E+00  2.52508E+00  2.51663E+00  2.50873E+00  2.50143E+00  2.49461E+00  2.48833E+00  2.48249E+00
   2.47713E+00  2.47215E+00  2.46760E+00  2.46339E+00  2.45959E+00  2.45609E+00  2.45295E+00  2.45008E+00  2.44754E+00  2.44523E+00
   2.44323E+00  2.44144E+00  2.43991E+00  2.43857E+00  2.43746E+00  2.43653E+00  2.43580E+00  2.43522E+00
 NY background values follow
    -8.413E+00   -8.392E+00   -8.371E+00   -8.350E+00   -8.329E+00   -8.308E+00   -8.287E+00   -8.266E+00   -8.246E+00   -8.225E+00
    -8.204E+00   -8.183E+00   -8.162E+00   -8.142E+00   -8.121E+00   -8.100E+00   -8.080E+00   -8.059E+00   -8.038E+00   -8.018E+00
    -7.998E+00   -7.977E+00   -7.957E+00   -7.937E+00   -7.917E+00   -7.897E+00   -7.877E+00   -7.857E+00   -7.837E+00   -7.817E+00
    -7.798E+00   -7.778E+00   -7.759E+00   -7.739E+00   -7.720E+00   -7.701E+00   -7.682E+00   -7.663E+00   -7.645E+00   -7.626E+00
    -7.608E+00   -7.589E+00   -7.571E+00   -7.553E+00   -7.535E+00   -7.518E+00   -7.500E+00   -7.483E+00   -7.466E+00   -7.449E+00
    -7.432E+00   -7.415E+00   -7.399E+00   -7.382E+00   -7.366E+00   -7.350E+00   -7.334E+00   -7.318E+00   -7.303E+00   -7.287E+00
    -7.272E+00   -7.257E+00   -7.242E+00   -7.227E+00   -7.213E+00   -7.198E+00   -7.184E+00   -7.170E+00   -7.156E+00   -7.142E+00
    -7.129E+00   -7.115E+00   -7.102E+00   -7.089E+00   -7.076E+00   -7.063E+00   -7.051E+00   -7.038E+00   -7.026E+00   -7.014E+00
    -7.002E+00   -6.990E+00   -6.979E+00   -6.967E+00   -6.956E+00   -6.945E+00   -6.934E+00   -6.924E+00   -6.913E+00   -6.903E+00
    -6.892E+00   -6.882E+00   -6.873E+00   -6.863E+00   -6.853E+00   -6.844E+00   -6.835E+00   -6.826E+00   -6.817E+00   -6.808E+00
    -6.799E+00   -6.791E+00   -6.782E+00   -6.774E+00   -6.765E+00   -6.757E+00   -6.749E+00   -6.741E+00   -6.733E+00   -6.726E+00
    -6.718E+00   -6.710E+00   -6.702E+00   -6.695E+00   -6.687E+00   -6.680E+00   -6.673E+00   -6.665E+00   -6.658E+00   -6.650E+00
    -6.643E+00   -6.636E+00   -6.628E+00   -6.621E+00   -6.614E+00   -6.607E+00   -6.599E+00   -6.592E+00   -6.584E+00   -6.577E+00
    -6.570E+00   -6.562E+00   -6.555E+00   -6.547E+00   -6.539E+00   -6.532E+00   -6.524E+00   -6.516E+00   -6.508E+00   -6.500E+00
    -6.492E+00   -6.484E+00   -6.475E+00   -6.466E+00   -6.458E+00   -6.449E+00   -6.440E+00   -6.430E+00   -6.421E+00   -6.411E+00
    -6.401E+00   -6.391E+00   -6.380E+00   -6.369E+00   -6.358E+00   -6.347E+00   -6.335E+00   -6.323E+00   -6.311E+00   -6.298E+00
    -6.285E+00   -6.271E+00   -6.257E+00   -6.243E+00   -6.228E+00   -6.213E+00   -6.198E+00   -6.182E+00   -6.165E+00   -6.148E+00
    -6.131E+00   -6.113E+00   -6.094E+00   -6.075E+00   -6.055E+00   -6.035E+00   -6.014E+00   -5.993E+00   -5.971E+00   -5.949E+00
    -5.926E+00   -5.902E+00   -5.877E+00   -5.852E+00   -5.827E+00   -5.801E+00   -5.774E+00   -5.746E+00   -5.719E+00   -5.690E+00
    -5.661E+00   -5.632E+00   -5.602E+00   -5.572E+00   -5.541E+00   -5.510E+00   -5.479E+00   -5.447E+00   -5.415E+00   -5.382E+00
    -5.349E+00   -5.316E+00   -5.283E+00   -5.249E+00   -5.215E+00   -5.181E+00   -5.147E+00   -5.112E+00   -5.077E+00   -5.042E+00
    -5.007E+00   -4.972E+00   -4.937E+00   -4.901E+00   -4.866E+00   -4.830E+00   -4.795E+00   -4.759E+00   -4.724E+00   -4.688E+00
    -4.653E+00   -4.617E+00   -4.582E+00   -4.546E+00   -4.511E+00   -4.476E+00   -4.441E+00   -4.407E+00   -4.372E+00   -4.337E+00
    -4.303E+00   -4.269E+00   -4.235E+00   -4.201E+00   -4.167E+00   -4.134E+00   -4.100E+00   -4.067E+00   -4.034E+00   -4.001E+00
    -3.968E+00   -3.935E+00   -3.902E+00   -3.870E+00   -3.837E+00   -3.805E+00   -3.773E+00   -3.741E+00   -3.709E+00   -3.677E+00
    -3.645E+00   -3.614E+00   -3.582E+00   -3.551E+00   -3.519E+00   -3.488E+00   -3.457E+00   -3.426E+00   -3.395E+00   -3.364E+00
    -3.334E+00   -3.303E+00   -3.272E+00   -3.242E+00   -3.211E+00   -3.181E+00   -3.151E+00   -3.120E+00   -3.090E+00   -3.060E+00
    -3.030E+00   -3.000E+00   -2.970E+00   -2.941E+00   -2.911E+00   -2.881E+00   -2.852E+00   -2.822E+00   -2.792E+00   -2.763E+00
    -2.734E+00   -2.704E+00   -2.675E+00   -2.646E+00   -2.617E+00   -2.588E+00   -2.559E+00   -2.530E+00   -2.501E+00   -2.472E+00
    -2.443E+00   -2.414E+00   -2.386E+00   -2.357E+00   -2.329E+00   -2.300E+00   -2.272E+00   -2.244E+00   -2.215E+00   -2.187E+00
    -2.159E+00   -2.131E+00   -2.103E+00   -2.075E+00   -2.047E+00   -2.019E+00   -1.991E+00   -1.964E+00   -1.936E+00   -1.908E+00
    -1.881E+00   -1.853E+00   -1.826E+00   -1.799E+00   -1.771E+00   -1.744E+00   -1.717E+00   -1.690E+00   -1.663E+00   -1.636E+00
    -1.609E+00   -1.582E+00   -1.555E+00   -1.529E+00   -1.502E+00   -1.475E+00   -1.449E+00   -1.423E+00   -1.396E+00   -1.370E+00
    -1.344E+00   -1.318E+00   -1.292E+00   -1.266E+00   -1.240E+00   -1.214E+00   -1.188E+00   -1.162E+00   -1.137E+00   -1.111E+00
    -1.086E+00   -1.061E+00   -1.035E+00   -1.010E+00   -9.852E-01   -9.603E-01   -9.354E-01   -9.106E-01   -8.859E-01   -8.613E-01
    -8.369E-01   -8.125E-01   -7.882E-01   -7.639E-01   -7.398E-01   -7.158E-01   -6.919E-01   -6.681E-01   -6.444E-01   -6.208E-01
    -5.974E-01   -5.740E-01   -5.507E-01   -5.275E-01   -5.045E-01   -4.816E-01   -4.587E-01   -4.360E-01   -4.134E-01   -3.909E-01
    -3.685E-01   -3.463E-01   -3.241E-01   -3.021E-01   -2.802E-01   -2.584E-01   -2.367E-01   -2.152E-01   -1.938E-01   -1.725E-01
    -1.513E-01   -1.302E-01   -1.093E-01   -8.851E-02   -6.784E-02   -4.730E-02   -2.688E-02   -6.603E-03    1.355E-02    3.356E-02
     5.345E-02    7.320E-02    9.281E-02    1.123E-01    1.316E-01    1.508E-01    1.699E-01    1.888E-01    2.076E-01    2.263E-01
     2.448E-01    2.631E-01    2.813E-01    2.994E-01    3.173E-01    3.351E-01    3.527E-01    3.702E-01    3.875E-01    4.047E-01
     4.217E-01    4.386E-01    4.554E-01    4.720E-01    4.884E-01    5.048E-01    5.209E-01    5.370E-01    5.529E-01    5.686E-01
     5.842E-01    5.997E-01    6.151E-01    6.303E-01    6.454E-01    6.604E-01    6.752E-01    6.899E-01    7.045E-01    7.189E-01
     7.332E-01    7.474E-01    7.615E-01    7.755E-01    7.893E-01    8.030E-01    8.166E-01    8.301E-01    8.434E-01    8.567E-01
     8.698E-01    8.828E-01    8.957E-01    9.085E-01    9.212E-01    9.337E-01    9.462E-01    9.585E-01    9.708E-01    9.829E-01
     9.950E-01    1.007E+00    1.019E+00    1.030E+00    1.042E+00    1.054E+00    1.065E+00    1.076E+00    1.088E+00    1.099E+00
     1.110E+00    1.121E+00    1.132E+00    1.143E+00    1.154E+00    1.164E+00    1.175E+00    1.186E+00    1.196E+00    1.207E+00
     1.217E+00    1.228E+00    1.238E+00    1.248E+00    1.259E+00    1.269E+00    1.279E+00    1.289E+00    1.300E+00    1.310E+00
     1.320E+00    1.330E+00    1.340E+00    1.350E+00    1.360E+00    1.370E+00    1.380E+00    1.390E+00    1.400E+00    1.411E+00
     1.421E+00    1.431E+00    1.441E+00    1.451E+00    1.461E+00    1.471E+00    1.481E+00    1.492E+00
 Ala      Conc. = 2.25E+02
