 LCModel (Version 6.3-1L) Copyright: S.W. Provencher.          Ref.: Magn. Reson. Med. 30:672-679 (1993).                
 Slice#1 Row#3 Col#9  PD_24_press_1_raw_act
 36 lines in following concentration table = NCONC+1
    Conc.  %SD /Cr+PCr  Metabolite                                         
  495.848  58%   0.483 Ala                                                 
    0.000 999%   0.000 Asp                                                 
  936.096  31%   0.913 Cr                                                  
   89.590 323% 8.7E-02 PCr                                                 
  104.280 132%   0.102 GABA                                                
   25.861 502% 2.5E-02 Glc                                                 
    0.000 999%   0.000 Gln                                                 
    0.000 999%   0.000 Glu                                                 
  481.736   5%   0.470 GPC                                                 
    0.000 999%   0.000 PCh                                                 
  540.524  15%   0.527 GSH                                                 
 2.01E+03  12%   1.956 Ins                                                 
    0.000 999%   0.000 Lac                                                 
 1.46E+03   6%   1.422 NAA                                                 
    0.000 999%   0.000 NAAG                                                
  139.867  19%   0.136 Scyllo                                              
   93.645 183% 9.1E-02 Tau                                                 
  130.244  87%   0.127 -CrCH2                                              
  481.736   5%   0.470 GPC+PCh                                             
 1.46E+03   6%   1.422 NAA+NAAG                                            
 1.03E+03   6%   1.000 Cr+PCr                                              
    0.000 999%   0.000 Glu+Gln                                             
 2.07E+03  35%   2.014 Lip13a                                              
    0.000 999%   0.000 Lip13b                                              
  564.315  45%   0.550 Lip09                                               
 1.46E+03  21%   1.421 MM09                                                
  411.786  37%   0.401 Lip20                                               
 2.13E+03  15%   2.074 MM20                                                
  463.374  60%   0.452 MM12                                                
 2.48E+03  19%   2.415 MM14                                                
  539.045  34%   0.526 MM17                                                
 2.07E+03  35%   2.014 Lip13a+Lip13b                                       
 5.01E+03   7%   4.880 MM14+Lip13a+Lip13b+MM12                             
 2.02E+03   8%   1.971 MM09+Lip09                                          
 2.54E+03  12%   2.475 MM20+Lip20                                          
   6 lines in following misc. output table
  FWHM = 0.107 ppm    S/N =   7                                            
  Data shift = 0.015 ppm                                                   
  Ph: -14 deg       0.1 deg/ppm                                            
  alphaB,S = 8.5E+01,   1.0E+02                                            
   14 spline knots.   Ns = 7(2)                                            
   2 inflections.     1 extrema                                            
  498 points on ppm-axis = NY
      4.000000     3.992357     3.984714     3.977070     3.969427     3.961784     3.954141     3.946497     3.938854     3.931211
      3.923568     3.915925     3.908281     3.900638     3.892995     3.885352     3.877708     3.870065     3.862422     3.854779
      3.847136     3.839492     3.831849     3.824206     3.816563     3.808919     3.801276     3.793633     3.785990     3.778347
      3.770703     3.763060     3.755417     3.747774     3.740130     3.732487     3.724844     3.717201     3.709558     3.701914
      3.694271     3.686628     3.678985     3.671341     3.663698     3.656055     3.648412     3.640769     3.633125     3.625482
      3.617839     3.610196     3.602552     3.594909     3.587266     3.579623     3.571980     3.564336     3.556693     3.549050
      3.541407     3.533763     3.526120     3.518477     3.510834     3.503191     3.495547     3.487904     3.480261     3.472618
      3.464974     3.457331     3.449688     3.442045     3.434402     3.426758     3.419115     3.411472     3.403829     3.396185
      3.388542     3.380899     3.373256     3.365613     3.357969     3.350326     3.342683     3.335040     3.327396     3.319753
      3.312110     3.304467     3.296824     3.289180     3.281537     3.273894     3.266251     3.258607     3.250964     3.243321
      3.235678     3.228034     3.220391     3.212748     3.205105     3.197462     3.189818     3.182175     3.174532     3.166889
      3.159245     3.151602     3.143959     3.136316     3.128673     3.121029     3.113386     3.105743     3.098100     3.090456
      3.082813     3.075170     3.067527     3.059884     3.052240     3.044597     3.036954     3.029311     3.021667     3.014024
      3.006381     2.998738     2.991095     2.983451     2.975808     2.968165     2.960522     2.952878     2.945235     2.937592
      2.929949     2.922306     2.914662     2.907019     2.899376     2.891733     2.884089     2.876446     2.868803     2.861160
      2.853517     2.845873     2.838230     2.830587     2.822944     2.815300     2.807657     2.800014     2.792371     2.784728
      2.777084     2.769441     2.761798     2.754155     2.746511     2.738868     2.731225     2.723582     2.715939     2.708295
      2.700652     2.693009     2.685366     2.677722     2.670079     2.662436     2.654793     2.647150     2.639506     2.631863
      2.624220     2.616577     2.608933     2.601290     2.593647     2.586004     2.578361     2.570717     2.563074     2.555431
      2.547788     2.540144     2.532501     2.524858     2.517215     2.509572     2.501928     2.494285     2.486642     2.478999
      2.471355     2.463712     2.456069     2.448426     2.440783     2.433139     2.425496     2.417853     2.410210     2.402566
      2.394923     2.387280     2.379637     2.371994     2.364350     2.356707     2.349064     2.341421     2.333777     2.326134
      2.318491     2.310848     2.303205     2.295561     2.287918     2.280275     2.272632     2.264988     2.257345     2.249702
      2.242059     2.234416     2.226772     2.219129     2.211486     2.203843     2.196199     2.188556     2.180913     2.173270
      2.165627     2.157983     2.150340     2.142697     2.135054     2.127410     2.119767     2.112124     2.104481     2.096838
      2.089194     2.081551     2.073908     2.066265     2.058621     2.050978     2.043335     2.035692     2.028049     2.020405
      2.012762     2.005119     1.997476     1.989833     1.982190     1.974546     1.966903     1.959260     1.951617     1.943974
      1.936331     1.928688     1.921045     1.913402     1.905759     1.898115     1.890472     1.882829     1.875186     1.867543
      1.859900     1.852257     1.844614     1.836971     1.829327     1.821684     1.814041     1.806398     1.798755     1.791112
      1.783469     1.775826     1.768183     1.760540     1.752896     1.745253     1.737610     1.729967     1.722324     1.714681
      1.707038     1.699395     1.691752     1.684108     1.676465     1.668822     1.661179     1.653536     1.645893     1.638250
      1.630607     1.622964     1.615321     1.607677     1.600034     1.592391     1.584748     1.577105     1.569462     1.561819
      1.554176     1.546533     1.538890     1.531246     1.523603     1.515960     1.508317     1.500674     1.493031     1.485388
      1.477745     1.470102     1.462458     1.454815     1.447172     1.439529     1.431886     1.424243     1.416600     1.408957
      1.401314     1.393671     1.386027     1.378384     1.370741     1.363098     1.355455     1.347812     1.340169     1.332526
      1.324883     1.317240     1.309596     1.301953     1.294310     1.286667     1.279024     1.271381     1.263738     1.256095
      1.248452     1.240808     1.233165     1.225522     1.217879     1.210236     1.202593     1.194950     1.187307     1.179664
      1.172021     1.164377     1.156734     1.149091     1.141448     1.133805     1.126162     1.118519     1.110876     1.103233
      1.095590     1.087946     1.080303     1.072660     1.065017     1.057374     1.049731     1.042088     1.034445     1.026802
      1.019158     1.011515     1.003872     0.996229     0.988586     0.980943     0.973300     0.965657     0.958014     0.950371
      0.942727     0.935084     0.927441     0.919798     0.912155     0.904512     0.896869     0.889226     0.881583     0.873940
      0.866296     0.858653     0.851010     0.843367     0.835724     0.828081     0.820438     0.812795     0.805152     0.797508
      0.789865     0.782222     0.774579     0.766936     0.759293     0.751650     0.744007     0.736364     0.728721     0.721077
      0.713434     0.705791     0.698148     0.690505     0.682862     0.675219     0.667576     0.659933     0.652290     0.644646
      0.637003     0.629360     0.621717     0.614074     0.606431     0.598788     0.591145     0.583502     0.575858     0.568215
      0.560572     0.552929     0.545286     0.537643     0.530000     0.522357     0.514714     0.507071     0.499427     0.491784
      0.484141     0.476498     0.468855     0.461212     0.453569     0.445925     0.438282     0.430639     0.422996     0.415353
      0.407710     0.400067     0.392424     0.384780     0.377137     0.369494     0.361851     0.354208     0.346565     0.338922
      0.331278     0.323635     0.315992     0.308349     0.300706     0.293063     0.285420     0.277777     0.270133     0.262490
      0.254847     0.247204     0.239561     0.231918     0.224275     0.216631     0.208988     0.201345
 NY phased data points follow
  -2.89357E+00 -2.54976E+00 -1.75152E+00 -1.10799E+00  1.72888E+00  2.95104E+00  5.58123E+00  7.11658E+00  7.68115E+00  1.02934E+01
   3.85819E+00  4.45123E+00  1.84490E+00  5.83691E+00  2.15433E+00  5.88691E+00  3.09580E+00  3.15209E-01  6.04410E+00  1.02972E+00
  -1.43122E+00  2.61343E+00  2.54160E-02  2.54556E+00 -8.99724E-01  7.45629E-01  2.76580E-01  1.49506E+00 -3.56499E-01  3.07280E+00
  -5.45349E-01 -7.86390E-01  1.07733E+00  4.11804E-01 -6.52985E-01 -6.38783E-01  2.84343E+00  1.00174E+00  4.54079E+00  1.99057E-02
  -1.92698E-02  2.91930E+00  1.94904E+00  2.77297E+00  1.01971E+00  2.86796E+00  3.58274E+00  1.98984E+00  3.33256E+00  3.42451E+00
   5.08191E+00  1.97542E+00  5.63057E+00  2.31565E+00 -1.07553E+00  3.57768E-01 -2.17460E-01 -1.22919E+00 -3.26441E+00 -4.36058E-01
  -5.13052E-01 -1.89702E+00 -4.93795E+00 -3.91375E+00 -2.11877E-01 -1.89625E+00 -1.78228E-02 -3.79367E+00 -4.84090E+00  8.55092E-01
  -2.11856E+00 -7.88123E-01 -3.68602E+00 -1.29779E+00 -1.74812E+00 -1.59875E+00 -6.11295E+00 -2.77482E+00 -1.51906E+00 -5.64302E+00
  -4.93883E-01 -3.98334E+00 -1.81121E+00  2.55272E+00 -3.61598E+00 -3.61657E+00  1.94507E-02 -1.27513E+00  4.26003E-01 -3.60752E+00
   6.08971E-01 -3.08269E+00 -6.74107E-01 -1.56682E+00  4.06435E-01 -1.92987E-03  8.77902E+00  9.99095E+00  1.04163E+01  1.04328E+01
   1.44366E+01  1.74931E+01  1.40098E+01  2.04470E+01  1.58196E+01  1.50374E+01  1.71228E+01  1.47387E+01  1.23431E+01  1.02945E+01
   9.24329E+00  4.06782E+00  3.93371E+00  5.34881E+00  4.77127E-01  9.76425E-01 -4.56345E+00 -3.82032E+00 -2.99964E+00  1.00404E+00
   3.74666E+00  5.81937E+00  7.74198E+00  1.04617E+01  1.62334E+01  1.53637E+01  8.55428E+00  1.39447E+01  1.04393E+01  1.01391E+01
   1.41082E+01  1.33934E+01  1.20317E+01  1.03722E+01  6.87996E+00  9.28264E+00  4.64171E+00  1.93811E+00  6.05078E-01  4.86656E+00
   3.07778E+00 -2.22561E+00  5.26997E-01 -4.59378E+00 -3.65364E+00 -1.09982E+00 -2.87351E+00 -5.13265E+00 -3.78956E+00 -5.25590E+00
   4.36376E-01 -4.58919E+00 -2.83837E+00 -4.20865E+00 -4.28970E+00 -3.65320E+00 -2.64891E+00 -1.86488E+00 -5.60379E+00 -3.87934E+00
   8.93698E-01 -5.31234E+00 -7.22477E+00 -3.77387E+00 -3.96702E+00 -6.56417E+00 -3.96230E+00 -1.38672E+00 -3.16248E+00 -6.62949E+00
  -5.68357E+00 -6.37507E+00 -6.39969E+00 -9.36578E+00 -6.55139E+00 -8.65359E+00 -8.16840E+00 -8.40410E+00 -7.23101E+00 -1.25809E+01
  -7.50883E+00 -1.32216E+01 -1.07138E+01 -9.69395E+00 -8.55917E+00 -5.83490E+00 -7.12169E+00 -7.60366E+00 -6.18078E+00 -8.80365E+00
  -6.24672E+00 -6.31795E+00 -4.95534E+00 -6.80310E+00 -5.58376E+00 -9.73770E+00 -9.31417E+00 -5.43902E+00 -3.66559E+00 -3.33840E+00
  -2.64689E+00 -7.49889E+00 -4.51059E+00 -7.53284E+00 -5.95641E+00 -5.24302E+00 -9.05736E-01 -3.76693E+00 -4.53818E+00 -1.11707E+00
  -2.64781E-02  1.07743E-01 -1.32159E+00 -1.69124E+00 -2.42767E+00  1.88614E+00 -2.10439E+00 -3.01502E+00 -3.86736E+00 -1.97804E+00
  -3.24400E+00 -1.95433E+00 -2.34177E+00  1.02300E+00 -1.39524E+00 -2.23386E+00 -1.00737E+00 -1.63522E+00  1.20804E+00 -4.66723E-02
  -1.39792E+00  1.19066E+00 -2.13135E+00 -1.38936E+00  7.31494E-02  7.63470E-01 -9.32804E-01 -6.81562E-01  3.89276E+00  9.18348E-01
   4.16346E+00  2.52564E+00 -1.31375E-01  4.65905E+00  1.21803E+00  5.53069E+00  3.49925E+00  4.76333E+00  3.06558E+00  5.02005E+00
   7.53127E+00  8.19518E+00  1.27265E+01  1.44206E+01  2.24826E+01  2.37139E+01  2.10881E+01  3.08684E+01  2.77465E+01  2.66037E+01
   2.88901E+01  3.31882E+01  2.79800E+01  2.61738E+01  2.44681E+01  2.02034E+01  2.04127E+01  1.63549E+01  1.35581E+01  1.26382E+01
   9.42886E+00  8.81330E+00  5.75923E+00  5.73853E+00  5.01553E+00  1.17965E+00 -1.00639E+00  1.98870E-01  4.84669E-02 -2.37847E+00
  -3.87066E+00 -4.83734E+00 -5.58213E+00 -2.39683E+00 -2.27775E+00 -6.01408E+00 -5.02542E+00 -5.31176E+00 -3.98805E+00 -1.71807E+00
  -3.02287E+00 -2.88727E+00 -8.72023E+00 -1.82703E+00 -3.01145E+00 -3.56016E+00 -2.14422E+00 -2.31344E-01 -4.35876E+00 -3.66161E+00
   9.78245E-01 -2.55791E+00  1.18960E+00  3.99300E-01  6.40247E-01  2.67053E+00  2.43154E+00  1.82638E+00  2.52077E+00  1.65988E+00
   1.34695E+00  5.10888E+00  3.68665E+00  2.77197E+00  2.61948E+00  5.51483E+00  3.91676E+00  2.03337E+00  3.95424E+00  4.05159E+00
   1.60743E+00  6.15532E+00  6.27329E+00  7.40205E+00  4.62553E+00  7.67751E+00  7.06778E+00  1.12880E+01  8.13759E+00  9.87610E+00
   8.83789E+00  7.84265E+00  1.11538E+01  1.01592E+01  1.24341E+01  1.24764E+01  1.56728E+01  1.54750E+01  1.67330E+01  1.44043E+01
   1.78350E+01  1.86993E+01  1.40029E+01  1.85127E+01  1.82396E+01  2.09946E+01  1.48367E+01  1.80584E+01  1.73946E+01  1.67783E+01
   1.34913E+01  1.72577E+01  1.50478E+01  1.52952E+01  9.18856E+00  7.65625E+00  8.74775E+00  8.35777E+00  7.61565E+00  7.80799E+00
   8.32149E+00  6.84466E+00  6.59242E+00  9.38628E+00  8.91543E+00  7.91961E+00  5.01681E+00  1.20061E+01  6.95914E+00  3.16300E+00
   9.30023E+00  6.51476E+00  4.43875E+00  8.12428E+00  1.99943E+00  5.06980E+00  5.59890E+00  3.92993E+00  7.32786E+00  1.45486E+00
   4.24822E+00  8.32657E+00  8.92156E+00  8.30778E+00  6.69026E+00  6.10728E+00  5.25355E+00  3.91146E+00  4.90631E+00  7.98202E+00
   5.56119E+00  7.82300E+00  2.75946E+00  4.88551E+00  1.14152E+01  6.01654E+00  8.90088E+00  7.81093E+00  8.62497E+00  1.57229E+01
   1.21950E+01  8.30013E+00  1.29933E+01  9.92531E+00  1.02570E+01  1.14190E+01  1.26868E+01  9.28788E+00  1.27729E+01  1.13539E+01
   1.20413E+01  9.22192E+00  1.05356E+01  1.12336E+01  1.04218E+01  8.95475E+00  6.73009E+00  4.80932E+00  6.26632E+00  3.46495E+00
   4.99102E+00  7.61631E+00  3.27466E+00  4.11829E+00  4.20353E+00  6.48242E+00  3.21329E+00  2.92098E+00  6.17608E+00  5.21643E+00
   3.02322E+00  1.42745E+00  8.09252E-01  1.07216E+00  5.84353E-01  3.20209E+00  3.14129E+00  2.66818E+00 -7.83522E-01  2.57948E+00
   1.57463E+00 -2.92242E-01  1.57189E+00 -2.01799E+00 -2.06881E+00  3.73231E+00 -2.72830E+00 -2.52974E-01 -3.93045E+00  1.95093E+00
  -3.20072E+00 -2.75728E+00 -5.66453E-01  1.22173E+00 -2.57841E+00 -3.06237E-01  5.19482E-02  3.90760E+00 -1.42576E+00 -3.76750E-01
   1.04023E+00  1.69517E+00  1.39971E+00 -1.05823E+00  1.36732E+00 -1.50344E+00  3.90528E+00  2.04106E+00 -7.95623E-01  8.28933E-01
   1.23029E+00 -1.36325E+00 -2.13089E-01  1.16127E+00  2.23632E-01 -1.80226E+00 -2.31829E+00 -9.60239E-01 -4.09228E+00 -8.54846E-01
  -5.96375E-01  1.71074E-01  9.14599E-01 -2.70989E+00 -1.07661E+00  2.01519E+00 -2.93463E+00 -3.44659E-01  3.50545E-01  5.52966E-01
   1.79091E-01 -3.59439E+00 -5.45010E-01 -1.76419E+00 -8.40909E-01 -2.06872E+00 -3.15460E-01 -1.58430E-01
 NY points of the fit to the data follow
  -1.02851E+00 -6.83602E-01 -4.05144E-01  7.43572E-01  1.26905E+00  2.84754E+00  3.32025E+00  4.64667E+00  4.89945E+00  5.75706E+00
   5.70446E+00  6.23424E+00  5.84756E+00  5.94687E+00  5.26534E+00  4.96379E+00  3.97214E+00  3.28737E+00  2.20089E+00  1.43055E+00
   6.83077E-01  2.60846E-01  7.05746E-02  2.40355E-02  8.71871E-02  2.73951E-01  2.81645E-01  8.64358E-01  8.03126E-01  1.60754E+00
   1.47429E+00  2.01114E+00  1.67037E+00  1.79824E+00  1.34667E+00  1.23870E+00  8.84008E-01  8.76513E-01  9.57177E-01  1.23956E+00
   1.74980E+00  2.10599E+00  2.55202E+00  2.59931E+00  2.67218E+00  2.37857E+00  2.35104E+00  2.00217E+00  1.95264E+00  1.62440E+00
   1.42654E+00  1.19391E+00  8.98473E-01  7.34969E-01  3.44915E-01  1.43727E-01 -3.04575E-01 -5.75495E-01 -1.06370E+00 -1.31704E+00
  -1.82127E+00 -1.96745E+00 -2.36741E+00 -2.23078E+00 -2.39660E+00 -2.08627E+00 -2.13615E+00 -1.92559E+00 -1.98797E+00 -1.88086E+00
  -1.95578E+00 -1.93933E+00 -2.02285E+00 -2.08683E+00 -2.08519E+00 -2.13762E+00 -1.86111E+00 -1.92062E+00 -1.32608E+00 -1.64552E+00
  -9.44613E-01 -1.67616E+00 -1.03670E+00 -2.03929E+00 -1.42944E+00 -2.49360E+00 -1.85315E+00 -2.92614E+00 -2.32727E+00 -3.45145E+00
  -2.79829E+00 -3.42075E+00 -2.47042E+00 -1.49417E+00 -2.43089E-02  3.13136E+00  4.76442E+00  9.03428E+00  1.00259E+01  1.38191E+01
   1.38009E+01  1.65693E+01  1.57969E+01  1.76031E+01  1.62168E+01  1.67957E+01  1.49001E+01  1.44300E+01  1.22344E+01  1.07978E+01
   8.57498E+00  6.68867E+00  4.77452E+00  3.02890E+00  1.61522E+00  3.41201E-01 -3.97616E-01 -4.65730E-01 -2.63307E-01  2.06064E+00
   2.81986E+00  6.78948E+00  7.21704E+00  1.09826E+01  1.06949E+01  1.36580E+01  1.27247E+01  1.47840E+01  1.32325E+01  1.41669E+01
   1.21919E+01  1.21524E+01  1.00893E+01  9.16323E+00  7.38708E+00  5.92837E+00  4.63927E+00  3.10872E+00  2.22733E+00  6.06746E-01
   2.33625E-02 -1.63690E+00 -1.79240E+00 -2.87095E+00 -2.66441E+00 -3.18276E+00 -2.95496E+00 -3.38979E+00 -3.27257E+00 -3.60123E+00
  -3.54291E+00 -3.81803E+00 -3.81195E+00 -4.11578E+00 -4.18978E+00 -4.48146E+00 -4.58029E+00 -4.77841E+00 -4.86594E+00 -4.98602E+00
  -5.09658E+00 -5.20073E+00 -5.35333E+00 -5.45880E+00 -5.65725E+00 -5.76845E+00 -6.02139E+00 -6.13808E+00 -6.42146E+00 -6.55648E+00
  -6.81091E+00 -7.00218E+00 -7.15378E+00 -7.40890E+00 -7.44748E+00 -7.75667E+00 -7.72731E+00 -8.10326E+00 -7.99069E+00 -8.37329E+00
  -8.08931E+00 -8.31722E+00 -7.81566E+00 -7.81110E+00 -7.18277E+00 -7.02400E+00 -6.44331E+00 -6.21327E+00 -5.81918E+00 -5.55124E+00
  -5.41908E+00 -5.09916E+00 -5.17504E+00 -4.76747E+00 -4.90996E+00 -4.44719E+00 -4.56727E+00 -4.15808E+00 -4.24078E+00 -3.91953E+00
  -3.93583E+00 -3.71747E+00 -3.71110E+00 -3.65728E+00 -3.61847E+00 -3.74886E+00 -3.64051E+00 -3.87467E+00 -3.68598E+00 -3.93951E+00
  -3.68621E+00 -3.91388E+00 -3.61607E+00 -3.79051E+00 -3.48586E+00 -3.56657E+00 -3.26567E+00 -3.23551E+00 -2.92920E+00 -2.80896E+00
  -2.54520E+00 -2.40361E+00 -2.23366E+00 -2.12119E+00 -2.04700E+00 -1.88946E+00 -1.80960E+00 -1.52716E+00 -1.36019E+00 -1.00961E+00
  -7.70841E-01 -4.83360E-01 -2.63529E-01 -9.14002E-02  8.14372E-02  1.84321E-01  3.92738E-01  5.26456E-01  8.81673E-01  1.08157E+00
   1.57539E+00  1.82196E+00  2.37190E+00  2.63022E+00  3.15884E+00  3.41097E+00  3.84732E+00  4.15523E+00  4.97767E+00  5.69318E+00
   7.75987E+00  9.34781E+00  1.29417E+01  1.54310E+01  1.93010E+01  2.20356E+01  2.45364E+01  2.67951E+01  2.74559E+01  2.90103E+01
   2.82075E+01  2.90612E+01  2.68965E+01  2.70454E+01  2.39505E+01  2.34715E+01  1.96666E+01  1.86745E+01  1.47991E+01  1.35940E+01
   1.03201E+01  9.12590E+00  6.32398E+00  5.12819E+00  2.70812E+00  1.65967E+00  3.51505E-01 -2.63010E-01 -6.38134E-01 -9.35045E-01
  -1.19164E+00 -1.41035E+00 -1.60502E+00 -1.76853E+00 -1.91343E+00 -2.03015E+00 -2.13198E+00 -2.20251E+00 -2.26364E+00 -2.28456E+00
  -2.29763E+00 -2.26495E+00 -2.22092E+00 -2.12694E+00 -2.01958E+00 -1.85923E+00 -1.68476E+00 -1.45886E+00 -1.21832E+00 -9.32917E-01
  -6.36643E-01 -3.05436E-01  2.84535E-02  3.82470E-01  7.26707E-01  1.07344E+00  1.39625E+00  1.70558E+00  1.98065E+00  2.23263E+00
   2.44797E+00  2.64269E+00  2.81009E+00  2.97641E+00  3.17118E+00  3.42395E+00  3.70281E+00  4.15650E+00  4.45977E+00  5.09550E+00
   5.25024E+00  5.85431E+00  5.75039E+00  6.21794E+00  5.98191E+00  6.48350E+00  6.38720E+00  7.14563E+00  7.42742E+00  8.39854E+00
   9.12859E+00  1.01306E+01  1.11370E+01  1.20017E+01  1.31332E+01  1.38469E+01  1.49987E+01  1.55083E+01  1.64830E+01  1.67020E+01
   1.74112E+01  1.73077E+01  1.77285E+01  1.74271E+01  1.75013E+01  1.70583E+01  1.68204E+01  1.62028E+01  1.57478E+01  1.50107E+01
   1.43827E+01  1.36841E+01  1.30471E+01  1.24752E+01  1.19390E+01  1.14445E+01  1.09763E+01  1.05433E+01  1.01305E+01  9.74635E+00
   9.37536E+00  9.02604E+00  8.68314E+00  8.35580E+00  8.02980E+00  7.71548E+00  7.39999E+00  7.09505E+00  6.78924E+00  6.49555E+00
   6.20381E+00  5.92801E+00  5.65886E+00  5.41096E+00  5.17554E+00  4.96749E+00  4.77826E+00  4.62276E+00  4.49239E+00  4.40186E+00
   4.34236E+00  4.32823E+00  4.35029E+00  4.42228E+00  4.53437E+00  4.69940E+00  4.90650E+00  5.16719E+00  5.46910E+00  5.82186E+00
   6.21103E+00  6.64391E+00  7.10359E+00  7.59477E+00  8.09799E+00  8.61546E+00  9.12563E+00  9.62894E+00  1.01027E+01  1.05470E+01
   1.09393E+01  1.12809E+01  1.15513E+01  1.17545E+01  1.18736E+01  1.19163E+01  1.18703E+01  1.17478E+01  1.15408E+01  1.12656E+01
   1.09180E+01  1.05175E+01  1.00621E+01  9.57275E+00  9.04839E+00  8.50996E+00  7.95570E+00  7.40527E+00  6.85523E+00  6.32315E+00
   5.80342E+00  5.31127E+00  4.83887E+00  4.39930E+00  3.98280E+00  3.60075E+00  3.24200E+00  2.91672E+00  2.61289E+00  2.33997E+00
   2.08549E+00  1.85863E+00  1.64682E+00  1.45918E+00  1.28326E+00  1.12827E+00  9.81983E-01  8.53808E-01  7.31769E-01  6.25464E-01
   5.23160E-01  4.34640E-01  3.48401E-01  2.74385E-01  2.01283E-01  1.39154E-01  7.68407E-02  2.44990E-02 -2.88891E-02 -7.30940E-02
  -1.19028E-01 -1.56422E-01 -1.96102E-01 -2.27761E-01 -2.62140E-01 -2.88916E-01 -3.18766E-01 -3.41367E-01 -3.67338E-01 -3.86349E-01
  -4.08958E-01 -4.24845E-01 -4.44530E-01 -4.57706E-01 -4.74843E-01 -4.85641E-01 -5.00529E-01 -5.09227E-01 -5.22133E-01 -5.28987E-01
  -5.40142E-01 -5.45352E-01 -5.54938E-01 -5.58681E-01 -5.66876E-01 -5.69320E-01 -5.76270E-01 -5.77540E-01 -5.83363E-01 -5.83583E-01
  -5.88405E-01 -5.87689E-01 -5.91606E-01 -5.90037E-01 -5.93135E-01 -5.90808E-01 -5.93179E-01 -5.90175E-01 -5.91887E-01 -5.88268E-01
  -5.89392E-01 -5.85237E-01 -5.85848E-01 -5.81220E-01 -5.81371E-01 -5.76327E-01 -5.76089E-01 -5.70704E-01
 NY background values follow
    -8.701E+00   -8.686E+00   -8.672E+00   -8.657E+00   -8.643E+00   -8.629E+00   -8.614E+00   -8.600E+00   -8.585E+00   -8.571E+00
    -8.556E+00   -8.542E+00   -8.528E+00   -8.513E+00   -8.499E+00   -8.484E+00   -8.470E+00   -8.455E+00   -8.441E+00   -8.427E+00
    -8.412E+00   -8.398E+00   -8.383E+00   -8.369E+00   -8.354E+00   -8.340E+00   -8.326E+00   -8.311E+00   -8.297E+00   -8.282E+00
    -8.268E+00   -8.253E+00   -8.239E+00   -8.225E+00   -8.210E+00   -8.196E+00   -8.181E+00   -8.167E+00   -8.152E+00   -8.138E+00
    -8.124E+00   -8.109E+00   -8.095E+00   -8.080E+00   -8.066E+00   -8.051E+00   -8.037E+00   -8.022E+00   -8.008E+00   -7.994E+00
    -7.979E+00   -7.965E+00   -7.950E+00   -7.936E+00   -7.921E+00   -7.907E+00   -7.893E+00   -7.878E+00   -7.864E+00   -7.849E+00
    -7.835E+00   -7.820E+00   -7.806E+00   -7.791E+00   -7.777E+00   -7.763E+00   -7.748E+00   -7.734E+00   -7.719E+00   -7.705E+00
    -7.690E+00   -7.676E+00   -7.662E+00   -7.647E+00   -7.633E+00   -7.618E+00   -7.604E+00   -7.589E+00   -7.575E+00   -7.560E+00
    -7.546E+00   -7.532E+00   -7.517E+00   -7.503E+00   -7.488E+00   -7.474E+00   -7.459E+00   -7.445E+00   -7.430E+00   -7.416E+00
    -7.402E+00   -7.387E+00   -7.373E+00   -7.358E+00   -7.344E+00   -7.329E+00   -7.315E+00   -7.300E+00   -7.286E+00   -7.272E+00
    -7.257E+00   -7.243E+00   -7.228E+00   -7.214E+00   -7.199E+00   -7.185E+00   -7.170E+00   -7.156E+00   -7.142E+00   -7.127E+00
    -7.113E+00   -7.098E+00   -7.084E+00   -7.069E+00   -7.055E+00   -7.040E+00   -7.026E+00   -7.011E+00   -6.997E+00   -6.983E+00
    -6.968E+00   -6.954E+00   -6.939E+00   -6.925E+00   -6.910E+00   -6.896E+00   -6.881E+00   -6.867E+00   -6.853E+00   -6.838E+00
    -6.824E+00   -6.809E+00   -6.795E+00   -6.780E+00   -6.766E+00   -6.751E+00   -6.737E+00   -6.722E+00   -6.708E+00   -6.694E+00
    -6.679E+00   -6.665E+00   -6.650E+00   -6.636E+00   -6.621E+00   -6.607E+00   -6.592E+00   -6.578E+00   -6.564E+00   -6.549E+00
    -6.535E+00   -6.520E+00   -6.506E+00   -6.491E+00   -6.477E+00   -6.462E+00   -6.448E+00   -6.433E+00   -6.419E+00   -6.405E+00
    -6.390E+00   -6.376E+00   -6.361E+00   -6.347E+00   -6.332E+00   -6.318E+00   -6.303E+00   -6.289E+00   -6.274E+00   -6.260E+00
    -6.246E+00   -6.231E+00   -6.217E+00   -6.202E+00   -6.188E+00   -6.173E+00   -6.159E+00   -6.144E+00   -6.130E+00   -6.115E+00
    -6.101E+00   -6.087E+00   -6.072E+00   -6.058E+00   -6.043E+00   -6.029E+00   -6.014E+00   -6.000E+00   -5.985E+00   -5.971E+00
    -5.956E+00   -5.942E+00   -5.928E+00   -5.913E+00   -5.899E+00   -5.884E+00   -5.870E+00   -5.855E+00   -5.841E+00   -5.826E+00
    -5.812E+00   -5.798E+00   -5.783E+00   -5.769E+00   -5.754E+00   -5.740E+00   -5.725E+00   -5.711E+00   -5.696E+00   -5.682E+00
    -5.667E+00   -5.653E+00   -5.639E+00   -5.624E+00   -5.610E+00   -5.595E+00   -5.581E+00   -5.566E+00   -5.552E+00   -5.537E+00
    -5.523E+00   -5.508E+00   -5.494E+00   -5.480E+00   -5.465E+00   -5.451E+00   -5.436E+00   -5.422E+00   -5.407E+00   -5.393E+00
    -5.378E+00   -5.364E+00   -5.349E+00   -5.335E+00   -5.321E+00   -5.306E+00   -5.292E+00   -5.277E+00   -5.263E+00   -5.248E+00
    -5.234E+00   -5.219E+00   -5.205E+00   -5.191E+00   -5.176E+00   -5.162E+00   -5.147E+00   -5.133E+00   -5.118E+00   -5.104E+00
    -5.089E+00   -5.075E+00   -5.060E+00   -5.046E+00   -5.032E+00   -5.017E+00   -5.003E+00   -4.988E+00   -4.974E+00   -4.959E+00
    -4.945E+00   -4.930E+00   -4.916E+00   -4.902E+00   -4.887E+00   -4.873E+00   -4.858E+00   -4.844E+00   -4.829E+00   -4.815E+00
    -4.800E+00   -4.786E+00   -4.771E+00   -4.757E+00   -4.743E+00   -4.728E+00   -4.714E+00   -4.699E+00   -4.685E+00   -4.670E+00
    -4.656E+00   -4.641E+00   -4.627E+00   -4.613E+00   -4.598E+00   -4.584E+00   -4.569E+00   -4.555E+00   -4.540E+00   -4.526E+00
    -4.511E+00   -4.497E+00   -4.483E+00   -4.468E+00   -4.454E+00   -4.439E+00   -4.425E+00   -4.410E+00   -4.396E+00   -4.381E+00
    -4.367E+00   -4.353E+00   -4.338E+00   -4.324E+00   -4.309E+00   -4.295E+00   -4.280E+00   -4.266E+00   -4.251E+00   -4.237E+00
    -4.223E+00   -4.208E+00   -4.194E+00   -4.179E+00   -4.165E+00   -4.150E+00   -4.136E+00   -4.121E+00   -4.107E+00   -4.093E+00
    -4.078E+00   -4.064E+00   -4.049E+00   -4.035E+00   -4.020E+00   -4.006E+00   -3.992E+00   -3.977E+00   -3.963E+00   -3.948E+00
    -3.934E+00   -3.919E+00   -3.905E+00   -3.890E+00   -3.876E+00   -3.862E+00   -3.847E+00   -3.833E+00   -3.818E+00   -3.804E+00
    -3.789E+00   -3.775E+00   -3.761E+00   -3.746E+00   -3.732E+00   -3.717E+00   -3.703E+00   -3.688E+00   -3.674E+00   -3.660E+00
    -3.645E+00   -3.631E+00   -3.616E+00   -3.602E+00   -3.587E+00   -3.573E+00   -3.559E+00   -3.544E+00   -3.530E+00   -3.515E+00
    -3.501E+00   -3.486E+00   -3.472E+00   -3.458E+00   -3.443E+00   -3.429E+00   -3.414E+00   -3.400E+00   -3.385E+00   -3.371E+00
    -3.357E+00   -3.342E+00   -3.328E+00   -3.313E+00   -3.299E+00   -3.284E+00   -3.270E+00   -3.256E+00   -3.241E+00   -3.227E+00
    -3.212E+00   -3.198E+00   -3.183E+00   -3.169E+00   -3.155E+00   -3.140E+00   -3.126E+00   -3.111E+00   -3.097E+00   -3.083E+00
    -3.068E+00   -3.054E+00   -3.039E+00   -3.025E+00   -3.010E+00   -2.996E+00   -2.982E+00   -2.967E+00   -2.953E+00   -2.938E+00
    -2.924E+00   -2.910E+00   -2.895E+00   -2.881E+00   -2.866E+00   -2.852E+00   -2.837E+00   -2.823E+00   -2.809E+00   -2.794E+00
    -2.780E+00   -2.765E+00   -2.751E+00   -2.737E+00   -2.722E+00   -2.708E+00   -2.693E+00   -2.679E+00   -2.665E+00   -2.650E+00
    -2.636E+00   -2.621E+00   -2.607E+00   -2.593E+00   -2.578E+00   -2.564E+00   -2.549E+00   -2.535E+00   -2.521E+00   -2.506E+00
    -2.492E+00   -2.477E+00   -2.463E+00   -2.449E+00   -2.434E+00   -2.420E+00   -2.405E+00   -2.391E+00   -2.377E+00   -2.362E+00
    -2.348E+00   -2.333E+00   -2.319E+00   -2.305E+00   -2.290E+00   -2.276E+00   -2.261E+00   -2.247E+00   -2.233E+00   -2.218E+00
    -2.204E+00   -2.190E+00   -2.175E+00   -2.161E+00   -2.146E+00   -2.132E+00   -2.118E+00   -2.103E+00   -2.089E+00   -2.074E+00
    -2.060E+00   -2.046E+00   -2.031E+00   -2.017E+00   -2.003E+00   -1.988E+00   -1.974E+00   -1.959E+00   -1.945E+00   -1.931E+00
    -1.916E+00   -1.902E+00   -1.888E+00   -1.873E+00   -1.859E+00   -1.844E+00   -1.830E+00   -1.816E+00   -1.801E+00   -1.787E+00
    -1.773E+00   -1.758E+00   -1.744E+00   -1.729E+00   -1.715E+00   -1.701E+00   -1.686E+00   -1.672E+00   -1.658E+00   -1.643E+00
    -1.629E+00   -1.615E+00   -1.600E+00   -1.586E+00   -1.571E+00   -1.557E+00   -1.543E+00   -1.528E+00
 Ala      Conc. = 4.96E+02
