 LCModel (Version 6.3-1L) Copyright: S.W. Provencher.          Ref.: Magn. Reson. Med. 30:672-679 (1993).                
 Slice#2 Row#6 Col#12  PD_24_press_1_raw_act
 36 lines in following concentration table = NCONC+1
    Conc.  %SD /Cr+PCr  Metabolite                                         
  157.272 203%   0.321 Ala                                                 
    0.000 999%   0.000 Asp                                                 
    0.000 999%   0.000 Cr                                                  
  489.266  12%   1.000 PCr                                                 
   74.255 126%   0.152 GABA                                                
  107.027  85%   0.219 Glc                                                 
    6.961 999% 1.4E-02 Gln                                                 
  785.409  73%   1.605 Glu                                                 
  115.834  20%   0.237 GPC                                                 
    0.000 999%   0.000 PCh                                                 
    3.828 999% 7.8E-03 GSH                                                 
   70.324 431%   0.144 Ins                                                 
    0.000 999%   0.000 Lac                                                 
 1.63E+03   6%   3.341 NAA                                                 
    0.000 999%   0.000 NAAG                                                
   39.224  61% 8.0E-02 Scyllo                                              
  214.501  67%   0.438 Tau                                                 
  209.669  56%   0.429 -CrCH2                                              
  115.834  20%   0.237 GPC+PCh                                             
 1.63E+03   6%   3.341 NAA+NAAG                                            
  489.266  12%   1.000 Cr+PCr                                              
  792.370 120%   1.620 Glu+Gln                                             
 2.65E+04   9%  54.161 Lip13a                                              
    0.000 999%   0.000 Lip13b                                              
 4.40E+03  19%   8.989 Lip09                                               
    0.000 999%   0.000 MM09                                                
  173.556 195%   0.355-Lip20                                               
    0.000 999%   0.000 MM20                                                
  140.771 179%   0.288 MM12                                                
 6.14E+03  13%  12.554+MM14                                                
 3.50E+03  18%   7.145+MM17                                                
 2.65E+04   9%  54.161 Lip13a+Lip13b                                       
 3.28E+04   7%  67.002 MM14+Lip13a+Lip13b+MM12                             
 4.40E+03  19%   8.989 MM09+Lip09                                          
  173.556 195%   0.355 MM20+Lip20                                          
   6 lines in following misc. output table
  FWHM = 0.107 ppm    S/N =  17                                            
  Data shift = 0.054 ppm                                                   
  Ph:-129 deg     -61.1 deg/ppm                                            
  alphaB,S = 2.7E+00,   1.0E+02                                            
    8 spline knots.   Ns = 9(2)                                            
  (11) 3 infls.   (11) 3 extrs.                                            
  498 points on ppm-axis = NY
      4.000000     3.992357     3.984714     3.977070     3.969427     3.961784     3.954141     3.946497     3.938854     3.931211
      3.923568     3.915925     3.908281     3.900638     3.892995     3.885352     3.877708     3.870065     3.862422     3.854779
      3.847136     3.839492     3.831849     3.824206     3.816563     3.808919     3.801276     3.793633     3.785990     3.778347
      3.770703     3.763060     3.755417     3.747774     3.740130     3.732487     3.724844     3.717201     3.709558     3.701914
      3.694271     3.686628     3.678985     3.671341     3.663698     3.656055     3.648412     3.640769     3.633125     3.625482
      3.617839     3.610196     3.602552     3.594909     3.587266     3.579623     3.571980     3.564336     3.556693     3.549050
      3.541407     3.533763     3.526120     3.518477     3.510834     3.503191     3.495547     3.487904     3.480261     3.472618
      3.464974     3.457331     3.449688     3.442045     3.434402     3.426758     3.419115     3.411472     3.403829     3.396185
      3.388542     3.380899     3.373256     3.365613     3.357969     3.350326     3.342683     3.335040     3.327396     3.319753
      3.312110     3.304467     3.296824     3.289180     3.281537     3.273894     3.266251     3.258607     3.250964     3.243321
      3.235678     3.228034     3.220391     3.212748     3.205105     3.197462     3.189818     3.182175     3.174532     3.166889
      3.159245     3.151602     3.143959     3.136316     3.128673     3.121029     3.113386     3.105743     3.098100     3.090456
      3.082813     3.075170     3.067527     3.059884     3.052240     3.044597     3.036954     3.029311     3.021667     3.014024
      3.006381     2.998738     2.991095     2.983451     2.975808     2.968165     2.960522     2.952878     2.945235     2.937592
      2.929949     2.922306     2.914662     2.907019     2.899376     2.891733     2.884089     2.876446     2.868803     2.861160
      2.853517     2.845873     2.838230     2.830587     2.822944     2.815300     2.807657     2.800014     2.792371     2.784728
      2.777084     2.769441     2.761798     2.754155     2.746511     2.738868     2.731225     2.723582     2.715939     2.708295
      2.700652     2.693009     2.685366     2.677722     2.670079     2.662436     2.654793     2.647150     2.639506     2.631863
      2.624220     2.616577     2.608933     2.601290     2.593647     2.586004     2.578361     2.570717     2.563074     2.555431
      2.547788     2.540144     2.532501     2.524858     2.517215     2.509572     2.501928     2.494285     2.486642     2.478999
      2.471355     2.463712     2.456069     2.448426     2.440783     2.433139     2.425496     2.417853     2.410210     2.402566
      2.394923     2.387280     2.379637     2.371994     2.364350     2.356707     2.349064     2.341421     2.333777     2.326134
      2.318491     2.310848     2.303205     2.295561     2.287918     2.280275     2.272632     2.264988     2.257345     2.249702
      2.242059     2.234416     2.226772     2.219129     2.211486     2.203843     2.196199     2.188556     2.180913     2.173270
      2.165627     2.157983     2.150340     2.142697     2.135054     2.127410     2.119767     2.112124     2.104481     2.096838
      2.089194     2.081551     2.073908     2.066265     2.058621     2.050978     2.043335     2.035692     2.028049     2.020405
      2.012762     2.005119     1.997476     1.989833     1.982190     1.974546     1.966903     1.959260     1.951617     1.943974
      1.936331     1.928688     1.921045     1.913402     1.905759     1.898115     1.890472     1.882829     1.875186     1.867543
      1.859900     1.852257     1.844614     1.836971     1.829327     1.821684     1.814041     1.806398     1.798755     1.791112
      1.783469     1.775826     1.768183     1.760540     1.752896     1.745253     1.737610     1.729967     1.722324     1.714681
      1.707038     1.699395     1.691752     1.684108     1.676465     1.668822     1.661179     1.653536     1.645893     1.638250
      1.630607     1.622964     1.615321     1.607677     1.600034     1.592391     1.584748     1.577105     1.569462     1.561819
      1.554176     1.546533     1.538890     1.531246     1.523603     1.515960     1.508317     1.500674     1.493031     1.485388
      1.477745     1.470102     1.462458     1.454815     1.447172     1.439529     1.431886     1.424243     1.416600     1.408957
      1.401314     1.393671     1.386027     1.378384     1.370741     1.363098     1.355455     1.347812     1.340169     1.332526
      1.324883     1.317240     1.309596     1.301953     1.294310     1.286667     1.279024     1.271381     1.263738     1.256095
      1.248452     1.240808     1.233165     1.225522     1.217879     1.210236     1.202593     1.194950     1.187307     1.179664
      1.172021     1.164377     1.156734     1.149091     1.141448     1.133805     1.126162     1.118519     1.110876     1.103233
      1.095590     1.087946     1.080303     1.072660     1.065017     1.057374     1.049731     1.042088     1.034445     1.026802
      1.019158     1.011515     1.003872     0.996229     0.988586     0.980943     0.973300     0.965657     0.958014     0.950371
      0.942727     0.935084     0.927441     0.919798     0.912155     0.904512     0.896869     0.889226     0.881583     0.873940
      0.866296     0.858653     0.851010     0.843367     0.835724     0.828081     0.820438     0.812795     0.805152     0.797508
      0.789865     0.782222     0.774579     0.766936     0.759293     0.751650     0.744007     0.736364     0.728721     0.721077
      0.713434     0.705791     0.698148     0.690505     0.682862     0.675219     0.667576     0.659933     0.652290     0.644646
      0.637003     0.629360     0.621717     0.614074     0.606431     0.598788     0.591145     0.583502     0.575858     0.568215
      0.560572     0.552929     0.545286     0.537643     0.530000     0.522357     0.514714     0.507071     0.499427     0.491784
      0.484141     0.476498     0.468855     0.461212     0.453569     0.445925     0.438282     0.430639     0.422996     0.415353
      0.407710     0.400067     0.392424     0.384780     0.377137     0.369494     0.361851     0.354208     0.346565     0.338922
      0.331278     0.323635     0.315992     0.308349     0.300706     0.293063     0.285420     0.277777     0.270133     0.262490
      0.254847     0.247204     0.239561     0.231918     0.224275     0.216631     0.208988     0.201345
 NY phased data points follow
   2.10483E+01  2.37089E+01  2.02035E+01  1.90950E+01  2.43481E+01  2.28477E+01  2.02603E+01  1.83303E+01  2.38679E+01  2.07803E+01
   2.04308E+01  2.01424E+01  2.09735E+01  2.31452E+01  1.90355E+01  1.90385E+01  2.34070E+01  1.81680E+01  2.17117E+01  2.17487E+01
   1.79923E+01  2.02830E+01  1.95340E+01  2.19370E+01  1.66335E+01  2.08657E+01  1.89633E+01  2.08176E+01  2.08690E+01  2.14342E+01
   2.10736E+01  2.15417E+01  2.20698E+01  2.36451E+01  1.93312E+01  2.05359E+01  2.18398E+01  1.79933E+01  1.98628E+01  1.88109E+01
   1.99524E+01  2.21731E+01  1.89321E+01  2.26930E+01  2.28591E+01  2.23290E+01  2.15616E+01  2.45996E+01  2.12394E+01  1.98981E+01
   2.29215E+01  1.85423E+01  2.00925E+01  1.79570E+01  1.97147E+01  1.90946E+01  2.19782E+01  2.12664E+01  2.00883E+01  2.04722E+01
   1.96182E+01  2.04856E+01  1.97831E+01  1.98434E+01  2.15521E+01  1.98714E+01  2.22451E+01  2.11206E+01  2.35860E+01  2.07790E+01
   2.45914E+01  2.24187E+01  2.33135E+01  2.10307E+01  1.96417E+01  2.46028E+01  2.18885E+01  2.18332E+01  2.43665E+01  2.06549E+01
   2.23384E+01  2.02433E+01  1.84313E+01  2.27314E+01  2.28466E+01  2.28309E+01  2.43209E+01  2.40196E+01  2.16760E+01  2.41280E+01
   2.30558E+01  2.62527E+01  3.09354E+01  2.66933E+01  2.61856E+01  2.57516E+01  2.52952E+01  2.34535E+01  2.47879E+01  2.44613E+01
   2.39573E+01  2.67378E+01  2.43678E+01  2.45524E+01  2.26736E+01  2.12725E+01  2.35503E+01  2.46116E+01  2.43197E+01  2.34190E+01
   2.16848E+01  2.05032E+01  2.24889E+01  2.51393E+01  2.49078E+01  2.80549E+01  2.91118E+01  2.75267E+01  3.05311E+01  2.89610E+01
   2.97535E+01  2.58580E+01  2.70840E+01  2.74837E+01  2.42854E+01  2.61161E+01  2.58926E+01  2.15281E+01  2.15033E+01  2.27408E+01
   2.07280E+01  1.91647E+01  1.99814E+01  1.95123E+01  2.17607E+01  2.15198E+01  1.83707E+01  2.12219E+01  1.68351E+01  1.74244E+01
   2.23962E+01  2.21195E+01  1.73479E+01  2.12912E+01  2.11706E+01  2.07209E+01  1.99597E+01  2.04771E+01  2.22227E+01  1.95178E+01
   2.07337E+01  2.22585E+01  2.12729E+01  2.01952E+01  1.99071E+01  2.21518E+01  1.76977E+01  2.06835E+01  1.75494E+01  1.86746E+01
   1.72666E+01  1.67615E+01  1.78850E+01  1.88757E+01  1.80000E+01  1.55922E+01  1.77813E+01  1.64150E+01  1.24390E+01  1.36732E+01
   1.53705E+01  1.50587E+01  1.59778E+01  1.50117E+01  1.69628E+01  1.62746E+01  1.84594E+01  1.89765E+01  1.74701E+01  1.73879E+01
   2.17278E+01  1.68349E+01  2.03723E+01  2.02416E+01  2.11661E+01  2.11809E+01  1.90255E+01  1.99699E+01  1.83377E+01  1.60703E+01
   2.18227E+01  2.12196E+01  2.00435E+01  1.89457E+01  2.14575E+01  1.90094E+01  2.26972E+01  1.93249E+01  2.06193E+01  2.32482E+01
   1.97572E+01  2.00288E+01  2.35579E+01  2.30805E+01  2.27083E+01  2.24630E+01  2.69652E+01  2.34782E+01  2.27103E+01  2.51142E+01
   2.24058E+01  2.56560E+01  2.42141E+01  2.17355E+01  2.24271E+01  2.30050E+01  2.35699E+01  2.54568E+01  2.35115E+01  2.35835E+01
   2.27419E+01  2.32530E+01  2.50708E+01  2.59925E+01  2.47058E+01  2.62590E+01  2.75652E+01  2.47676E+01  2.18005E+01  2.59935E+01
   2.61291E+01  2.46090E+01  2.64830E+01  2.63869E+01  2.79213E+01  2.57031E+01  3.11627E+01  2.98475E+01  3.14950E+01  2.83143E+01
   3.00972E+01  3.07393E+01  3.05822E+01  3.31825E+01  3.36785E+01  3.10859E+01  3.63561E+01  3.71335E+01  4.26450E+01  4.55677E+01
   5.29110E+01  5.58389E+01  5.94452E+01  6.02829E+01  6.13792E+01  6.01165E+01  5.92371E+01  5.47065E+01  5.67434E+01  5.73977E+01
   5.33460E+01  5.49407E+01  4.98826E+01  4.70194E+01  4.51119E+01  4.20683E+01  4.34506E+01  4.36610E+01  4.07353E+01  4.24464E+01
   4.16439E+01  4.24709E+01  3.95540E+01  4.11723E+01  4.02951E+01  4.43516E+01  4.60492E+01  3.84866E+01  4.04125E+01  4.48294E+01
   4.26916E+01  4.23556E+01  4.33792E+01  4.34282E+01  4.36988E+01  4.26279E+01  4.39421E+01  4.49580E+01  4.82623E+01  4.61441E+01
   4.98982E+01  4.89809E+01  4.75685E+01  4.86896E+01  5.08016E+01  5.04397E+01  5.38407E+01  5.59386E+01  5.63017E+01  5.63673E+01
   5.73790E+01  5.87941E+01  6.22169E+01  6.54090E+01  6.74792E+01  6.79681E+01  7.08364E+01  7.14149E+01  7.30601E+01  7.71213E+01
   8.11612E+01  7.71863E+01  8.29667E+01  8.47138E+01  8.38498E+01  8.86142E+01  9.27854E+01  9.52710E+01  9.16099E+01  9.64015E+01
   9.73125E+01  1.01110E+02  1.02322E+02  1.04746E+02  1.07830E+02  1.07762E+02  1.12147E+02  1.11751E+02  1.14464E+02  1.14355E+02
   1.12282E+02  1.11804E+02  1.13321E+02  1.12454E+02  1.12657E+02  1.12469E+02  1.10429E+02  1.11603E+02  1.10539E+02  1.13156E+02
   1.09848E+02  1.08293E+02  1.07233E+02  1.06954E+02  1.06240E+02  1.02204E+02  1.02018E+02  9.91791E+01  9.77391E+01  9.50044E+01
   9.66305E+01  9.73533E+01  9.71290E+01  9.57967E+01  9.59696E+01  9.84918E+01  9.98394E+01  9.90173E+01  9.88096E+01  9.77369E+01
   9.63393E+01  1.00903E+02  9.95088E+01  9.73662E+01  9.77019E+01  9.75849E+01  9.93089E+01  9.52384E+01  9.39789E+01  9.29835E+01
   9.35314E+01  9.46656E+01  9.16757E+01  9.28377E+01  8.84720E+01  8.94176E+01  8.71634E+01  8.84898E+01  8.45277E+01  8.39793E+01
   8.08424E+01  8.38981E+01  8.32056E+01  8.14311E+01  7.85301E+01  7.63554E+01  7.97245E+01  7.78235E+01  7.79254E+01  7.97327E+01
   7.73634E+01  7.30361E+01  7.25806E+01  7.18993E+01  7.10902E+01  7.28249E+01  7.02420E+01  6.98408E+01  7.19117E+01  6.87584E+01
   6.80736E+01  6.96355E+01  6.89205E+01  6.86813E+01  7.15503E+01  6.77015E+01  6.68571E+01  6.56705E+01  6.76715E+01  6.90090E+01
   6.38907E+01  6.56643E+01  6.36275E+01  6.29036E+01  6.21417E+01  5.95680E+01  5.96659E+01  5.97185E+01  6.03442E+01  5.73068E+01
   5.52499E+01  5.46412E+01  5.47817E+01  5.61715E+01  5.09847E+01  5.32486E+01  5.50103E+01  5.30141E+01  5.02106E+01  4.94165E+01
   5.27515E+01  5.00924E+01  4.64580E+01  4.49245E+01  4.45120E+01  4.80776E+01  4.76255E+01  4.57980E+01  4.69605E+01  4.65723E+01
   4.24197E+01  4.39547E+01  4.52573E+01  4.41184E+01  4.08635E+01  4.20037E+01  4.13600E+01  4.10878E+01  3.83727E+01  4.19553E+01
   4.08722E+01  3.81996E+01  3.83127E+01  3.75561E+01  3.66582E+01  3.79676E+01  3.63410E+01  3.50676E+01  3.61084E+01  3.67147E+01
   3.49898E+01  3.43442E+01  3.44722E+01  3.35053E+01  3.66257E+01  3.04667E+01  3.76519E+01  2.96446E+01  3.24971E+01  3.50937E+01
   2.99908E+01  3.22382E+01  3.15282E+01  3.00399E+01  3.04908E+01  2.76838E+01  2.67248E+01  2.78524E+01  2.92054E+01  2.88665E+01
   3.02193E+01  2.75381E+01  2.68015E+01  2.78485E+01  2.79690E+01  2.82760E+01  2.42808E+01  2.78154E+01  2.58663E+01  2.69292E+01
   2.65472E+01  2.35532E+01  2.29055E+01  2.34625E+01  2.43736E+01  2.72265E+01  2.33615E+01  2.64529E+01
 NY points of the fit to the data follow
   2.22794E+01  2.17564E+01  2.23770E+01  2.17691E+01  2.21791E+01  2.15948E+01  2.19219E+01  2.13499E+01  2.15221E+01  2.10050E+01
   2.09811E+01  2.06488E+01  2.06050E+01  2.04708E+01  2.04699E+01  2.04282E+01  2.03254E+01  2.03237E+01  2.01151E+01  2.02018E+01
   2.00375E+01  2.02902E+01  2.02962E+01  2.05959E+01  2.05218E+01  2.07641E+01  2.05015E+01  2.06402E+01  2.03030E+01  2.04587E+01
   2.03422E+01  2.05102E+01  2.04833E+01  2.06502E+01  2.06092E+01  2.07152E+01  2.06555E+01  2.07241E+01  2.07123E+01  2.07981E+01
   2.08189E+01  2.08944E+01  2.08618E+01  2.08870E+01  2.08273E+01  2.08168E+01  2.07923E+01  2.08122E+01  2.08332E+01  2.08539E+01
   2.08234E+01  2.08145E+01  2.07629E+01  2.07380E+01  2.07116E+01  2.07588E+01  2.07519E+01  2.08616E+01  2.08154E+01  2.09484E+01
   2.08687E+01  2.10060E+01  2.09581E+01  2.11150E+01  2.11279E+01  2.12580E+01  2.12842E+01  2.13366E+01  2.13706E+01  2.13371E+01
   2.13946E+01  2.13519E+01  2.15169E+01  2.15234E+01  2.18010E+01  2.18106E+01  2.20900E+01  2.20371E+01  2.22036E+01  2.20952E+01
   2.21459E+01  2.20305E+01  2.20078E+01  2.19166E+01  2.19746E+01  2.19486E+01  2.20686E+01  2.22154E+01  2.26704E+01  2.30758E+01
   2.39553E+01  2.44753E+01  2.54568E+01  2.58270E+01  2.63960E+01  2.64747E+01  2.65316E+01  2.63884E+01  2.61628E+01  2.58793E+01
   2.56000E+01  2.51997E+01  2.47358E+01  2.42363E+01  2.35767E+01  2.30919E+01  2.25157E+01  2.22149E+01  2.20951E+01  2.19556E+01
   2.21045E+01  2.21913E+01  2.29897E+01  2.32897E+01  2.49022E+01  2.51316E+01  2.72549E+01  2.69812E+01  2.86215E+01  2.77179E+01
   2.85598E+01  2.72991E+01  2.75833E+01  2.63078E+01  2.65854E+01  2.53496E+01  2.53209E+01  2.41091E+01  2.36897E+01  2.26895E+01
   2.22398E+01  2.15778E+01  2.13783E+01  2.09373E+01  2.08417E+01  2.05228E+01  2.04688E+01  2.02388E+01  2.02269E+01  2.01148E+01
   2.02805E+01  2.01368E+01  2.01600E+01  1.99408E+01  1.98028E+01  1.95702E+01  1.93291E+01  1.91953E+01  1.91747E+01  1.90074E+01
   1.90372E+01  1.88473E+01  1.89232E+01  1.88013E+01  1.88524E+01  1.88076E+01  1.87473E+01  1.87066E+01  1.85274E+01  1.84482E+01
   1.82325E+01  1.81421E+01  1.79013E+01  1.78337E+01  1.75769E+01  1.75169E+01  1.73090E+01  1.71933E+01  1.71544E+01  1.69745E+01
   1.71303E+01  1.69137E+01  1.71669E+01  1.69231E+01  1.72476E+01  1.70115E+01  1.74825E+01  1.73331E+01  1.79647E+01  1.79392E+01
   1.85707E+01  1.86520E+01  1.92019E+01  1.93613E+01  1.98117E+01  2.00359E+01  2.03879E+01  2.06597E+01  2.08468E+01  2.11416E+01
   2.12049E+01  2.15098E+01  2.15998E+01  2.18585E+01  2.20048E+01  2.21447E+01  2.22379E+01  2.22696E+01  2.22068E+01  2.21606E+01
   2.20609E+01  2.20161E+01  2.21508E+01  2.21557E+01  2.25413E+01  2.25754E+01  2.29884E+01  2.29812E+01  2.30760E+01  2.29164E+01
   2.27575E+01  2.25538E+01  2.23762E+01  2.23433E+01  2.23663E+01  2.26332E+01  2.27595E+01  2.31976E+01  2.33362E+01  2.37806E+01
   2.39294E+01  2.43626E+01  2.46021E+01  2.50907E+01  2.53636E+01  2.58842E+01  2.61303E+01  2.65260E+01  2.67421E+01  2.69774E+01
   2.72536E+01  2.73902E+01  2.76787E+01  2.77518E+01  2.80772E+01  2.81083E+01  2.84755E+01  2.85168E+01  2.89933E+01  2.91051E+01
   2.96043E+01  2.99152E+01  3.09936E+01  3.16143E+01  3.30553E+01  3.42084E+01  3.73510E+01  3.94067E+01  4.45302E+01  4.71451E+01
   5.27455E+01  5.49542E+01  5.84484E+01  5.94708E+01  6.00834E+01  6.00078E+01  5.88383E+01  5.82441E+01  5.66752E+01  5.58524E+01
   5.35864E+01  5.24366E+01  4.92928E+01  4.80835E+01  4.53700E+01  4.45873E+01  4.32144E+01  4.29101E+01  4.21686E+01  4.20676E+01
   4.16366E+01  4.16543E+01  4.14685E+01  4.16887E+01  4.21994E+01  4.24733E+01  4.25192E+01  4.25845E+01  4.21571E+01  4.20844E+01
   4.14411E+01  4.15833E+01  4.19289E+01  4.23562E+01  4.28046E+01  4.33140E+01  4.38533E+01  4.44460E+01  4.50845E+01  4.57872E+01
   4.65472E+01  4.73784E+01  4.82791E+01  4.92639E+01  5.03299E+01  5.14949E+01  5.27577E+01  5.41238E+01  5.55914E+01  5.71600E+01
   5.88200E+01  6.05686E+01  6.23881E+01  6.42731E+01  6.62051E+01  6.81755E+01  7.01669E+01  7.21752E+01  7.41888E+01  7.62114E+01
   7.82075E+01  8.02237E+01  8.22182E+01  8.42716E+01  8.62495E+01  8.83389E+01  9.02629E+01  9.23605E+01  9.42341E+01  9.62759E+01
   9.81285E+01  1.00151E+02  1.02044E+02  1.04065E+02  1.05975E+02  1.07879E+02  1.09642E+02  1.11160E+02  1.12547E+02  1.13484E+02
   1.14334E+02  1.14654E+02  1.14893E+02  1.14639E+02  1.14287E+02  1.13496E+02  1.12651E+02  1.11444E+02  1.10249E+02  1.08845E+02
   1.07517E+02  1.06152E+02  1.04881E+02  1.03662E+02  1.02598E+02  1.01631E+02  1.00855E+02  1.00189E+02  9.97269E+01  9.93954E+01
   9.91949E+01  9.90636E+01  9.90285E+01  9.90086E+01  9.90394E+01  9.90422E+01  9.90475E+01  9.90415E+01  9.89972E+01  9.89052E+01
   9.87484E+01  9.85244E+01  9.82214E+01  9.78421E+01  9.73794E+01  9.68403E+01  9.62214E+01  9.55329E+01  9.47741E+01  9.39576E+01
   9.30845E+01  9.21686E+01  9.12121E+01  9.02292E+01  8.92222E+01  8.82053E+01  8.71801E+01  8.61602E+01  8.51463E+01  8.41508E+01
   8.31730E+01  8.22242E+01  8.13021E+01  8.04165E+01  7.95636E+01  7.87517E+01  7.79756E+01  7.72421E+01  7.65443E+01  7.58879E+01
   7.52647E+01  7.46790E+01  7.41216E+01  7.35957E+01  7.30912E+01  7.26106E+01  7.21431E+01  7.16906E+01  7.12420E+01  7.07992E+01
   7.03512E+01  6.98999E+01  6.94348E+01  6.89586E+01  6.84612E+01  6.79465E+01  6.74053E+01  6.68426E+01  6.62504E+01  6.56350E+01
   6.49896E+01  6.43216E+01  6.36254E+01  6.29094E+01  6.21690E+01  6.14135E+01  6.06387E+01  5.98544E+01  5.90568E+01  5.82559E+01
   5.74479E+01  5.66426E+01  5.58361E+01  5.50379E+01  5.42436E+01  5.34621E+01  5.26886E+01  5.19316E+01  5.11855E+01  5.04585E+01
   4.97443E+01  4.90507E+01  4.83709E+01  4.77123E+01  4.70678E+01  4.64444E+01  4.58348E+01  4.52456E+01  4.46695E+01  4.41130E+01
   4.35683E+01  4.30422E+01  4.25268E+01  4.20286E+01  4.15399E+01  4.10672E+01  4.06027E+01  4.01530E+01  3.97103E+01  3.92812E+01
   3.88581E+01  3.84476E+01  3.80419E+01  3.76479E+01  3.72578E+01  3.68785E+01  3.65023E+01  3.61361E+01  3.57723E+01  3.54178E+01
   3.50650E+01  3.47210E+01  3.43780E+01  3.40433E+01  3.37092E+01  3.33828E+01  3.30565E+01  3.27376E+01  3.24184E+01  3.21061E+01
   3.17933E+01  3.14871E+01  3.11800E+01  3.08793E+01  3.05773E+01  3.02815E+01  2.99843E+01  2.96930E+01  2.94000E+01  2.91128E+01
   2.88238E+01  2.85403E+01  2.82548E+01  2.79748E+01  2.76926E+01  2.74158E+01  2.71367E+01  2.68628E+01  2.65865E+01  2.63154E+01
   2.60418E+01  2.57733E+01  2.55022E+01  2.52361E+01  2.49674E+01  2.47037E+01  2.44373E+01  2.41760E+01
 NY background values follow
     1.769E+01    1.773E+01    1.776E+01    1.780E+01    1.783E+01    1.787E+01    1.791E+01    1.794E+01    1.798E+01    1.801E+01
     1.804E+01    1.808E+01    1.811E+01    1.815E+01    1.818E+01    1.821E+01    1.825E+01    1.828E+01    1.831E+01    1.834E+01
     1.838E+01    1.841E+01    1.844E+01    1.847E+01    1.850E+01    1.853E+01    1.856E+01    1.859E+01    1.862E+01    1.865E+01
     1.868E+01    1.870E+01    1.873E+01    1.876E+01    1.879E+01    1.881E+01    1.884E+01    1.886E+01    1.889E+01    1.891E+01
     1.894E+01    1.896E+01    1.899E+01    1.901E+01    1.903E+01    1.905E+01    1.907E+01    1.909E+01    1.911E+01    1.913E+01
     1.915E+01    1.917E+01    1.919E+01    1.920E+01    1.922E+01    1.924E+01    1.925E+01    1.927E+01    1.928E+01    1.930E+01
     1.931E+01    1.932E+01    1.933E+01    1.934E+01    1.935E+01    1.936E+01    1.937E+01    1.938E+01    1.939E+01    1.939E+01
     1.940E+01    1.940E+01    1.941E+01    1.941E+01    1.941E+01    1.942E+01    1.942E+01    1.942E+01    1.942E+01    1.942E+01
     1.941E+01    1.941E+01    1.941E+01    1.940E+01    1.940E+01    1.939E+01    1.938E+01    1.938E+01    1.937E+01    1.936E+01
     1.935E+01    1.933E+01    1.932E+01    1.931E+01    1.929E+01    1.928E+01    1.926E+01    1.924E+01    1.923E+01    1.921E+01
     1.919E+01    1.916E+01    1.914E+01    1.912E+01    1.909E+01    1.907E+01    1.904E+01    1.902E+01    1.899E+01    1.896E+01
     1.893E+01    1.891E+01    1.888E+01    1.885E+01    1.882E+01    1.879E+01    1.875E+01    1.872E+01    1.869E+01    1.866E+01
     1.863E+01    1.860E+01    1.856E+01    1.853E+01    1.850E+01    1.847E+01    1.844E+01    1.840E+01    1.837E+01    1.834E+01
     1.831E+01    1.828E+01    1.825E+01    1.822E+01    1.819E+01    1.816E+01    1.813E+01    1.811E+01    1.808E+01    1.805E+01
     1.803E+01    1.800E+01    1.798E+01    1.795E+01    1.793E+01    1.791E+01    1.789E+01    1.787E+01    1.785E+01    1.783E+01
     1.781E+01    1.780E+01    1.779E+01    1.777E+01    1.776E+01    1.775E+01    1.774E+01    1.774E+01    1.773E+01    1.773E+01
     1.772E+01    1.772E+01    1.772E+01    1.772E+01    1.773E+01    1.773E+01    1.774E+01    1.775E+01    1.776E+01    1.778E+01
     1.779E+01    1.781E+01    1.783E+01    1.785E+01    1.787E+01    1.790E+01    1.793E+01    1.796E+01    1.799E+01    1.803E+01
     1.807E+01    1.811E+01    1.815E+01    1.820E+01    1.824E+01    1.829E+01    1.835E+01    1.840E+01    1.846E+01    1.852E+01
     1.859E+01    1.866E+01    1.873E+01    1.880E+01    1.888E+01    1.896E+01    1.904E+01    1.913E+01    1.922E+01    1.931E+01
     1.940E+01    1.950E+01    1.960E+01    1.971E+01    1.982E+01    1.993E+01    2.004E+01    2.016E+01    2.028E+01    2.040E+01
     2.053E+01    2.066E+01    2.079E+01    2.092E+01    2.106E+01    2.120E+01    2.134E+01    2.148E+01    2.162E+01    2.177E+01
     2.192E+01    2.207E+01    2.223E+01    2.238E+01    2.254E+01    2.270E+01    2.286E+01    2.302E+01    2.319E+01    2.335E+01
     2.352E+01    2.369E+01    2.386E+01    2.403E+01    2.421E+01    2.438E+01    2.456E+01    2.474E+01    2.491E+01    2.509E+01
     2.527E+01    2.546E+01    2.564E+01    2.582E+01    2.600E+01    2.619E+01    2.637E+01    2.656E+01    2.675E+01    2.693E+01
     2.712E+01    2.731E+01    2.750E+01    2.769E+01    2.787E+01    2.806E+01    2.825E+01    2.844E+01    2.863E+01    2.882E+01
     2.901E+01    2.919E+01    2.938E+01    2.957E+01    2.976E+01    2.994E+01    3.013E+01    3.032E+01    3.050E+01    3.069E+01
     3.087E+01    3.106E+01    3.124E+01    3.142E+01    3.160E+01    3.178E+01    3.196E+01    3.214E+01    3.231E+01    3.249E+01
     3.266E+01    3.283E+01    3.300E+01    3.317E+01    3.334E+01    3.351E+01    3.367E+01    3.384E+01    3.400E+01    3.416E+01
     3.432E+01    3.447E+01    3.463E+01    3.478E+01    3.493E+01    3.508E+01    3.522E+01    3.537E+01    3.551E+01    3.565E+01
     3.578E+01    3.592E+01    3.605E+01    3.618E+01    3.631E+01    3.643E+01    3.655E+01    3.667E+01    3.679E+01    3.691E+01
     3.702E+01    3.713E+01    3.724E+01    3.734E+01    3.745E+01    3.755E+01    3.765E+01    3.774E+01    3.784E+01    3.793E+01
     3.802E+01    3.810E+01    3.819E+01    3.827E+01    3.835E+01    3.843E+01    3.850E+01    3.858E+01    3.865E+01    3.872E+01
     3.878E+01    3.884E+01    3.891E+01    3.896E+01    3.902E+01    3.908E+01    3.913E+01    3.918E+01    3.922E+01    3.927E+01
     3.931E+01    3.935E+01    3.939E+01    3.943E+01    3.946E+01    3.949E+01    3.952E+01    3.955E+01    3.957E+01    3.959E+01
     3.961E+01    3.963E+01    3.964E+01    3.965E+01    3.966E+01    3.967E+01    3.968E+01    3.968E+01    3.968E+01    3.968E+01
     3.968E+01    3.967E+01    3.966E+01    3.965E+01    3.964E+01    3.962E+01    3.961E+01    3.959E+01    3.957E+01    3.954E+01
     3.951E+01    3.949E+01    3.945E+01    3.942E+01    3.939E+01    3.935E+01    3.931E+01    3.926E+01    3.922E+01    3.917E+01
     3.912E+01    3.907E+01    3.902E+01    3.896E+01    3.890E+01    3.884E+01    3.878E+01    3.871E+01    3.865E+01    3.858E+01
     3.850E+01    3.843E+01    3.835E+01    3.827E+01    3.819E+01    3.811E+01    3.802E+01    3.794E+01    3.784E+01    3.775E+01
     3.766E+01    3.756E+01    3.746E+01    3.736E+01    3.726E+01    3.715E+01    3.704E+01    3.693E+01    3.682E+01    3.671E+01
     3.659E+01    3.647E+01    3.635E+01    3.623E+01    3.611E+01    3.598E+01    3.586E+01    3.573E+01    3.559E+01    3.546E+01
     3.533E+01    3.519E+01    3.505E+01    3.491E+01    3.477E+01    3.462E+01    3.448E+01    3.433E+01    3.418E+01    3.403E+01
     3.388E+01    3.373E+01    3.357E+01    3.342E+01    3.326E+01    3.310E+01    3.294E+01    3.277E+01    3.261E+01    3.244E+01
     3.228E+01    3.211E+01    3.194E+01    3.177E+01    3.159E+01    3.142E+01    3.124E+01    3.107E+01    3.089E+01    3.071E+01
     3.053E+01    3.035E+01    3.017E+01    2.998E+01    2.980E+01    2.961E+01    2.943E+01    2.924E+01    2.905E+01    2.886E+01
     2.867E+01    2.848E+01    2.828E+01    2.809E+01    2.790E+01    2.770E+01    2.750E+01    2.731E+01    2.711E+01    2.691E+01
     2.671E+01    2.651E+01    2.631E+01    2.611E+01    2.590E+01    2.570E+01    2.550E+01    2.529E+01    2.508E+01    2.488E+01
     2.467E+01    2.447E+01    2.426E+01    2.405E+01    2.384E+01    2.363E+01    2.342E+01    2.321E+01    2.300E+01    2.279E+01
     2.258E+01    2.237E+01    2.215E+01    2.194E+01    2.173E+01    2.152E+01    2.130E+01    2.109E+01
 Ala      Conc. = 1.57E+02
