 LCModel (Version 6.3-1L) Copyright: S.W. Provencher.          Ref.: Magn. Reson. Med. 30:672-679 (1993).                
 Slice#3 Row#6 Col#8  PD_24_press_1_raw_act
 36 lines in following concentration table = NCONC+1
    Conc.  %SD /Cr+PCr  Metabolite                                         
    0.000 999%   0.000 Ala                                                 
    0.000 999%   0.000 Asp                                                 
  342.358  69%   0.195 Cr                                                  
 1.41E+03  17%   0.805 PCr                                                 
    0.000 999%   0.000 GABA                                                
    0.000 999%   0.000 Glc                                                 
  497.133  49%   0.283 Gln                                                 
 1.07E+03  25%   0.612 Glu                                                 
  634.334   4%   0.362 GPC                                                 
    0.000 999%   0.000 PCh                                                 
  435.726  17%   0.248 GSH                                                 
  520.676  54%   0.297 Ins                                                 
  494.806  42%   0.282 Lac                                                 
 1.62E+03   4%   0.926 NAA                                                 
    0.000 999%   0.000 NAAG                                                
   36.724  78% 2.1E-02 Scyllo                                              
    0.000 999%   0.000 Tau                                                 
    0.000 999%   0.000 -CrCH2                                              
  634.334   4%   0.362 GPC+PCh                                             
 1.62E+03   4%   0.926 NAA+NAAG                                            
 1.75E+03   3%   1.000 Cr+PCr                                              
 1.57E+03  25%   0.895 Glu+Gln                                             
    0.000 999%   0.000 Lip13a                                              
 2.21E+03  27%   1.258 Lip13b                                              
  471.078  65%   0.269 Lip09                                               
 1.22E+03  28%   0.698 MM09                                                
  387.017  52%   0.221 Lip20                                               
 2.69E+03  17%   1.533 MM20                                                
  327.715  73%   0.187 MM12                                                
 2.12E+03  25%   1.209 MM14                                                
  414.547  70%   0.236 MM17                                                
 2.21E+03  27%   1.258 Lip13a+Lip13b                                       
 4.66E+03  12%   2.654 MM14+Lip13a+Lip13b+MM12                             
 1.69E+03  16%   0.966 MM09+Lip09                                          
 3.08E+03  14%   1.753 MM20+Lip20                                          
   6 lines in following misc. output table
  FWHM = 0.054 ppm    S/N =   8                                            
  Data shift = 0.000 ppm                                                   
  Ph: -16 deg       0.4 deg/ppm                                            
  alphaB,S = 1.0E+00,   1.5E+02                                            
   14 spline knots.   Ns = 7(1)                                            
  (11) 4 infls.   ( 9) 1 extrs.                                            
  498 points on ppm-axis = NY
      4.000000     3.992357     3.984714     3.977070     3.969427     3.961784     3.954141     3.946497     3.938854     3.931211
      3.923568     3.915925     3.908281     3.900638     3.892995     3.885352     3.877708     3.870065     3.862422     3.854779
      3.847136     3.839492     3.831849     3.824206     3.816563     3.808919     3.801276     3.793633     3.785990     3.778347
      3.770703     3.763060     3.755417     3.747774     3.740130     3.732487     3.724844     3.717201     3.709558     3.701914
      3.694271     3.686628     3.678985     3.671341     3.663698     3.656055     3.648412     3.640769     3.633125     3.625482
      3.617839     3.610196     3.602552     3.594909     3.587266     3.579623     3.571980     3.564336     3.556693     3.549050
      3.541407     3.533763     3.526120     3.518477     3.510834     3.503191     3.495547     3.487904     3.480261     3.472618
      3.464974     3.457331     3.449688     3.442045     3.434402     3.426758     3.419115     3.411472     3.403829     3.396185
      3.388542     3.380899     3.373256     3.365613     3.357969     3.350326     3.342683     3.335040     3.327396     3.319753
      3.312110     3.304467     3.296824     3.289180     3.281537     3.273894     3.266251     3.258607     3.250964     3.243321
      3.235678     3.228034     3.220391     3.212748     3.205105     3.197462     3.189818     3.182175     3.174532     3.166889
      3.159245     3.151602     3.143959     3.136316     3.128673     3.121029     3.113386     3.105743     3.098100     3.090456
      3.082813     3.075170     3.067527     3.059884     3.052240     3.044597     3.036954     3.029311     3.021667     3.014024
      3.006381     2.998738     2.991095     2.983451     2.975808     2.968165     2.960522     2.952878     2.945235     2.937592
      2.929949     2.922306     2.914662     2.907019     2.899376     2.891733     2.884089     2.876446     2.868803     2.861160
      2.853517     2.845873     2.838230     2.830587     2.822944     2.815300     2.807657     2.800014     2.792371     2.784728
      2.777084     2.769441     2.761798     2.754155     2.746511     2.738868     2.731225     2.723582     2.715939     2.708295
      2.700652     2.693009     2.685366     2.677722     2.670079     2.662436     2.654793     2.647150     2.639506     2.631863
      2.624220     2.616577     2.608933     2.601290     2.593647     2.586004     2.578361     2.570717     2.563074     2.555431
      2.547788     2.540144     2.532501     2.524858     2.517215     2.509572     2.501928     2.494285     2.486642     2.478999
      2.471355     2.463712     2.456069     2.448426     2.440783     2.433139     2.425496     2.417853     2.410210     2.402566
      2.394923     2.387280     2.379637     2.371994     2.364350     2.356707     2.349064     2.341421     2.333777     2.326134
      2.318491     2.310848     2.303205     2.295561     2.287918     2.280275     2.272632     2.264988     2.257345     2.249702
      2.242059     2.234416     2.226772     2.219129     2.211486     2.203843     2.196199     2.188556     2.180913     2.173270
      2.165627     2.157983     2.150340     2.142697     2.135054     2.127410     2.119767     2.112124     2.104481     2.096838
      2.089194     2.081551     2.073908     2.066265     2.058621     2.050978     2.043335     2.035692     2.028049     2.020405
      2.012762     2.005119     1.997476     1.989833     1.982190     1.974546     1.966903     1.959260     1.951617     1.943974
      1.936331     1.928688     1.921045     1.913402     1.905759     1.898115     1.890472     1.882829     1.875186     1.867543
      1.859900     1.852257     1.844614     1.836971     1.829327     1.821684     1.814041     1.806398     1.798755     1.791112
      1.783469     1.775826     1.768183     1.760540     1.752896     1.745253     1.737610     1.729967     1.722324     1.714681
      1.707038     1.699395     1.691752     1.684108     1.676465     1.668822     1.661179     1.653536     1.645893     1.638250
      1.630607     1.622964     1.615321     1.607677     1.600034     1.592391     1.584748     1.577105     1.569462     1.561819
      1.554176     1.546533     1.538890     1.531246     1.523603     1.515960     1.508317     1.500674     1.493031     1.485388
      1.477745     1.470102     1.462458     1.454815     1.447172     1.439529     1.431886     1.424243     1.416600     1.408957
      1.401314     1.393671     1.386027     1.378384     1.370741     1.363098     1.355455     1.347812     1.340169     1.332526
      1.324883     1.317240     1.309596     1.301953     1.294310     1.286667     1.279024     1.271381     1.263738     1.256095
      1.248452     1.240808     1.233165     1.225522     1.217879     1.210236     1.202593     1.194950     1.187307     1.179664
      1.172021     1.164377     1.156734     1.149091     1.141448     1.133805     1.126162     1.118519     1.110876     1.103233
      1.095590     1.087946     1.080303     1.072660     1.065017     1.057374     1.049731     1.042088     1.034445     1.026802
      1.019158     1.011515     1.003872     0.996229     0.988586     0.980943     0.973300     0.965657     0.958014     0.950371
      0.942727     0.935084     0.927441     0.919798     0.912155     0.904512     0.896869     0.889226     0.881583     0.873940
      0.866296     0.858653     0.851010     0.843367     0.835724     0.828081     0.820438     0.812795     0.805152     0.797508
      0.789865     0.782222     0.774579     0.766936     0.759293     0.751650     0.744007     0.736364     0.728721     0.721077
      0.713434     0.705791     0.698148     0.690505     0.682862     0.675219     0.667576     0.659933     0.652290     0.644646
      0.637003     0.629360     0.621717     0.614074     0.606431     0.598788     0.591145     0.583502     0.575858     0.568215
      0.560572     0.552929     0.545286     0.537643     0.530000     0.522357     0.514714     0.507071     0.499427     0.491784
      0.484141     0.476498     0.468855     0.461212     0.453569     0.445925     0.438282     0.430639     0.422996     0.415353
      0.407710     0.400067     0.392424     0.384780     0.377137     0.369494     0.361851     0.354208     0.346565     0.338922
      0.331278     0.323635     0.315992     0.308349     0.300706     0.293063     0.285420     0.277777     0.270133     0.262490
      0.254847     0.247204     0.239561     0.231918     0.224275     0.216631     0.208988     0.201345
 NY phased data points follow
   8.07679E+01  8.76808E+01  8.18569E+01  7.75766E+01  8.22519E+01  9.04824E+01  9.35972E+01  9.97002E+01  1.09647E+02  1.16927E+02
   1.17768E+02  1.20120E+02  1.14535E+02  1.16392E+02  1.05349E+02  9.48387E+01  8.72665E+01  8.53223E+01  7.63707E+01  7.42805E+01
   7.53889E+01  7.39170E+01  6.74121E+01  7.18746E+01  6.60142E+01  6.81809E+01  6.73351E+01  6.87803E+01  6.82132E+01  7.58514E+01
   7.70162E+01  7.68019E+01  7.42820E+01  7.00581E+01  6.45654E+01  6.37301E+01  6.60589E+01  6.26520E+01  6.42797E+01  5.67218E+01
   5.82346E+01  5.75276E+01  5.46988E+01  5.78513E+01  6.13702E+01  6.20213E+01  6.52776E+01  6.59008E+01  5.83442E+01  6.02810E+01
   5.71276E+01  5.86775E+01  5.45799E+01  5.57962E+01  4.60032E+01  5.28782E+01  5.26805E+01  5.27783E+01  5.39226E+01  5.24254E+01
   5.15247E+01  4.78508E+01  4.31205E+01  4.00898E+01  4.00616E+01  3.76747E+01  3.91791E+01  3.20552E+01  3.39734E+01  3.02302E+01
   3.65770E+01  4.24959E+01  3.67566E+01  4.07307E+01  3.66552E+01  3.60064E+01  3.88152E+01  3.74727E+01  3.78873E+01  3.29240E+01
   3.41658E+01  3.37910E+01  3.24493E+01  3.30096E+01  3.13013E+01  3.47387E+01  3.58339E+01  3.20632E+01  2.99281E+01  3.13346E+01
   3.62062E+01  3.82898E+01  3.24324E+01  3.23226E+01  3.28367E+01  2.72779E+01  2.78545E+01  2.63941E+01  2.56486E+01  4.02215E+01
   4.76692E+01  6.82410E+01  8.30207E+01  8.69945E+01  8.82744E+01  7.28666E+01  7.20934E+01  6.09990E+01  5.40156E+01  5.14059E+01
   4.78102E+01  3.74078E+01  3.61803E+01  3.68456E+01  3.11139E+01  2.79718E+01  2.99754E+01  2.65888E+01  2.64586E+01  2.23296E+01
   2.04768E+01  2.10493E+01  2.76927E+01  3.56458E+01  4.76169E+01  4.94819E+01  7.22732E+01  7.36620E+01  7.05279E+01  6.86499E+01
   6.41502E+01  5.50392E+01  5.14409E+01  5.07102E+01  3.78948E+01  3.62533E+01  2.95117E+01  2.76886E+01  2.42107E+01  2.66844E+01
   2.07902E+01  1.88995E+01  2.01352E+01  2.38772E+01  1.62723E+01  2.04292E+01  1.98495E+01  2.08275E+01  1.75004E+01  1.65330E+01
   1.50869E+01  2.02443E+01  2.19082E+01  1.96935E+01  1.62563E+01  1.50983E+01  1.67345E+01  1.64509E+01  1.20765E+01  1.44933E+01
   1.20408E+01  1.41954E+01  1.51505E+01  8.38819E+00  2.15297E+01  1.72447E+01  1.61723E+01  1.27449E+01  9.89679E+00  1.02859E+01
   9.20747E+00  7.55176E+00  2.90694E+00  7.70753E+00  1.16369E+01  6.44363E+00  7.97606E+00  2.28924E+00  1.06525E+01  4.70539E+00
   1.00852E+01  5.71174E+00  2.23479E+00  2.98399E+00  8.03340E+00  1.18037E+01  2.29882E+00  7.03839E+00  9.18496E+00  1.67802E+01
   1.11006E+01  1.70898E+01  1.88121E+01  1.60257E+01  1.74432E+01  2.07044E+01  1.56185E+01  1.93299E+01  9.81836E+00  1.50901E+01
   1.45732E+01  8.58137E+00  1.69562E+01  1.38408E+01  1.71494E+01  1.76929E+01  1.30117E+01  6.52304E+00  1.32908E+01  8.58456E+00
   1.07233E+01  8.91337E+00  9.94201E+00  1.04364E+01  1.79087E+01  2.46909E+01  1.97496E+01  2.25121E+01  2.03225E+01  1.85001E+01
   1.19358E+01  1.06732E+01  1.20839E+01  1.00593E+01  1.55492E+01  1.72955E+01  1.35724E+01  2.14168E+01  1.58570E+01  1.81224E+01
   1.83455E+01  1.78711E+01  1.47545E+01  1.45733E+01  1.79574E+01  2.44918E+01  1.61909E+01  1.71309E+01  1.50096E+01  1.31789E+01
   1.51780E+01  1.25252E+01  1.15023E+01  1.57034E+01  1.69713E+01  2.11765E+01  1.62569E+01  2.32027E+01  1.58410E+01  2.03307E+01
   1.64347E+01  1.86017E+01  1.99795E+01  2.30205E+01  1.89454E+01  2.13927E+01  2.65114E+01  3.81182E+01  5.29312E+01  6.19010E+01
   7.06608E+01  7.11142E+01  6.36292E+01  5.38126E+01  4.77162E+01  4.00183E+01  3.40488E+01  3.00753E+01  2.51235E+01  1.80036E+01
   1.97080E+01  1.82403E+01  1.38196E+01  1.16907E+01  1.32469E+01  1.27559E+01  1.29971E+01  1.03205E+01  8.39663E+00  6.20179E+00
   1.24496E+01  2.18179E+00  1.00981E+01  7.46036E+00  1.12942E+01  9.70263E+00  9.69078E+00  4.24362E+00  6.53468E+00  3.82254E+00
   4.47983E+00  1.89993E+00  8.59918E+00  4.26792E+00  6.84201E+00  1.17958E+01  7.00038E+00  6.06170E+00  8.14371E+00  8.24153E+00
   9.33226E+00  3.65971E+00  8.17663E+00  8.58969E+00  7.59278E+00  6.03556E+00  1.03686E+01  1.15977E+01  4.42162E+00  6.64568E+00
   1.28607E+01  1.31316E+01  9.38081E+00  1.04348E+01  1.29818E+01  1.22586E+01  1.14580E+01  1.43242E+01  7.42346E+00  6.26780E+00
   9.63231E+00  1.13840E+01  1.70766E+01  1.42461E+01  1.22749E+01  1.46268E+01  1.52383E+01  1.05170E+01  9.52412E+00  1.88660E+01
   1.61642E+01  1.28621E+01  2.12995E+01  1.81747E+01  1.65950E+01  1.77047E+01  1.36729E+01  6.66106E+00  1.66807E+01  2.07591E+01
   1.95278E+01  1.79131E+01  2.19693E+01  2.26869E+01  2.26178E+01  3.09750E+01  3.05081E+01  2.94999E+01  2.51994E+01  2.55334E+01
   2.82202E+01  2.61260E+01  2.73852E+01  2.84212E+01  2.95028E+01  2.71009E+01  2.62100E+01  3.09559E+01  2.29453E+01  2.75711E+01
   1.78673E+01  1.90436E+01  1.56472E+01  1.90200E+01  1.56789E+01  1.71937E+01  1.37740E+01  1.00853E+01  8.22122E+00  9.26794E+00
   1.04857E+01  6.73389E+00  3.13346E+00  5.29521E+00  9.07272E+00  8.51924E+00  4.32056E+00  6.24026E+00  1.30624E+01  7.56653E+00
   3.29784E+00  6.39514E+00  2.40962E+00  8.76843E+00  1.19393E+01  1.21906E+01  7.32070E+00  1.32585E+01  1.19645E+01  1.26234E+01
   7.68417E+00  5.71197E+00  9.75833E+00  7.82128E+00  7.52158E+00  1.20017E+01  5.44142E+00  1.34520E+01  1.27757E+01  9.26234E+00
   1.32369E+01  1.30887E+01  1.30582E+01  1.04719E+01  1.85923E+01  1.59194E+01  1.42068E+01  1.26831E+01  1.48039E+01  1.78472E+01
   1.31171E+01  1.57702E+01  1.54690E+01  1.24375E+01  1.14963E+01  1.40744E+01  1.14662E+01  1.65978E+01  1.33026E+01  6.24441E+00
   1.29071E+01  1.12130E+01  8.70757E+00  1.19539E+01  9.28152E+00  1.28663E+01  7.81566E+00  1.15140E+01  1.28925E+01  1.26393E+01
   8.48400E+00  5.26367E+00  1.04010E+01  2.88161E+00  3.24037E+00  1.11140E+01  7.97346E+00  1.07216E+01  3.31747E+00  1.07009E+01
   6.22838E+00  8.00665E+00  7.20242E+00  7.23895E+00  5.75915E+00  6.94824E+00  4.97224E+00  3.41877E+00  2.29953E-01  4.27510E+00
   2.01880E-01 -1.82484E-03  2.97005E+00  7.53953E+00  5.48450E+00  5.79708E+00  2.92014E+00  5.34499E+00  4.76472E+00  7.12561E+00
   1.66092E+00  2.14682E+00  1.31103E+00  1.99172E+00  4.51111E+00  3.62920E+00  5.76949E+00  8.31995E+00  4.70859E+00  5.71957E+00
   2.13440E+00  5.95973E+00  2.26570E+00  2.50460E+00  2.71551E+00  3.26544E+00  7.51669E+00  1.79318E+00  4.93227E+00  2.57235E+00
  -5.72559E-01  6.78891E-01  1.37641E+00  4.71635E+00  4.30946E+00 -3.51859E-01  4.74306E+00  5.70325E+00  7.21311E+00  3.52525E+00
   5.08502E+00  9.00651E+00  6.60051E+00  4.63028E+00  7.68994E+00  1.17287E+00  4.95216E+00  8.26710E+00
 NY points of the fit to the data follow
   8.15740E+01  8.08887E+01  8.04811E+01  8.03386E+01  8.13370E+01  8.47836E+01  9.09789E+01  9.90211E+01  1.07086E+02  1.12955E+02
   1.15097E+02  1.13462E+02  1.09286E+02  1.04130E+02  9.90697E+01  9.44224E+01  8.98085E+01  8.47721E+01  7.97436E+01  7.62108E+01
   7.43014E+01  7.29491E+01  7.16388E+01  7.01470E+01  6.86687E+01  6.77775E+01  6.79176E+01  6.92027E+01  7.12694E+01  7.33900E+01
   7.47584E+01  7.48931E+01  7.38013E+01  7.17889E+01  6.94186E+01  6.72103E+01  6.52858E+01  6.34489E+01  6.17703E+01  6.06167E+01
   5.99423E+01  5.95307E+01  5.94903E+01  5.98076E+01  6.02779E+01  6.06051E+01  6.05549E+01  5.99947E+01  5.90109E+01  5.78953E+01
   5.67310E+01  5.54950E+01  5.42995E+01  5.31967E+01  5.20511E+01  5.09541E+01  5.01941E+01  4.97113E+01  4.92176E+01  4.85849E+01
   4.78496E+01  4.69991E+01  4.60708E+01  4.51375E+01  4.42899E+01  4.35780E+01  4.29764E+01  4.24489E+01  4.19964E+01  4.16081E+01
   4.12462E+01  4.08692E+01  4.04329E+01  3.99326E+01  3.93840E+01  3.88106E+01  3.82421E+01  3.76875E+01  3.71432E+01  3.65973E+01
   3.61084E+01  3.57768E+01  3.55879E+01  3.54525E+01  3.52530E+01  3.48835E+01  3.43063E+01  3.35831E+01  3.28422E+01  3.21912E+01
   3.16777E+01  3.12837E+01  3.09318E+01  3.05416E+01  3.01100E+01  2.97254E+01  2.93361E+01  2.94629E+01  3.26385E+01  4.05461E+01
   5.26961E+01  6.67028E+01  7.88218E+01  8.55793E+01  8.57029E+01  8.05463E+01  7.27885E+01  6.46931E+01  5.73923E+01  5.06926E+01
   4.35716E+01  3.58030E+01  2.95153E+01  2.69503E+01  2.60202E+01  2.54646E+01  2.50449E+01  2.46980E+01  2.44100E+01  2.41917E+01
   2.40956E+01  2.46968E+01  2.78403E+01  3.50086E+01  4.58827E+01  5.84515E+01  6.95688E+01  7.62527E+01  7.72936E+01  7.36373E+01
   6.73994E+01  6.04643E+01  5.37288E+01  4.70388E+01  3.97670E+01  3.20104E+01  2.55756E+01  2.24111E+01  2.14996E+01  2.13351E+01
   2.13600E+01  2.13130E+01  2.11646E+01  2.10042E+01  2.08124E+01  2.05450E+01  2.02101E+01  1.97847E+01  1.92665E+01  1.87148E+01
   1.81611E+01  1.76993E+01  1.73249E+01  1.70256E+01  1.68058E+01  1.66152E+01  1.63551E+01  1.59682E+01  1.54718E+01  1.49784E+01
   1.46364E+01  1.45111E+01  1.45504E+01  1.46074E+01  1.45235E+01  1.42376E+01  1.38066E+01  1.33481E+01  1.29706E+01  1.26859E+01
   1.23568E+01  1.18524E+01  1.12115E+01  1.05752E+01  1.01377E+01  9.93486E+00  9.85989E+00  9.83109E+00  9.77542E+00  9.66212E+00
   9.51408E+00  9.34645E+00  9.15020E+00  8.95915E+00  8.83330E+00  8.85719E+00  9.18064E+00  9.98163E+00  1.11470E+01  1.23654E+01
   1.32766E+01  1.37184E+01  1.37194E+01  1.33671E+01  1.28023E+01  1.21697E+01  1.16064E+01  1.12884E+01  1.14059E+01  1.19864E+01
   1.29411E+01  1.40703E+01  1.50937E+01  1.57349E+01  1.57530E+01  1.50636E+01  1.38307E+01  1.22408E+01  1.06585E+01  9.51685E+00
   9.18032E+00  9.79054E+00  1.11829E+01  1.30487E+01  1.49071E+01  1.62351E+01  1.66460E+01  1.60076E+01  1.44704E+01  1.23906E+01
   1.04684E+01  9.24734E+00  8.84825E+00  9.20580E+00  1.01885E+01  1.16342E+01  1.30704E+01  1.41176E+01  1.47805E+01  1.52097E+01
   1.54676E+01  1.55184E+01  1.54989E+01  1.57083E+01  1.62490E+01  1.69419E+01  1.75875E+01  1.79325E+01  1.78435E+01  1.73830E+01
   1.67118E+01  1.60502E+01  1.57161E+01  1.58600E+01  1.63220E+01  1.68348E+01  1.73215E+01  1.77755E+01  1.81431E+01  1.84485E+01
   1.88026E+01  1.92061E+01  1.94689E+01  1.94470E+01  1.97949E+01  2.28347E+01  2.99213E+01  4.05967E+01  5.27536E+01  6.30819E+01
   6.85862E+01  6.82860E+01  6.34857E+01  5.65345E+01  4.93599E+01  4.28766E+01  3.68177E+01  3.02283E+01  2.30609E+01  1.74414E+01
   1.50770E+01  1.40188E+01  1.33380E+01  1.28584E+01  1.24662E+01  1.20728E+01  1.16811E+01  1.12898E+01  1.09051E+01  1.05371E+01
   1.01863E+01  9.84394E+00  9.52160E+00  9.23674E+00  8.98857E+00  8.76878E+00  8.57399E+00  8.40571E+00  8.26495E+00  8.14697E+00
   8.04593E+00  7.96541E+00  7.90736E+00  7.87160E+00  7.85760E+00  7.86509E+00  7.89334E+00  7.94031E+00  8.00416E+00  8.08421E+00
   8.17864E+00  8.28467E+00  8.39978E+00  8.52124E+00  8.64635E+00  8.77284E+00  8.89924E+00  9.02473E+00  9.14892E+00  9.27189E+00
   9.39439E+00  9.51813E+00  9.64611E+00  9.78173E+00  9.92832E+00  1.00895E+01  1.02688E+01  1.04697E+01  1.06953E+01  1.09476E+01
   1.12275E+01  1.15347E+01  1.18679E+01  1.22244E+01  1.26003E+01  1.29902E+01  1.33882E+01  1.37872E+01  1.41806E+01  1.45616E+01
   1.49240E+01  1.52630E+01  1.55757E+01  1.58622E+01  1.61264E+01  1.63776E+01  1.66309E+01  1.69099E+01  1.72486E+01  1.76933E+01
   1.83116E+01  1.92859E+01  2.08339E+01  2.28325E+01  2.49121E+01  2.66324E+01  2.76302E+01  2.78003E+01  2.72864E+01  2.64835E+01
   2.59489E+01  2.60175E+01  2.67083E+01  2.77392E+01  2.86372E+01  2.90425E+01  2.89068E+01  2.81635E+01  2.66534E+01  2.46867E+01
   2.26003E+01  2.05317E+01  1.84118E+01  1.61868E+01  1.41799E+01  1.26775E+01  1.15376E+01  1.06509E+01  9.95365E+00  9.40040E+00
   8.95693E+00  8.59750E+00  8.30306E+00  8.05986E+00  7.85822E+00  7.69157E+00  7.55569E+00  7.44802E+00  7.36715E+00  7.31250E+00
   7.28411E+00  7.28252E+00  7.30863E+00  7.36366E+00  7.44898E+00  7.56600E+00  7.71620E+00  7.90100E+00  8.12170E+00  8.37927E+00
   8.67425E+00  9.00654E+00  9.37526E+00  9.77864E+00  1.02139E+01  1.06770E+01  1.11627E+01  1.16643E+01  1.21739E+01  1.26826E+01
   1.31805E+01  1.36571E+01  1.41015E+01  1.45030E+01  1.48514E+01  1.51374E+01  1.53534E+01  1.54932E+01  1.55530E+01  1.55308E+01
   1.54274E+01  1.52456E+01  1.49905E+01  1.46687E+01  1.42887E+01  1.38598E+01  1.33921E+01  1.28960E+01  1.23817E+01  1.18588E+01
   1.13360E+01  1.08210E+01  1.03206E+01  9.83998E+00  9.38324E+00  8.95321E+00  8.55166E+00  8.17941E+00  7.83652E+00  7.52234E+00
   7.23574E+00  6.97517E+00  6.73891E+00  6.52512E+00  6.33191E+00  6.15740E+00  5.99975E+00  5.85723E+00  5.72826E+00  5.61143E+00
   5.50544E+00  5.40909E+00  5.32131E+00  5.24116E+00  5.16784E+00  5.10064E+00  5.03893E+00  4.98212E+00  4.92970E+00  4.88123E+00
   4.83635E+00  4.79475E+00  4.75612E+00  4.72016E+00  4.68664E+00  4.65536E+00  4.62618E+00  4.59893E+00  4.57345E+00  4.54958E+00
   4.52721E+00  4.50626E+00  4.48665E+00  4.46831E+00  4.45111E+00  4.43497E+00  4.41986E+00  4.40572E+00  4.39253E+00  4.38022E+00
   4.36872E+00  4.35799E+00  4.34802E+00  4.33880E+00  4.33029E+00  4.32244E+00  4.31522E+00  4.30861E+00  4.30261E+00  4.29722E+00
   4.29241E+00  4.28812E+00  4.28436E+00  4.28111E+00  4.27840E+00  4.27621E+00  4.27451E+00  4.27328E+00  4.27250E+00  4.27220E+00
   4.27239E+00  4.27305E+00  4.27414E+00  4.27566E+00  4.27762E+00  4.28003E+00  4.28290E+00  4.28621E+00
 NY background values follow
     8.010E+01    7.948E+01    7.886E+01    7.823E+01    7.761E+01    7.698E+01    7.636E+01    7.573E+01    7.511E+01    7.449E+01
     7.386E+01    7.324E+01    7.261E+01    7.199E+01    7.137E+01    7.074E+01    7.012E+01    6.950E+01    6.888E+01    6.826E+01
     6.764E+01    6.703E+01    6.641E+01    6.580E+01    6.518E+01    6.457E+01    6.396E+01    6.335E+01    6.275E+01    6.214E+01
     6.154E+01    6.094E+01    6.034E+01    5.974E+01    5.914E+01    5.855E+01    5.796E+01    5.737E+01    5.678E+01    5.620E+01
     5.562E+01    5.504E+01    5.447E+01    5.389E+01    5.332E+01    5.276E+01    5.219E+01    5.163E+01    5.108E+01    5.052E+01
     4.997E+01    4.942E+01    4.888E+01    4.834E+01    4.780E+01    4.727E+01    4.674E+01    4.621E+01    4.569E+01    4.517E+01
     4.465E+01    4.414E+01    4.363E+01    4.313E+01    4.262E+01    4.213E+01    4.163E+01    4.114E+01    4.066E+01    4.018E+01
     3.970E+01    3.922E+01    3.875E+01    3.829E+01    3.783E+01    3.737E+01    3.692E+01    3.647E+01    3.602E+01    3.558E+01
     3.514E+01    3.471E+01    3.429E+01    3.386E+01    3.344E+01    3.303E+01    3.262E+01    3.221E+01    3.181E+01    3.142E+01
     3.103E+01    3.064E+01    3.026E+01    2.988E+01    2.951E+01    2.914E+01    2.878E+01    2.842E+01    2.806E+01    2.771E+01
     2.737E+01    2.703E+01    2.669E+01    2.636E+01    2.603E+01    2.571E+01    2.539E+01    2.508E+01    2.477E+01    2.446E+01
     2.416E+01    2.386E+01    2.357E+01    2.328E+01    2.299E+01    2.271E+01    2.244E+01    2.216E+01    2.189E+01    2.163E+01
     2.137E+01    2.111E+01    2.086E+01    2.061E+01    2.036E+01    2.012E+01    1.989E+01    1.965E+01    1.942E+01    1.920E+01
     1.897E+01    1.875E+01    1.854E+01    1.833E+01    1.812E+01    1.791E+01    1.771E+01    1.752E+01    1.732E+01    1.713E+01
     1.694E+01    1.676E+01    1.658E+01    1.640E+01    1.623E+01    1.606E+01    1.589E+01    1.573E+01    1.557E+01    1.541E+01
     1.525E+01    1.510E+01    1.495E+01    1.481E+01    1.466E+01    1.452E+01    1.439E+01    1.425E+01    1.412E+01    1.399E+01
     1.387E+01    1.375E+01    1.363E+01    1.351E+01    1.339E+01    1.328E+01    1.317E+01    1.307E+01    1.296E+01    1.286E+01
     1.276E+01    1.266E+01    1.257E+01    1.247E+01    1.238E+01    1.230E+01    1.221E+01    1.213E+01    1.205E+01    1.197E+01
     1.189E+01    1.182E+01    1.174E+01    1.167E+01    1.160E+01    1.154E+01    1.147E+01    1.141E+01    1.134E+01    1.128E+01
     1.122E+01    1.117E+01    1.111E+01    1.105E+01    1.100E+01    1.095E+01    1.089E+01    1.084E+01    1.079E+01    1.074E+01
     1.069E+01    1.064E+01    1.060E+01    1.055E+01    1.050E+01    1.045E+01    1.041E+01    1.036E+01    1.031E+01    1.027E+01
     1.022E+01    1.017E+01    1.013E+01    1.008E+01    1.003E+01    9.981E+00    9.932E+00    9.882E+00    9.831E+00    9.779E+00
     9.727E+00    9.674E+00    9.619E+00    9.564E+00    9.507E+00    9.449E+00    9.389E+00    9.329E+00    9.266E+00    9.203E+00
     9.138E+00    9.072E+00    9.005E+00    8.937E+00    8.867E+00    8.797E+00    8.726E+00    8.654E+00    8.581E+00    8.507E+00
     8.432E+00    8.357E+00    8.281E+00    8.205E+00    8.128E+00    8.050E+00    7.973E+00    7.894E+00    7.816E+00    7.737E+00
     7.658E+00    7.579E+00    7.500E+00    7.420E+00    7.341E+00    7.262E+00    7.182E+00    7.103E+00    7.025E+00    6.946E+00
     6.868E+00    6.790E+00    6.713E+00    6.636E+00    6.559E+00    6.484E+00    6.408E+00    6.334E+00    6.260E+00    6.187E+00
     6.115E+00    6.044E+00    5.974E+00    5.904E+00    5.836E+00    5.768E+00    5.702E+00    5.636E+00    5.572E+00    5.508E+00
     5.445E+00    5.383E+00    5.323E+00    5.262E+00    5.203E+00    5.145E+00    5.088E+00    5.031E+00    4.976E+00    4.921E+00
     4.867E+00    4.814E+00    4.762E+00    4.711E+00    4.661E+00    4.612E+00    4.563E+00    4.515E+00    4.468E+00    4.422E+00
     4.377E+00    4.333E+00    4.289E+00    4.246E+00    4.204E+00    4.163E+00    4.123E+00    4.083E+00    4.045E+00    4.007E+00
     3.970E+00    3.933E+00    3.898E+00    3.863E+00    3.829E+00    3.796E+00    3.763E+00    3.731E+00    3.700E+00    3.670E+00
     3.641E+00    3.612E+00    3.584E+00    3.557E+00    3.530E+00    3.504E+00    3.479E+00    3.455E+00    3.431E+00    3.408E+00
     3.385E+00    3.363E+00    3.342E+00    3.322E+00    3.302E+00    3.282E+00    3.264E+00    3.246E+00    3.228E+00    3.212E+00
     3.195E+00    3.180E+00    3.165E+00    3.150E+00    3.136E+00    3.123E+00    3.110E+00    3.098E+00    3.086E+00    3.075E+00
     3.064E+00    3.054E+00    3.045E+00    3.035E+00    3.027E+00    3.019E+00    3.011E+00    3.004E+00    2.997E+00    2.991E+00
     2.985E+00    2.980E+00    2.975E+00    2.970E+00    2.966E+00    2.962E+00    2.959E+00    2.956E+00    2.953E+00    2.951E+00
     2.949E+00    2.948E+00    2.947E+00    2.946E+00    2.946E+00    2.946E+00    2.946E+00    2.946E+00    2.947E+00    2.948E+00
     2.950E+00    2.951E+00    2.953E+00    2.955E+00    2.957E+00    2.960E+00    2.963E+00    2.966E+00    2.969E+00    2.972E+00
     2.976E+00    2.980E+00    2.984E+00    2.988E+00    2.992E+00    2.996E+00    3.001E+00    3.006E+00    3.010E+00    3.015E+00
     3.020E+00    3.025E+00    3.030E+00    3.035E+00    3.041E+00    3.046E+00    3.051E+00    3.056E+00    3.062E+00    3.067E+00
     3.073E+00    3.078E+00    3.084E+00    3.089E+00    3.094E+00    3.100E+00    3.106E+00    3.111E+00    3.117E+00    3.122E+00
     3.128E+00    3.133E+00    3.139E+00    3.145E+00    3.150E+00    3.156E+00    3.162E+00    3.167E+00    3.173E+00    3.179E+00
     3.185E+00    3.190E+00    3.196E+00    3.202E+00    3.208E+00    3.213E+00    3.219E+00    3.225E+00    3.231E+00    3.236E+00
     3.242E+00    3.248E+00    3.254E+00    3.259E+00    3.265E+00    3.271E+00    3.277E+00    3.283E+00    3.288E+00    3.294E+00
     3.300E+00    3.305E+00    3.311E+00    3.317E+00    3.323E+00    3.328E+00    3.334E+00    3.340E+00    3.346E+00    3.351E+00
     3.357E+00    3.363E+00    3.369E+00    3.375E+00    3.381E+00    3.387E+00    3.393E+00    3.400E+00    3.406E+00    3.412E+00
     3.419E+00    3.426E+00    3.432E+00    3.439E+00    3.446E+00    3.453E+00    3.461E+00    3.468E+00    3.476E+00    3.483E+00
     3.491E+00    3.499E+00    3.507E+00    3.516E+00    3.524E+00    3.533E+00    3.542E+00    3.551E+00    3.560E+00    3.570E+00
     3.580E+00    3.590E+00    3.600E+00    3.611E+00    3.621E+00    3.632E+00    3.644E+00    3.655E+00
 Cr       Conc. = 3.42E+02
