 LCModel (Version 6.3-1L) Copyright: S.W. Provencher.          Ref.: Magn. Reson. Med. 30:672-679 (1993).                
 Slice#1 Row#13 Col#6  PD_24_press_1_raw_act
 36 lines in following concentration table = NCONC+1
    Conc.  %SD /Cr+PCr  Metabolite                                         
 1.02E+03  30%   2.683 Ala                                                 
   27.004 365% 7.1E-02 Asp                                                 
  381.591  16%   1.000 Cr                                                  
    0.000 999%   0.000 PCr                                                 
   46.605 132%   0.122 GABA                                                
   45.673 133%   0.120 Glc                                                 
 2.81E+03  22%   7.375 Gln                                                 
 3.33E+03  24%   8.723 Glu                                                 
  166.491  14%   0.436 GPC                                                 
    0.000 999%   0.000 PCh                                                 
    0.000 999%   0.000 GSH                                                 
 1.34E+03  25%   3.499 Ins                                                 
  667.643  59%   1.750 Lac                                                 
  772.010   9%   2.023 NAA                                                 
    0.000 999%   0.000 NAAG                                                
   53.957  34%   0.141 Scyllo                                              
  221.392  44%   0.580 Tau                                                 
  476.280  24%   1.248 -CrCH2                                              
  166.491  14%   0.436 GPC+PCh                                             
  772.010   9%   2.023 NAA+NAAG                                            
  381.591  16%   1.000 Cr+PCr                                              
 6.14E+03  21%  16.098 Glu+Gln                                             
   75.913 289%   0.199 Lip13a                                              
    0.000 999%   0.000 Lip13b                                              
    0.000 999%   0.000 Lip09                                               
  440.187  28%   1.154 MM09                                                
   16.287 431% 4.3E-02 Lip20                                               
  566.938  42%   1.486 MM20                                                
  144.972  49%   0.380 MM12                                                
  740.226  27%   1.940 MM14                                                
  205.850  72%   0.539 MM17                                                
   75.913 289%   0.199 Lip13a+Lip13b                                       
  961.111  34%   2.519 MM14+Lip13a+Lip13b+MM12                             
  440.187  28%   1.154 MM09+Lip09                                          
  583.225  42%   1.528 MM20+Lip20                                          
   6 lines in following misc. output table
  FWHM = 0.138 ppm    S/N =   3                                            
  Data shift =-0.023 ppm                                                   
  Ph: -74 deg     -16.3 deg/ppm                                            
  alphaB,S = 5.8E-01,   2.2E+02                                            
   14 spline knots.   Ns = 7(2)                                            
  ( 9) 2 infls.   ( 7) 1 extrs.                                            
  498 points on ppm-axis = NY
      4.000000     3.992357     3.984714     3.977070     3.969427     3.961784     3.954141     3.946497     3.938854     3.931211
      3.923568     3.915925     3.908281     3.900638     3.892995     3.885352     3.877708     3.870065     3.862422     3.854779
      3.847136     3.839492     3.831849     3.824206     3.816563     3.808919     3.801276     3.793633     3.785990     3.778347
      3.770703     3.763060     3.755417     3.747774     3.740130     3.732487     3.724844     3.717201     3.709558     3.701914
      3.694271     3.686628     3.678985     3.671341     3.663698     3.656055     3.648412     3.640769     3.633125     3.625482
      3.617839     3.610196     3.602552     3.594909     3.587266     3.579623     3.571980     3.564336     3.556693     3.549050
      3.541407     3.533763     3.526120     3.518477     3.510834     3.503191     3.495547     3.487904     3.480261     3.472618
      3.464974     3.457331     3.449688     3.442045     3.434402     3.426758     3.419115     3.411472     3.403829     3.396185
      3.388542     3.380899     3.373256     3.365613     3.357969     3.350326     3.342683     3.335040     3.327396     3.319753
      3.312110     3.304467     3.296824     3.289180     3.281537     3.273894     3.266251     3.258607     3.250964     3.243321
      3.235678     3.228034     3.220391     3.212748     3.205105     3.197462     3.189818     3.182175     3.174532     3.166889
      3.159245     3.151602     3.143959     3.136316     3.128673     3.121029     3.113386     3.105743     3.098100     3.090456
      3.082813     3.075170     3.067527     3.059884     3.052240     3.044597     3.036954     3.029311     3.021667     3.014024
      3.006381     2.998738     2.991095     2.983451     2.975808     2.968165     2.960522     2.952878     2.945235     2.937592
      2.929949     2.922306     2.914662     2.907019     2.899376     2.891733     2.884089     2.876446     2.868803     2.861160
      2.853517     2.845873     2.838230     2.830587     2.822944     2.815300     2.807657     2.800014     2.792371     2.784728
      2.777084     2.769441     2.761798     2.754155     2.746511     2.738868     2.731225     2.723582     2.715939     2.708295
      2.700652     2.693009     2.685366     2.677722     2.670079     2.662436     2.654793     2.647150     2.639506     2.631863
      2.624220     2.616577     2.608933     2.601290     2.593647     2.586004     2.578361     2.570717     2.563074     2.555431
      2.547788     2.540144     2.532501     2.524858     2.517215     2.509572     2.501928     2.494285     2.486642     2.478999
      2.471355     2.463712     2.456069     2.448426     2.440783     2.433139     2.425496     2.417853     2.410210     2.402566
      2.394923     2.387280     2.379637     2.371994     2.364350     2.356707     2.349064     2.341421     2.333777     2.326134
      2.318491     2.310848     2.303205     2.295561     2.287918     2.280275     2.272632     2.264988     2.257345     2.249702
      2.242059     2.234416     2.226772     2.219129     2.211486     2.203843     2.196199     2.188556     2.180913     2.173270
      2.165627     2.157983     2.150340     2.142697     2.135054     2.127410     2.119767     2.112124     2.104481     2.096838
      2.089194     2.081551     2.073908     2.066265     2.058621     2.050978     2.043335     2.035692     2.028049     2.020405
      2.012762     2.005119     1.997476     1.989833     1.982190     1.974546     1.966903     1.959260     1.951617     1.943974
      1.936331     1.928688     1.921045     1.913402     1.905759     1.898115     1.890472     1.882829     1.875186     1.867543
      1.859900     1.852257     1.844614     1.836971     1.829327     1.821684     1.814041     1.806398     1.798755     1.791112
      1.783469     1.775826     1.768183     1.760540     1.752896     1.745253     1.737610     1.729967     1.722324     1.714681
      1.707038     1.699395     1.691752     1.684108     1.676465     1.668822     1.661179     1.653536     1.645893     1.638250
      1.630607     1.622964     1.615321     1.607677     1.600034     1.592391     1.584748     1.577105     1.569462     1.561819
      1.554176     1.546533     1.538890     1.531246     1.523603     1.515960     1.508317     1.500674     1.493031     1.485388
      1.477745     1.470102     1.462458     1.454815     1.447172     1.439529     1.431886     1.424243     1.416600     1.408957
      1.401314     1.393671     1.386027     1.378384     1.370741     1.363098     1.355455     1.347812     1.340169     1.332526
      1.324883     1.317240     1.309596     1.301953     1.294310     1.286667     1.279024     1.271381     1.263738     1.256095
      1.248452     1.240808     1.233165     1.225522     1.217879     1.210236     1.202593     1.194950     1.187307     1.179664
      1.172021     1.164377     1.156734     1.149091     1.141448     1.133805     1.126162     1.118519     1.110876     1.103233
      1.095590     1.087946     1.080303     1.072660     1.065017     1.057374     1.049731     1.042088     1.034445     1.026802
      1.019158     1.011515     1.003872     0.996229     0.988586     0.980943     0.973300     0.965657     0.958014     0.950371
      0.942727     0.935084     0.927441     0.919798     0.912155     0.904512     0.896869     0.889226     0.881583     0.873940
      0.866296     0.858653     0.851010     0.843367     0.835724     0.828081     0.820438     0.812795     0.805152     0.797508
      0.789865     0.782222     0.774579     0.766936     0.759293     0.751650     0.744007     0.736364     0.728721     0.721077
      0.713434     0.705791     0.698148     0.690505     0.682862     0.675219     0.667576     0.659933     0.652290     0.644646
      0.637003     0.629360     0.621717     0.614074     0.606431     0.598788     0.591145     0.583502     0.575858     0.568215
      0.560572     0.552929     0.545286     0.537643     0.530000     0.522357     0.514714     0.507071     0.499427     0.491784
      0.484141     0.476498     0.468855     0.461212     0.453569     0.445925     0.438282     0.430639     0.422996     0.415353
      0.407710     0.400067     0.392424     0.384780     0.377137     0.369494     0.361851     0.354208     0.346565     0.338922
      0.331278     0.323635     0.315992     0.308349     0.300706     0.293063     0.285420     0.277777     0.270133     0.262490
      0.254847     0.247204     0.239561     0.231918     0.224275     0.216631     0.208988     0.201345
 NY phased data points follow
  -9.47394E+01 -9.49174E+01 -9.07773E+01 -8.95717E+01 -8.93326E+01 -8.42718E+01 -8.55310E+01 -8.54354E+01 -8.43985E+01 -8.33490E+01
  -8.17039E+01 -7.73299E+01 -7.66602E+01 -7.64720E+01 -7.64754E+01 -7.12449E+01 -7.27243E+01 -7.25959E+01 -7.26324E+01 -7.16957E+01
  -6.98169E+01 -6.95824E+01 -7.08768E+01 -6.74072E+01 -6.96407E+01 -7.26513E+01 -6.77046E+01 -6.70633E+01 -6.98170E+01 -6.76400E+01
  -6.63011E+01 -6.67394E+01 -6.64349E+01 -6.23893E+01 -5.95893E+01 -6.31441E+01 -5.99315E+01 -6.16491E+01 -5.85120E+01 -5.90111E+01
  -5.65936E+01 -5.93215E+01 -5.86545E+01 -5.37507E+01 -5.09206E+01 -4.99134E+01 -5.45875E+01 -5.32559E+01 -4.94878E+01 -5.12376E+01
  -5.22248E+01 -5.41707E+01 -5.03890E+01 -5.20494E+01 -5.06715E+01 -4.93638E+01 -5.02338E+01 -4.81134E+01 -4.55543E+01 -4.54679E+01
  -4.92033E+01 -4.86165E+01 -4.73912E+01 -4.54340E+01 -5.09461E+01 -4.73101E+01 -4.64752E+01 -4.14591E+01 -4.53261E+01 -4.36853E+01
  -4.46660E+01 -4.41014E+01 -4.55372E+01 -4.11785E+01 -4.49261E+01 -4.18628E+01 -4.50870E+01 -4.24066E+01 -4.30099E+01 -4.31707E+01
  -3.79590E+01 -4.17973E+01 -4.07773E+01 -3.96574E+01 -3.99915E+01 -4.19068E+01 -3.70764E+01 -3.70783E+01 -3.75032E+01 -3.53714E+01
  -3.78879E+01 -3.25369E+01 -3.37916E+01 -3.40588E+01 -3.34800E+01 -3.37366E+01 -3.81895E+01 -3.55675E+01 -3.14546E+01 -3.20192E+01
  -2.77530E+01 -2.60347E+01 -2.84091E+01 -2.82317E+01 -3.05481E+01 -3.04395E+01 -2.95165E+01 -3.06404E+01 -2.92390E+01 -2.61622E+01
  -2.88982E+01 -3.04973E+01 -2.55219E+01 -3.03134E+01 -3.26065E+01 -2.82866E+01 -2.99638E+01 -2.75552E+01 -2.87020E+01 -2.98881E+01
  -3.05332E+01 -2.89836E+01 -2.94736E+01 -2.52008E+01 -2.29587E+01 -2.26815E+01 -2.36492E+01 -2.58983E+01 -2.30530E+01 -2.45713E+01
  -2.53245E+01 -2.24370E+01 -2.11810E+01 -2.39694E+01 -1.96307E+01 -2.09776E+01 -2.35244E+01 -2.25477E+01 -2.07088E+01 -2.84261E+01
  -2.43859E+01 -2.88969E+01 -2.41818E+01 -2.58293E+01 -2.18139E+01 -2.57609E+01 -2.81305E+01 -2.24511E+01 -2.45882E+01 -2.53401E+01
  -2.83175E+01 -2.27007E+01 -2.30831E+01 -2.42319E+01 -2.59372E+01 -2.22923E+01 -2.22814E+01 -2.26975E+01 -2.16431E+01 -2.35860E+01
  -2.16063E+01 -1.99492E+01 -2.19784E+01 -1.94638E+01 -2.21393E+01 -2.09552E+01 -2.51419E+01 -2.06484E+01 -1.97244E+01 -2.33845E+01
  -2.27225E+01 -2.51455E+01 -2.39506E+01 -2.64592E+01 -2.19147E+01 -2.04127E+01 -2.12744E+01 -1.75317E+01 -2.09005E+01 -2.22644E+01
  -2.27685E+01 -2.05913E+01 -2.13235E+01 -2.02915E+01 -1.85667E+01 -2.17913E+01 -2.53761E+01 -2.18756E+01 -1.88587E+01 -2.04327E+01
  -1.90917E+01 -2.13608E+01 -2.30083E+01 -1.72159E+01 -1.81023E+01 -2.03655E+01 -1.74219E+01 -2.13815E+01 -1.79362E+01 -1.81817E+01
  -1.63939E+01 -2.29584E+01 -1.82841E+01 -1.57967E+01 -1.70326E+01 -1.30712E+01 -1.68852E+01 -1.81708E+01 -1.66385E+01 -1.40695E+01
  -1.25369E+01 -1.25108E+01 -1.11749E+01 -1.22290E+01 -1.52316E+01 -1.55966E+01 -1.62730E+01 -1.84889E+01 -1.54737E+01 -1.30241E+01
  -1.69069E+01 -1.50459E+01 -1.65610E+01 -1.02612E+01 -1.53142E+01 -1.37824E+01 -1.15937E+01 -1.47733E+01 -1.35308E+01 -1.31828E+01
  -1.16287E+01 -1.34775E+01 -9.10441E+00 -1.29174E+01 -9.74286E+00 -1.17755E+01 -1.05340E+01 -1.08789E+01 -1.15374E+01 -8.62344E+00
  -7.39817E+00 -1.26732E+01 -1.23625E+01 -1.14805E+01 -1.13196E+01 -1.11706E+01 -1.16720E+01 -8.06602E+00 -1.04931E+01 -7.52137E+00
  -8.78377E+00 -6.12622E+00 -8.10252E+00 -6.51725E+00 -4.46121E+00 -9.37847E-02 -2.95650E-01  3.65461E+00  7.51828E+00  1.02310E+01
   7.67474E+00  1.68269E+00  1.37508E+00 -2.79939E+00 -5.78490E-01 -8.71968E-01  7.91502E-02 -3.93739E+00  1.77187E+00 -3.96303E+00
  -3.23705E+00 -6.87030E+00 -7.21338E+00 -5.70970E+00 -5.79525E+00 -1.01653E+01 -7.69502E+00 -1.08533E+01 -7.74371E+00 -8.28577E+00
  -9.72955E+00 -8.04486E+00 -9.27533E+00 -7.17000E+00 -6.56014E+00 -8.76012E+00 -6.02877E+00 -1.08242E+01 -6.86623E+00 -7.89547E+00
  -1.11112E+01 -9.11848E+00 -6.47142E+00 -6.91610E+00 -4.91557E+00 -8.87824E+00 -5.41411E+00 -6.30148E+00 -4.64521E+00 -6.75964E+00
  -8.92888E+00 -8.88239E+00 -7.63555E+00 -8.00495E+00 -7.40221E+00 -5.47076E+00 -3.06095E+00 -4.29046E+00 -4.84030E+00 -4.41348E+00
  -9.04976E+00 -4.03340E+00 -3.09198E+00 -1.04005E+00 -7.02464E+00 -4.45836E+00 -5.07793E+00 -1.00966E+00 -2.52589E+00 -1.31911E+00
  -3.13720E+00 -5.63005E+00  2.19321E+00  2.94645E-01 -2.84920E+00 -8.16959E-01 -5.67167E+00 -5.78841E-01 -2.52691E+00 -2.98512E+00
   7.91554E-01 -1.17982E+00  8.48641E-01 -1.42389E+00 -1.76288E+00 -1.43221E+00 -3.17614E+00 -2.45264E+00 -2.20075E+00 -5.73177E+00
  -3.73626E+00 -1.27907E+00  1.15595E+00 -3.32895E+00  6.70025E-02  1.61790E+00  3.73802E-01 -3.00197E+00 -1.11326E+00 -2.33661E+00
  -3.68140E+00 -2.10358E+00 -4.39563E+00 -6.67457E+00 -6.04291E+00 -6.14958E+00 -3.38259E+00 -3.23666E+00 -7.14022E+00 -6.06959E+00
  -5.96788E+00 -1.81574E+00 -5.83888E+00 -3.81996E+00 -2.95045E+00 -3.48007E+00 -1.39029E+00 -1.60240E+00 -2.77169E+00 -1.80420E+00
  -3.84806E+00 -4.63361E+00 -5.79120E+00 -5.57981E+00 -7.18663E+00 -1.68427E+00 -5.75994E+00 -4.92153E+00 -4.57226E+00 -6.13704E+00
  -6.42418E+00 -4.93842E+00 -2.97108E+00 -7.46717E+00 -8.02023E+00 -6.85178E+00 -8.50470E+00 -5.82272E+00 -7.10034E+00 -8.20228E+00
  -5.55610E+00 -7.13433E+00 -7.05532E+00 -3.74166E+00 -2.57592E+00 -3.61266E+00 -5.71621E+00 -3.33215E+00 -4.61997E+00 -5.94962E+00
  -3.12523E+00 -1.14466E+00 -5.56030E-01 -4.75485E-01 -8.87746E-01 -3.97102E+00 -5.29523E+00  6.46422E-01 -6.36788E-01 -1.88992E+00
  -5.82686E-01 -2.36182E+00 -1.40420E+00 -6.93286E+00 -3.62655E+00 -1.28670E-01 -2.30897E+00 -4.13215E+00 -3.46341E+00 -7.88016E-01
  -5.16855E+00 -7.09438E+00 -8.89576E+00 -4.17832E+00 -4.99201E+00 -4.86612E+00 -1.53532E+00 -3.85592E+00 -5.97750E+00 -5.79872E+00
  -5.07517E+00 -5.40946E+00 -4.60129E+00 -4.76285E+00 -6.03985E+00 -3.25774E+00 -1.61548E+00 -4.41317E+00 -6.83586E+00 -5.03086E+00
  -6.92586E+00 -3.01886E+00 -1.93385E+00 -1.55279E+00 -6.48464E+00 -3.02966E+00 -1.97785E+00 -3.99609E+00 -3.31665E+00 -5.08335E+00
  -4.44499E+00 -3.08627E+00 -1.34818E+00 -5.27622E+00 -6.47361E+00 -2.94968E+00 -4.89670E+00 -2.90891E+00 -3.02344E+00 -1.97709E+00
  -4.96709E+00 -5.12448E+00 -2.71360E+00 -2.95526E+00 -1.86997E+00 -2.59387E+00 -3.95824E+00 -2.48758E+00 -1.76258E+00 -3.16520E+00
  -4.06742E+00 -3.83367E+00 -4.19782E+00 -3.55560E+00 -4.43398E+00 -4.93157E+00 -2.76703E+00 -3.47164E+00 -1.45724E+00 -5.12111E+00
  -4.06165E+00 -8.22368E+00 -5.03258E+00 -5.02461E+00 -4.01117E+00 -3.07151E+00 -3.73253E+00 -3.54340E+00 -2.58235E+00 -6.85384E+00
   1.66880E-01  2.80163E-01 -4.85314E+00  2.12042E+00 -2.80756E+00 -1.90208E-01 -7.38443E-01 -9.28470E-01
 NY points of the fit to the data follow
  -8.68071E+01 -8.59999E+01 -8.63718E+01 -8.54780E+01 -8.58272E+01 -8.47448E+01 -8.48820E+01 -8.35505E+01 -8.33517E+01 -8.17931E+01
  -8.12506E+01 -7.96680E+01 -7.91180E+01 -7.75686E+01 -7.71231E+01 -7.57700E+01 -7.53056E+01 -7.39313E+01 -7.34478E+01 -7.20839E+01
  -7.16046E+01 -7.03092E+01 -7.00988E+01 -6.88998E+01 -6.88975E+01 -6.77857E+01 -6.78525E+01 -6.66340E+01 -6.64913E+01 -6.52686E+01
  -6.49324E+01 -6.39701E+01 -6.35769E+01 -6.27714E+01 -6.22416E+01 -6.15234E+01 -6.07772E+01 -5.99875E+01 -5.89970E+01 -5.81696E+01
  -5.70955E+01 -5.64046E+01 -5.54484E+01 -5.50801E+01 -5.44133E+01 -5.42291E+01 -5.38106E+01 -5.36553E+01 -5.32925E+01 -5.28642E+01
  -5.25274E+01 -5.19395E+01 -5.16348E+01 -5.10445E+01 -5.09574E+01 -5.04993E+01 -5.05423E+01 -5.01590E+01 -5.02507E+01 -4.98068E+01
  -4.98632E+01 -4.92608E+01 -4.92067E+01 -4.84197E+01 -4.82264E+01 -4.72676E+01 -4.70588E+01 -4.61619E+01 -4.60081E+01 -4.52332E+01
  -4.51005E+01 -4.44437E+01 -4.42578E+01 -4.37068E+01 -4.34894E+01 -4.30232E+01 -4.27628E+01 -4.23313E+01 -4.20349E+01 -4.16746E+01
  -4.13974E+01 -4.11347E+01 -4.08761E+01 -4.07012E+01 -4.04463E+01 -4.02874E+01 -4.00342E+01 -3.98305E+01 -3.94404E+01 -3.88559E+01
  -3.83623E+01 -3.75222E+01 -3.70257E+01 -3.59322E+01 -3.54760E+01 -3.41395E+01 -3.37939E+01 -3.22852E+01 -3.21018E+01 -3.05535E+01
  -3.05677E+01 -2.91888E+01 -2.94318E+01 -2.83854E+01 -2.87967E+01 -2.80598E+01 -2.85943E+01 -2.80616E+01 -2.86290E+01 -2.82791E+01
  -2.88461E+01 -2.87410E+01 -2.92463E+01 -2.92790E+01 -2.93797E+01 -2.95317E+01 -2.92245E+01 -2.93601E+01 -2.86127E+01 -2.86284E+01
  -2.74315E+01 -2.72684E+01 -2.58535E+01 -2.58504E+01 -2.43984E+01 -2.46285E+01 -2.33047E+01 -2.37784E+01 -2.27189E+01 -2.33492E+01
  -2.25319E+01 -2.32185E+01 -2.25869E+01 -2.32803E+01 -2.28417E+01 -2.35257E+01 -2.33340E+01 -2.39649E+01 -2.40046E+01 -2.45147E+01
  -2.47002E+01 -2.50190E+01 -2.52039E+01 -2.53017E+01 -2.53631E+01 -2.52520E+01 -2.50979E+01 -2.49548E+01 -2.47906E+01 -2.46567E+01
  -2.44815E+01 -2.43564E+01 -2.41868E+01 -2.40768E+01 -2.39118E+01 -2.38130E+01 -2.36554E+01 -2.35580E+01 -2.34120E+01 -2.33101E+01
  -2.31831E+01 -2.30772E+01 -2.29888E+01 -2.28745E+01 -2.28108E+01 -2.26937E+01 -2.26488E+01 -2.25406E+01 -2.24920E+01 -2.23779E+01
  -2.23125E+01 -2.21953E+01 -2.21126E+01 -2.20068E+01 -2.18778E+01 -2.17806E+01 -2.15922E+01 -2.15101E+01 -2.12769E+01 -2.12663E+01
  -2.09816E+01 -2.10848E+01 -2.07761E+01 -2.09681E+01 -2.06603E+01 -2.09228E+01 -2.05021E+01 -2.06981E+01 -2.01468E+01 -2.02590E+01
  -1.94786E+01 -1.94846E+01 -1.85181E+01 -1.84700E+01 -1.75946E+01 -1.78206E+01 -1.69868E+01 -1.74086E+01 -1.67140E+01 -1.74378E+01
  -1.68829E+01 -1.77606E+01 -1.70984E+01 -1.77264E+01 -1.71099E+01 -1.73022E+01 -1.66975E+01 -1.63325E+01 -1.59665E+01 -1.53000E+01
  -1.53957E+01 -1.44734E+01 -1.51955E+01 -1.41841E+01 -1.55189E+01 -1.43830E+01 -1.60035E+01 -1.46282E+01 -1.60537E+01 -1.43365E+01
  -1.54286E+01 -1.37398E+01 -1.44545E+01 -1.30241E+01 -1.36159E+01 -1.27575E+01 -1.32204E+01 -1.31476E+01 -1.32730E+01 -1.34679E+01
  -1.30562E+01 -1.32256E+01 -1.22231E+01 -1.22377E+01 -1.10251E+01 -1.09282E+01 -1.02096E+01 -1.03757E+01 -1.03519E+01 -1.07146E+01
  -1.11696E+01 -1.14614E+01 -1.18744E+01 -1.16340E+01 -1.18726E+01 -1.11293E+01 -1.07483E+01 -9.72010E+00 -9.05829E+00 -8.00140E+00
  -7.03160E+00 -6.00094E+00 -4.63716E+00 -3.75329E+00 -1.94345E+00 -1.18617E+00  7.74109E-01  1.17423E+00  2.78608E+00  2.59353E+00
   3.37033E+00  2.73093E+00  2.83034E+00  1.98501E+00  1.71184E+00  7.91939E-01  2.60836E-01 -6.66364E-01 -1.47862E+00 -2.40428E+00
  -3.48290E+00 -4.28826E+00 -5.46390E+00 -6.08262E+00 -7.12516E+00 -7.50024E+00 -8.19999E+00 -8.31215E+00 -8.40573E+00 -8.40188E+00
  -8.37391E+00 -8.35408E+00 -8.26654E+00 -8.23645E+00 -8.16758E+00 -8.13923E+00 -8.07957E+00 -8.06273E+00 -8.01206E+00 -7.98895E+00
  -7.93137E+00 -7.88141E+00 -7.78782E+00 -7.69744E+00 -7.58020E+00 -7.46743E+00 -7.33786E+00 -7.21465E+00 -7.07970E+00 -6.95643E+00
  -6.81771E+00 -6.68935E+00 -6.54617E+00 -6.41217E+00 -6.26266E+00 -6.12030E+00 -5.95926E+00 -5.80042E+00 -5.61449E+00 -5.41902E+00
  -5.17875E+00 -4.89705E+00 -4.50153E+00 -3.96794E+00 -3.63978E+00 -3.10959E+00 -2.89956E+00 -2.43008E+00 -2.40569E+00 -2.10617E+00
  -2.40087E+00 -2.14393E+00 -2.49352E+00 -2.41042E+00 -2.77946E+00 -2.93458E+00 -3.17187E+00 -3.48782E+00 -3.34407E+00 -3.67111E+00
  -3.05033E+00 -3.33299E+00 -2.25569E+00 -2.51169E+00 -1.29608E+00 -1.84340E+00 -6.87496E-01 -1.45888E+00 -4.22244E-01 -1.29001E+00
  -3.78659E-01 -1.05843E+00 -2.75403E-01 -8.73159E-01 -4.15075E-01 -1.02123E+00 -1.11088E+00 -1.86896E+00 -2.29024E+00 -2.88394E+00
  -3.42535E+00 -3.70126E+00 -4.20591E+00 -4.13563E+00 -4.41159E+00 -4.34494E+00 -4.53938E+00 -4.50511E+00 -4.60948E+00 -4.52459E+00
  -4.50996E+00 -4.33116E+00 -4.23491E+00 -4.04733E+00 -3.95827E+00 -3.86315E+00 -3.93423E+00 -4.11795E+00 -4.29171E+00 -4.60125E+00
  -4.80738E+00 -5.10593E+00 -5.27445E+00 -5.39051E+00 -5.46442E+00 -5.52722E+00 -5.56390E+00 -5.59716E+00 -5.60832E+00 -5.61812E+00
  -5.60674E+00 -5.59417E+00 -5.56009E+00 -5.52415E+00 -5.46572E+00 -5.40425E+00 -5.31899E+00 -5.22937E+00 -5.11475E+00 -4.99478E+00
  -4.84918E+00 -4.69816E+00 -4.52217E+00 -4.34235E+00 -4.14026E+00 -3.93827E+00 -3.71924E+00 -3.50685E+00 -3.28523E+00 -3.07913E+00
  -2.87350E+00 -2.69353E+00 -2.52416E+00 -2.39012E+00 -2.27536E+00 -2.20316E+00 -2.15558E+00 -2.15368E+00 -2.17710E+00 -2.24444E+00
  -2.33296E+00 -2.45910E+00 -2.59834E+00 -2.76573E+00 -2.93591E+00 -3.12363E+00 -3.30372E+00 -3.49156E+00 -3.66300E+00 -3.83470E+00
  -3.98396E+00 -4.12895E+00 -4.24846E+00 -4.36201E+00 -4.44962E+00 -4.53181E+00 -4.58939E+00 -4.64347E+00 -4.67524E+00 -4.70603E+00
  -4.71709E+00 -4.72968E+00 -4.72493E+00 -4.72394E+00 -4.70760E+00 -4.69678E+00 -4.67214E+00 -4.65434E+00 -4.62385E+00 -4.60117E+00
  -4.56659E+00 -4.54048E+00 -4.50302E+00 -4.47451E+00 -4.43503E+00 -4.40483E+00 -4.36395E+00 -4.33257E+00 -4.29070E+00 -4.25851E+00
  -4.21598E+00 -4.18325E+00 -4.14029E+00 -4.10724E+00 -4.06400E+00 -4.03072E+00 -3.98729E+00 -3.95384E+00 -3.91026E+00 -3.87666E+00
  -3.83295E+00 -3.79922E+00 -3.75538E+00 -3.72153E+00 -3.67757E+00 -3.64358E+00 -3.59948E+00 -3.56535E+00 -3.52109E+00 -3.48679E+00
  -3.44234E+00 -3.40784E+00 -3.36319E+00 -3.32846E+00 -3.28355E+00 -3.24856E+00 -3.20336E+00 -3.16806E+00 -3.12253E+00 -3.08688E+00
  -3.04096E+00 -3.00489E+00 -2.95853E+00 -2.92198E+00 -2.87511E+00 -2.83802E+00 -2.79055E+00 -2.75283E+00 -2.70469E+00 -2.66624E+00
  -2.61731E+00 -2.57800E+00 -2.52814E+00 -2.48783E+00 -2.43686E+00 -2.39533E+00 -2.34300E+00 -2.29996E+00
 NY background values follow
    -8.930E+01   -8.867E+01   -8.805E+01   -8.742E+01   -8.679E+01   -8.617E+01   -8.554E+01   -8.492E+01   -8.429E+01   -8.367E+01
    -8.304E+01   -8.242E+01   -8.179E+01   -8.117E+01   -8.055E+01   -7.993E+01   -7.931E+01   -7.869E+01   -7.807E+01   -7.745E+01
    -7.684E+01   -7.622E+01   -7.561E+01   -7.500E+01   -7.439E+01   -7.378E+01   -7.317E+01   -7.256E+01   -7.196E+01   -7.136E+01
    -7.076E+01   -7.016E+01   -6.957E+01   -6.897E+01   -6.838E+01   -6.779E+01   -6.721E+01   -6.663E+01   -6.604E+01   -6.547E+01
    -6.489E+01   -6.432E+01   -6.375E+01   -6.318E+01   -6.262E+01   -6.206E+01   -6.150E+01   -6.095E+01   -6.040E+01   -5.985E+01
    -5.930E+01   -5.876E+01   -5.823E+01   -5.769E+01   -5.716E+01   -5.664E+01   -5.611E+01   -5.559E+01   -5.508E+01   -5.456E+01
    -5.405E+01   -5.355E+01   -5.305E+01   -5.255E+01   -5.205E+01   -5.156E+01   -5.108E+01   -5.059E+01   -5.011E+01   -4.964E+01
    -4.917E+01   -4.870E+01   -4.823E+01   -4.777E+01   -4.732E+01   -4.686E+01   -4.642E+01   -4.597E+01   -4.553E+01   -4.509E+01
    -4.466E+01   -4.423E+01   -4.381E+01   -4.339E+01   -4.297E+01   -4.256E+01   -4.216E+01   -4.175E+01   -4.135E+01   -4.096E+01
    -4.057E+01   -4.018E+01   -3.980E+01   -3.942E+01   -3.905E+01   -3.868E+01   -3.832E+01   -3.796E+01   -3.760E+01   -3.725E+01
    -3.690E+01   -3.656E+01   -3.622E+01   -3.588E+01   -3.555E+01   -3.522E+01   -3.489E+01   -3.457E+01   -3.426E+01   -3.394E+01
    -3.363E+01   -3.333E+01   -3.303E+01   -3.273E+01   -3.243E+01   -3.214E+01   -3.185E+01   -3.157E+01   -3.129E+01   -3.101E+01
    -3.074E+01   -3.046E+01   -3.020E+01   -2.993E+01   -2.967E+01   -2.941E+01   -2.916E+01   -2.891E+01   -2.866E+01   -2.841E+01
    -2.817E+01   -2.793E+01   -2.770E+01   -2.746E+01   -2.723E+01   -2.701E+01   -2.678E+01   -2.656E+01   -2.634E+01   -2.612E+01
    -2.591E+01   -2.570E+01   -2.549E+01   -2.529E+01   -2.508E+01   -2.488E+01   -2.468E+01   -2.449E+01   -2.430E+01   -2.410E+01
    -2.392E+01   -2.373E+01   -2.355E+01   -2.337E+01   -2.319E+01   -2.301E+01   -2.284E+01   -2.266E+01   -2.249E+01   -2.233E+01
    -2.216E+01   -2.200E+01   -2.183E+01   -2.167E+01   -2.152E+01   -2.136E+01   -2.121E+01   -2.105E+01   -2.090E+01   -2.076E+01
    -2.061E+01   -2.046E+01   -2.032E+01   -2.018E+01   -2.004E+01   -1.990E+01   -1.976E+01   -1.963E+01   -1.949E+01   -1.936E+01
    -1.923E+01   -1.910E+01   -1.897E+01   -1.885E+01   -1.872E+01   -1.860E+01   -1.848E+01   -1.836E+01   -1.824E+01   -1.812E+01
    -1.800E+01   -1.788E+01   -1.777E+01   -1.766E+01   -1.754E+01   -1.743E+01   -1.732E+01   -1.721E+01   -1.711E+01   -1.700E+01
    -1.689E+01   -1.679E+01   -1.669E+01   -1.658E+01   -1.648E+01   -1.638E+01   -1.628E+01   -1.619E+01   -1.609E+01   -1.599E+01
    -1.590E+01   -1.581E+01   -1.571E+01   -1.562E+01   -1.553E+01   -1.544E+01   -1.535E+01   -1.526E+01   -1.517E+01   -1.509E+01
    -1.500E+01   -1.491E+01   -1.483E+01   -1.475E+01   -1.466E+01   -1.458E+01   -1.450E+01   -1.442E+01   -1.434E+01   -1.426E+01
    -1.418E+01   -1.410E+01   -1.402E+01   -1.395E+01   -1.387E+01   -1.380E+01   -1.372E+01   -1.365E+01   -1.357E+01   -1.350E+01
    -1.343E+01   -1.335E+01   -1.328E+01   -1.321E+01   -1.314E+01   -1.307E+01   -1.300E+01   -1.293E+01   -1.286E+01   -1.280E+01
    -1.273E+01   -1.266E+01   -1.259E+01   -1.253E+01   -1.246E+01   -1.240E+01   -1.233E+01   -1.227E+01   -1.220E+01   -1.214E+01
    -1.207E+01   -1.201E+01   -1.195E+01   -1.188E+01   -1.182E+01   -1.176E+01   -1.170E+01   -1.163E+01   -1.157E+01   -1.151E+01
    -1.145E+01   -1.139E+01   -1.133E+01   -1.127E+01   -1.121E+01   -1.115E+01   -1.109E+01   -1.103E+01   -1.097E+01   -1.091E+01
    -1.085E+01   -1.079E+01   -1.073E+01   -1.067E+01   -1.061E+01   -1.056E+01   -1.050E+01   -1.044E+01   -1.039E+01   -1.033E+01
    -1.027E+01   -1.022E+01   -1.016E+01   -1.011E+01   -1.005E+01   -9.997E+00   -9.944E+00   -9.890E+00   -9.837E+00   -9.784E+00
    -9.732E+00   -9.680E+00   -9.628E+00   -9.577E+00   -9.527E+00   -9.477E+00   -9.427E+00   -9.378E+00   -9.329E+00   -9.281E+00
    -9.233E+00   -9.186E+00   -9.139E+00   -9.093E+00   -9.047E+00   -9.002E+00   -8.958E+00   -8.914E+00   -8.870E+00   -8.827E+00
    -8.785E+00   -8.743E+00   -8.701E+00   -8.660E+00   -8.620E+00   -8.580E+00   -8.540E+00   -8.501E+00   -8.462E+00   -8.424E+00
    -8.386E+00   -8.349E+00   -8.312E+00   -8.275E+00   -8.239E+00   -8.203E+00   -8.167E+00   -8.132E+00   -8.097E+00   -8.063E+00
    -8.028E+00   -7.994E+00   -7.961E+00   -7.927E+00   -7.894E+00   -7.861E+00   -7.828E+00   -7.796E+00   -7.764E+00   -7.732E+00
    -7.700E+00   -7.668E+00   -7.637E+00   -7.605E+00   -7.574E+00   -7.543E+00   -7.512E+00   -7.482E+00   -7.451E+00   -7.420E+00
    -7.390E+00   -7.359E+00   -7.329E+00   -7.299E+00   -7.269E+00   -7.239E+00   -7.208E+00   -7.178E+00   -7.148E+00   -7.118E+00
    -7.088E+00   -7.058E+00   -7.028E+00   -6.997E+00   -6.967E+00   -6.937E+00   -6.907E+00   -6.876E+00   -6.846E+00   -6.815E+00
    -6.784E+00   -6.754E+00   -6.723E+00   -6.692E+00   -6.660E+00   -6.629E+00   -6.598E+00   -6.566E+00   -6.534E+00   -6.502E+00
    -6.470E+00   -6.437E+00   -6.405E+00   -6.372E+00   -6.339E+00   -6.306E+00   -6.272E+00   -6.238E+00   -6.204E+00   -6.170E+00
    -6.135E+00   -6.100E+00   -6.065E+00   -6.029E+00   -5.994E+00   -5.957E+00   -5.921E+00   -5.884E+00   -5.847E+00   -5.809E+00
    -5.771E+00   -5.733E+00   -5.695E+00   -5.656E+00   -5.617E+00   -5.577E+00   -5.538E+00   -5.498E+00   -5.458E+00   -5.417E+00
    -5.377E+00   -5.336E+00   -5.295E+00   -5.254E+00   -5.213E+00   -5.171E+00   -5.130E+00   -5.088E+00   -5.046E+00   -5.005E+00
    -4.963E+00   -4.920E+00   -4.878E+00   -4.836E+00   -4.794E+00   -4.752E+00   -4.709E+00   -4.667E+00   -4.625E+00   -4.582E+00
    -4.540E+00   -4.498E+00   -4.455E+00   -4.413E+00   -4.371E+00   -4.329E+00   -4.287E+00   -4.245E+00   -4.204E+00   -4.162E+00
    -4.121E+00   -4.079E+00   -4.038E+00   -3.997E+00   -3.957E+00   -3.916E+00   -3.875E+00   -3.835E+00   -3.795E+00   -3.755E+00
    -3.714E+00   -3.675E+00   -3.635E+00   -3.595E+00   -3.555E+00   -3.516E+00   -3.476E+00   -3.436E+00   -3.397E+00   -3.357E+00
    -3.318E+00   -3.278E+00   -3.239E+00   -3.199E+00   -3.160E+00   -3.120E+00   -3.081E+00   -3.041E+00   -3.001E+00   -2.961E+00
    -2.921E+00   -2.881E+00   -2.841E+00   -2.801E+00   -2.761E+00   -2.721E+00   -2.680E+00   -2.639E+00   -2.599E+00   -2.558E+00
    -2.516E+00   -2.475E+00   -2.434E+00   -2.392E+00   -2.350E+00   -2.308E+00   -2.265E+00   -2.223E+00
 Ala      Conc. = 1.02E+03
