 LCModel (Version 6.3-1L) Copyright: S.W. Provencher.          Ref.: Magn. Reson. Med. 30:672-679 (1993).                
 Slice#1 Row#12 Col#4  PD_24_press_1_raw_act
 36 lines in following concentration table = NCONC+1
    Conc.  %SD /Cr+PCr  Metabolite                                         
   28.965 348%   0.136 Ala                                                 
  112.738  79%   0.528 Asp                                                 
  213.334  19%   1.000 Cr                                                  
    0.000 999%   0.000 PCr                                                 
   25.792 214%   0.121 GABA                                                
   19.588 279% 9.2E-02 Glc                                                 
  523.052  45%   2.452 Gln                                                 
 1.02E+03  27%   4.767 Glu                                                 
  134.652  12%   0.631 GPC                                                 
    0.000 999%   0.000 PCh                                                 
   92.391  65%   0.433 GSH                                                 
  726.236  31%   3.404 Ins                                                 
   85.820 132%   0.402 Lac                                                 
  726.254  11%   3.404 NAA                                                 
   34.312 247%   0.161 NAAG                                                
   36.450  42%   0.171 Scyllo                                              
  110.231  80%   0.517 Tau                                                 
  263.420  25%   1.235 -CrCH2                                              
  134.652  12%   0.631 GPC+PCh                                             
  760.566   9%   3.565 NAA+NAAG                                            
  213.334  19%   1.000 Cr+PCr                                              
 1.54E+03  28%   7.219 Glu+Gln                                             
 1.80E+03  15%   8.447 Lip13a                                              
    0.000 999%   0.000 Lip13b                                              
    0.000 999%   0.000 Lip09                                               
  927.218  16%   4.346 MM09                                                
  210.159  84%   0.985 Lip20                                               
 1.66E+03  16%   7.804 MM20                                                
  295.851  32%   1.387 MM12                                                
  968.971  22%   4.542 MM14                                                
  597.154  25%   2.799 MM17                                                
 1.80E+03  15%   8.447 Lip13a+Lip13b                                       
 3.07E+03  12%  14.376 MM14+Lip13a+Lip13b+MM12                             
  927.218  16%   4.346 MM09+Lip09                                          
 1.88E+03  15%   8.789 MM20+Lip20                                          
   6 lines in following misc. output table
  FWHM = 0.069 ppm    S/N =   5                                            
  Data shift =-0.038 ppm                                                   
  Ph: -86 deg     -14.5 deg/ppm                                            
  alphaB,S = 4.5E-01,   8.0E+01                                            
   14 spline knots.   Ns = 9(1)                                            
   2 inflections.     1 extrema                                            
  498 points on ppm-axis = NY
      4.000000     3.992357     3.984714     3.977070     3.969427     3.961784     3.954141     3.946497     3.938854     3.931211
      3.923568     3.915925     3.908281     3.900638     3.892995     3.885352     3.877708     3.870065     3.862422     3.854779
      3.847136     3.839492     3.831849     3.824206     3.816563     3.808919     3.801276     3.793633     3.785990     3.778347
      3.770703     3.763060     3.755417     3.747774     3.740130     3.732487     3.724844     3.717201     3.709558     3.701914
      3.694271     3.686628     3.678985     3.671341     3.663698     3.656055     3.648412     3.640769     3.633125     3.625482
      3.617839     3.610196     3.602552     3.594909     3.587266     3.579623     3.571980     3.564336     3.556693     3.549050
      3.541407     3.533763     3.526120     3.518477     3.510834     3.503191     3.495547     3.487904     3.480261     3.472618
      3.464974     3.457331     3.449688     3.442045     3.434402     3.426758     3.419115     3.411472     3.403829     3.396185
      3.388542     3.380899     3.373256     3.365613     3.357969     3.350326     3.342683     3.335040     3.327396     3.319753
      3.312110     3.304467     3.296824     3.289180     3.281537     3.273894     3.266251     3.258607     3.250964     3.243321
      3.235678     3.228034     3.220391     3.212748     3.205105     3.197462     3.189818     3.182175     3.174532     3.166889
      3.159245     3.151602     3.143959     3.136316     3.128673     3.121029     3.113386     3.105743     3.098100     3.090456
      3.082813     3.075170     3.067527     3.059884     3.052240     3.044597     3.036954     3.029311     3.021667     3.014024
      3.006381     2.998738     2.991095     2.983451     2.975808     2.968165     2.960522     2.952878     2.945235     2.937592
      2.929949     2.922306     2.914662     2.907019     2.899376     2.891733     2.884089     2.876446     2.868803     2.861160
      2.853517     2.845873     2.838230     2.830587     2.822944     2.815300     2.807657     2.800014     2.792371     2.784728
      2.777084     2.769441     2.761798     2.754155     2.746511     2.738868     2.731225     2.723582     2.715939     2.708295
      2.700652     2.693009     2.685366     2.677722     2.670079     2.662436     2.654793     2.647150     2.639506     2.631863
      2.624220     2.616577     2.608933     2.601290     2.593647     2.586004     2.578361     2.570717     2.563074     2.555431
      2.547788     2.540144     2.532501     2.524858     2.517215     2.509572     2.501928     2.494285     2.486642     2.478999
      2.471355     2.463712     2.456069     2.448426     2.440783     2.433139     2.425496     2.417853     2.410210     2.402566
      2.394923     2.387280     2.379637     2.371994     2.364350     2.356707     2.349064     2.341421     2.333777     2.326134
      2.318491     2.310848     2.303205     2.295561     2.287918     2.280275     2.272632     2.264988     2.257345     2.249702
      2.242059     2.234416     2.226772     2.219129     2.211486     2.203843     2.196199     2.188556     2.180913     2.173270
      2.165627     2.157983     2.150340     2.142697     2.135054     2.127410     2.119767     2.112124     2.104481     2.096838
      2.089194     2.081551     2.073908     2.066265     2.058621     2.050978     2.043335     2.035692     2.028049     2.020405
      2.012762     2.005119     1.997476     1.989833     1.982190     1.974546     1.966903     1.959260     1.951617     1.943974
      1.936331     1.928688     1.921045     1.913402     1.905759     1.898115     1.890472     1.882829     1.875186     1.867543
      1.859900     1.852257     1.844614     1.836971     1.829327     1.821684     1.814041     1.806398     1.798755     1.791112
      1.783469     1.775826     1.768183     1.760540     1.752896     1.745253     1.737610     1.729967     1.722324     1.714681
      1.707038     1.699395     1.691752     1.684108     1.676465     1.668822     1.661179     1.653536     1.645893     1.638250
      1.630607     1.622964     1.615321     1.607677     1.600034     1.592391     1.584748     1.577105     1.569462     1.561819
      1.554176     1.546533     1.538890     1.531246     1.523603     1.515960     1.508317     1.500674     1.493031     1.485388
      1.477745     1.470102     1.462458     1.454815     1.447172     1.439529     1.431886     1.424243     1.416600     1.408957
      1.401314     1.393671     1.386027     1.378384     1.370741     1.363098     1.355455     1.347812     1.340169     1.332526
      1.324883     1.317240     1.309596     1.301953     1.294310     1.286667     1.279024     1.271381     1.263738     1.256095
      1.248452     1.240808     1.233165     1.225522     1.217879     1.210236     1.202593     1.194950     1.187307     1.179664
      1.172021     1.164377     1.156734     1.149091     1.141448     1.133805     1.126162     1.118519     1.110876     1.103233
      1.095590     1.087946     1.080303     1.072660     1.065017     1.057374     1.049731     1.042088     1.034445     1.026802
      1.019158     1.011515     1.003872     0.996229     0.988586     0.980943     0.973300     0.965657     0.958014     0.950371
      0.942727     0.935084     0.927441     0.919798     0.912155     0.904512     0.896869     0.889226     0.881583     0.873940
      0.866296     0.858653     0.851010     0.843367     0.835724     0.828081     0.820438     0.812795     0.805152     0.797508
      0.789865     0.782222     0.774579     0.766936     0.759293     0.751650     0.744007     0.736364     0.728721     0.721077
      0.713434     0.705791     0.698148     0.690505     0.682862     0.675219     0.667576     0.659933     0.652290     0.644646
      0.637003     0.629360     0.621717     0.614074     0.606431     0.598788     0.591145     0.583502     0.575858     0.568215
      0.560572     0.552929     0.545286     0.537643     0.530000     0.522357     0.514714     0.507071     0.499427     0.491784
      0.484141     0.476498     0.468855     0.461212     0.453569     0.445925     0.438282     0.430639     0.422996     0.415353
      0.407710     0.400067     0.392424     0.384780     0.377137     0.369494     0.361851     0.354208     0.346565     0.338922
      0.331278     0.323635     0.315992     0.308349     0.300706     0.293063     0.285420     0.277777     0.270133     0.262490
      0.254847     0.247204     0.239561     0.231918     0.224275     0.216631     0.208988     0.201345
 NY phased data points follow
  -1.15711E+02 -1.12794E+02 -1.11484E+02 -1.09988E+02 -1.09840E+02 -1.04017E+02 -1.04393E+02 -1.04573E+02 -1.03373E+02 -1.00963E+02
  -9.66843E+01 -9.73688E+01 -9.62077E+01 -9.24847E+01 -9.11804E+01 -9.57601E+01 -9.61239E+01 -9.45587E+01 -9.23940E+01 -8.90416E+01
  -9.30877E+01 -8.43477E+01 -8.95995E+01 -8.60695E+01 -8.85762E+01 -8.73221E+01 -8.94112E+01 -8.29101E+01 -8.65741E+01 -7.85865E+01
  -8.31351E+01 -8.01952E+01 -7.92271E+01 -7.90105E+01 -7.31851E+01 -7.52564E+01 -7.47798E+01 -7.61766E+01 -7.72151E+01 -7.40966E+01
  -7.80141E+01 -7.04176E+01 -6.90209E+01 -6.89275E+01 -7.16926E+01 -6.83951E+01 -7.09648E+01 -6.79281E+01 -6.77064E+01 -6.98763E+01
  -6.99068E+01 -6.66732E+01 -6.55402E+01 -6.67899E+01 -6.63226E+01 -6.72589E+01 -6.43450E+01 -6.34450E+01 -6.45918E+01 -6.23209E+01
  -6.60744E+01 -6.33557E+01 -6.39500E+01 -6.11269E+01 -6.09358E+01 -6.14621E+01 -6.06277E+01 -5.75631E+01 -6.07348E+01 -5.52447E+01
  -5.63733E+01 -5.75470E+01 -5.79527E+01 -6.08106E+01 -5.68622E+01 -5.56293E+01 -5.47008E+01 -5.62986E+01 -5.70628E+01 -5.42369E+01
  -5.56665E+01 -5.23631E+01 -5.31752E+01 -5.39391E+01 -5.16362E+01 -4.74063E+01 -4.86160E+01 -5.04816E+01 -5.02406E+01 -5.04578E+01
  -5.04616E+01 -4.95666E+01 -4.79526E+01 -4.55059E+01 -4.50691E+01 -4.04645E+01 -4.59183E+01 -4.37855E+01 -4.29450E+01 -4.20445E+01
  -4.16097E+01 -3.90859E+01 -3.71216E+01 -3.31170E+01 -3.68917E+01 -3.54064E+01 -3.97649E+01 -3.66629E+01 -4.07455E+01 -4.43532E+01
  -4.64840E+01 -4.54793E+01 -3.87387E+01 -3.87780E+01 -3.71138E+01 -4.30085E+01 -3.73720E+01 -4.03429E+01 -4.31853E+01 -3.97075E+01
  -3.81389E+01 -3.82456E+01 -3.85975E+01 -3.98871E+01 -3.82015E+01 -3.49413E+01 -3.44525E+01 -3.04749E+01 -3.17925E+01 -2.92485E+01
  -3.38881E+01 -3.16671E+01 -3.32806E+01 -3.53820E+01 -3.67506E+01 -3.53131E+01 -3.19687E+01 -3.29799E+01 -3.65679E+01 -3.30583E+01
  -3.08821E+01 -3.38685E+01 -3.76463E+01 -3.64489E+01 -3.88096E+01 -3.67284E+01 -3.87151E+01 -3.55008E+01 -3.70460E+01 -3.51381E+01
  -4.20967E+01 -3.93975E+01 -3.39425E+01 -3.12007E+01 -3.48220E+01 -3.57116E+01 -3.51340E+01 -3.54929E+01 -3.36892E+01 -3.25868E+01
  -3.17899E+01 -3.28672E+01 -2.83536E+01 -3.32057E+01 -3.41673E+01 -3.16548E+01 -3.77949E+01 -3.44870E+01 -3.43077E+01 -3.25084E+01
  -3.20708E+01 -3.19295E+01 -3.34180E+01 -3.27493E+01 -2.86580E+01 -3.50959E+01 -3.13668E+01 -3.14385E+01 -3.21182E+01 -3.03556E+01
  -3.05299E+01 -2.86870E+01 -3.01338E+01 -2.75407E+01 -2.95941E+01 -2.95020E+01 -2.89368E+01 -2.82524E+01 -2.95603E+01 -2.90781E+01
  -3.29525E+01 -3.27147E+01 -3.01739E+01 -2.73200E+01 -3.16342E+01 -2.82844E+01 -2.74826E+01 -2.63069E+01 -2.78826E+01 -2.43517E+01
  -2.41935E+01 -2.82883E+01 -2.34917E+01 -2.35165E+01 -2.28279E+01 -2.21673E+01 -1.92733E+01 -2.26484E+01 -2.46607E+01 -2.43926E+01
  -2.45860E+01 -2.19548E+01 -2.08280E+01 -2.13446E+01 -2.11925E+01 -1.83734E+01 -2.22939E+01 -2.11809E+01 -1.80351E+01 -2.31616E+01
  -2.38424E+01 -2.30819E+01 -2.52838E+01 -2.23324E+01 -2.19509E+01 -1.58676E+01 -2.01700E+01 -1.61528E+01 -1.29475E+01 -1.95353E+01
  -1.90685E+01 -1.76281E+01 -1.81876E+01 -1.64053E+01 -1.69323E+01 -1.85650E+01 -1.42191E+01 -1.85354E+01 -1.63415E+01 -1.54380E+01
  -1.36361E+01 -1.55192E+01 -1.58268E+01 -1.51589E+01 -1.44861E+01 -1.70327E+01 -1.67146E+01 -1.08587E+01 -1.00114E+01 -8.87598E+00
  -1.03972E+01 -6.58895E+00 -1.08048E+01 -9.32978E+00 -5.86126E+00 -1.50468E+00  3.47608E+00  5.63559E+00  6.97609E+00  1.02325E+01
   8.26428E+00  8.09744E+00 -2.61181E-02 -1.19858E+00 -2.06228E+00 -4.91106E+00 -1.00116E+01 -1.39067E+01 -1.41476E+01 -1.41395E+01
  -1.16951E+01 -9.31304E+00 -9.31857E+00 -9.72551E+00 -1.34363E+01 -1.55605E+01 -1.70515E+01 -1.44178E+01 -1.51810E+01 -1.51958E+01
  -1.82405E+01 -1.35666E+01 -1.30778E+01 -1.43550E+01 -1.69383E+01 -1.75184E+01 -1.80103E+01 -1.52752E+01 -1.68572E+01 -1.74791E+01
  -1.69591E+01 -1.63950E+01 -1.62775E+01 -1.48578E+01 -1.40557E+01 -1.60098E+01 -1.52064E+01 -1.14022E+01 -1.45793E+01 -1.40865E+01
  -1.41537E+01 -1.62778E+01 -1.27891E+01 -1.04576E+01 -1.09416E+01 -1.27108E+01 -1.13734E+01 -1.08484E+01 -9.65840E+00 -1.29571E+01
  -8.15760E+00 -1.11522E+01 -9.00451E+00 -9.44666E+00 -6.33336E+00 -8.29940E+00 -1.15194E+01 -1.13995E+01 -7.67452E+00 -1.01284E+01
  -3.91099E+00 -5.44218E+00 -8.94433E+00 -1.10773E+01 -1.05084E+01 -1.08457E+01 -7.90714E+00 -4.16554E+00 -7.39979E+00 -9.23731E+00
  -6.02778E+00 -1.07290E+01 -8.23552E+00 -6.76921E+00 -9.25528E+00 -6.44073E+00 -9.81342E+00 -6.50735E+00 -6.51353E+00 -9.64777E+00
  -4.35436E+00 -8.15931E+00 -3.55642E+00 -5.11969E+00 -4.43320E-01 -3.27548E+00 -5.99641E+00 -1.82886E+00 -6.82865E+00 -6.02142E+00
  -1.73068E+00 -6.57728E+00 -4.73422E+00 -3.79594E+00 -1.75944E+00 -4.74887E-01 -5.64668E+00 -4.03024E+00 -3.81368E+00 -4.54894E+00
  -7.76586E+00 -1.59426E+00 -7.16975E+00 -7.87666E+00 -5.13192E+00 -4.76707E+00 -5.57975E+00 -4.66172E+00 -8.89576E+00 -1.04430E+01
  -7.47743E+00 -9.06390E+00 -7.89988E+00 -9.21816E+00 -1.21210E+01 -8.58308E+00 -6.29154E+00 -1.22701E+01 -9.77383E+00 -8.28724E+00
  -1.04304E+01 -1.06870E+01 -1.17230E+01 -1.11619E+01 -1.07070E+01 -1.42284E+01 -1.13175E+01 -1.02303E+01 -9.38294E+00 -8.42820E+00
  -1.32446E+01 -9.43710E+00 -1.11453E+01 -6.87138E+00 -8.69849E+00 -7.80548E+00 -1.04089E+01 -9.78364E+00 -1.08638E+01 -8.64721E+00
  -5.95349E+00 -7.31184E+00 -9.46128E+00 -9.53117E+00 -6.43407E+00 -5.56464E+00 -7.63654E+00 -1.14066E+01 -8.50741E+00 -5.73570E+00
  -9.02785E+00 -8.02468E+00 -7.89162E+00 -1.02126E+01 -9.65502E+00 -1.01521E+01 -8.67189E+00 -1.25294E+01 -9.67097E+00 -1.17449E+01
  -8.61054E+00 -1.25458E+01 -1.06426E+01 -1.47182E+01 -1.06498E+01 -1.07959E+01 -1.19756E+01 -1.39665E+01 -8.54041E+00 -1.39122E+01
  -1.24226E+01 -1.34982E+01 -1.15445E+01 -9.91066E+00 -1.53555E+01 -1.67087E+01 -1.19993E+01 -1.48252E+01 -1.41507E+01 -1.43174E+01
  -1.20909E+01 -1.03186E+01 -1.02357E+01 -1.09940E+01 -1.24059E+01 -1.43738E+01 -1.29903E+01 -1.63603E+01 -1.04270E+01 -1.07532E+01
  -1.21683E+01 -1.08778E+01 -1.07908E+01 -1.16481E+01 -1.11872E+01 -8.68427E+00 -9.07381E+00 -1.38275E+01 -1.06044E+01 -4.41821E+00
  -1.28147E+01 -1.20656E+01 -1.00984E+01 -1.54043E+01 -1.22871E+01 -9.56789E+00 -1.10737E+01 -1.12540E+01 -9.64215E+00 -1.35932E+01
  -6.88701E+00 -8.70834E+00 -1.17448E+01 -1.01493E+01 -1.16364E+01 -1.02100E+01 -1.12957E+01 -1.13472E+01 -1.13957E+01 -8.76698E+00
  -8.93247E+00 -6.66821E+00 -9.64047E+00 -9.87517E+00 -8.61258E+00 -8.78335E+00 -1.08259E+01 -7.33748E+00 -9.37380E+00 -7.68636E+00
  -5.09678E+00 -9.25965E+00 -4.34170E+00 -9.69781E+00 -7.50826E+00 -1.14075E+01 -1.01697E+01 -6.32433E+00
 NY points of the fit to the data follow
  -1.07382E+02 -1.07215E+02 -1.07030E+02 -1.06618E+02 -1.06019E+02 -1.05411E+02 -1.04723E+02 -1.03771E+02 -1.02438E+02 -1.00742E+02
  -9.88718E+01 -9.70803E+01 -9.55015E+01 -9.41857E+01 -9.32170E+01 -9.26993E+01 -9.25451E+01 -9.23833E+01 -9.18664E+01 -9.11462E+01
  -9.03630E+01 -8.96454E+01 -8.90862E+01 -8.83962E+01 -8.75026E+01 -8.65592E+01 -8.56222E+01 -8.46244E+01 -8.34721E+01 -8.22135E+01
  -8.09813E+01 -7.98333E+01 -7.88826E+01 -7.82530E+01 -7.80295E+01 -7.81916E+01 -7.85093E+01 -7.85725E+01 -7.80878E+01 -7.71100E+01
  -7.58001E+01 -7.42833E+01 -7.27934E+01 -7.14756E+01 -7.03087E+01 -6.93422E+01 -6.86493E+01 -6.82830E+01 -6.81793E+01 -6.82633E+01
  -6.84501E+01 -6.85954E+01 -6.86259E+01 -6.83939E+01 -6.77533E+01 -6.67974E+01 -6.58611E+01 -6.51269E+01 -6.44714E+01 -6.38333E+01
  -6.32858E+01 -6.28709E+01 -6.25176E+01 -6.21552E+01 -6.17641E+01 -6.13155E+01 -6.07442E+01 -6.00221E+01 -5.92463E+01 -5.85154E+01
  -5.78584E+01 -5.73075E+01 -5.68460E+01 -5.64301E+01 -5.60376E+01 -5.56682E+01 -5.53322E+01 -5.49828E+01 -5.45855E+01 -5.41732E+01
  -5.37330E+01 -5.33024E+01 -5.28748E+01 -5.24119E+01 -5.19538E+01 -5.15884E+01 -5.13436E+01 -5.11499E+01 -5.09514E+01 -5.06919E+01
  -5.03628E+01 -4.99992E+01 -4.95700E+01 -4.89611E+01 -4.79408E+01 -4.66328E+01 -4.53364E+01 -4.39310E+01 -4.23506E+01 -4.07009E+01
  -3.90281E+01 -3.74315E+01 -3.62110E+01 -3.57192E+01 -3.60516E+01 -3.69761E+01 -3.82105E+01 -3.96377E+01 -4.11594E+01 -4.23658E+01
  -4.27944E+01 -4.25000E+01 -4.21023E+01 -4.21233E+01 -4.21945E+01 -4.19805E+01 -4.16753E+01 -4.13251E+01 -4.08581E+01 -4.01147E+01
  -3.92298E+01 -3.82770E+01 -3.72432E+01 -3.61635E+01 -3.50652E+01 -3.39716E+01 -3.30110E+01 -3.23983E+01 -3.22794E+01 -3.26088E+01
  -3.32072E+01 -3.39536E+01 -3.48158E+01 -3.56556E+01 -3.62091E+01 -3.63127E+01 -3.61243E+01 -3.60084E+01 -3.60606E+01 -3.59566E+01
  -3.57240E+01 -3.54662E+01 -3.52306E+01 -3.50516E+01 -3.49306E+01 -3.48400E+01 -3.47677E+01 -3.46943E+01 -3.46041E+01 -3.45075E+01
  -3.44159E+01 -3.43275E+01 -3.42495E+01 -3.41689E+01 -3.40849E+01 -3.40036E+01 -3.39149E+01 -3.38202E+01 -3.37305E+01 -3.36408E+01
  -3.35326E+01 -3.33890E+01 -3.32074E+01 -3.30035E+01 -3.28017E+01 -3.26181E+01 -3.24676E+01 -3.23756E+01 -3.23521E+01 -3.23556E+01
  -3.23407E+01 -3.22728E+01 -3.21771E+01 -3.20817E+01 -3.19888E+01 -3.18835E+01 -3.17208E+01 -3.15165E+01 -3.13185E+01 -3.11256E+01
  -3.09002E+01 -3.06261E+01 -3.03176E+01 -3.00094E+01 -2.97118E+01 -2.93821E+01 -2.89786E+01 -2.85513E+01 -2.81959E+01 -2.79292E+01
  -2.77228E+01 -2.75377E+01 -2.73859E+01 -2.72692E+01 -2.71531E+01 -2.69650E+01 -2.66223E+01 -2.60951E+01 -2.54682E+01 -2.48069E+01
  -2.41808E+01 -2.37792E+01 -2.36459E+01 -2.37153E+01 -2.40285E+01 -2.45577E+01 -2.51593E+01 -2.55926E+01 -2.57842E+01 -2.56411E+01
  -2.50292E+01 -2.39946E+01 -2.27553E+01 -2.15821E+01 -2.06841E+01 -2.02194E+01 -2.03580E+01 -2.11183E+01 -2.22513E+01 -2.33592E+01
  -2.41333E+01 -2.44765E+01 -2.41881E+01 -2.31239E+01 -2.16260E+01 -2.01842E+01 -1.90231E+01 -1.80359E+01 -1.73534E+01 -1.71312E+01
  -1.72589E+01 -1.73899E+01 -1.72407E+01 -1.69144E+01 -1.66899E+01 -1.64695E+01 -1.61106E+01 -1.57180E+01 -1.53982E+01 -1.51699E+01
  -1.50030E+01 -1.48674E+01 -1.47602E+01 -1.46720E+01 -1.45286E+01 -1.42454E+01 -1.37815E+01 -1.31975E+01 -1.25720E+01 -1.19308E+01
  -1.12132E+01 -9.97763E+00 -7.91985E+00 -5.54689E+00 -3.10592E+00 -6.02750E-01  1.83123E+00  4.11523E+00  6.16954E+00  7.62920E+00
   7.86106E+00  6.53758E+00  4.00930E+00  8.50108E-01 -2.71138E+00 -6.56472E+00 -1.00465E+01 -1.21603E+01 -1.26932E+01 -1.26575E+01
  -1.32448E+01 -1.41493E+01 -1.44557E+01 -1.45504E+01 -1.46249E+01 -1.46798E+01 -1.47370E+01 -1.48335E+01 -1.49558E+01 -1.50926E+01
  -1.52180E+01 -1.53033E+01 -1.53435E+01 -1.53631E+01 -1.53720E+01 -1.53620E+01 -1.53351E+01 -1.52981E+01 -1.52541E+01 -1.51986E+01
  -1.51246E+01 -1.50302E+01 -1.49196E+01 -1.47900E+01 -1.46394E+01 -1.44679E+01 -1.42760E+01 -1.40618E+01 -1.38245E+01 -1.35648E+01
  -1.32845E+01 -1.29852E+01 -1.26709E+01 -1.23460E+01 -1.20149E+01 -1.16830E+01 -1.13563E+01 -1.10402E+01 -1.07400E+01 -1.04604E+01
  -1.02056E+01 -9.97844E+00 -9.78113E+00 -9.61432E+00 -9.47693E+00 -9.36581E+00 -9.27655E+00 -9.20147E+00 -9.13108E+00 -9.07009E+00
  -9.02212E+00 -8.97940E+00 -8.93911E+00 -8.90024E+00 -8.86238E+00 -8.82886E+00 -8.79529E+00 -8.75166E+00 -8.69124E+00 -8.59818E+00
  -8.46372E+00 -8.28879E+00 -8.06868E+00 -7.79323E+00 -7.47068E+00 -7.13600E+00 -6.82508E+00 -6.53449E+00 -6.22172E+00 -5.91277E+00
  -5.65409E+00 -5.43120E+00 -5.22728E+00 -5.03603E+00 -4.87379E+00 -4.77925E+00 -4.73957E+00 -4.73699E+00 -4.75709E+00 -4.75088E+00
  -4.69230E+00 -4.58348E+00 -4.41004E+00 -4.14605E+00 -3.82293E+00 -3.55053E+00 -3.44133E+00 -3.50800E+00 -3.66648E+00 -3.90545E+00
  -4.26137E+00 -4.69182E+00 -5.12257E+00 -5.51219E+00 -5.89574E+00 -6.33353E+00 -6.79125E+00 -7.23378E+00 -7.66439E+00 -8.08158E+00
  -8.48205E+00 -8.86200E+00 -9.21825E+00 -9.54780E+00 -9.84854E+00 -1.01186E+01 -1.03567E+01 -1.05618E+01 -1.07335E+01 -1.08712E+01
  -1.09748E+01 -1.10443E+01 -1.10798E+01 -1.10813E+01 -1.10492E+01 -1.09839E+01 -1.08862E+01 -1.07569E+01 -1.05976E+01 -1.04098E+01
  -1.01963E+01 -9.96001E+00 -9.70494E+00 -9.43559E+00 -9.15747E+00 -8.87646E+00 -8.59932E+00 -8.33297E+00 -8.08472E+00 -7.86152E+00
  -7.67019E+00 -7.51658E+00 -7.40591E+00 -7.34193E+00 -7.32724E+00 -7.36258E+00 -7.44743E+00 -7.57943E+00 -7.75515E+00 -7.96965E+00
  -8.21726E+00 -8.49132E+00 -8.78505E+00 -9.09136E+00 -9.40363E+00 -9.71540E+00 -1.00211E+01 -1.03157E+01 -1.05954E+01 -1.08568E+01
  -1.10979E+01 -1.13173E+01 -1.15143E+01 -1.16889E+01 -1.18416E+01 -1.19734E+01 -1.20854E+01 -1.21790E+01 -1.22558E+01 -1.23171E+01
  -1.23646E+01 -1.23995E+01 -1.24234E+01 -1.24374E+01 -1.24426E+01 -1.24398E+01 -1.24302E+01 -1.24144E+01 -1.23931E+01 -1.23668E+01
  -1.23362E+01 -1.23014E+01 -1.22632E+01 -1.22215E+01 -1.21770E+01 -1.21296E+01 -1.20797E+01 -1.20274E+01 -1.19730E+01 -1.19164E+01
  -1.18580E+01 -1.17977E+01 -1.17358E+01 -1.16722E+01 -1.16071E+01 -1.15406E+01 -1.14727E+01 -1.14034E+01 -1.13331E+01 -1.12615E+01
  -1.11888E+01 -1.11151E+01 -1.10404E+01 -1.09647E+01 -1.08882E+01 -1.08108E+01 -1.07326E+01 -1.06536E+01 -1.05739E+01 -1.04935E+01
  -1.04124E+01 -1.03307E+01 -1.02485E+01 -1.01656E+01 -1.00822E+01 -9.99831E+00 -9.91400E+00 -9.82920E+00 -9.74404E+00 -9.65841E+00
  -9.57249E+00 -9.48618E+00 -9.39965E+00 -9.31277E+00 -9.22570E+00 -9.13830E+00 -9.05077E+00 -8.96300E+00 -8.87515E+00 -8.78709E+00
  -8.69895E+00 -8.61063E+00 -8.52231E+00 -8.43387E+00 -8.34545E+00 -8.25693E+00 -8.16842E+00 -8.07985E+00
 NY background values follow
    -1.082E+02   -1.075E+02   -1.067E+02   -1.059E+02   -1.052E+02   -1.044E+02   -1.036E+02   -1.028E+02   -1.021E+02   -1.013E+02
    -1.005E+02   -9.977E+01   -9.900E+01   -9.824E+01   -9.747E+01   -9.671E+01   -9.595E+01   -9.520E+01   -9.444E+01   -9.369E+01
    -9.294E+01   -9.219E+01   -9.144E+01   -9.070E+01   -8.995E+01   -8.922E+01   -8.848E+01   -8.775E+01   -8.702E+01   -8.629E+01
    -8.557E+01   -8.485E+01   -8.414E+01   -8.343E+01   -8.272E+01   -8.202E+01   -8.132E+01   -8.062E+01   -7.993E+01   -7.924E+01
    -7.856E+01   -7.789E+01   -7.722E+01   -7.655E+01   -7.589E+01   -7.523E+01   -7.458E+01   -7.393E+01   -7.329E+01   -7.266E+01
    -7.203E+01   -7.141E+01   -7.079E+01   -7.017E+01   -6.957E+01   -6.897E+01   -6.837E+01   -6.778E+01   -6.719E+01   -6.661E+01
    -6.604E+01   -6.547E+01   -6.491E+01   -6.435E+01   -6.380E+01   -6.325E+01   -6.271E+01   -6.217E+01   -6.164E+01   -6.112E+01
    -6.060E+01   -6.009E+01   -5.958E+01   -5.908E+01   -5.858E+01   -5.809E+01   -5.761E+01   -5.713E+01   -5.666E+01   -5.619E+01
    -5.573E+01   -5.527E+01   -5.482E+01   -5.438E+01   -5.394E+01   -5.351E+01   -5.308E+01   -5.266E+01   -5.224E+01   -5.184E+01
    -5.143E+01   -5.103E+01   -5.064E+01   -5.026E+01   -4.988E+01   -4.950E+01   -4.913E+01   -4.877E+01   -4.841E+01   -4.806E+01
    -4.771E+01   -4.737E+01   -4.703E+01   -4.669E+01   -4.637E+01   -4.604E+01   -4.573E+01   -4.541E+01   -4.510E+01   -4.480E+01
    -4.450E+01   -4.420E+01   -4.391E+01   -4.362E+01   -4.334E+01   -4.306E+01   -4.278E+01   -4.251E+01   -4.225E+01   -4.198E+01
    -4.172E+01   -4.146E+01   -4.121E+01   -4.096E+01   -4.072E+01   -4.047E+01   -4.023E+01   -4.000E+01   -3.976E+01   -3.953E+01
    -3.930E+01   -3.908E+01   -3.886E+01   -3.864E+01   -3.842E+01   -3.820E+01   -3.799E+01   -3.778E+01   -3.757E+01   -3.737E+01
    -3.717E+01   -3.697E+01   -3.677E+01   -3.657E+01   -3.637E+01   -3.618E+01   -3.599E+01   -3.580E+01   -3.561E+01   -3.542E+01
    -3.524E+01   -3.506E+01   -3.487E+01   -3.469E+01   -3.451E+01   -3.434E+01   -3.416E+01   -3.398E+01   -3.381E+01   -3.364E+01
    -3.346E+01   -3.329E+01   -3.312E+01   -3.295E+01   -3.278E+01   -3.261E+01   -3.244E+01   -3.228E+01   -3.211E+01   -3.194E+01
    -3.177E+01   -3.161E+01   -3.144E+01   -3.128E+01   -3.111E+01   -3.094E+01   -3.078E+01   -3.061E+01   -3.045E+01   -3.028E+01
    -3.011E+01   -2.995E+01   -2.978E+01   -2.961E+01   -2.944E+01   -2.927E+01   -2.911E+01   -2.894E+01   -2.877E+01   -2.860E+01
    -2.843E+01   -2.826E+01   -2.809E+01   -2.793E+01   -2.776E+01   -2.759E+01   -2.742E+01   -2.726E+01   -2.709E+01   -2.692E+01
    -2.676E+01   -2.659E+01   -2.643E+01   -2.626E+01   -2.610E+01   -2.594E+01   -2.578E+01   -2.562E+01   -2.546E+01   -2.530E+01
    -2.514E+01   -2.499E+01   -2.483E+01   -2.468E+01   -2.452E+01   -2.437E+01   -2.422E+01   -2.407E+01   -2.392E+01   -2.378E+01
    -2.363E+01   -2.349E+01   -2.335E+01   -2.321E+01   -2.307E+01   -2.294E+01   -2.280E+01   -2.267E+01   -2.254E+01   -2.241E+01
    -2.228E+01   -2.216E+01   -2.203E+01   -2.191E+01   -2.179E+01   -2.167E+01   -2.156E+01   -2.144E+01   -2.133E+01   -2.122E+01
    -2.111E+01   -2.100E+01   -2.089E+01   -2.078E+01   -2.068E+01   -2.058E+01   -2.048E+01   -2.038E+01   -2.028E+01   -2.018E+01
    -2.009E+01   -1.999E+01   -1.990E+01   -1.981E+01   -1.972E+01   -1.963E+01   -1.954E+01   -1.945E+01   -1.937E+01   -1.928E+01
    -1.920E+01   -1.912E+01   -1.904E+01   -1.896E+01   -1.888E+01   -1.880E+01   -1.872E+01   -1.865E+01   -1.857E+01   -1.850E+01
    -1.842E+01   -1.835E+01   -1.828E+01   -1.821E+01   -1.814E+01   -1.807E+01   -1.800E+01   -1.793E+01   -1.787E+01   -1.780E+01
    -1.774E+01   -1.767E+01   -1.761E+01   -1.755E+01   -1.749E+01   -1.743E+01   -1.737E+01   -1.731E+01   -1.725E+01   -1.719E+01
    -1.714E+01   -1.708E+01   -1.702E+01   -1.697E+01   -1.692E+01   -1.686E+01   -1.681E+01   -1.676E+01   -1.671E+01   -1.666E+01
    -1.661E+01   -1.656E+01   -1.652E+01   -1.647E+01   -1.642E+01   -1.638E+01   -1.633E+01   -1.629E+01   -1.624E+01   -1.620E+01
    -1.616E+01   -1.612E+01   -1.608E+01   -1.604E+01   -1.600E+01   -1.596E+01   -1.592E+01   -1.589E+01   -1.585E+01   -1.581E+01
    -1.578E+01   -1.574E+01   -1.571E+01   -1.568E+01   -1.564E+01   -1.561E+01   -1.558E+01   -1.555E+01   -1.552E+01   -1.549E+01
    -1.546E+01   -1.543E+01   -1.540E+01   -1.538E+01   -1.535E+01   -1.532E+01   -1.530E+01   -1.527E+01   -1.525E+01   -1.523E+01
    -1.520E+01   -1.518E+01   -1.516E+01   -1.514E+01   -1.512E+01   -1.510E+01   -1.508E+01   -1.506E+01   -1.504E+01   -1.502E+01
    -1.500E+01   -1.499E+01   -1.497E+01   -1.495E+01   -1.494E+01   -1.492E+01   -1.491E+01   -1.489E+01   -1.488E+01   -1.487E+01
    -1.486E+01   -1.484E+01   -1.483E+01   -1.482E+01   -1.481E+01   -1.480E+01   -1.479E+01   -1.478E+01   -1.477E+01   -1.476E+01
    -1.475E+01   -1.475E+01   -1.474E+01   -1.473E+01   -1.472E+01   -1.471E+01   -1.470E+01   -1.469E+01   -1.469E+01   -1.468E+01
    -1.467E+01   -1.466E+01   -1.465E+01   -1.464E+01   -1.463E+01   -1.462E+01   -1.461E+01   -1.460E+01   -1.459E+01   -1.457E+01
    -1.456E+01   -1.455E+01   -1.453E+01   -1.452E+01   -1.450E+01   -1.449E+01   -1.447E+01   -1.445E+01   -1.443E+01   -1.441E+01
    -1.439E+01   -1.437E+01   -1.435E+01   -1.433E+01   -1.430E+01   -1.428E+01   -1.425E+01   -1.422E+01   -1.419E+01   -1.416E+01
    -1.413E+01   -1.410E+01   -1.406E+01   -1.403E+01   -1.399E+01   -1.395E+01   -1.392E+01   -1.388E+01   -1.384E+01   -1.379E+01
    -1.375E+01   -1.371E+01   -1.366E+01   -1.361E+01   -1.357E+01   -1.352E+01   -1.347E+01   -1.342E+01   -1.337E+01   -1.331E+01
    -1.326E+01   -1.321E+01   -1.315E+01   -1.309E+01   -1.304E+01   -1.298E+01   -1.292E+01   -1.286E+01   -1.279E+01   -1.273E+01
    -1.267E+01   -1.260E+01   -1.254E+01   -1.247E+01   -1.241E+01   -1.234E+01   -1.227E+01   -1.220E+01   -1.213E+01   -1.206E+01
    -1.199E+01   -1.191E+01   -1.184E+01   -1.177E+01   -1.169E+01   -1.161E+01   -1.154E+01   -1.146E+01   -1.138E+01   -1.130E+01
    -1.122E+01   -1.114E+01   -1.106E+01   -1.098E+01   -1.090E+01   -1.082E+01   -1.073E+01   -1.065E+01   -1.057E+01   -1.048E+01
    -1.040E+01   -1.031E+01   -1.023E+01   -1.014E+01   -1.005E+01   -9.968E+00   -9.881E+00   -9.794E+00   -9.706E+00   -9.618E+00
    -9.530E+00   -9.442E+00   -9.354E+00   -9.265E+00   -9.177E+00   -9.088E+00   -8.999E+00   -8.910E+00   -8.821E+00   -8.732E+00
    -8.643E+00   -8.554E+00   -8.465E+00   -8.376E+00   -8.287E+00   -8.198E+00   -8.110E+00   -8.021E+00
 Ala      Conc. = 2.90E+01
