 LCModel (Version 6.3-1L) Copyright: S.W. Provencher.          Ref.: Magn. Reson. Med. 30:672-679 (1993).                
 Slice#3 Row#4 Col#5  PD_24_press_1_raw_act
 36 lines in following concentration table = NCONC+1
    Conc.  %SD /Cr+PCr  Metabolite                                         
   75.811 277% 5.0E-02 Ala                                                 
    0.000 999%   0.000 Asp                                                 
  273.681 116%   0.179 Cr                                                  
 1.25E+03  26%   0.821 PCr                                                 
   24.728 618% 1.6E-02 GABA                                                
    0.000 999%   0.000 Glc                                                 
    0.000 999%   0.000 Gln                                                 
 1.54E+03  26%   1.010 Glu                                                 
  416.092   6%   0.272 GPC                                                 
    0.000 999%   0.000 PCh                                                 
  258.547  36%   0.169 GSH                                                 
  187.963 171%   0.123 Ins                                                 
  413.192  61%   0.271 Lac                                                 
 1.76E+03   9%   1.154 NAA                                                 
   35.091 487% 2.3E-02 NAAG                                                
    0.000 999%   0.000 Scyllo                                              
    0.000 999%   0.000 Tau                                                 
    0.000 999%   0.000 -CrCH2                                              
  416.092   6%   0.272 GPC+PCh                                             
 1.80E+03   5%   1.177 NAA+NAAG                                            
 1.53E+03   4%   1.000 Cr+PCr                                              
 1.54E+03  26%   1.010 Glu+Gln                                             
    0.000 999%   0.000 Lip13a                                              
  925.246  13%   0.606 Lip13b                                              
  134.060  92% 8.8E-02 Lip09                                               
  742.321  25%   0.486 MM09                                                
  123.139  70% 8.1E-02 Lip20                                               
  927.427  34%   0.607 MM20                                                
  180.059  45%   0.118 MM12                                                
 1.47E+03  16%   0.960 MM14                                                
  789.807  20%   0.517 MM17                                                
  925.246  13%   0.606 Lip13a+Lip13b                                       
 2.57E+03  11%   1.683 MM14+Lip13a+Lip13b+MM12                             
  876.380  20%   0.574 MM09+Lip09                                          
 1.05E+03  30%   0.688 MM20+Lip20                                          
   6 lines in following misc. output table
  FWHM = 0.061 ppm    S/N =   7                                            
  Data shift =-0.015 ppm                                                   
  Ph:   1 deg      -7.0 deg/ppm                                            
  alphaB,S = 5.0E-01,   2.0E+01                                            
   14 spline knots.   Ns =10(1)                                            
  (18)11 infls.   (15) 9 extrs.                                            
  498 points on ppm-axis = NY
      4.000000     3.992357     3.984714     3.977070     3.969427     3.961784     3.954141     3.946497     3.938854     3.931211
      3.923568     3.915925     3.908281     3.900638     3.892995     3.885352     3.877708     3.870065     3.862422     3.854779
      3.847136     3.839492     3.831849     3.824206     3.816563     3.808919     3.801276     3.793633     3.785990     3.778347
      3.770703     3.763060     3.755417     3.747774     3.740130     3.732487     3.724844     3.717201     3.709558     3.701914
      3.694271     3.686628     3.678985     3.671341     3.663698     3.656055     3.648412     3.640769     3.633125     3.625482
      3.617839     3.610196     3.602552     3.594909     3.587266     3.579623     3.571980     3.564336     3.556693     3.549050
      3.541407     3.533763     3.526120     3.518477     3.510834     3.503191     3.495547     3.487904     3.480261     3.472618
      3.464974     3.457331     3.449688     3.442045     3.434402     3.426758     3.419115     3.411472     3.403829     3.396185
      3.388542     3.380899     3.373256     3.365613     3.357969     3.350326     3.342683     3.335040     3.327396     3.319753
      3.312110     3.304467     3.296824     3.289180     3.281537     3.273894     3.266251     3.258607     3.250964     3.243321
      3.235678     3.228034     3.220391     3.212748     3.205105     3.197462     3.189818     3.182175     3.174532     3.166889
      3.159245     3.151602     3.143959     3.136316     3.128673     3.121029     3.113386     3.105743     3.098100     3.090456
      3.082813     3.075170     3.067527     3.059884     3.052240     3.044597     3.036954     3.029311     3.021667     3.014024
      3.006381     2.998738     2.991095     2.983451     2.975808     2.968165     2.960522     2.952878     2.945235     2.937592
      2.929949     2.922306     2.914662     2.907019     2.899376     2.891733     2.884089     2.876446     2.868803     2.861160
      2.853517     2.845873     2.838230     2.830587     2.822944     2.815300     2.807657     2.800014     2.792371     2.784728
      2.777084     2.769441     2.761798     2.754155     2.746511     2.738868     2.731225     2.723582     2.715939     2.708295
      2.700652     2.693009     2.685366     2.677722     2.670079     2.662436     2.654793     2.647150     2.639506     2.631863
      2.624220     2.616577     2.608933     2.601290     2.593647     2.586004     2.578361     2.570717     2.563074     2.555431
      2.547788     2.540144     2.532501     2.524858     2.517215     2.509572     2.501928     2.494285     2.486642     2.478999
      2.471355     2.463712     2.456069     2.448426     2.440783     2.433139     2.425496     2.417853     2.410210     2.402566
      2.394923     2.387280     2.379637     2.371994     2.364350     2.356707     2.349064     2.341421     2.333777     2.326134
      2.318491     2.310848     2.303205     2.295561     2.287918     2.280275     2.272632     2.264988     2.257345     2.249702
      2.242059     2.234416     2.226772     2.219129     2.211486     2.203843     2.196199     2.188556     2.180913     2.173270
      2.165627     2.157983     2.150340     2.142697     2.135054     2.127410     2.119767     2.112124     2.104481     2.096838
      2.089194     2.081551     2.073908     2.066265     2.058621     2.050978     2.043335     2.035692     2.028049     2.020405
      2.012762     2.005119     1.997476     1.989833     1.982190     1.974546     1.966903     1.959260     1.951617     1.943974
      1.936331     1.928688     1.921045     1.913402     1.905759     1.898115     1.890472     1.882829     1.875186     1.867543
      1.859900     1.852257     1.844614     1.836971     1.829327     1.821684     1.814041     1.806398     1.798755     1.791112
      1.783469     1.775826     1.768183     1.760540     1.752896     1.745253     1.737610     1.729967     1.722324     1.714681
      1.707038     1.699395     1.691752     1.684108     1.676465     1.668822     1.661179     1.653536     1.645893     1.638250
      1.630607     1.622964     1.615321     1.607677     1.600034     1.592391     1.584748     1.577105     1.569462     1.561819
      1.554176     1.546533     1.538890     1.531246     1.523603     1.515960     1.508317     1.500674     1.493031     1.485388
      1.477745     1.470102     1.462458     1.454815     1.447172     1.439529     1.431886     1.424243     1.416600     1.408957
      1.401314     1.393671     1.386027     1.378384     1.370741     1.363098     1.355455     1.347812     1.340169     1.332526
      1.324883     1.317240     1.309596     1.301953     1.294310     1.286667     1.279024     1.271381     1.263738     1.256095
      1.248452     1.240808     1.233165     1.225522     1.217879     1.210236     1.202593     1.194950     1.187307     1.179664
      1.172021     1.164377     1.156734     1.149091     1.141448     1.133805     1.126162     1.118519     1.110876     1.103233
      1.095590     1.087946     1.080303     1.072660     1.065017     1.057374     1.049731     1.042088     1.034445     1.026802
      1.019158     1.011515     1.003872     0.996229     0.988586     0.980943     0.973300     0.965657     0.958014     0.950371
      0.942727     0.935084     0.927441     0.919798     0.912155     0.904512     0.896869     0.889226     0.881583     0.873940
      0.866296     0.858653     0.851010     0.843367     0.835724     0.828081     0.820438     0.812795     0.805152     0.797508
      0.789865     0.782222     0.774579     0.766936     0.759293     0.751650     0.744007     0.736364     0.728721     0.721077
      0.713434     0.705791     0.698148     0.690505     0.682862     0.675219     0.667576     0.659933     0.652290     0.644646
      0.637003     0.629360     0.621717     0.614074     0.606431     0.598788     0.591145     0.583502     0.575858     0.568215
      0.560572     0.552929     0.545286     0.537643     0.530000     0.522357     0.514714     0.507071     0.499427     0.491784
      0.484141     0.476498     0.468855     0.461212     0.453569     0.445925     0.438282     0.430639     0.422996     0.415353
      0.407710     0.400067     0.392424     0.384780     0.377137     0.369494     0.361851     0.354208     0.346565     0.338922
      0.331278     0.323635     0.315992     0.308349     0.300706     0.293063     0.285420     0.277777     0.270133     0.262490
      0.254847     0.247204     0.239561     0.231918     0.224275     0.216631     0.208988     0.201345
 NY phased data points follow
   8.15252E+01  8.69200E+01  8.42402E+01  9.00351E+01  8.58873E+01  9.58452E+01  9.61199E+01  9.66852E+01  9.43617E+01  1.01708E+02
   9.34152E+01  9.92594E+01  9.39089E+01  9.13402E+01  8.74006E+01  8.29319E+01  7.57922E+01  7.74176E+01  6.87208E+01  7.26594E+01
   7.38109E+01  6.99207E+01  6.79267E+01  7.20126E+01  7.21977E+01  6.97610E+01  6.72595E+01  6.99588E+01  6.32990E+01  7.25781E+01
   6.70236E+01  6.43177E+01  6.58249E+01  6.09545E+01  6.09213E+01  6.78377E+01  6.05246E+01  6.29981E+01  6.09752E+01  6.29484E+01
   5.60758E+01  5.99123E+01  5.76998E+01  6.34978E+01  5.98622E+01  6.05281E+01  6.01666E+01  6.46124E+01  6.02070E+01  5.92559E+01
   5.57286E+01  5.85743E+01  5.25032E+01  5.61781E+01  5.10679E+01  5.64264E+01  5.31373E+01  4.73880E+01  4.94475E+01  4.94527E+01
   4.51335E+01  4.78660E+01  4.45931E+01  4.39710E+01  4.22158E+01  4.61311E+01  3.96713E+01  4.27767E+01  4.05869E+01  4.64122E+01
   4.01895E+01  4.44425E+01  4.41793E+01  4.66547E+01  4.20081E+01  4.64361E+01  4.54131E+01  4.32489E+01  4.01762E+01  3.86217E+01
   3.86245E+01  3.77730E+01  4.14434E+01  4.19768E+01  3.97191E+01  4.28391E+01  3.72072E+01  4.31923E+01  3.82250E+01  3.89834E+01
   3.97907E+01  4.37909E+01  4.19280E+01  4.56454E+01  4.57143E+01  4.56281E+01  4.77699E+01  5.28760E+01  4.88883E+01  5.86182E+01
   5.65823E+01  6.34304E+01  6.20100E+01  6.98792E+01  6.33266E+01  6.56060E+01  6.00296E+01  5.44121E+01  5.11963E+01  5.05368E+01
   5.10308E+01  4.37239E+01  4.76586E+01  4.22484E+01  4.30168E+01  4.33127E+01  4.36114E+01  4.66683E+01  4.13985E+01  4.67886E+01
   5.26398E+01  5.53549E+01  5.44706E+01  6.14046E+01  6.27991E+01  7.04650E+01  6.67904E+01  7.58889E+01  7.16200E+01  6.58610E+01
   6.57992E+01  5.66493E+01  5.64363E+01  5.04200E+01  4.34457E+01  4.32327E+01  4.43102E+01  4.70132E+01  4.38360E+01  4.42254E+01
   3.56721E+01  3.87992E+01  3.68142E+01  4.14054E+01  3.82553E+01  4.20024E+01  3.91136E+01  3.93409E+01  3.79064E+01  4.21158E+01
   3.61302E+01  3.43917E+01  3.63990E+01  3.65464E+01  3.86341E+01  3.95782E+01  3.68013E+01  4.29941E+01  3.96164E+01  3.92654E+01
   3.67441E+01  4.16473E+01  3.84438E+01  4.17519E+01  3.57490E+01  3.74364E+01  3.43307E+01  3.82682E+01  3.47418E+01  3.24207E+01
   3.01564E+01  3.46948E+01  3.14345E+01  3.41609E+01  3.28357E+01  3.76540E+01  3.35520E+01  3.26920E+01  3.16749E+01  3.51564E+01
   3.20866E+01  3.75056E+01  3.18503E+01  3.57023E+01  3.18222E+01  3.71137E+01  3.56083E+01  3.84958E+01  3.58784E+01  4.22743E+01
   4.15900E+01  4.24928E+01  4.31112E+01  4.63547E+01  4.51308E+01  4.07561E+01  3.71377E+01  3.86232E+01  3.88023E+01  4.00378E+01
   3.74814E+01  4.15319E+01  3.59974E+01  3.99105E+01  4.19094E+01  4.22422E+01  3.72665E+01  3.71353E+01  3.76427E+01  3.63784E+01
   3.82276E+01  3.96004E+01  3.99942E+01  3.95795E+01  4.21631E+01  4.58572E+01  3.82746E+01  3.94077E+01  3.93531E+01  3.99328E+01
   3.48527E+01  3.18441E+01  3.35400E+01  3.66192E+01  3.72471E+01  3.46081E+01  3.21998E+01  3.99666E+01  3.69321E+01  3.69074E+01
   3.75755E+01  3.79865E+01  3.65863E+01  3.97054E+01  3.48170E+01  3.66647E+01  3.57152E+01  3.83100E+01  3.88993E+01  3.75506E+01
   3.44041E+01  3.43261E+01  3.69832E+01  4.03743E+01  3.47498E+01  3.65971E+01  3.94670E+01  3.90683E+01  3.92821E+01  4.31315E+01
   4.36743E+01  4.86713E+01  4.56782E+01  4.69315E+01  5.02970E+01  6.13510E+01  5.78256E+01  6.91985E+01  7.36175E+01  7.49990E+01
   7.27599E+01  7.86861E+01  8.26452E+01  7.16070E+01  5.97181E+01  5.81892E+01  5.28492E+01  4.97576E+01  4.65589E+01  4.33783E+01
   4.44543E+01  3.74655E+01  3.51370E+01  3.85880E+01  3.52610E+01  3.28554E+01  3.32023E+01  3.28937E+01  2.98950E+01  3.45155E+01
   3.29955E+01  3.34451E+01  3.27352E+01  3.35526E+01  3.43656E+01  3.87278E+01  2.96285E+01  3.17971E+01  2.67468E+01  3.17148E+01
   3.04384E+01  3.17983E+01  2.69581E+01  2.96932E+01  2.74943E+01  2.86548E+01  3.13327E+01  3.11862E+01  2.95124E+01  2.92993E+01
   3.11658E+01  2.95147E+01  3.01568E+01  3.37269E+01  3.50836E+01  3.09230E+01  3.14295E+01  3.76414E+01  2.79669E+01  3.30741E+01
   3.23939E+01  3.50374E+01  2.99942E+01  3.44079E+01  3.25442E+01  2.73859E+01  2.85504E+01  2.90679E+01  3.11325E+01  2.75113E+01
   2.78856E+01  2.92368E+01  2.76622E+01  2.93767E+01  2.78945E+01  3.28788E+01  3.08532E+01  3.01074E+01  3.13535E+01  3.21676E+01
   2.70622E+01  2.75491E+01  2.69163E+01  2.72723E+01  2.56918E+01  2.35039E+01  2.30814E+01  2.35908E+01  2.17731E+01  2.32598E+01
   2.24388E+01  2.13069E+01  2.09116E+01  2.13290E+01  2.10654E+01  2.35795E+01  2.53674E+01  2.46970E+01  2.71767E+01  2.84142E+01
   2.12666E+01  2.11503E+01  2.03444E+01  1.93125E+01  1.47077E+01  1.58019E+01  1.47950E+01  1.62791E+01  9.86160E+00  9.65010E+00
   8.51743E+00  1.25406E+01  8.59074E+00  1.07700E+01  4.00174E+00  6.58969E+00  3.71783E+00  1.60956E+00  2.65744E+00  3.38304E+00
   2.28044E+00  3.39596E+00  3.09090E+00  1.63839E+00  1.98030E+00  3.74595E-01 -1.01227E+00 -2.59567E+00 -2.92607E+00 -2.37062E+00
  -5.45549E+00 -4.88516E+00 -4.50425E+00 -4.99686E+00 -2.48447E+00 -1.74189E+00 -6.30974E+00  3.39794E+00 -1.18525E+00 -5.49894E+00
  -4.25437E+00 -2.14541E-01 -2.07100E+00 -5.55577E+00  1.40340E+00  2.04453E-01 -1.50595E+00 -1.36502E-01 -2.33414E-01  1.08566E-01
   1.78148E+00  1.61850E+00  8.95896E-01  1.07480E+00  2.95018E+00  4.91915E-01  1.29365E+00  1.17510E+00  2.11778E-02  4.42378E+00
   2.57481E+00  3.88114E+00  2.06681E+00  2.10104E+00  1.84228E+00 -2.99471E+00 -1.85858E+00 -1.56081E+00  8.00314E-02 -4.20320E+00
  -1.56029E+00 -7.26356E-01 -2.33307E+00 -1.98137E+00 -8.91254E-01 -2.14133E+00 -4.56011E+00 -5.81775E+00 -1.80602E+00 -3.68334E+00
  -3.75563E+00 -4.04324E+00 -2.82312E+00 -8.19574E-01 -7.80682E+00 -5.52486E+00 -6.42201E+00  2.62985E+00 -8.32909E+00 -1.90960E+00
  -6.13256E+00 -5.01058E+00 -2.21918E+00  2.39737E+00 -4.01161E+00  1.39297E-01 -1.84690E+00 -8.45300E-01 -5.37301E+00 -6.85070E+00
  -1.47094E+00 -6.22390E-02 -6.79481E+00 -3.31479E+00 -4.22894E+00 -4.22256E+00 -6.06582E+00 -4.60088E+00 -2.90193E+00 -6.60237E+00
  -5.02557E+00 -1.99442E+00 -5.57112E+00 -2.60689E+00 -6.74045E+00 -6.00891E+00 -1.86316E+00 -3.87083E+00 -3.54930E+00  2.55114E-01
  -6.79233E+00 -1.69700E+00 -9.53142E+00 -5.27214E+00 -5.29524E+00 -5.25658E+00 -5.10047E+00 -4.96339E+00 -2.63642E+00 -3.31840E+00
  -6.22401E+00 -5.09818E+00 -3.32543E+00 -7.41772E+00 -6.47475E+00 -4.20446E+00 -9.04154E+00 -5.55073E+00 -1.63303E+00 -2.21048E+00
  -1.99905E+00 -3.78990E+00  5.33731E-01 -6.58140E+00 -5.06848E+00 -3.86230E+00 -3.37114E+00 -2.41936E+00
 NY points of the fit to the data follow
   8.20459E+01  8.27715E+01  8.51507E+01  8.69111E+01  8.79036E+01  9.09656E+01  9.39675E+01  9.52614E+01  9.59521E+01  9.77134E+01
   9.78170E+01  9.54666E+01  9.13686E+01  8.77643E+01  8.50248E+01  8.17957E+01  7.85985E+01  7.67335E+01  7.54621E+01  7.39854E+01
   7.21128E+01  7.04460E+01  6.92031E+01  6.90005E+01  6.88191E+01  6.80707E+01  6.77296E+01  6.80381E+01  6.77746E+01  6.70728E+01
   6.71171E+01  6.72881E+01  6.67541E+01  6.57312E+01  6.48373E+01  6.42453E+01  6.33912E+01  6.21454E+01  6.09293E+01  6.03844E+01
   6.02177E+01  5.95726E+01  5.91381E+01  5.90967E+01  5.89195E+01  5.83575E+01  5.76895E+01  5.72400E+01  5.68267E+01  5.62605E+01
   5.56049E+01  5.49561E+01  5.44063E+01  5.37220E+01  5.28755E+01  5.22181E+01  5.17545E+01  5.12050E+01  5.05778E+01  5.00356E+01
   4.95864E+01  4.91063E+01  4.86247E+01  4.81201E+01  4.76511E+01  4.72406E+01  4.68463E+01  4.64618E+01  4.61222E+01  4.58265E+01
   4.55243E+01  4.51970E+01  4.48829E+01  4.45734E+01  4.42638E+01  4.39438E+01  4.36247E+01  4.33112E+01  4.30102E+01  4.27100E+01
   4.24166E+01  4.21284E+01  4.18506E+01  4.15638E+01  4.12874E+01  4.10209E+01  4.07898E+01  4.05763E+01  4.03768E+01  4.02330E+01
   4.02010E+01  4.03805E+01  4.15907E+01  4.50755E+01  4.54730E+01  4.49432E+01  4.77241E+01  5.15280E+01  5.29949E+01  5.58076E+01
   6.04427E+01  6.32320E+01  6.36786E+01  6.56001E+01  6.72744E+01  6.54898E+01  6.02626E+01  5.50346E+01  5.22928E+01  4.98127E+01
   4.62673E+01  4.38849E+01  4.35880E+01  4.33490E+01  4.11844E+01  4.00393E+01  4.24943E+01  4.59607E+01  4.49868E+01  4.60604E+01
   5.07463E+01  5.45333E+01  5.65042E+01  6.16987E+01  6.70819E+01  6.90920E+01  7.01314E+01  7.33044E+01  7.38883E+01  6.98396E+01
   6.29562E+01  5.78684E+01  5.50468E+01  5.12817E+01  4.70993E+01  4.51882E+01  4.49854E+01  4.34592E+01  4.03653E+01  3.91826E+01
   3.89363E+01  3.89261E+01  3.90203E+01  3.90205E+01  3.88542E+01  3.86547E+01  3.85615E+01  3.84783E+01  3.83863E+01  3.83435E+01
   3.82563E+01  3.80199E+01  3.79190E+01  3.79088E+01  3.78405E+01  3.77792E+01  3.76427E+01  3.74826E+01  3.73997E+01  3.73347E+01
   3.72141E+01  3.71112E+01  3.70238E+01  3.69060E+01  3.68547E+01  3.69058E+01  3.67107E+01  3.64209E+01  3.62620E+01  3.59411E+01
   3.55692E+01  3.52250E+01  3.51133E+01  3.50128E+01  3.49009E+01  3.47780E+01  3.46017E+01  3.43427E+01  3.44663E+01  3.48540E+01
   3.51135E+01  3.50823E+01  3.51366E+01  3.53585E+01  3.56785E+01  3.60753E+01  3.65194E+01  3.69748E+01  3.74467E+01  3.81047E+01
   3.87124E+01  3.90438E+01  3.92217E+01  3.95044E+01  3.96825E+01  3.94709E+01  3.93300E+01  3.94497E+01  3.94947E+01  3.95620E+01
   3.95420E+01  3.96236E+01  3.96596E+01  3.94776E+01  3.95025E+01  3.97288E+01  3.99134E+01  3.96182E+01  3.87343E+01  3.85805E+01
   3.86769E+01  3.84992E+01  3.81734E+01  3.83450E+01  3.89873E+01  3.93234E+01  3.90278E+01  3.87907E+01  3.82070E+01  3.67186E+01
   3.47594E+01  3.37891E+01  3.35720E+01  3.32334E+01  3.33103E+01  3.45320E+01  3.63719E+01  3.75930E+01  3.78226E+01  3.81626E+01
   3.88132E+01  3.90367E+01  3.87945E+01  3.86604E+01  3.91171E+01  3.96160E+01  3.95291E+01  3.90583E+01  3.88666E+01  3.87075E+01
   3.81458E+01  3.75040E+01  3.75253E+01  3.78594E+01  3.80097E+01  3.82625E+01  3.88925E+01  3.93465E+01  3.93362E+01  4.00327E+01
   4.47223E+01  4.76604E+01  4.57103E+01  4.81622E+01  5.45458E+01  5.80894E+01  6.06295E+01  6.73570E+01  7.29656E+01  7.40056E+01
   7.54111E+01  7.90254E+01  7.85079E+01  7.21414E+01  6.35979E+01  5.84457E+01  5.50546E+01  4.96972E+01  4.46882E+01  4.30921E+01
   4.29849E+01  4.01283E+01  3.62963E+01  3.50042E+01  3.44667E+01  3.40650E+01  3.37231E+01  3.34212E+01  3.30468E+01  3.26803E+01
   3.23513E+01  3.19960E+01  3.16344E+01  3.13365E+01  3.10890E+01  3.08299E+01  3.05588E+01  3.03163E+01  3.01121E+01  2.99303E+01
   2.97699E+01  2.96464E+01  2.95756E+01  2.95446E+01  2.95509E+01  2.95989E+01  2.96888E+01  2.98165E+01  2.99772E+01  3.01639E+01
   3.03698E+01  3.05823E+01  3.07885E+01  3.09752E+01  3.11303E+01  3.12430E+01  3.13034E+01  3.13041E+01  3.12432E+01  3.11229E+01
   3.09481E+01  3.07268E+01  3.04713E+01  3.01967E+01  2.99186E+01  2.96555E+01  2.94336E+01  2.92757E+01  2.90671E+01  2.88702E+01
   2.88258E+01  2.88154E+01  2.87396E+01  2.86892E+01  2.86664E+01  2.86167E+01  2.85042E+01  2.82685E+01  2.79794E+01  2.76086E+01
   2.71041E+01  2.65389E+01  2.60904E+01  2.56348E+01  2.50442E+01  2.44670E+01  2.40898E+01  2.38955E+01  2.32538E+01  2.21685E+01
   2.18864E+01  2.19786E+01  2.17597E+01  2.16250E+01  2.21040E+01  2.29539E+01  2.34364E+01  2.34344E+01  2.36764E+01  2.35788E+01
   2.25747E+01  2.12340E+01  2.05692E+01  1.98662E+01  1.83040E+01  1.67626E+01  1.59221E+01  1.50073E+01  1.33155E+01  1.13107E+01
   9.97669E+00  9.03577E+00  8.00626E+00  6.95906E+00  6.26673E+00  5.92479E+00  5.41519E+00  4.71803E+00  4.17809E+00  3.73413E+00
   3.33809E+00  2.97164E+00  2.62621E+00  2.29745E+00  1.98310E+00  1.68210E+00  1.39418E+00  1.11956E+00  8.58713E-01  6.12321E-01
   3.81221E-01  1.66459E-01 -3.06955E-02 -2.08806E-01 -3.66338E-01 -5.01661E-01 -6.13031E-01 -6.98574E-01 -7.56366E-01 -7.84575E-01
  -7.81611E-01 -7.46231E-01 -6.77637E-01 -5.75618E-01 -4.40764E-01 -2.74686E-01 -8.01615E-02  1.38816E-01  3.77053E-01  6.28175E-01
   8.84698E-01  1.13819E+00  1.37959E+00  1.59959E+00  1.78914E+00  1.93979E+00  2.04412E+00  2.09611E+00  2.09144E+00  2.02778E+00
   1.90497E+00  1.72496E+00  1.49166E+00  1.21073E+00  8.89218E-01  5.35273E-01  1.57626E-01 -2.34867E-01 -6.33657E-01 -1.03081E+00
  -1.41924E+00 -1.79290E+00 -2.14692E+00 -2.47770E+00 -2.78283E+00 -3.06097E+00 -3.31168E+00 -3.53529E+00 -3.73274E+00 -3.90549E+00
  -4.05534E+00 -4.18420E+00 -4.29402E+00 -4.38674E+00 -4.46427E+00 -4.52841E+00 -4.58084E+00 -4.62302E+00 -4.65626E+00 -4.68170E+00
  -4.70041E+00 -4.71333E+00 -4.72130E+00 -4.72499E+00 -4.72498E+00 -4.72183E+00 -4.71608E+00 -4.70818E+00 -4.69854E+00 -4.68748E+00
  -4.67532E+00 -4.66238E+00 -4.64898E+00 -4.63536E+00 -4.62158E+00 -4.60767E+00 -4.59368E+00 -4.57967E+00 -4.56570E+00 -4.55179E+00
  -4.53795E+00 -4.52414E+00 -4.51040E+00 -4.49675E+00 -4.48322E+00 -4.46979E+00 -4.45641E+00 -4.44308E+00 -4.42979E+00 -4.41658E+00
  -4.40343E+00 -4.39030E+00 -4.37714E+00 -4.36393E+00 -4.35069E+00 -4.33742E+00 -4.32409E+00 -4.31064E+00 -4.29704E+00 -4.28327E+00
  -4.26935E+00 -4.25526E+00 -4.24096E+00 -4.22637E+00 -4.21148E+00 -4.19630E+00 -4.18081E+00 -4.16498E+00 -4.14876E+00 -4.13209E+00
  -4.11497E+00 -4.09739E+00 -4.07934E+00 -4.06078E+00 -4.04164E+00 -4.02187E+00 -4.00149E+00 -3.98049E+00
 NY background values follow
     7.642E+01    7.590E+01    7.538E+01    7.487E+01    7.435E+01    7.383E+01    7.331E+01    7.279E+01    7.227E+01    7.175E+01
     7.123E+01    7.071E+01    7.019E+01    6.967E+01    6.915E+01    6.864E+01    6.812E+01    6.761E+01    6.710E+01    6.658E+01
     6.607E+01    6.556E+01    6.506E+01    6.455E+01    6.405E+01    6.355E+01    6.305E+01    6.255E+01    6.205E+01    6.156E+01
     6.107E+01    6.059E+01    6.010E+01    5.962E+01    5.914E+01    5.867E+01    5.820E+01    5.773E+01    5.726E+01    5.680E+01
     5.635E+01    5.589E+01    5.544E+01    5.500E+01    5.456E+01    5.412E+01    5.369E+01    5.327E+01    5.284E+01    5.243E+01
     5.201E+01    5.160E+01    5.120E+01    5.080E+01    5.041E+01    5.002E+01    4.964E+01    4.926E+01    4.889E+01    4.852E+01
     4.816E+01    4.780E+01    4.745E+01    4.710E+01    4.676E+01    4.642E+01    4.609E+01    4.577E+01    4.545E+01    4.513E+01
     4.482E+01    4.452E+01    4.423E+01    4.394E+01    4.365E+01    4.337E+01    4.310E+01    4.283E+01    4.257E+01    4.232E+01
     4.207E+01    4.183E+01    4.159E+01    4.136E+01    4.114E+01    4.092E+01    4.071E+01    4.051E+01    4.031E+01    4.012E+01
     3.993E+01    3.976E+01    3.959E+01    3.942E+01    3.927E+01    3.911E+01    3.897E+01    3.883E+01    3.870E+01    3.857E+01
     3.845E+01    3.833E+01    3.822E+01    3.812E+01    3.802E+01    3.792E+01    3.783E+01    3.775E+01    3.767E+01    3.759E+01
     3.752E+01    3.745E+01    3.739E+01    3.733E+01    3.728E+01    3.723E+01    3.718E+01    3.714E+01    3.710E+01    3.706E+01
     3.703E+01    3.700E+01    3.698E+01    3.695E+01    3.693E+01    3.692E+01    3.690E+01    3.689E+01    3.688E+01    3.687E+01
     3.687E+01    3.687E+01    3.687E+01    3.687E+01    3.687E+01    3.687E+01    3.688E+01    3.689E+01    3.689E+01    3.690E+01
     3.692E+01    3.693E+01    3.694E+01    3.695E+01    3.697E+01    3.699E+01    3.700E+01    3.702E+01    3.704E+01    3.706E+01
     3.708E+01    3.710E+01    3.712E+01    3.714E+01    3.716E+01    3.718E+01    3.720E+01    3.722E+01    3.724E+01    3.727E+01
     3.729E+01    3.731E+01    3.733E+01    3.735E+01    3.737E+01    3.739E+01    3.741E+01    3.743E+01    3.745E+01    3.747E+01
     3.748E+01    3.750E+01    3.752E+01    3.753E+01    3.754E+01    3.756E+01    3.757E+01    3.758E+01    3.759E+01    3.760E+01
     3.760E+01    3.761E+01    3.761E+01    3.762E+01    3.762E+01    3.762E+01    3.761E+01    3.761E+01    3.761E+01    3.760E+01
     3.759E+01    3.758E+01    3.757E+01    3.756E+01    3.754E+01    3.753E+01    3.751E+01    3.749E+01    3.747E+01    3.745E+01
     3.743E+01    3.741E+01    3.738E+01    3.735E+01    3.733E+01    3.730E+01    3.726E+01    3.723E+01    3.720E+01    3.716E+01
     3.712E+01    3.708E+01    3.704E+01    3.700E+01    3.696E+01    3.691E+01    3.687E+01    3.682E+01    3.677E+01    3.672E+01
     3.666E+01    3.661E+01    3.655E+01    3.650E+01    3.644E+01    3.638E+01    3.632E+01    3.625E+01    3.619E+01    3.612E+01
     3.605E+01    3.598E+01    3.591E+01    3.584E+01    3.577E+01    3.569E+01    3.561E+01    3.553E+01    3.545E+01    3.536E+01
     3.528E+01    3.519E+01    3.510E+01    3.501E+01    3.491E+01    3.482E+01    3.472E+01    3.462E+01    3.452E+01    3.441E+01
     3.431E+01    3.420E+01    3.409E+01    3.397E+01    3.385E+01    3.374E+01    3.361E+01    3.349E+01    3.336E+01    3.324E+01
     3.310E+01    3.297E+01    3.283E+01    3.270E+01    3.255E+01    3.241E+01    3.226E+01    3.211E+01    3.196E+01    3.180E+01
     3.164E+01    3.148E+01    3.132E+01    3.115E+01    3.098E+01    3.081E+01    3.063E+01    3.045E+01    3.027E+01    3.008E+01
     2.989E+01    2.970E+01    2.950E+01    2.930E+01    2.910E+01    2.889E+01    2.868E+01    2.847E+01    2.825E+01    2.803E+01
     2.780E+01    2.758E+01    2.734E+01    2.711E+01    2.687E+01    2.663E+01    2.638E+01    2.613E+01    2.587E+01    2.561E+01
     2.535E+01    2.508E+01    2.481E+01    2.453E+01    2.425E+01    2.397E+01    2.368E+01    2.339E+01    2.309E+01    2.279E+01
     2.248E+01    2.217E+01    2.186E+01    2.154E+01    2.121E+01    2.088E+01    2.055E+01    2.021E+01    1.987E+01    1.952E+01
     1.917E+01    1.881E+01    1.846E+01    1.809E+01    1.773E+01    1.736E+01    1.699E+01    1.661E+01    1.623E+01    1.586E+01
     1.548E+01    1.509E+01    1.471E+01    1.432E+01    1.394E+01    1.355E+01    1.316E+01    1.277E+01    1.239E+01    1.200E+01
     1.161E+01    1.122E+01    1.083E+01    1.045E+01    1.006E+01    9.681E+00    9.299E+00    8.919E+00    8.541E+00    8.166E+00
     7.793E+00    7.422E+00    7.055E+00    6.690E+00    6.329E+00    5.972E+00    5.618E+00    5.269E+00    4.923E+00    4.582E+00
     4.246E+00    3.915E+00    3.589E+00    3.268E+00    2.952E+00    2.642E+00    2.337E+00    2.037E+00    1.743E+00    1.453E+00
     1.169E+00    8.908E-01    6.176E-01    3.497E-01    8.723E-02   -1.699E-01   -4.216E-01   -6.680E-01   -9.089E-01   -1.144E+00
    -1.374E+00   -1.599E+00   -1.818E+00   -2.032E+00   -2.240E+00   -2.443E+00   -2.640E+00   -2.832E+00   -3.018E+00   -3.198E+00
    -3.373E+00   -3.543E+00   -3.707E+00   -3.865E+00   -4.018E+00   -4.165E+00   -4.306E+00   -4.442E+00   -4.573E+00   -4.697E+00
    -4.816E+00   -4.929E+00   -5.037E+00   -5.138E+00   -5.234E+00   -5.325E+00   -5.409E+00   -5.488E+00   -5.561E+00   -5.629E+00
    -5.691E+00   -5.748E+00   -5.800E+00   -5.847E+00   -5.889E+00   -5.926E+00   -5.959E+00   -5.987E+00   -6.012E+00   -6.032E+00
    -6.048E+00   -6.060E+00   -6.069E+00   -6.074E+00   -6.076E+00   -6.075E+00   -6.071E+00   -6.064E+00   -6.054E+00   -6.041E+00
    -6.026E+00   -6.009E+00   -5.989E+00   -5.968E+00   -5.944E+00   -5.919E+00   -5.892E+00   -5.864E+00   -5.835E+00   -5.804E+00
    -5.773E+00   -5.741E+00   -5.707E+00   -5.674E+00   -5.640E+00   -5.606E+00   -5.571E+00   -5.537E+00   -5.503E+00   -5.469E+00
    -5.436E+00   -5.403E+00   -5.371E+00   -5.341E+00   -5.310E+00   -5.281E+00   -5.253E+00   -5.225E+00   -5.198E+00   -5.172E+00
    -5.146E+00   -5.121E+00   -5.097E+00   -5.073E+00   -5.050E+00   -5.027E+00   -5.004E+00   -4.982E+00   -4.961E+00   -4.940E+00
    -4.919E+00   -4.898E+00   -4.878E+00   -4.858E+00   -4.838E+00   -4.818E+00   -4.798E+00   -4.779E+00   -4.759E+00   -4.740E+00
    -4.720E+00   -4.700E+00   -4.681E+00   -4.661E+00   -4.641E+00   -4.621E+00   -4.600E+00   -4.580E+00   -4.559E+00   -4.537E+00
    -4.516E+00   -4.494E+00   -4.471E+00   -4.448E+00   -4.425E+00   -4.401E+00   -4.377E+00   -4.352E+00
 Ala      Conc. = 7.58E+01
