 LCModel (Version 6.3-1L) Copyright: S.W. Provencher.          Ref.: Magn. Reson. Med. 30:672-679 (1993).                
 Slice#1 Row#14 Col#9  PD_24_press_1_raw_act
 36 lines in following concentration table = NCONC+1
    Conc.  %SD /Cr+PCr  Metabolite                                         
   47.654  53%   0.661 Ala                                                 
   11.495 107%   0.159 Asp                                                 
    0.000 999%   0.000 Cr                                                  
   72.122  21%   1.000 PCr                                                 
    6.928 106% 9.6E-02 GABA                                                
    7.292 102%   0.101 Glc                                                 
    0.000 999%   0.000 Gln                                                 
   83.492  61%   1.158 Glu                                                 
    0.000 999%   0.000 GPC                                                 
   28.200  20%   0.391 PCh                                                 
   29.849  60%   0.414 GSH                                                 
    0.000 999%   0.000 Ins                                                 
   53.162  50%   0.737 Lac                                                 
   92.589  19%   1.284 NAA                                                 
    0.000 999%   0.000 NAAG                                                
    3.268  73% 4.5E-02 Scyllo                                              
   16.508  73%   0.229 Tau                                                 
   19.546  78%   0.271 -CrCH2                                              
   28.200  20%   0.391 GPC+PCh                                             
   92.589  19%   1.284 NAA+NAAG                                            
   72.122  21%   1.000 Cr+PCr                                              
   83.492  61%   1.158 Glu+Gln                                             
  699.637  20%   9.701 Lip13a                                              
    0.000 999%   0.000 Lip13b                                              
   92.227  76%   1.279 Lip09                                               
   31.217 203%   0.433 MM09                                                
  129.673  41%   1.798 Lip20                                               
   50.837 182%   0.705 MM20                                                
   11.342 205%   0.157 MM12                                                
   38.911 189%   0.540 MM14                                                
   80.937  49%   1.122 MM17                                                
  699.637  20%   9.701 Lip13a+Lip13b                                       
  749.889  14%  10.397 MM14+Lip13a+Lip13b+MM12                             
  123.444  40%   1.712 MM09+Lip09                                          
  180.510  47%   2.503 MM20+Lip20                                          
   6 lines in following misc. output table
  FWHM = 0.031 ppm    S/N =   2                                            
  Data shift =-0.015 ppm                                                   
  Ph:  16 deg     -52.1 deg/ppm                                            
  alphaB,S = 8.5E+01,   6.4E+00                                            
   14 spline knots.   Ns = 5(1)                                            
   2 inflections.     1 extrema                                            
  498 points on ppm-axis = NY
      4.000000     3.992357     3.984714     3.977070     3.969427     3.961784     3.954141     3.946497     3.938854     3.931211
      3.923568     3.915925     3.908281     3.900638     3.892995     3.885352     3.877708     3.870065     3.862422     3.854779
      3.847136     3.839492     3.831849     3.824206     3.816563     3.808919     3.801276     3.793633     3.785990     3.778347
      3.770703     3.763060     3.755417     3.747774     3.740130     3.732487     3.724844     3.717201     3.709558     3.701914
      3.694271     3.686628     3.678985     3.671341     3.663698     3.656055     3.648412     3.640769     3.633125     3.625482
      3.617839     3.610196     3.602552     3.594909     3.587266     3.579623     3.571980     3.564336     3.556693     3.549050
      3.541407     3.533763     3.526120     3.518477     3.510834     3.503191     3.495547     3.487904     3.480261     3.472618
      3.464974     3.457331     3.449688     3.442045     3.434402     3.426758     3.419115     3.411472     3.403829     3.396185
      3.388542     3.380899     3.373256     3.365613     3.357969     3.350326     3.342683     3.335040     3.327396     3.319753
      3.312110     3.304467     3.296824     3.289180     3.281537     3.273894     3.266251     3.258607     3.250964     3.243321
      3.235678     3.228034     3.220391     3.212748     3.205105     3.197462     3.189818     3.182175     3.174532     3.166889
      3.159245     3.151602     3.143959     3.136316     3.128673     3.121029     3.113386     3.105743     3.098100     3.090456
      3.082813     3.075170     3.067527     3.059884     3.052240     3.044597     3.036954     3.029311     3.021667     3.014024
      3.006381     2.998738     2.991095     2.983451     2.975808     2.968165     2.960522     2.952878     2.945235     2.937592
      2.929949     2.922306     2.914662     2.907019     2.899376     2.891733     2.884089     2.876446     2.868803     2.861160
      2.853517     2.845873     2.838230     2.830587     2.822944     2.815300     2.807657     2.800014     2.792371     2.784728
      2.777084     2.769441     2.761798     2.754155     2.746511     2.738868     2.731225     2.723582     2.715939     2.708295
      2.700652     2.693009     2.685366     2.677722     2.670079     2.662436     2.654793     2.647150     2.639506     2.631863
      2.624220     2.616577     2.608933     2.601290     2.593647     2.586004     2.578361     2.570717     2.563074     2.555431
      2.547788     2.540144     2.532501     2.524858     2.517215     2.509572     2.501928     2.494285     2.486642     2.478999
      2.471355     2.463712     2.456069     2.448426     2.440783     2.433139     2.425496     2.417853     2.410210     2.402566
      2.394923     2.387280     2.379637     2.371994     2.364350     2.356707     2.349064     2.341421     2.333777     2.326134
      2.318491     2.310848     2.303205     2.295561     2.287918     2.280275     2.272632     2.264988     2.257345     2.249702
      2.242059     2.234416     2.226772     2.219129     2.211486     2.203843     2.196199     2.188556     2.180913     2.173270
      2.165627     2.157983     2.150340     2.142697     2.135054     2.127410     2.119767     2.112124     2.104481     2.096838
      2.089194     2.081551     2.073908     2.066265     2.058621     2.050978     2.043335     2.035692     2.028049     2.020405
      2.012762     2.005119     1.997476     1.989833     1.982190     1.974546     1.966903     1.959260     1.951617     1.943974
      1.936331     1.928688     1.921045     1.913402     1.905759     1.898115     1.890472     1.882829     1.875186     1.867543
      1.859900     1.852257     1.844614     1.836971     1.829327     1.821684     1.814041     1.806398     1.798755     1.791112
      1.783469     1.775826     1.768183     1.760540     1.752896     1.745253     1.737610     1.729967     1.722324     1.714681
      1.707038     1.699395     1.691752     1.684108     1.676465     1.668822     1.661179     1.653536     1.645893     1.638250
      1.630607     1.622964     1.615321     1.607677     1.600034     1.592391     1.584748     1.577105     1.569462     1.561819
      1.554176     1.546533     1.538890     1.531246     1.523603     1.515960     1.508317     1.500674     1.493031     1.485388
      1.477745     1.470102     1.462458     1.454815     1.447172     1.439529     1.431886     1.424243     1.416600     1.408957
      1.401314     1.393671     1.386027     1.378384     1.370741     1.363098     1.355455     1.347812     1.340169     1.332526
      1.324883     1.317240     1.309596     1.301953     1.294310     1.286667     1.279024     1.271381     1.263738     1.256095
      1.248452     1.240808     1.233165     1.225522     1.217879     1.210236     1.202593     1.194950     1.187307     1.179664
      1.172021     1.164377     1.156734     1.149091     1.141448     1.133805     1.126162     1.118519     1.110876     1.103233
      1.095590     1.087946     1.080303     1.072660     1.065017     1.057374     1.049731     1.042088     1.034445     1.026802
      1.019158     1.011515     1.003872     0.996229     0.988586     0.980943     0.973300     0.965657     0.958014     0.950371
      0.942727     0.935084     0.927441     0.919798     0.912155     0.904512     0.896869     0.889226     0.881583     0.873940
      0.866296     0.858653     0.851010     0.843367     0.835724     0.828081     0.820438     0.812795     0.805152     0.797508
      0.789865     0.782222     0.774579     0.766936     0.759293     0.751650     0.744007     0.736364     0.728721     0.721077
      0.713434     0.705791     0.698148     0.690505     0.682862     0.675219     0.667576     0.659933     0.652290     0.644646
      0.637003     0.629360     0.621717     0.614074     0.606431     0.598788     0.591145     0.583502     0.575858     0.568215
      0.560572     0.552929     0.545286     0.537643     0.530000     0.522357     0.514714     0.507071     0.499427     0.491784
      0.484141     0.476498     0.468855     0.461212     0.453569     0.445925     0.438282     0.430639     0.422996     0.415353
      0.407710     0.400067     0.392424     0.384780     0.377137     0.369494     0.361851     0.354208     0.346565     0.338922
      0.331278     0.323635     0.315992     0.308349     0.300706     0.293063     0.285420     0.277777     0.270133     0.262490
      0.254847     0.247204     0.239561     0.231918     0.224275     0.216631     0.208988     0.201345
 NY phased data points follow
  -8.21169E-01 -1.82729E+00  7.07168E-01 -3.56405E+00  2.59182E-01 -3.38482E+00 -1.50287E+00 -1.50226E+00  3.49863E-01  1.29108E+00
   1.39954E+00 -6.42332E-01  9.32580E-01  1.78681E+00 -1.04891E-01 -1.84795E+00 -3.75123E-01 -1.26235E+00 -1.48018E-01 -1.40436E+00
  -1.96423E+00 -2.13510E+00  2.04327E+00 -1.01205E+00  2.45156E-01 -2.32721E+00 -1.05599E+00 -7.71474E-01 -1.69504E+00  2.42094E+00
   7.78772E-01  8.03343E-01  7.88201E-01 -2.02915E+00  2.14614E+00  6.41602E-01 -1.75063E+00 -2.15292E+00  5.77737E-01  8.11480E-01
   1.43768E+00 -1.08188E+00  2.71829E-01 -1.28609E+00  2.66753E-01 -1.44890E+00  2.46000E+00 -2.35694E-01  4.58704E-01 -2.28962E-01
   2.04726E+00 -1.60708E+00 -1.97330E+00 -3.02560E+00 -6.12427E-01  1.20757E+00  3.10073E+00  8.45022E-01  1.43523E+00 -5.31889E-01
  -6.99236E-01 -2.07039E+00  1.58867E+00 -1.07298E+00  5.10299E-01 -7.99567E-02  1.47063E+00 -9.57547E-01  5.48061E-01  2.09980E-01
  -1.69896E+00  3.77444E-01  9.13643E-01 -2.58260E+00 -8.30941E-01 -1.05577E+00  7.95090E-01 -2.06290E+00  2.23795E+00  1.19266E+00
  -1.49457E+00  1.88324E+00 -1.04715E+00 -6.86113E-01  6.27438E-01  2.50245E+00  3.81265E-01  5.91648E-01  4.66406E-01 -3.92256E-01
   1.92228E+00  1.06531E+00  2.94551E+00  4.26057E-01 -8.12228E-01 -6.79028E-01  3.81940E-01 -2.27532E-01 -6.21389E-01  1.07750E+00
   1.63767E+00  1.77959E+00  3.98226E-01  4.02160E+00  3.73245E+00  2.43050E+00  5.11395E+00  2.71268E+00  2.50147E+00  6.32079E-02
   5.55832E-01  1.48234E+00 -1.38238E+00  1.52919E+00 -2.03233E-01 -4.11330E-01  8.70700E-01 -2.47304E+00  1.19333E+00 -1.15041E+00
  -6.41975E-01 -1.49428E+00  1.81630E+00 -8.06689E-01  6.35493E-01 -2.39513E-01  3.62110E-01  3.19361E+00  3.59188E+00  5.80490E+00
   3.56946E+00  1.86443E+00  1.26897E+00  4.69237E-01  1.44434E+00  4.98513E-01 -1.36882E+00  2.65672E-01 -7.58654E-03 -1.05365E+00
   1.83837E+00  6.91189E-01 -6.70631E-02 -9.38250E-01  7.35602E-01 -2.98337E-01  2.93190E+00  9.90006E-01 -2.48796E-01  8.78681E-01
   6.42922E-02  2.79552E-01 -1.65552E-01  2.63118E-02 -5.08844E-01 -3.76853E-01 -1.16379E+00  2.75075E-02  5.77532E-01 -8.23873E-01
   1.56515E+00  1.17997E+00  1.52562E+00  2.49415E+00  1.10078E+00 -8.94650E-01  7.55187E-01  2.48229E-01  1.28565E+00 -1.86570E+00
   1.83803E+00  9.41814E-01  1.47614E+00  2.19081E+00 -3.00210E-01 -1.62955E+00  5.85023E-01 -2.46862E+00  5.40654E-01 -9.56756E-04
  -3.90515E-01 -5.43922E-01  1.24326E+00  4.89431E-01 -1.38909E+00  9.72368E-02  7.24561E-01  6.51494E-01  8.35952E-01 -8.98574E-01
   2.96088E-01  2.56176E+00 -5.11786E-01  3.16440E+00 -3.83577E-01  4.68542E-01  8.66019E-01  8.10414E-01  9.45813E-01  5.50379E-01
   1.40417E+00  5.58333E-01  1.02872E+00  1.19215E+00  1.89551E+00  2.75982E+00  2.55934E+00 -7.17978E-01  1.87020E+00  1.67290E-01
   2.26930E+00  1.05008E+00 -6.45439E-01  2.72470E+00 -1.52880E-01 -6.58231E-02  2.82205E-01  2.43248E+00  2.35256E+00 -6.35611E-01
  -8.41856E-01  1.77062E+00  8.23686E-01 -1.47004E+00  5.65009E-02 -1.25733E+00 -8.53807E-02  2.37211E+00  3.93648E+00  2.77243E+00
   1.45764E+00  1.34683E+00  2.13754E+00 -5.33656E-01 -3.67197E-03  1.69629E-01 -2.07640E-01 -1.41552E-01  3.77414E-01  3.33862E+00
  -1.47284E-01  1.76335E-01 -3.13692E-01  1.55924E+00  1.99378E+00  1.19390E+00  1.11851E+00  1.35318E-01  4.85656E-01  4.83856E-02
  -1.53048E-01  5.23379E-01  1.09915E+00 -1.06292E+00  8.26234E-01 -6.20452E-01  1.50929E+00  1.29987E+00  1.27141E+00  2.00943E+00
   4.14896E+00  5.12742E+00  6.04495E+00  4.74326E+00  4.34094E+00  2.18485E+00  1.88146E+00  1.11818E+00  2.22445E+00  2.74999E+00
   3.20655E+00  1.30097E+00  1.72657E+00  1.18343E+00  2.04629E+00  1.56861E+00  5.86227E-01  2.20105E+00  1.92848E-03  2.23466E+00
   2.89677E+00  9.25087E-01  2.86077E-01  2.47319E+00  1.06381E+00  1.50013E+00  2.71348E+00 -2.22413E-01  1.50591E+00  2.36500E+00
   1.60482E+00  1.37690E+00  2.30798E+00  1.65158E+00  3.05978E-01 -7.93239E-03  2.73860E+00  2.05662E+00  3.28776E+00  1.73072E+00
   6.29707E-02  2.51120E+00  1.04738E+00  1.53566E+00 -7.48177E-01  3.42054E+00 -6.43523E-01  1.32268E+00  1.79401E-01  1.94931E+00
   1.83434E+00 -4.75072E-01  2.55890E+00  3.82643E+00  2.71400E+00  3.15024E+00  3.45873E+00  5.22816E+00  5.46350E-01  2.61093E+00
   3.59599E+00  2.71977E+00  1.90020E+00  7.43206E-01  2.01540E+00  2.05079E+00  2.49765E+00  3.21269E+00  2.16822E+00  4.38325E-01
   1.98200E+00  2.13045E+00  7.44056E-01  1.78258E-01 -5.98083E-01  1.13309E+00  1.68889E+00 -4.83032E-01  2.92668E+00  2.59130E+00
   9.04428E-01  3.47475E+00  3.10302E+00  1.28761E+00  3.74716E+00  1.99627E+00  2.98184E+00  3.64015E+00  3.80577E+00  2.90786E+00
   3.49492E+00  1.98877E+00  3.04841E+00  2.37955E+00  1.38596E+00  2.58368E+00  4.41836E+00  3.39450E+00  3.86232E+00  5.08549E+00
   3.71970E+00  2.34221E+00  5.70056E+00  6.08187E+00  3.66012E+00  5.05373E+00  5.27917E+00  5.21104E+00  5.46801E+00  3.61560E+00
   2.67082E+00  3.36363E+00  3.43672E+00  3.95180E+00  2.56396E+00  3.39617E+00  4.04867E+00  9.70504E-01  2.86315E+00  1.08128E+00
   1.64031E+00  2.19519E+00 -2.81738E-01  5.67166E-01  1.52192E+00 -3.22075E-01 -1.39564E-01 -9.04259E-01  1.61654E+00 -3.40052E-01
   1.55772E+00  2.12686E+00  3.19602E-01  1.97927E+00 -1.15959E+00  4.83154E+00  1.93259E+00  3.55042E-01  1.29224E+00  1.40949E+00
   2.75565E-01  1.89338E+00 -1.75824E-01  1.28020E+00  1.80723E+00  1.34580E+00  1.72077E+00  1.59545E+00  1.59526E+00  1.20151E+00
   1.12847E+00  3.23721E+00  2.28153E+00  3.90253E+00  5.26359E-01  2.85557E+00  1.30918E+00  9.87722E-01 -3.21817E-01  7.09372E-01
   2.11002E+00  2.75959E-01  3.35982E+00  6.76651E-01  1.30985E+00  1.15315E+00  1.40179E+00  1.16464E+00  2.15452E+00  1.34023E+00
   2.23224E+00  2.34669E+00  1.40997E+00  5.70957E-01 -5.59674E-01  2.75045E+00  2.71335E+00  1.55148E+00  2.79620E+00  8.78662E-01
  -1.19052E+00  1.68974E+00  2.09585E+00  1.73101E+00  1.88717E+00  9.95292E-01 -7.52517E-01  2.75074E+00 -2.18636E+00  1.60579E+00
   9.20853E-01  1.56839E+00 -6.59407E-01  6.95415E-01 -2.70874E+00  2.33684E+00  1.07756E+00  4.94039E-01  1.59248E+00 -1.38796E+00
   1.01206E+00  2.67241E+00  2.26578E+00 -7.54671E-01  1.18711E+00  3.96305E-03  1.68715E+00 -5.06775E-02  2.66971E+00  8.98738E-01
  -2.56877E-01 -3.18559E-01  1.10731E+00  7.99072E-01  2.88561E-01  7.90829E-01 -2.01662E-01  1.51494E-01  2.95836E+00  8.76581E-02
  -6.56503E-01  1.89564E+00  1.44572E+00  1.75178E+00  1.77200E-01  1.58191E+00  3.35952E-01  1.19750E+00  1.61596E+00  1.32740E+00
  -6.10539E-01  1.26694E+00 -1.90751E+00  4.84073E-01 -1.68933E+00  2.05297E+00 -2.08723E+00 -2.10734E-01
 NY points of the fit to the data follow
  -3.77308E-01 -3.67951E-01 -3.37310E-01 -3.04666E-01 -3.09357E-01 -2.75832E-01 -1.96139E-01 -1.13183E-01  2.65634E-01  9.22410E-01
   1.36991E+00  1.47993E+00  1.31766E+00  9.05380E-01  3.99941E-01  2.09702E-02 -1.46017E-01 -2.13565E-01 -2.61866E-01 -2.84419E-01
  -2.78779E-01 -2.22588E-01 -1.28730E-01 -4.47177E-02  1.91849E-02  6.05245E-02  7.31837E-02 -2.88118E-02 -1.24820E-01  5.73842E-02
   3.59869E-01  5.38623E-01  6.54319E-01  7.31990E-01  6.74492E-01  4.72973E-01  2.80006E-01  1.12180E-01 -7.66825E-02 -2.05417E-01
  -2.24566E-01 -1.79508E-01 -1.30294E-01 -9.85465E-02 -9.39402E-02 -1.19230E-01 -1.34580E-01 -1.35934E-01 -1.36076E-01 -1.30559E-01
  -1.34196E-01 -1.42060E-01 -1.31802E-01 -1.09544E-01 -8.68723E-02 -6.77431E-02 -5.87597E-02 -6.46427E-02 -7.99150E-02 -9.24011E-02
  -9.74837E-02 -9.80422E-02 -9.47416E-02 -8.68694E-02 -7.96671E-02 -6.53798E-02 -4.55977E-02 -3.63216E-02 -3.13117E-02 -3.30019E-02
  -5.50220E-02 -7.52248E-02 -7.74808E-02 -7.39862E-02 -4.55841E-02  2.31675E-02  8.33853E-02  1.00733E-01  8.28375E-02  3.18164E-02
  -3.66353E-02 -8.47997E-02 -7.92742E-02 -3.97458E-02  8.50386E-03  1.05387E-01  2.33729E-01  3.08841E-01  3.20695E-01  2.86618E-01
   2.13688E-01  1.36506E-01  8.11520E-02  3.95707E-02  1.14031E-03 -2.83801E-02 -5.00463E-02 -5.17923E-02 -5.65355E-02  2.81325E-02
   2.27608E-01  4.39683E-01  1.24541E+00  2.76120E+00  3.91400E+00  4.24423E+00  3.90393E+00  2.95950E+00  1.76290E+00  8.08315E-01
   3.55154E-01  2.23918E-01  1.75757E-01  1.48684E-01  1.34371E-01  1.30023E-01  1.29674E-01  1.33762E-01  1.39641E-01  1.35558E-01
   1.23875E-01  9.57139E-02  2.14799E-02  9.41787E-02  2.40402E-01  5.17599E-01  1.53894E+00  2.91535E+00  3.69647E+00  3.80727E+00
   3.34672E+00  2.43139E+00  1.46815E+00  8.64086E-01  6.10642E-01  4.62542E-01  3.06771E-01  1.38964E-01  2.63673E-02  1.93356E-02
   1.14885E-01  2.68922E-01  4.03211E-01  4.78478E-01  4.96109E-01  4.75891E-01  4.41733E-01  4.08577E-01  3.90170E-01  3.79875E-01
   3.66973E-01  3.53159E-01  3.42190E-01  3.33129E-01  3.23860E-01  3.23120E-01  3.34706E-01  3.45648E-01  3.54237E-01  3.51403E-01
   3.10694E-01  2.53768E-01  2.14066E-01  2.06976E-01  2.49770E-01  3.09198E-01  3.43461E-01  3.47627E-01  3.21867E-01  2.81487E-01
   2.46777E-01  2.29117E-01  2.19988E-01  2.05998E-01  1.87931E-01  1.46711E-01  9.18804E-02  7.07790E-02  8.99763E-02  1.23361E-01
   1.40503E-01  1.31082E-01  1.17390E-01  1.03726E-01  9.50841E-02  9.27793E-02  7.43868E-02  5.70827E-02  9.12153E-02  1.86033E-01
   3.28832E-01  4.82883E-01  5.84896E-01  6.03809E-01  5.47834E-01  4.66924E-01  3.84786E-01  2.90966E-01  2.32620E-01  2.37821E-01
   2.78699E-01  3.35057E-01  4.11580E-01  5.10217E-01  5.97764E-01  6.61043E-01  6.79360E-01  6.50987E-01  5.98215E-01  4.97102E-01
   3.82814E-01  2.93139E-01  2.46249E-01  2.60828E-01  3.80280E-01  6.68604E-01  9.88617E-01  1.15229E+00  1.13315E+00  9.41192E-01
   6.27644E-01  2.43882E-01 -1.12064E-01 -2.62979E-01 -1.63075E-01  8.90294E-02  4.18263E-01  7.37959E-01  9.43481E-01  1.00723E+00
   9.39080E-01  8.02518E-01  6.96419E-01  6.64739E-01  7.09735E-01  8.21666E-01  9.83314E-01  1.13683E+00  1.19384E+00  1.11665E+00
   9.52406E-01  7.70963E-01  6.06900E-01  5.14876E-01  5.70696E-01  7.46765E-01  9.44771E-01  1.11506E+00  1.23171E+00  1.25188E+00
   1.17502E+00  1.06108E+00  9.79120E-01  9.55682E-01  9.65164E-01  9.41276E-01  1.00515E+00  1.18389E+00  1.35176E+00  2.20176E+00
   3.90226E+00  5.22969E+00  5.64244E+00  5.32120E+00  4.30005E+00  2.94120E+00  1.83132E+00  1.27840E+00  1.07986E+00  9.75499E-01
   9.03489E-01  8.47124E-01  8.04900E-01  7.91065E-01  8.02380E-01  8.25119E-01  8.49536E-01  8.63426E-01  8.60789E-01  8.44333E-01
   8.19389E-01  7.94426E-01  7.75863E-01  7.64868E-01  7.62533E-01  7.69709E-01  7.83846E-01  8.00217E-01  8.17242E-01  8.35885E-01
   8.55027E-01  8.74209E-01  8.95202E-01  9.18220E-01  9.42487E-01  9.68196E-01  9.95414E-01  1.02382E+00  1.05274E+00  1.08170E+00
   1.10998E+00  1.13676E+00  1.16163E+00  1.18424E+00  1.20405E+00  1.22067E+00  1.23386E+00  1.24353E+00  1.24983E+00  1.25317E+00
   1.25403E+00  1.25295E+00  1.25045E+00  1.24719E+00  1.24388E+00  1.24138E+00  1.24053E+00  1.24217E+00  1.24714E+00  1.25625E+00
   1.27019E+00  1.28844E+00  1.31150E+00  1.37984E+00  1.48695E+00  1.61153E+00  1.85984E+00  2.10080E+00  2.04227E+00  1.74060E+00
   1.33279E+00  9.00318E-01  6.06711E-01  4.57796E-01  5.29158E-01  9.55448E-01  1.54604E+00  2.08429E+00  2.51831E+00  2.76997E+00
   2.82286E+00  2.76813E+00  2.74153E+00  2.83408E+00  3.01758E+00  3.23588E+00  3.60443E+00  4.00376E+00  4.07307E+00  3.83329E+00
   3.43961E+00  3.01369E+00  2.70083E+00  2.53658E+00  2.71200E+00  3.26384E+00  3.87611E+00  4.36785E+00  4.68556E+00  4.75521E+00
   4.59609E+00  4.33976E+00  4.11903E+00  3.95121E+00  3.80126E+00  3.65452E+00  3.50670E+00  3.35708E+00  3.20643E+00  3.05614E+00
   2.90779E+00  2.76299E+00  2.62327E+00  2.48995E+00  2.36413E+00  2.24662E+00  2.13799E+00  2.03859E+00  1.94857E+00  1.86795E+00
   1.79658E+00  1.73420E+00  1.68049E+00  1.63510E+00  1.59766E+00  1.56780E+00  1.54513E+00  1.52927E+00  1.51984E+00  1.51648E+00
   1.51880E+00  1.52640E+00  1.53882E+00  1.55554E+00  1.57601E+00  1.59959E+00  1.62559E+00  1.65321E+00  1.68161E+00  1.70991E+00
   1.73719E+00  1.76256E+00  1.78512E+00  1.80407E+00  1.81866E+00  1.82831E+00  1.83257E+00  1.83116E+00  1.82396E+00  1.81105E+00
   1.79266E+00  1.76919E+00  1.74118E+00  1.70926E+00  1.67414E+00  1.63658E+00  1.59732E+00  1.55712E+00  1.51668E+00  1.47664E+00
   1.43751E+00  1.39979E+00  1.36383E+00  1.32991E+00  1.29821E+00  1.26885E+00  1.24185E+00  1.21720E+00  1.19485E+00  1.17468E+00
   1.15656E+00  1.14037E+00  1.12593E+00  1.11311E+00  1.10176E+00  1.09173E+00  1.08288E+00  1.07510E+00  1.06826E+00  1.06226E+00
   1.05702E+00  1.05246E+00  1.04848E+00  1.04504E+00  1.04207E+00  1.03953E+00  1.03738E+00  1.03557E+00  1.03407E+00  1.03285E+00
   1.03188E+00  1.03115E+00  1.03063E+00  1.03030E+00  1.03014E+00  1.03015E+00  1.03030E+00  1.03060E+00  1.03102E+00  1.03157E+00
   1.03221E+00  1.03296E+00  1.03381E+00  1.03475E+00  1.03576E+00  1.03685E+00  1.03801E+00  1.03925E+00  1.04054E+00  1.04190E+00
   1.04331E+00  1.04477E+00  1.04628E+00  1.04785E+00  1.04946E+00  1.05111E+00  1.05280E+00  1.05453E+00  1.05629E+00  1.05810E+00
   1.05993E+00  1.06179E+00  1.06368E+00  1.06561E+00  1.06756E+00  1.06954E+00  1.07154E+00  1.07357E+00  1.07561E+00  1.07769E+00
   1.07979E+00  1.08191E+00  1.08404E+00  1.08619E+00  1.08836E+00  1.09056E+00  1.09277E+00  1.09500E+00
 NY background values follow
    -3.335E-01   -3.307E-01   -3.279E-01   -3.251E-01   -3.223E-01   -3.195E-01   -3.167E-01   -3.139E-01   -3.111E-01   -3.083E-01
    -3.055E-01   -3.027E-01   -2.999E-01   -2.971E-01   -2.943E-01   -2.915E-01   -2.887E-01   -2.859E-01   -2.831E-01   -2.803E-01
    -2.775E-01   -2.747E-01   -2.719E-01   -2.691E-01   -2.663E-01   -2.635E-01   -2.607E-01   -2.579E-01   -2.551E-01   -2.523E-01
    -2.495E-01   -2.467E-01   -2.439E-01   -2.411E-01   -2.383E-01   -2.355E-01   -2.327E-01   -2.299E-01   -2.271E-01   -2.243E-01
    -2.215E-01   -2.187E-01   -2.159E-01   -2.131E-01   -2.103E-01   -2.075E-01   -2.047E-01   -2.019E-01   -1.991E-01   -1.963E-01
    -1.935E-01   -1.907E-01   -1.879E-01   -1.851E-01   -1.823E-01   -1.795E-01   -1.767E-01   -1.739E-01   -1.711E-01   -1.683E-01
    -1.655E-01   -1.626E-01   -1.598E-01   -1.570E-01   -1.542E-01   -1.514E-01   -1.486E-01   -1.458E-01   -1.430E-01   -1.402E-01
    -1.374E-01   -1.346E-01   -1.318E-01   -1.290E-01   -1.262E-01   -1.234E-01   -1.206E-01   -1.178E-01   -1.150E-01   -1.122E-01
    -1.094E-01   -1.066E-01   -1.038E-01   -1.010E-01   -9.823E-02   -9.543E-02   -9.263E-02   -8.982E-02   -8.702E-02   -8.422E-02
    -8.142E-02   -7.862E-02   -7.582E-02   -7.302E-02   -7.022E-02   -6.742E-02   -6.462E-02   -6.181E-02   -5.901E-02   -5.621E-02
    -5.341E-02   -5.061E-02   -4.781E-02   -4.501E-02   -4.221E-02   -3.941E-02   -3.661E-02   -3.381E-02   -3.101E-02   -2.820E-02
    -2.540E-02   -2.260E-02   -1.980E-02   -1.700E-02   -1.420E-02   -1.140E-02   -8.598E-03   -5.797E-03   -2.997E-03   -1.958E-04
     2.605E-03    5.406E-03    8.207E-03    1.101E-02    1.381E-02    1.661E-02    1.941E-02    2.221E-02    2.501E-02    2.781E-02
     3.061E-02    3.341E-02    3.621E-02    3.902E-02    4.182E-02    4.462E-02    4.742E-02    5.022E-02    5.302E-02    5.582E-02
     5.862E-02    6.142E-02    6.422E-02    6.702E-02    6.982E-02    7.262E-02    7.543E-02    7.823E-02    8.103E-02    8.383E-02
     8.663E-02    8.943E-02    9.223E-02    9.503E-02    9.783E-02    1.006E-01    1.034E-01    1.062E-01    1.090E-01    1.118E-01
     1.146E-01    1.174E-01    1.202E-01    1.230E-01    1.258E-01    1.286E-01    1.314E-01    1.342E-01    1.370E-01    1.398E-01
     1.426E-01    1.454E-01    1.482E-01    1.510E-01    1.538E-01    1.566E-01    1.594E-01    1.622E-01    1.650E-01    1.678E-01
     1.706E-01    1.734E-01    1.762E-01    1.790E-01    1.818E-01    1.846E-01    1.874E-01    1.903E-01    1.931E-01    1.959E-01
     1.987E-01    2.015E-01    2.043E-01    2.071E-01    2.099E-01    2.127E-01    2.155E-01    2.183E-01    2.211E-01    2.239E-01
     2.267E-01    2.295E-01    2.323E-01    2.351E-01    2.379E-01    2.407E-01    2.435E-01    2.463E-01    2.491E-01    2.519E-01
     2.547E-01    2.575E-01    2.603E-01    2.631E-01    2.659E-01    2.687E-01    2.715E-01    2.743E-01    2.771E-01    2.799E-01
     2.827E-01    2.855E-01    2.883E-01    2.911E-01    2.939E-01    2.967E-01    2.995E-01    3.023E-01    3.051E-01    3.079E-01
     3.107E-01    3.135E-01    3.163E-01    3.191E-01    3.219E-01    3.247E-01    3.275E-01    3.303E-01    3.331E-01    3.359E-01
     3.387E-01    3.415E-01    3.443E-01    3.471E-01    3.499E-01    3.527E-01    3.555E-01    3.583E-01    3.611E-01    3.639E-01
     3.667E-01    3.695E-01    3.723E-01    3.751E-01    3.779E-01    3.807E-01    3.835E-01    3.863E-01    3.891E-01    3.919E-01
     3.947E-01    3.975E-01    4.003E-01    4.031E-01    4.059E-01    4.087E-01    4.115E-01    4.143E-01    4.171E-01    4.199E-01
     4.227E-01    4.255E-01    4.283E-01    4.311E-01    4.339E-01    4.367E-01    4.395E-01    4.423E-01    4.451E-01    4.479E-01
     4.507E-01    4.535E-01    4.563E-01    4.591E-01    4.619E-01    4.647E-01    4.675E-01    4.703E-01    4.731E-01    4.759E-01
     4.787E-01    4.815E-01    4.843E-01    4.871E-01    4.899E-01    4.927E-01    4.955E-01    4.983E-01    5.011E-01    5.039E-01
     5.067E-01    5.095E-01    5.123E-01    5.151E-01    5.179E-01    5.207E-01    5.235E-01    5.263E-01    5.291E-01    5.319E-01
     5.347E-01    5.375E-01    5.403E-01    5.431E-01    5.459E-01    5.487E-01    5.515E-01    5.543E-01    5.571E-01    5.599E-01
     5.627E-01    5.655E-01    5.683E-01    5.711E-01    5.739E-01    5.767E-01    5.795E-01    5.823E-01    5.851E-01    5.879E-01
     5.907E-01    5.935E-01    5.963E-01    5.991E-01    6.019E-01    6.047E-01    6.075E-01    6.102E-01    6.130E-01    6.158E-01
     6.186E-01    6.214E-01    6.242E-01    6.270E-01    6.298E-01    6.326E-01    6.354E-01    6.382E-01    6.410E-01    6.438E-01
     6.466E-01    6.494E-01    6.522E-01    6.550E-01    6.578E-01    6.606E-01    6.634E-01    6.662E-01    6.690E-01    6.718E-01
     6.746E-01    6.774E-01    6.802E-01    6.830E-01    6.858E-01    6.886E-01    6.914E-01    6.942E-01    6.970E-01    6.998E-01
     7.026E-01    7.054E-01    7.082E-01    7.110E-01    7.138E-01    7.166E-01    7.194E-01    7.222E-01    7.250E-01    7.278E-01
     7.306E-01    7.334E-01    7.362E-01    7.390E-01    7.418E-01    7.446E-01    7.474E-01    7.502E-01    7.530E-01    7.558E-01
     7.586E-01    7.614E-01    7.642E-01    7.670E-01    7.698E-01    7.726E-01    7.754E-01    7.782E-01    7.810E-01    7.838E-01
     7.866E-01    7.894E-01    7.922E-01    7.950E-01    7.978E-01    8.006E-01    8.034E-01    8.062E-01    8.090E-01    8.118E-01
     8.146E-01    8.174E-01    8.202E-01    8.230E-01    8.258E-01    8.286E-01    8.314E-01    8.342E-01    8.370E-01    8.398E-01
     8.426E-01    8.454E-01    8.482E-01    8.510E-01    8.538E-01    8.566E-01    8.594E-01    8.622E-01    8.650E-01    8.678E-01
     8.706E-01    8.734E-01    8.762E-01    8.790E-01    8.818E-01    8.846E-01    8.874E-01    8.902E-01    8.930E-01    8.958E-01
     8.986E-01    9.014E-01    9.042E-01    9.070E-01    9.098E-01    9.126E-01    9.154E-01    9.182E-01    9.210E-01    9.238E-01
     9.266E-01    9.294E-01    9.322E-01    9.350E-01    9.378E-01    9.406E-01    9.434E-01    9.462E-01    9.490E-01    9.518E-01
     9.546E-01    9.574E-01    9.602E-01    9.630E-01    9.658E-01    9.685E-01    9.713E-01    9.741E-01    9.769E-01    9.797E-01
     9.825E-01    9.853E-01    9.881E-01    9.909E-01    9.937E-01    9.965E-01    9.993E-01    1.002E+00    1.005E+00    1.008E+00
     1.011E+00    1.013E+00    1.016E+00    1.019E+00    1.022E+00    1.025E+00    1.027E+00    1.030E+00    1.033E+00    1.036E+00
     1.039E+00    1.041E+00    1.044E+00    1.047E+00    1.050E+00    1.053E+00    1.055E+00    1.058E+00
 Ala      Conc. = 4.77E+01
