 LCModel (Version 6.3-1L) Copyright: S.W. Provencher.          Ref.: Magn. Reson. Med. 30:672-679 (1993).                
 Slice#2 Row#3 Col#4  PD_24_press_1_raw_act
 36 lines in following concentration table = NCONC+1
    Conc.  %SD /Cr+PCr  Metabolite                                         
  424.712 187%   0.987 Ala                                                 
   26.307  44% 6.1E-02 Asp                                                 
    0.000 999%   0.000 Cr                                                  
  430.483  22%   1.000 PCr                                                 
   15.900  43% 3.7E-02 GABA                                                
   15.854  44% 3.7E-02 Glc                                                 
    0.000 999%   0.000 Gln                                                 
 9.74E+03  12%  22.627 Glu                                                 
    0.000 999%   0.000 GPC                                                 
   33.630 127% 7.8E-02 PCh                                                 
    0.000 999%   0.000 GSH                                                 
    0.000 999%   0.000 Ins                                                 
  297.790 298%   0.692 Lac                                                 
    0.000 999%   0.000 NAA                                                 
    0.000 999%   0.000 NAAG                                                
    5.227  44% 1.2E-02 Scyllo                                              
   26.139  44% 6.1E-02 Tau                                                 
   41.744  46% 9.7E-02 -CrCH2                                              
   33.630 127% 7.8E-02 GPC+PCh                                             
    0.000 999%   0.000 NAA+NAAG                                            
  430.483  22%   1.000 Cr+PCr                                              
 9.74E+03  12%  22.627 Glu+Gln                                             
 1.46E+04  13%  33.944 Lip13a                                              
    0.000 999%   0.000 Lip13b                                              
 2.60E+03  25%   6.037 Lip09                                               
  296.567  90%   0.689 MM09                                                
  648.805  55%   1.507-Lip20                                               
    0.000 999%   0.000 MM20                                                
  114.795 136%   0.267 MM12                                                
 4.36E+03   7%  10.122+MM14                                                
 1.45E+03  24%   3.370+MM17                                                
 1.46E+04  13%  33.944 Lip13a+Lip13b                                       
 1.91E+04  10%  44.332 MM14+Lip13a+Lip13b+MM12                             
 2.90E+03  20%   6.726 MM09+Lip09                                          
  648.805  55%   1.507 MM20+Lip20                                          
   6 lines in following misc. output table
  FWHM = 0.214 ppm    S/N =   8                                            
  Data shift = 0.206 ppm                                                   
  Ph:  57 deg     -19.8 deg/ppm                                            
  alphaB,S = 8.0E-01,   2.0E+02                                            
    8 spline knots.   Ns = 9(2)                                            
  (13) 7 infls.   (11) 3 extrs.                                            
  498 points on ppm-axis = NY
      4.000000     3.992357     3.984714     3.977070     3.969427     3.961784     3.954141     3.946497     3.938854     3.931211
      3.923568     3.915925     3.908281     3.900638     3.892995     3.885352     3.877708     3.870065     3.862422     3.854779
      3.847136     3.839492     3.831849     3.824206     3.816563     3.808919     3.801276     3.793633     3.785990     3.778347
      3.770703     3.763060     3.755417     3.747774     3.740130     3.732487     3.724844     3.717201     3.709558     3.701914
      3.694271     3.686628     3.678985     3.671341     3.663698     3.656055     3.648412     3.640769     3.633125     3.625482
      3.617839     3.610196     3.602552     3.594909     3.587266     3.579623     3.571980     3.564336     3.556693     3.549050
      3.541407     3.533763     3.526120     3.518477     3.510834     3.503191     3.495547     3.487904     3.480261     3.472618
      3.464974     3.457331     3.449688     3.442045     3.434402     3.426758     3.419115     3.411472     3.403829     3.396185
      3.388542     3.380899     3.373256     3.365613     3.357969     3.350326     3.342683     3.335040     3.327396     3.319753
      3.312110     3.304467     3.296824     3.289180     3.281537     3.273894     3.266251     3.258607     3.250964     3.243321
      3.235678     3.228034     3.220391     3.212748     3.205105     3.197462     3.189818     3.182175     3.174532     3.166889
      3.159245     3.151602     3.143959     3.136316     3.128673     3.121029     3.113386     3.105743     3.098100     3.090456
      3.082813     3.075170     3.067527     3.059884     3.052240     3.044597     3.036954     3.029311     3.021667     3.014024
      3.006381     2.998738     2.991095     2.983451     2.975808     2.968165     2.960522     2.952878     2.945235     2.937592
      2.929949     2.922306     2.914662     2.907019     2.899376     2.891733     2.884089     2.876446     2.868803     2.861160
      2.853517     2.845873     2.838230     2.830587     2.822944     2.815300     2.807657     2.800014     2.792371     2.784728
      2.777084     2.769441     2.761798     2.754155     2.746511     2.738868     2.731225     2.723582     2.715939     2.708295
      2.700652     2.693009     2.685366     2.677722     2.670079     2.662436     2.654793     2.647150     2.639506     2.631863
      2.624220     2.616577     2.608933     2.601290     2.593647     2.586004     2.578361     2.570717     2.563074     2.555431
      2.547788     2.540144     2.532501     2.524858     2.517215     2.509572     2.501928     2.494285     2.486642     2.478999
      2.471355     2.463712     2.456069     2.448426     2.440783     2.433139     2.425496     2.417853     2.410210     2.402566
      2.394923     2.387280     2.379637     2.371994     2.364350     2.356707     2.349064     2.341421     2.333777     2.326134
      2.318491     2.310848     2.303205     2.295561     2.287918     2.280275     2.272632     2.264988     2.257345     2.249702
      2.242059     2.234416     2.226772     2.219129     2.211486     2.203843     2.196199     2.188556     2.180913     2.173270
      2.165627     2.157983     2.150340     2.142697     2.135054     2.127410     2.119767     2.112124     2.104481     2.096838
      2.089194     2.081551     2.073908     2.066265     2.058621     2.050978     2.043335     2.035692     2.028049     2.020405
      2.012762     2.005119     1.997476     1.989833     1.982190     1.974546     1.966903     1.959260     1.951617     1.943974
      1.936331     1.928688     1.921045     1.913402     1.905759     1.898115     1.890472     1.882829     1.875186     1.867543
      1.859900     1.852257     1.844614     1.836971     1.829327     1.821684     1.814041     1.806398     1.798755     1.791112
      1.783469     1.775826     1.768183     1.760540     1.752896     1.745253     1.737610     1.729967     1.722324     1.714681
      1.707038     1.699395     1.691752     1.684108     1.676465     1.668822     1.661179     1.653536     1.645893     1.638250
      1.630607     1.622964     1.615321     1.607677     1.600034     1.592391     1.584748     1.577105     1.569462     1.561819
      1.554176     1.546533     1.538890     1.531246     1.523603     1.515960     1.508317     1.500674     1.493031     1.485388
      1.477745     1.470102     1.462458     1.454815     1.447172     1.439529     1.431886     1.424243     1.416600     1.408957
      1.401314     1.393671     1.386027     1.378384     1.370741     1.363098     1.355455     1.347812     1.340169     1.332526
      1.324883     1.317240     1.309596     1.301953     1.294310     1.286667     1.279024     1.271381     1.263738     1.256095
      1.248452     1.240808     1.233165     1.225522     1.217879     1.210236     1.202593     1.194950     1.187307     1.179664
      1.172021     1.164377     1.156734     1.149091     1.141448     1.133805     1.126162     1.118519     1.110876     1.103233
      1.095590     1.087946     1.080303     1.072660     1.065017     1.057374     1.049731     1.042088     1.034445     1.026802
      1.019158     1.011515     1.003872     0.996229     0.988586     0.980943     0.973300     0.965657     0.958014     0.950371
      0.942727     0.935084     0.927441     0.919798     0.912155     0.904512     0.896869     0.889226     0.881583     0.873940
      0.866296     0.858653     0.851010     0.843367     0.835724     0.828081     0.820438     0.812795     0.805152     0.797508
      0.789865     0.782222     0.774579     0.766936     0.759293     0.751650     0.744007     0.736364     0.728721     0.721077
      0.713434     0.705791     0.698148     0.690505     0.682862     0.675219     0.667576     0.659933     0.652290     0.644646
      0.637003     0.629360     0.621717     0.614074     0.606431     0.598788     0.591145     0.583502     0.575858     0.568215
      0.560572     0.552929     0.545286     0.537643     0.530000     0.522357     0.514714     0.507071     0.499427     0.491784
      0.484141     0.476498     0.468855     0.461212     0.453569     0.445925     0.438282     0.430639     0.422996     0.415353
      0.407710     0.400067     0.392424     0.384780     0.377137     0.369494     0.361851     0.354208     0.346565     0.338922
      0.331278     0.323635     0.315992     0.308349     0.300706     0.293063     0.285420     0.277777     0.270133     0.262490
      0.254847     0.247204     0.239561     0.231918     0.224275     0.216631     0.208988     0.201345
 NY phased data points follow
   2.24717E+01  2.04757E+01  2.22322E+01  2.19301E+01  2.04571E+01  2.00885E+01  2.02751E+01  1.56546E+01  2.16016E+01  2.17009E+01
   1.74497E+01  2.07483E+01  2.35022E+01  2.02349E+01  1.87520E+01  1.80894E+01  2.23233E+01  2.03237E+01  2.04932E+01  2.17274E+01
   1.89449E+01  1.45821E+01  1.78448E+01  1.97916E+01  1.60497E+01  1.72260E+01  1.65927E+01  1.57695E+01  1.98760E+01  1.89680E+01
   1.79371E+01  1.66793E+01  1.82932E+01  1.62306E+01  1.76903E+01  1.79432E+01  1.92615E+01  1.78472E+01  1.65818E+01  1.82343E+01
   1.56693E+01  1.81132E+01  1.96814E+01  1.38758E+01  1.50231E+01  1.27622E+01  1.48325E+01  9.38112E+00  1.20049E+01  1.12986E+01
   9.83021E+00  1.47848E+01  1.28597E+01  1.49123E+01  1.39212E+01  1.20646E+01  1.25847E+01  1.00749E+01  1.31848E+01  8.57160E+00
   1.13404E+01  1.16790E+01  4.77224E+00  1.37524E+01  1.36970E+01  8.49112E+00  9.26826E+00  7.33309E+00  1.20949E+01  8.46334E+00
   1.19696E+01  1.38886E+01  1.14122E+01  8.30975E+00  7.80417E+00 -6.17512E-01  4.04147E+00  1.68273E+00  4.77450E+00  4.89987E+00
   3.88807E+00  4.41279E+00  6.72495E+00  7.20123E+00  9.70896E+00  1.10161E+01  8.31053E+00  8.63911E+00  9.82910E+00  1.11460E+01
   8.58103E+00  9.60816E+00  8.32344E+00  1.14377E+01  1.16097E+01  7.79443E+00  9.03345E+00  8.46654E+00  9.24070E+00  5.47057E-01
   1.29779E+00  4.89440E+00  4.05527E+00  1.87229E+00  6.28406E+00  3.70085E+00  9.02886E+00  5.93697E+00  8.80306E+00  1.13665E+01
   8.55591E+00  8.97643E+00  9.27047E+00  9.46642E+00  8.82544E+00  1.21714E+01  6.29974E+00  1.10097E+01  1.10512E+01  8.46733E+00
   7.03293E+00  1.17937E+01  4.42005E+00  4.24757E+00  6.25668E+00  5.63447E+00  5.86299E+00  9.04985E+00  3.11946E+00  7.51199E+00
   4.28265E+00  4.70868E+00  4.88466E+00  5.01201E+00  1.30055E+00  5.45020E+00  4.34106E+00  3.91158E+00 -9.61950E-01  3.90465E+00
   5.76048E+00  1.31353E+00 -9.08208E-01  5.37825E+00  2.02044E+00  4.17370E+00 -5.26964E-01  6.91695E+00  3.78785E+00  5.21872E+00
   4.93820E+00 -6.28448E-02 -5.83507E-01  1.91071E+00 -4.89614E-01  6.63642E-01 -4.95230E+00  1.31287E-01 -3.98687E+00 -1.97931E+00
   1.32911E+00 -1.19715E+00 -6.53837E+00  1.90027E+00 -1.22798E+00 -8.38557E+00 -4.09933E+00 -2.98179E+00 -4.78474E+00 -6.26122E+00
  -5.26358E+00 -4.92685E+00 -3.65518E+00 -3.34796E+00 -3.87651E+00 -4.51706E+00 -3.87154E+00 -3.12069E+00 -6.25852E+00 -6.87875E+00
  -8.34735E+00 -3.83847E+00 -5.33479E+00 -4.77206E+00 -3.91268E+00 -3.60957E+00 -3.93861E+00 -5.59626E+00 -3.97297E+00 -1.14695E+01
  -6.94707E+00 -8.14670E+00 -5.16746E+00 -9.88824E+00 -8.17654E+00 -7.87855E+00 -7.93476E+00 -6.39686E+00 -6.65409E+00 -8.04289E+00
  -9.92655E+00 -9.61598E+00 -1.06221E+01 -9.76980E+00 -9.09879E+00 -8.83847E+00 -1.28362E+01 -1.12847E+01 -1.10961E+01 -1.06068E+01
  -9.37704E+00 -1.46722E+01 -1.03140E+01 -1.09816E+01 -1.09539E+01 -1.25616E+01 -1.05832E+01 -9.20372E+00 -1.09525E+01 -1.02854E+01
  -1.24582E+01 -1.21134E+01 -1.46939E+01 -1.21804E+01 -1.31121E+01 -1.25736E+01 -1.38213E+01 -1.30406E+01 -1.19612E+01 -9.49715E+00
  -8.94190E+00 -1.43033E+01 -1.62955E+01 -2.14173E+01 -2.04852E+01 -1.96067E+01 -1.58028E+01 -1.41479E+01 -1.40340E+01 -1.34713E+01
  -1.10234E+01 -1.01332E+01 -7.14755E+00 -8.03914E+00 -6.00263E+00 -1.13670E+00 -1.23187E+00 -2.68275E+00 -4.09654E+00 -4.25788E+00
  -6.95981E+00 -3.14868E+00 -2.13417E+00 -7.96747E-01  2.44257E-02 -2.42300E+00 -2.79985E+00 -5.56297E+00 -2.78020E+00 -5.90638E-01
  -2.03942E-01 -1.43160E+00  2.98883E+00 -1.80898E+00 -4.19293E+00 -9.11787E-01 -2.18732E-01 -2.43514E+00  2.22278E-01  5.47132E+00
   5.26024E+00  1.84277E+00  3.82185E+00  4.67104E+00  2.82208E+00  7.51377E+00  8.00417E+00  7.44690E+00  6.88454E+00  5.55125E+00
   9.10417E+00  7.39620E+00  8.94799E+00  1.01067E+01  9.22329E+00  7.80253E+00  1.01532E+01  1.28997E+01  1.03099E+01  6.63597E+00
   1.20159E+01  1.29600E+01  6.41877E+00  1.23256E+01  1.07253E+01  1.23888E+01  1.09746E+01  1.44153E+01  1.55477E+01  1.82356E+01
   1.74383E+01  1.77770E+01  2.34564E+01  2.09979E+01  2.24880E+01  2.25540E+01  1.95751E+01  2.18357E+01  2.26570E+01  2.50451E+01
   2.65315E+01  2.80748E+01  2.66889E+01  3.11081E+01  3.46795E+01  3.87058E+01  3.89020E+01  4.10801E+01  4.06901E+01  4.59372E+01
   4.79797E+01  4.94786E+01  5.50482E+01  5.38399E+01  6.18242E+01  5.99189E+01  6.02325E+01  6.15680E+01  6.12776E+01  6.35781E+01
   6.39114E+01  6.00967E+01  6.37700E+01  6.70282E+01  6.29279E+01  6.59628E+01  6.34476E+01  6.56633E+01  6.12324E+01  6.34827E+01
   6.42903E+01  5.80014E+01  5.50688E+01  5.59927E+01  5.79633E+01  5.68253E+01  5.63262E+01  5.29798E+01  5.89592E+01  5.37101E+01
   5.42868E+01  5.39494E+01  5.30972E+01  5.23080E+01  5.34118E+01  5.26037E+01  5.40432E+01  5.72431E+01  5.23924E+01  5.48344E+01
   5.26716E+01  5.38072E+01  5.62989E+01  5.40425E+01  5.15893E+01  5.14874E+01  4.86705E+01  4.83709E+01  4.94947E+01  4.83732E+01
   4.98533E+01  4.79251E+01  4.48476E+01  4.59673E+01  4.72027E+01  4.60476E+01  4.24875E+01  4.56614E+01  4.40587E+01  4.35958E+01
   4.23138E+01  4.65044E+01  4.71690E+01  4.47815E+01  3.84130E+01  4.54677E+01  4.39758E+01  4.48392E+01  4.33510E+01  4.28593E+01
   4.55753E+01  3.98266E+01  4.16878E+01  4.23487E+01  4.00618E+01  4.25716E+01  4.05166E+01  4.22360E+01  4.41616E+01  4.45388E+01
   3.95892E+01  4.06571E+01  4.09170E+01  3.94722E+01  3.89230E+01  4.01945E+01  3.43823E+01  3.69917E+01  3.99601E+01  3.49692E+01
   3.86929E+01  3.81076E+01  3.62548E+01  3.39002E+01  3.29213E+01  3.66293E+01  3.11698E+01  3.84392E+01  3.18893E+01  3.01120E+01
   3.17434E+01  3.17186E+01  2.66955E+01  3.17340E+01  2.90691E+01  2.93502E+01  2.40879E+01  3.00034E+01  3.00418E+01  2.78685E+01
   2.75127E+01  2.64141E+01  2.50443E+01  2.84981E+01  2.77554E+01  2.78649E+01  2.52627E+01  2.73219E+01  2.65205E+01  2.88073E+01
   2.83912E+01  2.76290E+01  2.76475E+01  2.60493E+01  2.37159E+01  2.26580E+01  2.58965E+01  2.45373E+01  2.67450E+01  2.19902E+01
   2.51242E+01  2.32386E+01  2.31069E+01  2.37921E+01  2.38283E+01  1.93401E+01  2.25493E+01  2.47687E+01  2.09467E+01  2.00879E+01
   2.44224E+01  1.73443E+01  1.99621E+01  2.04309E+01  1.87528E+01  2.05583E+01  2.48002E+01  2.03561E+01  1.87299E+01  1.93102E+01
   1.89441E+01  2.33057E+01  1.96975E+01  2.08398E+01  1.77961E+01  1.75679E+01  2.04002E+01  2.27489E+01  1.98788E+01  2.22957E+01
   1.90911E+01  1.87111E+01  1.97980E+01  1.87602E+01  1.74893E+01  1.85215E+01  1.99558E+01  1.72004E+01  2.37377E+01  1.81397E+01
   1.96426E+01  1.50514E+01  1.75578E+01  1.74467E+01  1.55586E+01  2.10851E+01  1.82322E+01  1.73001E+01
 NY points of the fit to the data follow
   1.95564E+01  1.98173E+01  1.93271E+01  1.96408E+01  1.92039E+01  1.96163E+01  1.92443E+01  1.98038E+01  1.95731E+01  2.00764E+01
   1.93178E+01  1.96968E+01  1.86377E+01  1.91606E+01  1.83325E+01  1.94363E+01  1.88875E+01  2.01945E+01  1.92645E+01  2.04117E+01
   1.89189E+01  1.99402E+01  1.86405E+01  1.96922E+01  1.84686E+01  1.93582E+01  1.79871E+01  1.86348E+01  1.72911E+01  1.79486E+01
   1.69637E+01  1.79529E+01  1.71701E+01  1.81389E+01  1.72508E+01  1.79868E+01  1.68432E+01  1.73316E+01  1.61084E+01  1.64911E+01
   1.54676E+01  1.58750E+01  1.52343E+01  1.55861E+01  1.52525E+01  1.53766E+01  1.52910E+01  1.50882E+01  1.51711E+01  1.44334E+01
   1.39641E+01  1.28772E+01  1.24444E+01  1.15685E+01  1.17330E+01  1.15925E+01  1.21872E+01  1.21647E+01  1.22250E+01  1.19511E+01
   1.14120E+01  1.09899E+01  1.06702E+01  1.04189E+01  1.02118E+01  1.00406E+01  9.89014E+00  9.76661E+00  9.65625E+00  9.56358E+00
   9.47405E+00  9.39860E+00  9.32192E+00  9.25263E+00  9.18565E+00  9.11529E+00  9.04920E+00  8.97662E+00  8.91015E+00  8.83445E+00
   8.76939E+00  8.69435E+00  8.63087E+00  8.55830E+00  8.50993E+00  8.49648E+00  8.50013E+00  8.46833E+00  8.48812E+00  8.42119E+00
   8.44468E+00  8.35616E+00  8.38684E+00  8.27385E+00  8.30886E+00  8.16687E+00  8.19988E+00  8.03069E+00  8.05788E+00  7.86738E+00
   7.88694E+00  7.67826E+00  7.69121E+00  7.45921E+00  7.46659E+00  7.21230E+00  7.22033E+00  6.98470E+00  7.17269E+00  7.26260E+00
   7.36443E+00  7.56874E+00  7.52310E+00  7.76796E+00  7.60667E+00  7.91089E+00  7.60465E+00  7.94823E+00  7.46950E+00  7.83553E+00
   7.18293E+00  7.56711E+00  6.80481E+00  7.28923E+00  6.47664E+00  7.14135E+00  6.29975E+00  6.98744E+00  6.05973E+00  6.71155E+00
   5.72342E+00  6.32777E+00  5.32864E+00  5.91795E+00  4.93217E+00  5.52763E+00  4.51134E+00  5.04326E+00  3.95148E+00  4.30214E+00
   3.14203E+00  3.20726E+00  2.06280E+00  1.82229E+00  8.08506E-01  3.14477E-01 -4.20112E-01 -9.67791E-01 -1.24241E+00 -1.46122E+00
  -1.67212E+00 -1.87127E+00 -2.07523E+00 -2.27188E+00 -2.47855E+00 -2.67862E+00 -2.89045E+00 -3.09400E+00 -3.31071E+00 -3.52016E+00
  -3.74308E+00 -3.95735E+00 -4.18659E+00 -4.40552E+00 -4.63821E+00 -4.85819E+00 -5.08902E+00 -5.30679E+00 -5.53554E+00 -5.75258E+00
  -5.97462E+00 -6.18569E+00 -6.39773E+00 -6.60128E+00 -6.80148E+00 -6.99486E+00 -7.17830E+00 -7.35843E+00 -7.52288E+00 -7.68357E+00
  -7.81881E+00 -7.94990E+00 -8.06028E+00 -8.15964E+00 -8.23492E+00 -8.28426E+00 -8.29306E+00 -8.24339E+00 -8.14533E+00 -8.18094E+00
  -8.10043E+00 -8.18595E+00 -8.46683E+00 -8.54340E+00 -9.01161E+00 -8.88853E+00 -9.09364E+00 -8.34578E+00 -7.49115E+00 -6.76097E+00
  -5.97048E+00 -5.63779E+00 -5.22327E+00 -5.58620E+00 -6.01086E+00 -7.14552E+00 -7.41477E+00 -8.37625E+00 -8.56133E+00 -9.28695E+00
  -9.55571E+00 -1.00822E+01 -1.01398E+01 -1.05212E+01 -1.03283E+01 -1.05784E+01 -1.03344E+01 -1.05810E+01 -1.06638E+01 -1.10021E+01
  -1.13669E+01 -1.15537E+01 -1.18340E+01 -1.17383E+01 -1.14884E+01 -1.13548E+01 -1.05508E+01 -1.05415E+01 -9.82124E+00 -1.06067E+01
  -1.05771E+01 -1.18754E+01 -1.28204E+01 -1.39640E+01 -1.47815E+01 -1.45219E+01 -1.38457E+01 -1.18158E+01 -9.13198E+00 -6.98958E+00
  -4.61412E+00 -3.38038E+00 -1.83166E+00 -2.00704E+00 -1.84496E+00 -3.09122E+00 -2.68284E+00 -3.68619E+00 -3.22890E+00 -3.84285E+00
  -3.26578E+00 -3.63596E+00 -2.93148E+00 -3.25845E+00 -2.61230E+00 -2.67663E+00 -2.04185E+00 -1.71838E+00 -1.25318E+00 -5.26358E-01
  -4.56853E-01  6.07437E-01  6.66258E-02  1.20823E+00  3.21687E-01  1.46564E+00  6.74222E-01  2.13282E+00  1.52321E+00  3.00358E+00
   2.64040E+00  3.94785E+00  3.50747E+00  4.39278E+00  4.01261E+00  4.82518E+00  4.62096E+00  5.30026E+00  5.09396E+00  5.57052E+00
   5.14936E+00  5.52916E+00  5.36728E+00  5.90179E+00  6.08696E+00  6.70175E+00  7.26970E+00  7.81456E+00  8.46332E+00  9.04975E+00
   9.73285E+00  1.02888E+01  1.09590E+01  1.14910E+01  1.21418E+01  1.27705E+01  1.35453E+01  1.42894E+01  1.51235E+01  1.59367E+01
   1.67896E+01  1.76359E+01  1.84705E+01  1.93165E+01  2.01776E+01  2.10727E+01  2.20123E+01  2.30252E+01  2.41424E+01  2.54144E+01
   2.66770E+01  2.80952E+01  2.95821E+01  3.12197E+01  3.29967E+01  3.49016E+01  3.69419E+01  3.91812E+01  4.16019E+01  4.40182E+01
   4.66438E+01  4.90462E+01  5.16720E+01  5.39050E+01  5.63380E+01  5.82031E+01  6.02469E+01  6.15579E+01  6.30873E+01  6.37873E+01
   6.46600E+01  6.46438E+01  6.49219E+01  6.43157E+01  6.41473E+01  6.31071E+01  6.26262E+01  6.14027E+01  6.08144E+01  5.95044E+01
   5.89410E+01  5.76893E+01  5.73045E+01  5.63079E+01  5.62189E+01  5.55569E+01  5.57729E+01  5.54380E+01  5.58656E+01  5.57856E+01
   5.61287E+01  5.59823E+01  5.61471E+01  5.59336E+01  5.58503E+01  5.55513E+01  5.52057E+01  5.48987E+01  5.45164E+01  5.40828E+01
   5.35900E+01  5.30296E+01  5.24578E+01  5.18438E+01  5.12506E+01  5.06456E+01  5.00835E+01  4.95386E+01  4.90335E+01  4.85692E+01
   4.80207E+01  4.74495E+01  4.68772E+01  4.62422E+01  4.56714E+01  4.50389E+01  4.45161E+01  4.40764E+01  4.36988E+01  4.33789E+01
   4.31108E+01  4.28940E+01  4.27232E+01  4.25977E+01  4.25116E+01  4.24630E+01  4.24448E+01  4.24541E+01  4.24829E+01  4.25273E+01
   4.25786E+01  4.26321E+01  4.26787E+01  4.27136E+01  4.27279E+01  4.27172E+01  4.26734E+01  4.25931E+01  4.24696E+01  4.23015E+01
   4.20842E+01  4.18184E+01  4.15019E+01  4.11379E+01  4.07264E+01  4.02730E+01  3.97795E+01  3.92531E+01  3.86972E+01  3.81199E+01
   3.75250E+01  3.69207E+01  3.63107E+01  3.57025E+01  3.50989E+01  3.45063E+01  3.39261E+01  3.33636E+01  3.28188E+01  3.22955E+01
   3.17927E+01  3.13129E+01  3.08540E+01  3.04180E+01  3.00021E+01  2.96077E+01  2.92314E+01  2.88746E+01  2.85337E+01  2.82099E+01
   2.78998E+01  2.76046E+01  2.73208E+01  2.70498E+01  2.67883E+01  2.65377E+01  2.62950E+01  2.60616E+01  2.58347E+01  2.56159E+01
   2.54023E+01  2.51957E+01  2.49934E+01  2.47973E+01  2.46046E+01  2.44173E+01  2.42328E+01  2.40532E+01  2.38759E+01  2.37029E+01
   2.35318E+01  2.33646E+01  2.31990E+01  2.30370E+01  2.28763E+01  2.27190E+01  2.25628E+01  2.24098E+01  2.22577E+01  2.21086E+01
   2.19603E+01  2.18150E+01  2.16704E+01  2.15286E+01  2.13875E+01  2.12492E+01  2.11115E+01  2.09766E+01  2.08422E+01  2.07107E+01
   2.05798E+01  2.04517E+01  2.03242E+01  2.01995E+01  2.00755E+01  1.99543E+01  1.98339E+01  1.97163E+01  1.95995E+01  1.94858E+01
   1.93728E+01  1.92629E+01  1.91539E+01  1.90480E+01  1.89431E+01  1.88415E+01  1.87409E+01  1.86436E+01  1.85475E+01  1.84549E+01
   1.83635E+01  1.82757E+01  1.81893E+01  1.81066E+01  1.80254E+01  1.79481E+01  1.78725E+01  1.78010E+01
 NY background values follow
     1.751E+01    1.720E+01    1.690E+01    1.661E+01    1.633E+01    1.606E+01    1.579E+01    1.553E+01    1.528E+01    1.504E+01
     1.480E+01    1.457E+01    1.435E+01    1.414E+01    1.393E+01    1.373E+01    1.353E+01    1.334E+01    1.316E+01    1.299E+01
     1.282E+01    1.265E+01    1.249E+01    1.234E+01    1.219E+01    1.205E+01    1.192E+01    1.179E+01    1.166E+01    1.154E+01
     1.142E+01    1.131E+01    1.120E+01    1.110E+01    1.100E+01    1.090E+01    1.081E+01    1.072E+01    1.064E+01    1.056E+01
     1.048E+01    1.041E+01    1.034E+01    1.027E+01    1.021E+01    1.015E+01    1.009E+01    1.003E+01    9.977E+00    9.925E+00
     9.876E+00    9.828E+00    9.782E+00    9.738E+00    9.695E+00    9.654E+00    9.614E+00    9.575E+00    9.538E+00    9.501E+00
     9.465E+00    9.430E+00    9.395E+00    9.361E+00    9.327E+00    9.293E+00    9.259E+00    9.226E+00    9.191E+00    9.157E+00
     9.122E+00    9.086E+00    9.050E+00    9.012E+00    8.974E+00    8.935E+00    8.894E+00    8.852E+00    8.808E+00    8.762E+00
     8.715E+00    8.666E+00    8.615E+00    8.561E+00    8.505E+00    8.447E+00    8.386E+00    8.323E+00    8.256E+00    8.187E+00
     8.114E+00    8.038E+00    7.959E+00    7.877E+00    7.790E+00    7.700E+00    7.606E+00    7.508E+00    7.406E+00    7.299E+00
     7.189E+00    7.073E+00    6.954E+00    6.830E+00    6.702E+00    6.570E+00    6.434E+00    6.294E+00    6.150E+00    6.003E+00
     5.852E+00    5.698E+00    5.540E+00    5.379E+00    5.215E+00    5.048E+00    4.877E+00    4.704E+00    4.528E+00    4.350E+00
     4.169E+00    3.985E+00    3.799E+00    3.610E+00    3.419E+00    3.226E+00    3.031E+00    2.834E+00    2.636E+00    2.435E+00
     2.233E+00    2.029E+00    1.824E+00    1.617E+00    1.409E+00    1.200E+00    9.902E-01    7.790E-01    5.669E-01    3.541E-01
     1.404E-01   -7.379E-02   -2.885E-01   -5.037E-01   -7.193E-01   -9.350E-01   -1.151E+00   -1.367E+00   -1.583E+00   -1.799E+00
    -2.014E+00   -2.229E+00   -2.444E+00   -2.658E+00   -2.872E+00   -3.085E+00   -3.297E+00   -3.508E+00   -3.718E+00   -3.928E+00
    -4.136E+00   -4.342E+00   -4.548E+00   -4.751E+00   -4.954E+00   -5.154E+00   -5.353E+00   -5.550E+00   -5.745E+00   -5.938E+00
    -6.129E+00   -6.318E+00   -6.504E+00   -6.688E+00   -6.869E+00   -7.048E+00   -7.224E+00   -7.397E+00   -7.568E+00   -7.735E+00
    -7.900E+00   -8.061E+00   -8.219E+00   -8.373E+00   -8.524E+00   -8.671E+00   -8.815E+00   -8.955E+00   -9.092E+00   -9.224E+00
    -9.352E+00   -9.476E+00   -9.596E+00   -9.712E+00   -9.823E+00   -9.929E+00   -1.003E+01   -1.013E+01   -1.022E+01   -1.031E+01
    -1.039E+01   -1.047E+01   -1.054E+01   -1.061E+01   -1.067E+01   -1.073E+01   -1.079E+01   -1.083E+01   -1.088E+01   -1.092E+01
    -1.095E+01   -1.098E+01   -1.101E+01   -1.103E+01   -1.105E+01   -1.106E+01   -1.107E+01   -1.107E+01   -1.107E+01   -1.107E+01
    -1.106E+01   -1.104E+01   -1.102E+01   -1.100E+01   -1.098E+01   -1.095E+01   -1.091E+01   -1.087E+01   -1.083E+01   -1.079E+01
    -1.074E+01   -1.068E+01   -1.062E+01   -1.056E+01   -1.050E+01   -1.043E+01   -1.035E+01   -1.028E+01   -1.020E+01   -1.011E+01
    -1.002E+01   -9.934E+00   -9.839E+00   -9.741E+00   -9.639E+00   -9.534E+00   -9.426E+00   -9.314E+00   -9.199E+00   -9.080E+00
    -8.959E+00   -8.834E+00   -8.706E+00   -8.575E+00   -8.440E+00   -8.303E+00   -8.163E+00   -8.019E+00   -7.873E+00   -7.724E+00
    -7.571E+00   -7.416E+00   -7.258E+00   -7.098E+00   -6.934E+00   -6.768E+00   -6.599E+00   -6.427E+00   -6.253E+00   -6.076E+00
    -5.897E+00   -5.715E+00   -5.531E+00   -5.344E+00   -5.155E+00   -4.963E+00   -4.769E+00   -4.573E+00   -4.374E+00   -4.173E+00
    -3.970E+00   -3.765E+00   -3.557E+00   -3.348E+00   -3.136E+00   -2.922E+00   -2.707E+00   -2.489E+00   -2.270E+00   -2.048E+00
    -1.825E+00   -1.599E+00   -1.372E+00   -1.144E+00   -9.130E-01   -6.807E-01   -4.468E-01   -2.112E-01    2.592E-02    2.646E-01
     5.049E-01    7.466E-01    9.896E-01    1.234E+00    1.480E+00    1.726E+00    1.974E+00    2.223E+00    2.473E+00    2.724E+00
     2.976E+00    3.229E+00    3.482E+00    3.736E+00    3.991E+00    4.246E+00    4.502E+00    4.758E+00    5.014E+00    5.271E+00
     5.528E+00    5.785E+00    6.042E+00    6.299E+00    6.556E+00    6.813E+00    7.070E+00    7.327E+00    7.583E+00    7.840E+00
     8.095E+00    8.350E+00    8.605E+00    8.859E+00    9.112E+00    9.365E+00    9.617E+00    9.868E+00    1.012E+01    1.037E+01
     1.061E+01    1.086E+01    1.111E+01    1.135E+01    1.159E+01    1.184E+01    1.208E+01    1.231E+01    1.255E+01    1.279E+01
     1.302E+01    1.325E+01    1.348E+01    1.371E+01    1.394E+01    1.416E+01    1.438E+01    1.460E+01    1.482E+01    1.504E+01
     1.525E+01    1.546E+01    1.567E+01    1.588E+01    1.608E+01    1.628E+01    1.648E+01    1.667E+01    1.687E+01    1.705E+01
     1.724E+01    1.742E+01    1.760E+01    1.778E+01    1.795E+01    1.813E+01    1.829E+01    1.846E+01    1.862E+01    1.877E+01
     1.893E+01    1.907E+01    1.922E+01    1.936E+01    1.950E+01    1.963E+01    1.976E+01    1.989E+01    2.001E+01    2.013E+01
     2.024E+01    2.035E+01    2.045E+01    2.055E+01    2.065E+01    2.074E+01    2.083E+01    2.091E+01    2.098E+01    2.105E+01
     2.112E+01    2.118E+01    2.124E+01    2.130E+01    2.134E+01    2.139E+01    2.143E+01    2.146E+01    2.150E+01    2.152E+01
     2.155E+01    2.157E+01    2.158E+01    2.160E+01    2.160E+01    2.161E+01    2.161E+01    2.161E+01    2.160E+01    2.159E+01
     2.158E+01    2.156E+01    2.155E+01    2.152E+01    2.150E+01    2.147E+01    2.144E+01    2.141E+01    2.137E+01    2.133E+01
     2.129E+01    2.125E+01    2.120E+01    2.115E+01    2.110E+01    2.105E+01    2.099E+01    2.093E+01    2.087E+01    2.081E+01
     2.075E+01    2.068E+01    2.062E+01    2.055E+01    2.048E+01    2.041E+01    2.033E+01    2.026E+01    2.018E+01    2.011E+01
     2.003E+01    1.995E+01    1.987E+01    1.979E+01    1.970E+01    1.962E+01    1.954E+01    1.945E+01    1.937E+01    1.928E+01
     1.920E+01    1.911E+01    1.902E+01    1.894E+01    1.885E+01    1.876E+01    1.868E+01    1.859E+01    1.850E+01    1.842E+01
     1.833E+01    1.824E+01    1.816E+01    1.807E+01    1.799E+01    1.790E+01    1.782E+01    1.774E+01    1.766E+01    1.757E+01
     1.749E+01    1.742E+01    1.734E+01    1.726E+01    1.719E+01    1.711E+01    1.704E+01    1.697E+01    1.690E+01    1.683E+01
     1.677E+01    1.670E+01    1.664E+01    1.658E+01    1.652E+01    1.646E+01    1.641E+01    1.636E+01
 Ala      Conc. = 4.25E+02
