 LCModel (Version 6.3-1L) Copyright: S.W. Provencher.          Ref.: Magn. Reson. Med. 30:672-679 (1993).                
 Slice#3 Row#4 Col#12  PD_24_press_1_raw_act
 36 lines in following concentration table = NCONC+1
    Conc.  %SD /Cr+PCr  Metabolite                                         
 2.51E+03  34%   0.000 Ala                                                 
   44.325  96%   0.000 Asp                                                 
    0.000 999%   0.000 Cr                                                  
    0.000 999%   0.000 PCr                                                 
   33.811  76%   0.000 GABA                                                
   35.903  71%   0.000 Glc                                                 
 2.73E+03  32%   0.000 Gln                                                 
    0.000 999%   0.000 Glu                                                 
    0.000 999%   0.000 GPC                                                 
   11.847 186%   0.000 PCh                                                 
    0.000 999%   0.000 GSH                                                 
  870.649  36%   0.000 Ins                                                 
    0.000 999%   0.000 Lac                                                 
 1.10E+03  26%   0.000 NAA                                                 
    0.000 999%   0.000 NAAG                                                
   17.754  48%   0.000 Scyllo                                              
   72.164  59%   0.000 Tau                                                 
    0.000 999%   0.000 -CrCH2                                              
   11.847 186%   0.000 GPC+PCh                                             
 1.10E+03  26%   0.000 NAA+NAAG                                            
    0.000 999%   0.000 Cr+PCr                                              
 2.73E+03  32%   0.000 Glu+Gln                                             
 2.00E+05  10%   0.000 Lip13a                                              
 3.86E+03  23%   0.000 Lip13b                                              
 4.82E+04  16%   0.000 Lip09                                               
 4.10E+04  11%   0.000 MM09                                                
 1.71E+04  15%   0.000 Lip20                                               
 3.42E+04  10%   0.000 MM20                                                
 2.48E+04  17%   0.000 MM12                                                
 2.23E+05   5%   0.000+MM14                                                
 8.53E+04   9%   0.000+MM17                                                
 2.04E+05  10%   0.000 Lip13a+Lip13b                                       
 4.52E+05   3%   0.000 MM14+Lip13a+Lip13b+MM12                             
 8.92E+04  11%   0.000 MM09+Lip09                                          
 5.14E+04   6%   0.000 MM20+Lip20                                          
   6 lines in following misc. output table
  FWHM = 0.107 ppm    S/N =  93                                            
  Data shift = 0.245 ppm                                                   
  Ph:  51 deg     103.2 deg/ppm                                            
  alphaB,S = 9.5E-01,   3.1E+01                                            
    6 spline knots.   Ns = 9(2)                                            
   3 inflections.     2 extrema                                            
  498 points on ppm-axis = NY
      4.000000     3.992357     3.984714     3.977070     3.969427     3.961784     3.954141     3.946497     3.938854     3.931211
      3.923568     3.915925     3.908281     3.900638     3.892995     3.885352     3.877708     3.870065     3.862422     3.854779
      3.847136     3.839492     3.831849     3.824206     3.816563     3.808919     3.801276     3.793633     3.785990     3.778347
      3.770703     3.763060     3.755417     3.747774     3.740130     3.732487     3.724844     3.717201     3.709558     3.701914
      3.694271     3.686628     3.678985     3.671341     3.663698     3.656055     3.648412     3.640769     3.633125     3.625482
      3.617839     3.610196     3.602552     3.594909     3.587266     3.579623     3.571980     3.564336     3.556693     3.549050
      3.541407     3.533763     3.526120     3.518477     3.510834     3.503191     3.495547     3.487904     3.480261     3.472618
      3.464974     3.457331     3.449688     3.442045     3.434402     3.426758     3.419115     3.411472     3.403829     3.396185
      3.388542     3.380899     3.373256     3.365613     3.357969     3.350326     3.342683     3.335040     3.327396     3.319753
      3.312110     3.304467     3.296824     3.289180     3.281537     3.273894     3.266251     3.258607     3.250964     3.243321
      3.235678     3.228034     3.220391     3.212748     3.205105     3.197462     3.189818     3.182175     3.174532     3.166889
      3.159245     3.151602     3.143959     3.136316     3.128673     3.121029     3.113386     3.105743     3.098100     3.090456
      3.082813     3.075170     3.067527     3.059884     3.052240     3.044597     3.036954     3.029311     3.021667     3.014024
      3.006381     2.998738     2.991095     2.983451     2.975808     2.968165     2.960522     2.952878     2.945235     2.937592
      2.929949     2.922306     2.914662     2.907019     2.899376     2.891733     2.884089     2.876446     2.868803     2.861160
      2.853517     2.845873     2.838230     2.830587     2.822944     2.815300     2.807657     2.800014     2.792371     2.784728
      2.777084     2.769441     2.761798     2.754155     2.746511     2.738868     2.731225     2.723582     2.715939     2.708295
      2.700652     2.693009     2.685366     2.677722     2.670079     2.662436     2.654793     2.647150     2.639506     2.631863
      2.624220     2.616577     2.608933     2.601290     2.593647     2.586004     2.578361     2.570717     2.563074     2.555431
      2.547788     2.540144     2.532501     2.524858     2.517215     2.509572     2.501928     2.494285     2.486642     2.478999
      2.471355     2.463712     2.456069     2.448426     2.440783     2.433139     2.425496     2.417853     2.410210     2.402566
      2.394923     2.387280     2.379637     2.371994     2.364350     2.356707     2.349064     2.341421     2.333777     2.326134
      2.318491     2.310848     2.303205     2.295561     2.287918     2.280275     2.272632     2.264988     2.257345     2.249702
      2.242059     2.234416     2.226772     2.219129     2.211486     2.203843     2.196199     2.188556     2.180913     2.173270
      2.165627     2.157983     2.150340     2.142697     2.135054     2.127410     2.119767     2.112124     2.104481     2.096838
      2.089194     2.081551     2.073908     2.066265     2.058621     2.050978     2.043335     2.035692     2.028049     2.020405
      2.012762     2.005119     1.997476     1.989833     1.982190     1.974546     1.966903     1.959260     1.951617     1.943974
      1.936331     1.928688     1.921045     1.913402     1.905759     1.898115     1.890472     1.882829     1.875186     1.867543
      1.859900     1.852257     1.844614     1.836971     1.829327     1.821684     1.814041     1.806398     1.798755     1.791112
      1.783469     1.775826     1.768183     1.760540     1.752896     1.745253     1.737610     1.729967     1.722324     1.714681
      1.707038     1.699395     1.691752     1.684108     1.676465     1.668822     1.661179     1.653536     1.645893     1.638250
      1.630607     1.622964     1.615321     1.607677     1.600034     1.592391     1.584748     1.577105     1.569462     1.561819
      1.554176     1.546533     1.538890     1.531246     1.523603     1.515960     1.508317     1.500674     1.493031     1.485388
      1.477745     1.470102     1.462458     1.454815     1.447172     1.439529     1.431886     1.424243     1.416600     1.408957
      1.401314     1.393671     1.386027     1.378384     1.370741     1.363098     1.355455     1.347812     1.340169     1.332526
      1.324883     1.317240     1.309596     1.301953     1.294310     1.286667     1.279024     1.271381     1.263738     1.256095
      1.248452     1.240808     1.233165     1.225522     1.217879     1.210236     1.202593     1.194950     1.187307     1.179664
      1.172021     1.164377     1.156734     1.149091     1.141448     1.133805     1.126162     1.118519     1.110876     1.103233
      1.095590     1.087946     1.080303     1.072660     1.065017     1.057374     1.049731     1.042088     1.034445     1.026802
      1.019158     1.011515     1.003872     0.996229     0.988586     0.980943     0.973300     0.965657     0.958014     0.950371
      0.942727     0.935084     0.927441     0.919798     0.912155     0.904512     0.896869     0.889226     0.881583     0.873940
      0.866296     0.858653     0.851010     0.843367     0.835724     0.828081     0.820438     0.812795     0.805152     0.797508
      0.789865     0.782222     0.774579     0.766936     0.759293     0.751650     0.744007     0.736364     0.728721     0.721077
      0.713434     0.705791     0.698148     0.690505     0.682862     0.675219     0.667576     0.659933     0.652290     0.644646
      0.637003     0.629360     0.621717     0.614074     0.606431     0.598788     0.591145     0.583502     0.575858     0.568215
      0.560572     0.552929     0.545286     0.537643     0.530000     0.522357     0.514714     0.507071     0.499427     0.491784
      0.484141     0.476498     0.468855     0.461212     0.453569     0.445925     0.438282     0.430639     0.422996     0.415353
      0.407710     0.400067     0.392424     0.384780     0.377137     0.369494     0.361851     0.354208     0.346565     0.338922
      0.331278     0.323635     0.315992     0.308349     0.300706     0.293063     0.285420     0.277777     0.270133     0.262490
      0.254847     0.247204     0.239561     0.231918     0.224275     0.216631     0.208988     0.201345
 NY phased data points follow
   7.25254E+01  7.18401E+01  7.26385E+01  6.88249E+01  6.96852E+01  7.26005E+01  7.44199E+01  6.89662E+01  6.98959E+01  7.17515E+01
   7.16480E+01  6.97684E+01  7.23487E+01  6.99074E+01  7.89902E+01  7.52547E+01  7.79090E+01  7.54841E+01  7.63957E+01  7.32616E+01
   7.12410E+01  7.26584E+01  7.12019E+01  7.60489E+01  7.43312E+01  7.62232E+01  7.54643E+01  7.34351E+01  7.74497E+01  7.25619E+01
   7.39716E+01  7.30593E+01  7.54030E+01  7.44883E+01  7.71584E+01  7.34692E+01  7.53094E+01  7.42058E+01  7.99413E+01  7.61487E+01
   7.64688E+01  7.60316E+01  7.81965E+01  7.69776E+01  7.62277E+01  7.76088E+01  7.88714E+01  7.59483E+01  7.48980E+01  7.75498E+01
   7.69072E+01  7.10889E+01  7.53037E+01  7.39794E+01  7.62414E+01  7.48427E+01  7.82803E+01  7.64817E+01  7.50794E+01  7.31033E+01
   7.48467E+01  7.50587E+01  7.13287E+01  7.35038E+01  7.12382E+01  7.18472E+01  7.00275E+01  7.30300E+01  7.43099E+01  7.13318E+01
   7.60199E+01  7.29971E+01  6.97071E+01  6.38177E+01  6.32631E+01  6.50011E+01  6.33554E+01  6.26671E+01  6.13622E+01  6.29697E+01
   6.08085E+01  6.37555E+01  6.43347E+01  5.91051E+01  6.11220E+01  5.91705E+01  5.81138E+01  5.65885E+01  5.42057E+01  5.51349E+01
   5.50325E+01  5.25267E+01  5.47716E+01  5.52395E+01  5.13692E+01  5.08569E+01  4.81713E+01  4.28781E+01  4.51853E+01  3.92134E+01
   4.12787E+01  3.66819E+01  3.87946E+01  4.01252E+01  3.74953E+01  3.75156E+01  3.42855E+01  3.33127E+01  3.49654E+01  3.15302E+01
   2.90540E+01  3.00042E+01  2.65823E+01  2.85282E+01  2.34827E+01  2.28736E+01  2.26611E+01  2.11800E+01  2.00397E+01  1.46450E+01
   1.39471E+01  1.44256E+01  1.20460E+01  1.16451E+01  7.39372E+00  6.51060E+00  4.61459E+00  2.78534E+00 -2.06824E+00 -4.35071E-01
  -1.31729E+00 -3.60420E+00 -6.80061E+00 -7.13701E+00 -9.75394E+00 -8.22101E+00 -1.10908E+01 -1.54291E+01 -1.84066E+01 -1.89344E+01
  -1.82201E+01 -2.38642E+01 -2.43863E+01 -2.58683E+01 -2.94309E+01 -3.14056E+01 -3.03279E+01 -3.57754E+01 -4.05938E+01 -4.42150E+01
  -4.16276E+01 -4.74161E+01 -4.87228E+01 -5.48084E+01 -5.64669E+01 -6.17585E+01 -6.21562E+01 -6.53873E+01 -6.96691E+01 -7.07786E+01
  -7.55984E+01 -7.94354E+01 -8.33983E+01 -8.46111E+01 -8.97847E+01 -9.40983E+01 -9.68538E+01 -1.00497E+02 -1.08567E+02 -1.08289E+02
  -1.15000E+02 -1.19497E+02 -1.24937E+02 -1.26372E+02 -1.34563E+02 -1.39244E+02 -1.46486E+02 -1.48469E+02 -1.53717E+02 -1.60062E+02
  -1.67313E+02 -1.73555E+02 -1.76870E+02 -1.88062E+02 -1.89347E+02 -1.95304E+02 -2.02896E+02 -2.07991E+02 -2.11128E+02 -2.13244E+02
  -2.14028E+02 -2.13878E+02 -2.16201E+02 -2.16395E+02 -2.20973E+02 -2.18546E+02 -2.18762E+02 -2.23495E+02 -2.24251E+02 -2.27849E+02
  -2.28939E+02 -2.30901E+02 -2.33748E+02 -2.35505E+02 -2.43328E+02 -2.43977E+02 -2.49478E+02 -2.51851E+02 -2.56735E+02 -2.58880E+02
  -2.65289E+02 -2.67747E+02 -2.69887E+02 -2.73857E+02 -2.79009E+02 -2.75299E+02 -2.73867E+02 -2.79919E+02 -2.76387E+02 -2.74163E+02
  -2.73781E+02 -2.66383E+02 -2.65825E+02 -2.67027E+02 -2.61937E+02 -2.57417E+02 -2.57941E+02 -2.56234E+02 -2.62161E+02 -2.55734E+02
  -2.53562E+02 -2.46566E+02 -2.44154E+02 -2.42508E+02 -2.45355E+02 -2.44897E+02 -2.45026E+02 -2.45225E+02 -2.48777E+02 -2.50759E+02
  -2.45481E+02 -2.49880E+02 -2.50344E+02 -2.51837E+02 -2.48318E+02 -2.49976E+02 -2.48950E+02 -2.53381E+02 -2.53325E+02 -2.51894E+02
  -2.49522E+02 -2.52128E+02 -2.51985E+02 -2.48255E+02 -2.51320E+02 -2.50148E+02 -2.53134E+02 -2.49703E+02 -2.50057E+02 -2.42950E+02
  -2.45106E+02 -2.43455E+02 -2.43269E+02 -2.40731E+02 -2.38205E+02 -2.33350E+02 -2.31316E+02 -2.34646E+02 -2.29487E+02 -2.26304E+02
  -2.19758E+02 -2.18749E+02 -2.16747E+02 -2.10006E+02 -2.04084E+02 -1.99778E+02 -1.96025E+02 -1.87621E+02 -1.85780E+02 -1.80258E+02
  -1.72731E+02 -1.65950E+02 -1.57469E+02 -1.50996E+02 -1.44501E+02 -1.33689E+02 -1.25581E+02 -1.16152E+02 -1.05848E+02 -9.32735E+01
  -8.23611E+01 -6.48457E+01 -5.56388E+01 -3.49491E+01 -1.78227E+01  2.44626E+00  2.58177E+01  5.29753E+01  7.58686E+01  9.77100E+01
   1.24409E+02  1.54791E+02  1.84218E+02  2.14521E+02  2.51139E+02  2.88190E+02  3.21987E+02  3.60853E+02  4.04842E+02  4.45149E+02
   4.89651E+02  5.30894E+02  5.77735E+02  6.21498E+02  6.57869E+02  6.94241E+02  7.27970E+02  7.49578E+02  7.67593E+02  7.79074E+02
   7.80983E+02  7.81456E+02  7.69037E+02  7.59784E+02  7.43383E+02  7.27110E+02  7.06602E+02  6.84161E+02  6.59095E+02  6.39146E+02
   6.14666E+02  5.93520E+02  5.71746E+02  5.50307E+02  5.29948E+02  5.07580E+02  4.93942E+02  4.71805E+02  4.54757E+02  4.42640E+02
   4.28849E+02  4.09641E+02  3.96013E+02  3.80741E+02  3.66655E+02  3.53689E+02  3.45671E+02  3.30304E+02  3.22374E+02  3.11003E+02
   3.02344E+02  2.89943E+02  2.77501E+02  2.69754E+02  2.61221E+02  2.51037E+02  2.41026E+02  2.33416E+02  2.22905E+02  2.15147E+02
   2.05293E+02  1.95441E+02  1.89481E+02  1.81150E+02  1.75706E+02  1.66281E+02  1.58127E+02  1.51808E+02  1.42330E+02  1.38812E+02
   1.31868E+02  1.22566E+02  1.17432E+02  1.10780E+02  1.03303E+02  9.55725E+01  9.25418E+01  8.19230E+01  8.24335E+01  7.31976E+01
   6.42233E+01  6.08182E+01  5.78399E+01  5.10298E+01  4.52781E+01  3.65682E+01  3.81959E+01  2.71333E+01  2.26711E+01  2.14701E+01
   1.33629E+01  1.03133E+01  5.99794E+00  1.74743E+00 -2.59617E+00 -5.23496E+00 -1.04914E+01 -1.18848E+01 -1.86377E+01 -2.02400E+01
  -2.16524E+01 -2.55063E+01 -2.91851E+01 -3.45629E+01 -3.75926E+01 -3.95369E+01 -4.06541E+01 -4.38737E+01 -4.51446E+01 -5.13321E+01
  -5.19748E+01 -5.52409E+01 -5.66458E+01 -5.95188E+01 -5.87206E+01 -6.14463E+01 -6.46067E+01 -6.39303E+01 -6.82444E+01 -7.18648E+01
  -7.20839E+01 -7.54145E+01 -7.27152E+01 -7.86865E+01 -7.82198E+01 -8.22908E+01 -8.04540E+01 -8.33824E+01 -8.11740E+01 -8.19811E+01
  -8.56348E+01 -8.74332E+01 -8.85463E+01 -9.03985E+01 -9.32847E+01 -9.26245E+01 -9.01561E+01 -9.27898E+01 -9.29715E+01 -9.14684E+01
  -9.69674E+01 -9.66408E+01 -9.81684E+01 -9.75484E+01 -9.96298E+01 -9.62879E+01 -9.76832E+01 -1.00340E+02 -9.87352E+01 -9.82535E+01
  -9.94962E+01 -9.95795E+01 -9.73886E+01 -1.01258E+02 -1.00615E+02 -9.97650E+01 -1.00669E+02 -9.85877E+01 -1.04186E+02 -1.02304E+02
  -1.00678E+02 -1.05020E+02 -1.00991E+02 -1.00651E+02 -1.02717E+02 -1.03761E+02 -9.98765E+01 -1.04354E+02 -1.04333E+02 -1.05468E+02
  -1.03125E+02 -1.00579E+02 -1.03073E+02 -1.00971E+02 -1.04156E+02 -1.00165E+02 -1.01756E+02 -1.00419E+02 -1.02428E+02 -1.01591E+02
  -1.02323E+02 -9.88573E+01 -9.84108E+01 -1.01139E+02 -9.90261E+01 -9.63467E+01 -9.90324E+01 -9.70804E+01 -9.83574E+01 -1.00211E+02
  -1.01370E+02 -9.45075E+01 -9.76993E+01 -9.66295E+01 -9.42839E+01 -9.44472E+01 -9.68628E+01 -9.20335E+01
 NY points of the fit to the data follow
   6.65012E+01  6.77664E+01  6.91488E+01  6.96506E+01  7.04094E+01  6.99205E+01  6.95173E+01  6.78510E+01  6.89379E+01  6.80929E+01
   7.01030E+01  7.00750E+01  7.27515E+01  7.26678E+01  7.38100E+01  7.35003E+01  7.30567E+01  7.30493E+01  7.21355E+01  7.29778E+01
   7.19788E+01  7.30243E+01  7.27493E+01  7.45553E+01  7.43831E+01  7.62965E+01  7.59755E+01  7.79357E+01  7.72381E+01  7.87506E+01
   7.70015E+01  7.81460E+01  7.65364E+01  7.76914E+01  7.63134E+01  7.73616E+01  7.67235E+01  7.77247E+01  7.78048E+01  7.80416E+01
   7.85268E+01  7.85307E+01  7.92520E+01  7.90147E+01  7.98184E+01  7.96634E+01  8.20205E+01  8.31789E+01  8.34349E+01  8.34771E+01
   8.26268E+01  8.19519E+01  8.00641E+01  7.92742E+01  7.85616E+01  7.88533E+01  7.87853E+01  7.87839E+01  7.85530E+01  7.74657E+01
   7.72481E+01  7.64796E+01  7.56420E+01  7.45010E+01  7.36411E+01  7.23957E+01  7.14844E+01  7.00260E+01  6.89926E+01  6.83079E+01
   6.84094E+01  6.81738E+01  6.81427E+01  6.76317E+01  6.73410E+01  6.65499E+01  6.60088E+01  6.49396E+01  6.41951E+01  6.28551E+01
   6.19236E+01  6.06043E+01  5.99339E+01  5.86885E+01  5.81431E+01  5.65889E+01  5.58452E+01  5.40560E+01  5.30631E+01  5.12148E+01
   5.00637E+01  4.82811E+01  4.69485E+01  4.52352E+01  4.40705E+01  4.24735E+01  4.12867E+01  3.98357E+01  3.86722E+01  3.73631E+01
   3.62116E+01  3.51077E+01  3.39585E+01  3.30450E+01  3.19162E+01  3.11920E+01  3.00416E+01  2.95715E+01  2.86217E+01  2.80398E+01
   2.69144E+01  2.61019E+01  2.49648E+01  2.40447E+01  2.30076E+01  2.19740E+01  2.10568E+01  1.99118E+01  1.90958E+01  1.79040E+01
   1.69957E+01  1.56483E+01  1.44867E+01  1.29618E+01  1.16053E+01  1.00923E+01  8.52734E+00  6.85492E+00  5.09322E+00  3.26679E+00
   1.35638E+00 -6.26684E-01 -2.67029E+00 -4.78149E+00 -6.91796E+00 -9.12378E+00 -1.13223E+01 -1.35925E+01 -1.58365E+01 -1.81470E+01
  -2.04247E+01 -2.27673E+01 -2.50739E+01 -2.73606E+01 -2.95233E+01 -3.18814E+01 -3.40572E+01 -3.66135E+01 -3.89547E+01 -4.15431E+01
  -4.40306E+01 -4.66884E+01 -4.93702E+01 -5.21216E+01 -5.50424E+01 -5.79555E+01 -6.11368E+01 -6.42760E+01 -6.76817E+01 -7.10102E+01
  -7.48021E+01 -7.85163E+01 -8.26414E+01 -8.66512E+01 -9.09423E+01 -9.53365E+01 -9.98798E+01 -1.04559E+02 -1.09189E+02 -1.13995E+02
  -1.18608E+02 -1.23651E+02 -1.28355E+02 -1.33512E+02 -1.38202E+02 -1.43275E+02 -1.47526E+02 -1.52446E+02 -1.56007E+02 -1.60663E+02
  -1.64033E+02 -1.68373E+02 -1.71855E+02 -1.76818E+02 -1.81611E+02 -1.86896E+02 -1.92247E+02 -1.97761E+02 -2.02609E+02 -2.07387E+02
  -2.10921E+02 -2.13480E+02 -2.13920E+02 -2.16164E+02 -2.16743E+02 -2.19191E+02 -2.20405E+02 -2.23530E+02 -2.26064E+02 -2.29845E+02
  -2.33289E+02 -2.36909E+02 -2.40683E+02 -2.43692E+02 -2.47528E+02 -2.49758E+02 -2.53360E+02 -2.54859E+02 -2.58430E+02 -2.59096E+02
  -2.62424E+02 -2.62397E+02 -2.65662E+02 -2.65077E+02 -2.68224E+02 -2.67217E+02 -2.70153E+02 -2.68351E+02 -2.70311E+02 -2.68630E+02
  -2.69905E+02 -2.69064E+02 -2.70061E+02 -2.69707E+02 -2.68707E+02 -2.67324E+02 -2.65254E+02 -2.61673E+02 -2.58549E+02 -2.54107E+02
  -2.50883E+02 -2.48313E+02 -2.48945E+02 -2.47153E+02 -2.48118E+02 -2.46975E+02 -2.48246E+02 -2.47040E+02 -2.47930E+02 -2.46213E+02
  -2.46832E+02 -2.44582E+02 -2.45987E+02 -2.48330E+02 -2.50519E+02 -2.52758E+02 -2.54153E+02 -2.55740E+02 -2.55768E+02 -2.55919E+02
  -2.54659E+02 -2.53781E+02 -2.51763E+02 -2.50752E+02 -2.48692E+02 -2.48097E+02 -2.45784E+02 -2.46329E+02 -2.45795E+02 -2.45597E+02
  -2.44945E+02 -2.43933E+02 -2.42240E+02 -2.38612E+02 -2.36589E+02 -2.32614E+02 -2.30299E+02 -2.27184E+02 -2.25014E+02 -2.21783E+02
  -2.19246E+02 -2.16529E+02 -2.13408E+02 -2.10610E+02 -2.06628E+02 -2.03807E+02 -1.98817E+02 -1.95292E+02 -1.89509E+02 -1.85583E+02
  -1.79227E+02 -1.75933E+02 -1.67116E+02 -1.56382E+02 -1.45033E+02 -1.33363E+02 -1.21443E+02 -1.09346E+02 -9.70554E+01 -8.45362E+01
  -7.16913E+01 -5.84183E+01 -4.45309E+01 -2.98345E+01 -1.40946E+01  2.94377E+00  2.15324E+01  4.19463E+01  6.44273E+01  8.91908E+01
   1.16383E+02  1.46124E+02  1.78413E+02  2.13187E+02  2.50241E+02  2.89275E+02  3.29797E+02  3.71098E+02  4.11842E+02  4.50945E+02
   4.94258E+02  5.34399E+02  5.77478E+02  6.15975E+02  6.55597E+02  6.90281E+02  7.23612E+02  7.46777E+02  7.65209E+02  7.76398E+02
   7.80150E+02  7.79951E+02  7.71082E+02  7.62147E+02  7.44113E+02  7.29601E+02  7.05724E+02  6.87491E+02  6.61256E+02  6.41436E+02
   6.14820E+02  5.95105E+02  5.69150E+02  5.50291E+02  5.27241E+02  5.09882E+02  4.89332E+02  4.72724E+02  4.54816E+02  4.38911E+02
   4.24376E+02  4.08208E+02  3.96177E+02  3.80173E+02  3.70345E+02  3.53718E+02  3.45368E+02  3.28161E+02  3.23773E+02  3.11437E+02
   3.04818E+02  2.91230E+02  2.83809E+02  2.70932E+02  2.63215E+02  2.49522E+02  2.38508E+02  2.29946E+02  2.22365E+02  2.14962E+02
   2.07280E+02  1.99125E+02  1.90531E+02  1.81702E+02  1.72927E+02  1.64495E+02  1.56618E+02  1.49388E+02  1.42768E+02  1.36618E+02
   1.30732E+02  1.24895E+02  1.18919E+02  1.12681E+02  1.06129E+02  9.92836E+01  9.22238E+01  8.50685E+01  7.79544E+01  7.10165E+01
   6.43722E+01  5.81097E+01  5.22815E+01  4.69034E+01  4.19566E+01  3.73935E+01  3.31457E+01  2.91315E+01  2.52661E+01  2.14680E+01
   1.76668E+01  1.38072E+01  9.85236E+00  5.78405E+00  1.60318E+00 -2.67351E+00 -7.01544E+00 -1.13827E+01 -1.57294E+01 -2.00074E+01
  -2.41704E+01 -2.81760E+01 -3.19884E+01 -3.55797E+01 -3.89310E+01 -4.20322E+01 -4.48820E+01 -4.74869E+01 -4.98601E+01 -5.20206E+01
  -5.39915E+01 -5.57986E+01 -5.74690E+01 -5.90303E+01 -6.05092E+01 -6.19308E+01 -6.33173E+01 -6.46888E+01 -6.60616E+01 -6.74488E+01
  -6.88601E+01 -7.03018E+01 -7.17771E+01 -7.32864E+01 -7.48276E+01 -7.63961E+01 -7.79861E+01 -7.95901E+01 -8.11994E+01 -8.28049E+01
  -8.43973E+01 -8.59670E+01 -8.75048E+01 -8.90018E+01 -9.04498E+01 -9.18414E+01 -9.31698E+01 -9.44296E+01 -9.56159E+01 -9.67250E+01
  -9.77537E+01 -9.87004E+01 -9.95638E+01 -1.00344E+02 -1.01040E+02 -1.01654E+02 -1.02188E+02 -1.02643E+02 -1.03023E+02 -1.03329E+02
  -1.03566E+02 -1.03737E+02 -1.03845E+02 -1.03894E+02 -1.03889E+02 -1.03833E+02 -1.03730E+02 -1.03585E+02 -1.03401E+02 -1.03183E+02
  -1.02935E+02 -1.02660E+02 -1.02363E+02 -1.02046E+02 -1.01715E+02 -1.01372E+02 -1.01021E+02 -1.00665E+02 -1.00308E+02 -9.99529E+01
  -9.96028E+01 -9.92608E+01 -9.89298E+01 -9.86126E+01 -9.83121E+01 -9.80310E+01 -9.77718E+01 -9.75370E+01 -9.73292E+01 -9.71506E+01
  -9.70037E+01 -9.68907E+01 -9.68137E+01 -9.67748E+01 -9.67763E+01 -9.68199E+01 -9.69078E+01 -9.70419E+01 -9.72238E+01 -9.74556E+01
  -9.77389E+01 -9.80755E+01 -9.84670E+01 -9.89151E+01 -9.94213E+01 -9.99873E+01 -1.00614E+02 -1.01304E+02
 NY background values follow
     3.199E+01    3.296E+01    3.389E+01    3.480E+01    3.569E+01    3.656E+01    3.739E+01    3.821E+01    3.900E+01    3.976E+01
     4.050E+01    4.122E+01    4.190E+01    4.257E+01    4.321E+01    4.383E+01    4.442E+01    4.498E+01    4.552E+01    4.604E+01
     4.653E+01    4.699E+01    4.743E+01    4.785E+01    4.824E+01    4.861E+01    4.895E+01    4.926E+01    4.956E+01    4.982E+01
     5.006E+01    5.028E+01    5.047E+01    5.063E+01    5.077E+01    5.089E+01    5.098E+01    5.104E+01    5.108E+01    5.110E+01
     5.109E+01    5.105E+01    5.099E+01    5.090E+01    5.079E+01    5.065E+01    5.049E+01    5.030E+01    5.009E+01    4.985E+01
     4.959E+01    4.930E+01    4.898E+01    4.864E+01    4.828E+01    4.789E+01    4.747E+01    4.703E+01    4.656E+01    4.607E+01
     4.555E+01    4.501E+01    4.444E+01    4.384E+01    4.322E+01    4.258E+01    4.191E+01    4.121E+01    4.049E+01    3.974E+01
     3.897E+01    3.817E+01    3.734E+01    3.649E+01    3.562E+01    3.471E+01    3.379E+01    3.283E+01    3.186E+01    3.085E+01
     2.982E+01    2.877E+01    2.768E+01    2.658E+01    2.544E+01    2.428E+01    2.310E+01    2.189E+01    2.065E+01    1.939E+01
     1.810E+01    1.679E+01    1.545E+01    1.408E+01    1.269E+01    1.128E+01    9.832E+00    8.363E+00    6.868E+00    5.348E+00
     3.801E+00    2.228E+00    6.295E-01   -9.951E-01   -2.646E+00   -4.322E+00   -6.025E+00   -7.753E+00   -9.508E+00   -1.129E+01
    -1.309E+01   -1.493E+01   -1.679E+01   -1.867E+01   -2.058E+01   -2.252E+01   -2.448E+01   -2.647E+01   -2.848E+01   -3.053E+01
    -3.259E+01   -3.469E+01   -3.681E+01   -3.895E+01   -4.112E+01   -4.332E+01   -4.555E+01   -4.780E+01   -5.007E+01   -5.238E+01
    -5.470E+01   -5.706E+01   -5.944E+01   -6.185E+01   -6.428E+01   -6.674E+01   -6.923E+01   -7.174E+01   -7.428E+01   -7.684E+01
    -7.943E+01   -8.205E+01   -8.470E+01   -8.737E+01   -9.006E+01   -9.278E+01   -9.553E+01   -9.831E+01   -1.011E+02   -1.039E+02
    -1.068E+02   -1.097E+02   -1.126E+02   -1.155E+02   -1.185E+02   -1.215E+02   -1.245E+02   -1.275E+02   -1.306E+02   -1.337E+02
    -1.368E+02   -1.399E+02   -1.431E+02   -1.463E+02   -1.495E+02   -1.528E+02   -1.560E+02   -1.594E+02   -1.627E+02   -1.660E+02
    -1.694E+02   -1.728E+02   -1.762E+02   -1.797E+02   -1.832E+02   -1.866E+02   -1.902E+02   -1.937E+02   -1.972E+02   -2.008E+02
    -2.044E+02   -2.080E+02   -2.116E+02   -2.153E+02   -2.189E+02   -2.226E+02   -2.263E+02   -2.300E+02   -2.337E+02   -2.374E+02
    -2.411E+02   -2.449E+02   -2.487E+02   -2.524E+02   -2.562E+02   -2.600E+02   -2.638E+02   -2.676E+02   -2.714E+02   -2.752E+02
    -2.790E+02   -2.829E+02   -2.867E+02   -2.905E+02   -2.944E+02   -2.982E+02   -3.021E+02   -3.059E+02   -3.098E+02   -3.136E+02
    -3.175E+02   -3.213E+02   -3.252E+02   -3.290E+02   -3.329E+02   -3.367E+02   -3.405E+02   -3.444E+02   -3.482E+02   -3.520E+02
    -3.558E+02   -3.596E+02   -3.634E+02   -3.672E+02   -3.710E+02   -3.748E+02   -3.785E+02   -3.823E+02   -3.860E+02   -3.898E+02
    -3.935E+02   -3.972E+02   -4.009E+02   -4.045E+02   -4.082E+02   -4.118E+02   -4.155E+02   -4.191E+02   -4.227E+02   -4.262E+02
    -4.298E+02   -4.333E+02   -4.369E+02   -4.404E+02   -4.438E+02   -4.473E+02   -4.507E+02   -4.541E+02   -4.575E+02   -4.609E+02
    -4.642E+02   -4.675E+02   -4.708E+02   -4.741E+02   -4.773E+02   -4.805E+02   -4.837E+02   -4.868E+02   -4.899E+02   -4.930E+02
    -4.961E+02   -4.991E+02   -5.021E+02   -5.051E+02   -5.080E+02   -5.109E+02   -5.137E+02   -5.165E+02   -5.193E+02   -5.221E+02
    -5.248E+02   -5.275E+02   -5.301E+02   -5.327E+02   -5.353E+02   -5.378E+02   -5.403E+02   -5.427E+02   -5.451E+02   -5.474E+02
    -5.497E+02   -5.520E+02   -5.542E+02   -5.564E+02   -5.585E+02   -5.606E+02   -5.627E+02   -5.646E+02   -5.666E+02   -5.685E+02
    -5.703E+02   -5.721E+02   -5.739E+02   -5.755E+02   -5.772E+02   -5.788E+02   -5.803E+02   -5.818E+02   -5.832E+02   -5.846E+02
    -5.859E+02   -5.872E+02   -5.884E+02   -5.895E+02   -5.906E+02   -5.917E+02   -5.926E+02   -5.935E+02   -5.944E+02   -5.952E+02
    -5.959E+02   -5.966E+02   -5.972E+02   -5.977E+02   -5.982E+02   -5.986E+02   -5.990E+02   -5.993E+02   -5.995E+02   -5.997E+02
    -5.997E+02   -5.998E+02   -5.997E+02   -5.996E+02   -5.994E+02   -5.991E+02   -5.988E+02   -5.984E+02   -5.979E+02   -5.974E+02
    -5.968E+02   -5.961E+02   -5.953E+02   -5.945E+02   -5.936E+02   -5.926E+02   -5.915E+02   -5.904E+02   -5.892E+02   -5.879E+02
    -5.866E+02   -5.852E+02   -5.837E+02   -5.822E+02   -5.806E+02   -5.790E+02   -5.772E+02   -5.755E+02   -5.736E+02   -5.717E+02
    -5.698E+02   -5.678E+02   -5.657E+02   -5.636E+02   -5.614E+02   -5.592E+02   -5.569E+02   -5.546E+02   -5.522E+02   -5.498E+02
    -5.473E+02   -5.448E+02   -5.422E+02   -5.396E+02   -5.369E+02   -5.342E+02   -5.315E+02   -5.287E+02   -5.259E+02   -5.230E+02
    -5.201E+02   -5.172E+02   -5.142E+02   -5.112E+02   -5.082E+02   -5.051E+02   -5.020E+02   -4.988E+02   -4.956E+02   -4.924E+02
    -4.892E+02   -4.860E+02   -4.827E+02   -4.794E+02   -4.760E+02   -4.727E+02   -4.693E+02   -4.659E+02   -4.624E+02   -4.590E+02
    -4.555E+02   -4.520E+02   -4.485E+02   -4.450E+02   -4.415E+02   -4.379E+02   -4.344E+02   -4.308E+02   -4.272E+02   -4.236E+02
    -4.200E+02   -4.164E+02   -4.128E+02   -4.091E+02   -4.055E+02   -4.019E+02   -3.982E+02   -3.946E+02   -3.909E+02   -3.873E+02
    -3.836E+02   -3.800E+02   -3.763E+02   -3.727E+02   -3.691E+02   -3.654E+02   -3.618E+02   -3.582E+02   -3.545E+02   -3.509E+02
    -3.473E+02   -3.438E+02   -3.402E+02   -3.366E+02   -3.331E+02   -3.295E+02   -3.260E+02   -3.225E+02   -3.190E+02   -3.155E+02
    -3.121E+02   -3.087E+02   -3.052E+02   -3.019E+02   -2.985E+02   -2.951E+02   -2.918E+02   -2.885E+02   -2.853E+02   -2.820E+02
    -2.788E+02   -2.756E+02   -2.725E+02   -2.694E+02   -2.663E+02   -2.632E+02   -2.602E+02   -2.572E+02   -2.543E+02   -2.513E+02
    -2.485E+02   -2.456E+02   -2.428E+02   -2.401E+02   -2.374E+02   -2.347E+02   -2.321E+02   -2.295E+02   -2.269E+02   -2.244E+02
    -2.220E+02   -2.196E+02   -2.172E+02   -2.149E+02   -2.127E+02   -2.105E+02   -2.083E+02   -2.062E+02   -2.042E+02   -2.022E+02
    -2.003E+02   -1.984E+02   -1.966E+02   -1.948E+02   -1.931E+02   -1.915E+02   -1.899E+02   -1.884E+02   -1.870E+02   -1.856E+02
    -1.843E+02   -1.830E+02   -1.819E+02   -1.808E+02   -1.797E+02   -1.787E+02   -1.778E+02   -1.770E+02   -1.762E+02   -1.756E+02
    -1.749E+02   -1.744E+02   -1.740E+02   -1.736E+02   -1.733E+02   -1.730E+02   -1.729E+02   -1.728E+02
 Ala      Conc. = 2.51E+03
