 LCModel (Version 6.3-1L) Copyright: S.W. Provencher.          Ref.: Magn. Reson. Med. 30:672-679 (1993).                
 Slice#2 Row#3 Col#6  PD_24_press_1_raw_act
 36 lines in following concentration table = NCONC+1
    Conc.  %SD /Cr+PCr  Metabolite                                         
  315.535  88%   0.161 Ala                                                 
    0.000 999%   0.000 Asp                                                 
 1.21E+03  33%   0.618 Cr                                                  
  750.194  54%   0.382 PCr                                                 
  220.686 110%   0.112 GABA                                                
    0.000 999%   0.000 Glc                                                 
 3.13E+03  21%   1.592 Gln                                                 
 3.47E+03  22%   1.766 Glu                                                 
  769.769   3%   0.392 GPC                                                 
    0.000 999%   0.000 PCh                                                 
  722.263  17%   0.368 GSH                                                 
 2.38E+03  14%   1.213 Ins                                                 
    0.000 999%   0.000 Lac                                                 
 2.62E+03   4%   1.335 NAA                                                 
    0.000 999%   0.000 NAAG                                                
  131.208  24% 6.7E-02 Scyllo                                              
    0.000 999%   0.000 Tau                                                 
    0.000 999%   0.000 -CrCH2                                              
  769.769   3%   0.392 GPC+PCh                                             
 2.62E+03   4%   1.335 NAA+NAAG                                            
 1.96E+03   4%   1.000 Cr+PCr                                              
 6.59E+03  20%   3.358 Glu+Gln                                             
    0.000 999%   0.000 Lip13a                                              
    0.000 999%   0.000 Lip13b                                              
 1.52E-02 999% 7.8E-06 Lip09                                               
 1.61E+03  10%   0.820 MM09                                                
 1.93E-02 999% 9.8E-06 Lip20                                               
 2.96E+03  13%   1.510 MM20                                                
    0.000 999%   0.000 MM12                                                
 1.37E+03   9%   0.697 MM14                                                
  885.223  25%   0.451 MM17                                                
    0.000 999%   0.000 Lip13a+Lip13b                                       
 1.37E+03   9%   0.697 MM14+Lip13a+Lip13b+MM12                             
 1.61E+03  10%   0.820 MM09+Lip09                                          
 2.96E+03  13%   1.510 MM20+Lip20                                          
   6 lines in following misc. output table
  FWHM = 0.107 ppm    S/N =  10                                            
  Data shift = 0.008 ppm                                                   
  Ph: -12 deg      -6.3 deg/ppm                                            
  alphaB,S = 2.2E+00,   1.3E+02                                            
   14 spline knots.   Ns = 7(2)                                            
  ( 8) 2 infls.   ( 3) 1 extrs.                                            
  498 points on ppm-axis = NY
      4.000000     3.992357     3.984714     3.977070     3.969427     3.961784     3.954141     3.946497     3.938854     3.931211
      3.923568     3.915925     3.908281     3.900638     3.892995     3.885352     3.877708     3.870065     3.862422     3.854779
      3.847136     3.839492     3.831849     3.824206     3.816563     3.808919     3.801276     3.793633     3.785990     3.778347
      3.770703     3.763060     3.755417     3.747774     3.740130     3.732487     3.724844     3.717201     3.709558     3.701914
      3.694271     3.686628     3.678985     3.671341     3.663698     3.656055     3.648412     3.640769     3.633125     3.625482
      3.617839     3.610196     3.602552     3.594909     3.587266     3.579623     3.571980     3.564336     3.556693     3.549050
      3.541407     3.533763     3.526120     3.518477     3.510834     3.503191     3.495547     3.487904     3.480261     3.472618
      3.464974     3.457331     3.449688     3.442045     3.434402     3.426758     3.419115     3.411472     3.403829     3.396185
      3.388542     3.380899     3.373256     3.365613     3.357969     3.350326     3.342683     3.335040     3.327396     3.319753
      3.312110     3.304467     3.296824     3.289180     3.281537     3.273894     3.266251     3.258607     3.250964     3.243321
      3.235678     3.228034     3.220391     3.212748     3.205105     3.197462     3.189818     3.182175     3.174532     3.166889
      3.159245     3.151602     3.143959     3.136316     3.128673     3.121029     3.113386     3.105743     3.098100     3.090456
      3.082813     3.075170     3.067527     3.059884     3.052240     3.044597     3.036954     3.029311     3.021667     3.014024
      3.006381     2.998738     2.991095     2.983451     2.975808     2.968165     2.960522     2.952878     2.945235     2.937592
      2.929949     2.922306     2.914662     2.907019     2.899376     2.891733     2.884089     2.876446     2.868803     2.861160
      2.853517     2.845873     2.838230     2.830587     2.822944     2.815300     2.807657     2.800014     2.792371     2.784728
      2.777084     2.769441     2.761798     2.754155     2.746511     2.738868     2.731225     2.723582     2.715939     2.708295
      2.700652     2.693009     2.685366     2.677722     2.670079     2.662436     2.654793     2.647150     2.639506     2.631863
      2.624220     2.616577     2.608933     2.601290     2.593647     2.586004     2.578361     2.570717     2.563074     2.555431
      2.547788     2.540144     2.532501     2.524858     2.517215     2.509572     2.501928     2.494285     2.486642     2.478999
      2.471355     2.463712     2.456069     2.448426     2.440783     2.433139     2.425496     2.417853     2.410210     2.402566
      2.394923     2.387280     2.379637     2.371994     2.364350     2.356707     2.349064     2.341421     2.333777     2.326134
      2.318491     2.310848     2.303205     2.295561     2.287918     2.280275     2.272632     2.264988     2.257345     2.249702
      2.242059     2.234416     2.226772     2.219129     2.211486     2.203843     2.196199     2.188556     2.180913     2.173270
      2.165627     2.157983     2.150340     2.142697     2.135054     2.127410     2.119767     2.112124     2.104481     2.096838
      2.089194     2.081551     2.073908     2.066265     2.058621     2.050978     2.043335     2.035692     2.028049     2.020405
      2.012762     2.005119     1.997476     1.989833     1.982190     1.974546     1.966903     1.959260     1.951617     1.943974
      1.936331     1.928688     1.921045     1.913402     1.905759     1.898115     1.890472     1.882829     1.875186     1.867543
      1.859900     1.852257     1.844614     1.836971     1.829327     1.821684     1.814041     1.806398     1.798755     1.791112
      1.783469     1.775826     1.768183     1.760540     1.752896     1.745253     1.737610     1.729967     1.722324     1.714681
      1.707038     1.699395     1.691752     1.684108     1.676465     1.668822     1.661179     1.653536     1.645893     1.638250
      1.630607     1.622964     1.615321     1.607677     1.600034     1.592391     1.584748     1.577105     1.569462     1.561819
      1.554176     1.546533     1.538890     1.531246     1.523603     1.515960     1.508317     1.500674     1.493031     1.485388
      1.477745     1.470102     1.462458     1.454815     1.447172     1.439529     1.431886     1.424243     1.416600     1.408957
      1.401314     1.393671     1.386027     1.378384     1.370741     1.363098     1.355455     1.347812     1.340169     1.332526
      1.324883     1.317240     1.309596     1.301953     1.294310     1.286667     1.279024     1.271381     1.263738     1.256095
      1.248452     1.240808     1.233165     1.225522     1.217879     1.210236     1.202593     1.194950     1.187307     1.179664
      1.172021     1.164377     1.156734     1.149091     1.141448     1.133805     1.126162     1.118519     1.110876     1.103233
      1.095590     1.087946     1.080303     1.072660     1.065017     1.057374     1.049731     1.042088     1.034445     1.026802
      1.019158     1.011515     1.003872     0.996229     0.988586     0.980943     0.973300     0.965657     0.958014     0.950371
      0.942727     0.935084     0.927441     0.919798     0.912155     0.904512     0.896869     0.889226     0.881583     0.873940
      0.866296     0.858653     0.851010     0.843367     0.835724     0.828081     0.820438     0.812795     0.805152     0.797508
      0.789865     0.782222     0.774579     0.766936     0.759293     0.751650     0.744007     0.736364     0.728721     0.721077
      0.713434     0.705791     0.698148     0.690505     0.682862     0.675219     0.667576     0.659933     0.652290     0.644646
      0.637003     0.629360     0.621717     0.614074     0.606431     0.598788     0.591145     0.583502     0.575858     0.568215
      0.560572     0.552929     0.545286     0.537643     0.530000     0.522357     0.514714     0.507071     0.499427     0.491784
      0.484141     0.476498     0.468855     0.461212     0.453569     0.445925     0.438282     0.430639     0.422996     0.415353
      0.407710     0.400067     0.392424     0.384780     0.377137     0.369494     0.361851     0.354208     0.346565     0.338922
      0.331278     0.323635     0.315992     0.308349     0.300706     0.293063     0.285420     0.277777     0.270133     0.262490
      0.254847     0.247204     0.239561     0.231918     0.224275     0.216631     0.208988     0.201345
 NY phased data points follow
   1.92420E+01  2.80685E+01  2.83868E+01  3.06815E+01  3.18515E+01  4.09583E+01  3.97482E+01  4.02428E+01  4.22776E+01  4.44927E+01
   4.10367E+01  4.26385E+01  4.34994E+01  4.76998E+01  3.70476E+01  4.11888E+01  3.73369E+01  3.47536E+01  3.50612E+01  3.45798E+01
   2.99940E+01  2.81989E+01  2.62941E+01  3.04581E+01  2.52355E+01  2.46716E+01  2.92962E+01  2.98619E+01  2.89682E+01  2.79451E+01
   2.80701E+01  2.77171E+01  2.63136E+01  2.91930E+01  2.54343E+01  3.10787E+01  2.67803E+01  2.91295E+01  2.35807E+01  2.87047E+01
   2.94675E+01  2.70218E+01  2.81604E+01  3.17558E+01  2.46055E+01  3.10698E+01  2.53606E+01  2.77519E+01  2.50103E+01  2.80053E+01
   2.83822E+01  2.80176E+01  2.71480E+01  2.93577E+01  2.04996E+01  2.48539E+01  1.88522E+01  2.19287E+01  2.03842E+01  1.89499E+01
   2.05357E+01  1.70031E+01  1.69450E+01  1.53313E+01  1.60657E+01  1.50251E+01  1.29010E+01  1.16228E+01  1.86404E+01  1.22589E+01
   1.41348E+01  1.83941E+01  1.58045E+01  1.63229E+01  9.97903E+00  1.47962E+01  1.25909E+01  1.32879E+01  1.05128E+01  1.31457E+01
   1.63158E+01  1.45777E+01  1.21900E+01  1.41023E+01  1.67165E+01  1.52753E+01  1.44383E+01  1.57510E+01  1.62015E+01  1.62284E+01
   1.35539E+01  1.55098E+01  1.37187E+01  1.58432E+01  1.58471E+01  2.31196E+01  2.08779E+01  2.98675E+01  3.50255E+01  3.95961E+01
   4.38954E+01  4.71218E+01  4.94821E+01  4.56627E+01  4.14046E+01  4.61960E+01  4.65317E+01  3.95292E+01  4.16421E+01  3.37530E+01
   3.15166E+01  2.96551E+01  2.33663E+01  2.74186E+01  2.33759E+01  1.82471E+01  2.18898E+01  1.87594E+01  2.03270E+01  2.18882E+01
   2.55424E+01  3.06940E+01  3.47515E+01  4.38747E+01  3.93729E+01  4.50452E+01  4.30005E+01  4.12572E+01  3.71286E+01  4.17311E+01
   4.38113E+01  3.56405E+01  3.48035E+01  3.40309E+01  3.28397E+01  2.69924E+01  2.64926E+01  2.73871E+01  1.57890E+01  1.91853E+01
   1.86879E+01  1.66464E+01  1.31922E+01  1.41576E+01  1.48549E+01  1.42578E+01  1.05866E+01  8.93368E+00  1.22945E+01  1.36998E+01
   9.09185E+00  1.22002E+01  1.20281E+01  1.20904E+01  7.86939E+00  8.38338E+00  9.77897E+00  8.69313E+00  5.10958E+00  5.35106E+00
   1.02166E+01  7.85370E+00  8.85639E+00  6.63410E+00  4.37115E+00  7.13667E+00  9.26841E+00  6.56906E+00  3.93617E+00  6.23992E+00
   4.77383E+00  6.15159E+00  3.85999E+00  2.45929E+00 -1.57442E+00 -1.93338E+00  1.05149E+00  5.61869E-01 -7.09261E-01 -5.44414E-01
  -4.07809E+00  3.14263E+00 -1.15192E+00 -2.11884E+00 -1.95551E+00 -2.36789E+00 -3.75692E+00  3.74237E+00  4.60765E+00  6.29185E+00
   9.83870E+00  5.10570E+00  7.67688E+00  3.78233E+00  8.19685E+00  4.88882E+00  6.31155E+00  1.08596E+01  7.77259E+00  8.82303E+00
   6.71495E+00  9.75551E+00  7.27325E+00  4.20255E+00  3.79479E+00  4.93412E+00  8.19577E+00  3.92910E+00  5.96962E+00  9.79405E+00
   1.07180E+01  8.66355E+00  7.57771E+00  1.16264E+01  1.36339E+01  7.68502E+00  3.69181E+00  5.90278E+00  6.94060E+00  8.42332E+00
   1.12040E+01  1.11407E+01  1.22984E+01  1.30428E+01  6.61547E+00  3.14869E+00  9.16630E+00  1.04226E+01  1.01243E+01  1.46487E+01
   9.58737E+00  1.28041E+01  1.05464E+01  1.24326E+01  1.21855E+01  1.34513E+01  1.39545E+01  1.03920E+01  1.35378E+01  1.33795E+01
   9.89036E+00  1.53541E+01  1.16428E+01  1.49942E+01  8.99364E+00  1.79303E+01  1.70675E+01  1.47847E+01  1.84220E+01  1.58347E+01
   1.53159E+01  1.91604E+01  2.47234E+01  3.14149E+01  4.12528E+01  4.58299E+01  5.50646E+01  5.96717E+01  6.05012E+01  5.90680E+01
   5.46933E+01  6.31003E+01  5.50244E+01  5.88742E+01  5.58031E+01  4.97136E+01  4.13179E+01  4.07402E+01  3.19500E+01  3.26918E+01
   3.14069E+01  2.57573E+01  2.44118E+01  2.01278E+01  2.01891E+01  1.37460E+01  1.51943E+01  1.71364E+01  1.62606E+01  1.20734E+01
   1.26569E+01  1.53443E+01  1.17245E+01  1.32131E+01  1.23139E+01  6.39326E+00  8.92953E+00  9.76285E+00  7.78761E+00  1.17607E+01
   7.13568E+00  9.06466E+00  8.19131E+00  8.12866E+00  8.83686E+00  1.01293E+01  9.79380E+00  7.47866E+00  1.19056E+01  9.02481E+00
   1.13598E+01  1.07850E+01  1.03756E+01  1.01414E+01  8.37480E+00  1.09447E+01  9.77142E+00  1.26909E+01  1.18115E+01  1.16542E+01
   1.28336E+01  1.04566E+01  1.43234E+01  7.18155E+00  1.52790E+01  1.36720E+01  9.49155E+00  1.33928E+01  8.76668E+00  1.20568E+01
   1.19996E+01  1.70091E+01  1.27745E+01  1.33012E+01  1.51625E+01  1.64118E+01  1.40954E+01  1.11033E+01  1.52397E+01  1.35167E+01
   1.24326E+01  1.37145E+01  1.86118E+01  1.51580E+01  1.46517E+01  1.41063E+01  1.79145E+01  1.44866E+01  1.81118E+01  1.44769E+01
   1.13559E+01  1.76042E+01  1.45280E+01  1.27433E+01  1.35471E+01  1.49332E+01  1.41377E+01  9.74330E+00  8.76209E+00  6.56657E+00
   4.73999E+00  4.53796E+00  6.92600E+00 -9.84173E-01  3.05837E+00  3.99025E-01  7.84887E-01  7.87090E-01  2.08960E+00 -2.18962E+00
  -7.38722E-01 -2.96325E+00 -1.68108E+00 -3.11192E+00  2.23425E+00 -1.97683E+00  4.38229E+00  2.64988E+00  4.83057E+00  3.35384E+00
   4.66214E+00  6.77841E+00  9.01403E+00  7.59174E+00  6.51370E+00  6.34393E+00  4.46152E+00  6.60599E+00  8.03720E+00  8.07212E+00
   6.90222E+00  6.92088E+00  7.40099E+00  1.12847E+01  6.89195E+00  5.43157E+00  1.01647E+01  6.34693E+00  7.41542E+00  5.31285E+00
   7.86348E+00  6.18499E+00  8.85411E+00  1.09446E+01  1.11012E+01  9.86389E+00  1.13335E+01  1.26394E+01  1.36951E+01  1.58477E+01
   1.26151E+01  1.92491E+01  1.74806E+01  1.77478E+01  1.53550E+01  1.75868E+01  1.56765E+01  1.35707E+01  2.00644E+01  1.90574E+01
   1.65751E+01  1.43408E+01  1.35868E+01  1.29128E+01  1.57815E+01  1.41528E+01  1.55466E+01  1.50231E+01  1.17386E+01  9.42994E+00
   1.16109E+01  8.97978E+00  9.15630E+00  9.36981E+00  9.47768E+00  5.55541E+00  7.50518E+00  1.01723E+01  6.56848E+00  8.84247E+00
   4.96708E+00  6.93990E+00  5.39984E+00  2.67233E+00  7.66869E+00  6.30315E+00  1.19105E+01  3.65538E+00  5.47356E+00  7.03331E+00
   7.82568E+00  6.64481E+00  2.42011E+00  5.07612E+00  6.21330E+00  5.96154E+00  6.44984E+00  7.53847E-01  4.97946E+00  4.09298E+00
   5.91902E+00  5.67516E+00  3.54785E+00  3.97268E+00  4.90205E+00  6.94939E+00  3.61561E+00  7.01572E+00  7.57081E-01  5.89897E+00
   2.51622E+00  2.89512E+00  5.36778E+00  9.24903E+00  5.21970E+00  3.01537E+00  8.47165E+00  9.70998E+00  8.50625E+00  4.07427E+00
   4.89183E+00  5.16260E+00  5.69784E+00  5.05981E+00  7.73171E+00  3.18589E+00  7.86532E+00  5.34800E+00  4.02722E+00 -1.74063E-01
   6.76561E+00  8.52794E+00  5.61569E+00  8.49227E+00  7.11144E+00  5.47382E+00  4.20891E+00  5.72752E+00  6.42183E+00  3.24650E+00
   4.46972E+00  1.29814E+00  3.27516E+00  4.69014E+00  6.52570E+00  2.79287E+00  5.66202E+00  3.19968E+00
 NY points of the fit to the data follow
   2.44875E+01  2.59126E+01  2.75391E+01  3.04705E+01  3.25327E+01  3.61641E+01  3.73670E+01  4.04795E+01  4.00811E+01  4.21484E+01
   4.07271E+01  4.22817E+01  4.05332E+01  4.16312E+01  3.91018E+01  3.92418E+01  3.63423E+01  3.59462E+01  3.29054E+01  3.22161E+01
   2.90680E+01  2.87278E+01  2.58902E+01  2.69854E+01  2.51725E+01  2.79126E+01  2.68114E+01  2.99934E+01  2.86258E+01  3.09531E+01
   2.87782E+01  2.99485E+01  2.82699E+01  2.92398E+01  2.82619E+01  2.84742E+01  2.78160E+01  2.73156E+01  2.70761E+01  2.66499E+01
   2.73464E+01  2.72587E+01  2.84602E+01  2.80138E+01  2.86995E+01  2.76193E+01  2.74907E+01  2.60853E+01  2.59299E+01  2.51628E+01
   2.49994E+01  2.43679E+01  2.39657E+01  2.33250E+01  2.26876E+01  2.19953E+01  2.13763E+01  2.05822E+01  2.00161E+01  1.90700E+01
   1.85083E+01  1.77827E+01  1.74511E+01  1.69510E+01  1.69714E+01  1.66797E+01  1.69465E+01  1.65490E+01  1.68175E+01  1.63594E+01
   1.65798E+01  1.61092E+01  1.62876E+01  1.58392E+01  1.59451E+01  1.54979E+01  1.55903E+01  1.53071E+01  1.54849E+01  1.53852E+01
   1.54210E+01  1.53498E+01  1.49926E+01  1.48676E+01  1.41320E+01  1.40373E+01  1.33262E+01  1.33948E+01  1.30898E+01  1.39108E+01
   1.37493E+01  1.44097E+01  1.45039E+01  1.64111E+01  1.77002E+01  2.27055E+01  2.55630E+01  3.24360E+01  3.58460E+01  4.12072E+01
   4.36933E+01  4.52573E+01  4.63652E+01  4.53373E+01  4.58441E+01  4.46073E+01  4.44958E+01  4.11293E+01  4.00066E+01  3.51187E+01
   3.34656E+01  2.88572E+01  2.75236E+01  2.42689E+01  2.31256E+01  2.05174E+01  1.99997E+01  1.93759E+01  2.04002E+01  2.34426E+01
   2.57222E+01  3.25629E+01  3.42566E+01  4.09456E+01  4.04461E+01  4.49780E+01  4.27784E+01  4.54737E+01  4.27405E+01  4.47795E+01
   4.09388E+01  4.09073E+01  3.63349E+01  3.46535E+01  3.06127E+01  2.85464E+01  2.55819E+01  2.34835E+01  2.11263E+01  1.88161E+01
   1.69812E+01  1.47962E+01  1.36827E+01  1.19664E+01  1.18449E+01  1.12007E+01  1.12077E+01  1.06260E+01  1.05362E+01  1.00525E+01
   9.93375E+00  9.55844E+00  9.40793E+00  8.95100E+00  8.72269E+00  8.18856E+00  7.97425E+00  7.53585E+00  7.37542E+00  7.13127E+00
   6.93663E+00  6.75574E+00  6.39863E+00  6.13773E+00  5.75873E+00  5.51273E+00  5.12100E+00  4.90545E+00  4.40413E+00  4.13901E+00
   3.65966E+00  3.32711E+00  3.02660E+00  2.61455E+00  2.58618E+00  2.11313E+00  2.24427E+00  1.70936E+00  1.89201E+00  1.34166E+00
   1.73383E+00  1.33980E+00  2.00091E+00  1.88321E+00  2.68640E+00  2.79742E+00  3.53038E+00  3.69633E+00  3.92237E+00  4.04232E+00
   3.80176E+00  4.30284E+00  3.98602E+00  5.17727E+00  5.18714E+00  6.78462E+00  7.24911E+00  8.94312E+00  9.32342E+00  1.01470E+01
   9.71407E+00  9.32641E+00  8.08437E+00  7.21903E+00  5.48340E+00  5.23365E+00  4.24734E+00  5.17625E+00  5.50364E+00  6.75443E+00
   7.97214E+00  8.53926E+00  9.35243E+00  9.24704E+00  9.03854E+00  8.26016E+00  7.63379E+00  6.88995E+00  6.87237E+00  6.86801E+00
   7.17904E+00  7.81699E+00  8.08235E+00  8.88695E+00  8.76816E+00  9.30765E+00  9.12673E+00  9.45956E+00  9.15978E+00  9.93513E+00
   9.93351E+00  1.12332E+01  1.15226E+01  1.32199E+01  1.32692E+01  1.46354E+01  1.37585E+01  1.42683E+01  1.29495E+01  1.31953E+01
   1.21621E+01  1.24227E+01  1.20106E+01  1.23519E+01  1.20916E+01  1.26280E+01  1.35198E+01  1.46273E+01  1.57587E+01  1.74293E+01
   1.98048E+01  2.28265E+01  2.82024E+01  3.29624E+01  4.02203E+01  4.60013E+01  5.16555E+01  5.65223E+01  5.77026E+01  6.06397E+01
   5.82534E+01  5.98746E+01  5.69439E+01  5.76963E+01  5.23418E+01  5.16643E+01  4.46995E+01  4.30971E+01  3.65348E+01  3.48208E+01
   2.93966E+01  2.77482E+01  2.30490E+01  2.13593E+01  1.75485E+01  1.60135E+01  1.32802E+01  1.22734E+01  1.16246E+01  1.12178E+01
   1.08190E+01  1.04995E+01  1.02457E+01  9.95556E+00  9.77756E+00  9.55839E+00  9.43725E+00  9.28306E+00  9.20246E+00  9.11444E+00
   9.07356E+00  9.06807E+00  9.10479E+00  9.18158E+00  9.28426E+00  9.42966E+00  9.57705E+00  9.76479E+00  9.93585E+00  1.01332E+01
   1.03110E+01  1.04974E+01  1.06574E+01  1.08128E+01  1.09374E+01  1.10452E+01  1.11197E+01  1.11730E+01  1.11987E+01  1.12052E+01
   1.11982E+01  1.11878E+01  1.11902E+01  1.12252E+01  1.12517E+01  1.13328E+01  1.14606E+01  1.16982E+01  1.19559E+01  1.23802E+01
   1.26651E+01  1.31417E+01  1.33893E+01  1.36819E+01  1.38230E+01  1.39036E+01  1.40560E+01  1.41346E+01  1.44988E+01  1.46579E+01
   1.52050E+01  1.51762E+01  1.57996E+01  1.54953E+01  1.59983E+01  1.54750E+01  1.57463E+01  1.51126E+01  1.52412E+01  1.44426E+01
   1.43558E+01  1.34411E+01  1.31294E+01  1.22173E+01  1.17889E+01  1.09884E+01  1.04851E+01  9.73034E+00  9.20198E+00  8.54385E+00
   8.03742E+00  7.49622E+00  7.03978E+00  6.66739E+00  6.35740E+00  6.09887E+00  5.88420E+00  5.70714E+00  5.56217E+00  5.44444E+00
   5.34966E+00  5.27418E+00  5.21483E+00  5.16900E+00  5.13450E+00  5.10962E+00  5.09306E+00  5.08387E+00  5.08142E+00  5.08530E+00
   5.09537E+00  5.11173E+00  5.13470E+00  5.16478E+00  5.20271E+00  5.24940E+00  5.30602E+00  5.37400E+00  5.45507E+00  5.55124E+00
   5.66483E+00  5.79846E+00  5.95512E+00  6.13807E+00  6.35085E+00  6.59709E+00  6.88046E+00  7.20449E+00  7.57236E+00  7.98664E+00
   8.44897E+00  8.95977E+00  9.51790E+00  1.01204E+01  1.07623E+01  1.14363E+01  1.21329E+01  1.28404E+01  1.35449E+01  1.42312E+01
   1.48830E+01  1.54834E+01  1.60163E+01  1.64662E+01  1.68201E+01  1.70672E+01  1.72004E+01  1.72160E+01  1.71141E+01  1.68987E+01
   1.65774E+01  1.61610E+01  1.56625E+01  1.50970E+01  1.44805E+01  1.38290E+01  1.31584E+01  1.24833E+01  1.18165E+01  1.11693E+01
   1.05505E+01  9.96690E+00  9.42315E+00  8.92206E+00  8.46468E+00  8.05067E+00  7.67859E+00  7.34619E+00  7.05068E+00  6.78892E+00
   6.55763E+00  6.35357E+00  6.17361E+00  6.01484E+00  5.87459E+00  5.75048E+00  5.64036E+00  5.54238E+00  5.45489E+00  5.37654E+00
   5.30613E+00  5.24264E+00  5.18516E+00  5.13298E+00  5.08544E+00  5.04203E+00  5.00227E+00  4.96577E+00  4.93215E+00  4.90114E+00
   4.87246E+00  4.84593E+00  4.82130E+00  4.79844E+00  4.77712E+00  4.75728E+00  4.73875E+00  4.72148E+00  4.70531E+00  4.69020E+00
   4.67602E+00  4.66275E+00  4.65029E+00  4.63863E+00  4.62765E+00  4.61734E+00  4.60763E+00  4.59852E+00  4.58994E+00  4.58188E+00
   4.57427E+00  4.56711E+00  4.56035E+00  4.55400E+00  4.54801E+00  4.54237E+00  4.53703E+00  4.53199E+00  4.52724E+00  4.52276E+00
   4.51853E+00  4.51452E+00  4.51072E+00  4.50712E+00  4.50371E+00  4.50049E+00  4.49742E+00  4.49450E+00  4.49170E+00  4.48903E+00
   4.48647E+00  4.48403E+00  4.48166E+00  4.47936E+00  4.47712E+00  4.47495E+00  4.47283E+00  4.47076E+00
 NY background values follow
     1.284E+01    1.280E+01    1.276E+01    1.272E+01    1.268E+01    1.264E+01    1.260E+01    1.256E+01    1.252E+01    1.248E+01
     1.244E+01    1.240E+01    1.236E+01    1.232E+01    1.228E+01    1.224E+01    1.220E+01    1.216E+01    1.212E+01    1.208E+01
     1.204E+01    1.199E+01    1.195E+01    1.191E+01    1.187E+01    1.183E+01    1.180E+01    1.176E+01    1.172E+01    1.168E+01
     1.164E+01    1.160E+01    1.156E+01    1.152E+01    1.148E+01    1.144E+01    1.140E+01    1.136E+01    1.132E+01    1.128E+01
     1.124E+01    1.120E+01    1.116E+01    1.112E+01    1.108E+01    1.104E+01    1.100E+01    1.096E+01    1.092E+01    1.088E+01
     1.084E+01    1.080E+01    1.077E+01    1.073E+01    1.069E+01    1.065E+01    1.061E+01    1.057E+01    1.053E+01    1.049E+01
     1.045E+01    1.042E+01    1.038E+01    1.034E+01    1.030E+01    1.026E+01    1.022E+01    1.018E+01    1.015E+01    1.011E+01
     1.007E+01    1.003E+01    9.994E+00    9.956E+00    9.918E+00    9.880E+00    9.843E+00    9.805E+00    9.768E+00    9.730E+00
     9.693E+00    9.656E+00    9.618E+00    9.581E+00    9.544E+00    9.507E+00    9.471E+00    9.434E+00    9.397E+00    9.361E+00
     9.324E+00    9.288E+00    9.252E+00    9.216E+00    9.180E+00    9.144E+00    9.108E+00    9.072E+00    9.036E+00    9.001E+00
     8.965E+00    8.930E+00    8.895E+00    8.860E+00    8.824E+00    8.790E+00    8.755E+00    8.720E+00    8.685E+00    8.651E+00
     8.616E+00    8.582E+00    8.547E+00    8.513E+00    8.479E+00    8.445E+00    8.411E+00    8.378E+00    8.344E+00    8.310E+00
     8.277E+00    8.243E+00    8.210E+00    8.177E+00    8.144E+00    8.111E+00    8.078E+00    8.045E+00    8.012E+00    7.979E+00
     7.947E+00    7.914E+00    7.882E+00    7.850E+00    7.818E+00    7.785E+00    7.753E+00    7.722E+00    7.690E+00    7.658E+00
     7.626E+00    7.595E+00    7.564E+00    7.532E+00    7.501E+00    7.470E+00    7.439E+00    7.408E+00    7.377E+00    7.346E+00
     7.316E+00    7.285E+00    7.255E+00    7.224E+00    7.194E+00    7.164E+00    7.134E+00    7.104E+00    7.074E+00    7.044E+00
     7.015E+00    6.985E+00    6.956E+00    6.927E+00    6.897E+00    6.868E+00    6.839E+00    6.810E+00    6.781E+00    6.753E+00
     6.724E+00    6.696E+00    6.667E+00    6.639E+00    6.611E+00    6.583E+00    6.555E+00    6.527E+00    6.499E+00    6.471E+00
     6.444E+00    6.416E+00    6.389E+00    6.362E+00    6.335E+00    6.308E+00    6.281E+00    6.254E+00    6.227E+00    6.201E+00
     6.174E+00    6.148E+00    6.122E+00    6.096E+00    6.070E+00    6.044E+00    6.018E+00    5.992E+00    5.967E+00    5.941E+00
     5.916E+00    5.890E+00    5.865E+00    5.840E+00    5.815E+00    5.790E+00    5.765E+00    5.741E+00    5.716E+00    5.692E+00
     5.667E+00    5.643E+00    5.619E+00    5.595E+00    5.571E+00    5.547E+00    5.523E+00    5.500E+00    5.476E+00    5.453E+00
     5.429E+00    5.406E+00    5.383E+00    5.360E+00    5.337E+00    5.314E+00    5.292E+00    5.269E+00    5.247E+00    5.224E+00
     5.202E+00    5.180E+00    5.158E+00    5.136E+00    5.114E+00    5.092E+00    5.070E+00    5.049E+00    5.027E+00    5.006E+00
     4.984E+00    4.963E+00    4.942E+00    4.921E+00    4.900E+00    4.880E+00    4.859E+00    4.839E+00    4.818E+00    4.798E+00
     4.778E+00    4.758E+00    4.738E+00    4.718E+00    4.698E+00    4.678E+00    4.659E+00    4.639E+00    4.620E+00    4.601E+00
     4.582E+00    4.563E+00    4.544E+00    4.525E+00    4.507E+00    4.488E+00    4.470E+00    4.451E+00    4.433E+00    4.415E+00
     4.397E+00    4.379E+00    4.361E+00    4.344E+00    4.326E+00    4.309E+00    4.292E+00    4.275E+00    4.258E+00    4.241E+00
     4.224E+00    4.207E+00    4.191E+00    4.174E+00    4.158E+00    4.142E+00    4.126E+00    4.110E+00    4.094E+00    4.078E+00
     4.063E+00    4.047E+00    4.032E+00    4.017E+00    4.002E+00    3.987E+00    3.973E+00    3.958E+00    3.943E+00    3.929E+00
     3.915E+00    3.901E+00    3.887E+00    3.873E+00    3.860E+00    3.846E+00    3.833E+00    3.820E+00    3.807E+00    3.794E+00
     3.781E+00    3.768E+00    3.756E+00    3.744E+00    3.731E+00    3.719E+00    3.708E+00    3.696E+00    3.684E+00    3.673E+00
     3.662E+00    3.651E+00    3.640E+00    3.629E+00    3.618E+00    3.608E+00    3.598E+00    3.587E+00    3.577E+00    3.568E+00
     3.558E+00    3.549E+00    3.539E+00    3.530E+00    3.521E+00    3.512E+00    3.504E+00    3.495E+00    3.487E+00    3.479E+00
     3.471E+00    3.463E+00    3.456E+00    3.448E+00    3.441E+00    3.434E+00    3.427E+00    3.420E+00    3.414E+00    3.408E+00
     3.402E+00    3.396E+00    3.390E+00    3.384E+00    3.379E+00    3.374E+00    3.369E+00    3.364E+00    3.359E+00    3.355E+00
     3.351E+00    3.347E+00    3.343E+00    3.339E+00    3.336E+00    3.332E+00    3.329E+00    3.326E+00    3.324E+00    3.321E+00
     3.319E+00    3.317E+00    3.315E+00    3.313E+00    3.311E+00    3.310E+00    3.309E+00    3.307E+00    3.306E+00    3.306E+00
     3.305E+00    3.305E+00    3.304E+00    3.304E+00    3.304E+00    3.304E+00    3.304E+00    3.305E+00    3.305E+00    3.306E+00
     3.307E+00    3.308E+00    3.309E+00    3.310E+00    3.312E+00    3.313E+00    3.315E+00    3.316E+00    3.318E+00    3.320E+00
     3.322E+00    3.325E+00    3.327E+00    3.329E+00    3.332E+00    3.335E+00    3.337E+00    3.340E+00    3.343E+00    3.346E+00
     3.349E+00    3.353E+00    3.356E+00    3.359E+00    3.363E+00    3.366E+00    3.370E+00    3.374E+00    3.378E+00    3.382E+00
     3.386E+00    3.390E+00    3.394E+00    3.398E+00    3.403E+00    3.407E+00    3.411E+00    3.416E+00    3.421E+00    3.425E+00
     3.430E+00    3.435E+00    3.440E+00    3.445E+00    3.450E+00    3.455E+00    3.460E+00    3.465E+00    3.470E+00    3.475E+00
     3.480E+00    3.486E+00    3.491E+00    3.497E+00    3.502E+00    3.507E+00    3.513E+00    3.519E+00    3.524E+00    3.530E+00
     3.535E+00    3.541E+00    3.547E+00    3.552E+00    3.558E+00    3.564E+00    3.570E+00    3.576E+00    3.581E+00    3.587E+00
     3.593E+00    3.599E+00    3.605E+00    3.611E+00    3.617E+00    3.623E+00    3.629E+00    3.635E+00    3.641E+00    3.647E+00
     3.653E+00    3.659E+00    3.665E+00    3.671E+00    3.677E+00    3.683E+00    3.689E+00    3.696E+00    3.702E+00    3.708E+00
     3.714E+00    3.720E+00    3.726E+00    3.732E+00    3.738E+00    3.744E+00    3.751E+00    3.757E+00    3.763E+00    3.769E+00
     3.775E+00    3.781E+00    3.787E+00    3.793E+00    3.800E+00    3.806E+00    3.812E+00    3.818E+00
 Ala      Conc. = 3.16E+02
