 LCModel (Version 6.3-1L) Copyright: S.W. Provencher.          Ref.: Magn. Reson. Med. 30:672-679 (1993).                
 Slice#1 Row#1 Col#2  PD_24_press_1_raw_act
 36 lines in following concentration table = NCONC+1
    Conc.  %SD /Cr+PCr  Metabolite                                         
    0.000 999%   0.000 Ala                                                 
    5.138  73%   0.165 Asp                                                 
   31.125  68%   1.000 Cr                                                  
    0.000 999%   0.000 PCr                                                 
    3.028  75% 9.7E-02 GABA                                                
    3.079  73% 9.9E-02 Glc                                                 
    0.000 999%   0.000 Gln                                                 
   81.166 116%   2.608 Glu                                                 
    0.000 999%   0.000 GPC                                                 
   16.525  49%   0.531 PCh                                                 
   23.804 125%   0.765 GSH                                                 
    0.000 999%   0.000 Ins                                                 
    0.000 999%   0.000 Lac                                                 
   13.761 198%   0.442 NAA                                                 
    7.805 357%   0.251 NAAG                                                
    1.000  75% 3.2E-02 Scyllo                                              
    5.134  73%   0.165 Tau                                                 
    2.823 161% 9.1E-02 -CrCH2                                              
   16.525  49%   0.531 GPC+PCh                                             
   21.566 146%   0.693 NAA+NAAG                                            
   31.125  68%   1.000 Cr+PCr                                              
   81.166 116%   2.608 Glu+Gln                                             
   15.846 999%   0.509 Lip13a                                              
  364.926  99%  11.724 Lip13b                                              
  121.991  50%   3.919 Lip09                                               
   64.036 125%   2.057 MM09                                                
   58.766  65%   1.888 Lip20                                               
   70.875 174%   2.277 MM20                                                
   14.584 268%   0.469 MM12                                                
    0.000 999%   0.000 MM14                                                
    0.000 999%   0.000 MM17                                                
  380.773  48%  12.233 Lip13a+Lip13b                                       
  395.356  36%  12.702 MM14+Lip13a+Lip13b+MM12                             
  186.027  33%   5.977 MM09+Lip09                                          
  129.641  89%   4.165 MM20+Lip20                                          
   6 lines in following misc. output table
  FWHM = 0.046 ppm    S/N =   1                                            
  Data shift = 0.015 ppm                                                   
  Ph: -13 deg      45.7 deg/ppm                                            
  alphaB,S = 8.5E+01,   2.6E+01                                            
   14 spline knots.   Ns = 5(1)                                            
   2 inflections.     1 extrema                                            
  498 points on ppm-axis = NY
      4.000000     3.992357     3.984714     3.977070     3.969427     3.961784     3.954141     3.946497     3.938854     3.931211
      3.923568     3.915925     3.908281     3.900638     3.892995     3.885352     3.877708     3.870065     3.862422     3.854779
      3.847136     3.839492     3.831849     3.824206     3.816563     3.808919     3.801276     3.793633     3.785990     3.778347
      3.770703     3.763060     3.755417     3.747774     3.740130     3.732487     3.724844     3.717201     3.709558     3.701914
      3.694271     3.686628     3.678985     3.671341     3.663698     3.656055     3.648412     3.640769     3.633125     3.625482
      3.617839     3.610196     3.602552     3.594909     3.587266     3.579623     3.571980     3.564336     3.556693     3.549050
      3.541407     3.533763     3.526120     3.518477     3.510834     3.503191     3.495547     3.487904     3.480261     3.472618
      3.464974     3.457331     3.449688     3.442045     3.434402     3.426758     3.419115     3.411472     3.403829     3.396185
      3.388542     3.380899     3.373256     3.365613     3.357969     3.350326     3.342683     3.335040     3.327396     3.319753
      3.312110     3.304467     3.296824     3.289180     3.281537     3.273894     3.266251     3.258607     3.250964     3.243321
      3.235678     3.228034     3.220391     3.212748     3.205105     3.197462     3.189818     3.182175     3.174532     3.166889
      3.159245     3.151602     3.143959     3.136316     3.128673     3.121029     3.113386     3.105743     3.098100     3.090456
      3.082813     3.075170     3.067527     3.059884     3.052240     3.044597     3.036954     3.029311     3.021667     3.014024
      3.006381     2.998738     2.991095     2.983451     2.975808     2.968165     2.960522     2.952878     2.945235     2.937592
      2.929949     2.922306     2.914662     2.907019     2.899376     2.891733     2.884089     2.876446     2.868803     2.861160
      2.853517     2.845873     2.838230     2.830587     2.822944     2.815300     2.807657     2.800014     2.792371     2.784728
      2.777084     2.769441     2.761798     2.754155     2.746511     2.738868     2.731225     2.723582     2.715939     2.708295
      2.700652     2.693009     2.685366     2.677722     2.670079     2.662436     2.654793     2.647150     2.639506     2.631863
      2.624220     2.616577     2.608933     2.601290     2.593647     2.586004     2.578361     2.570717     2.563074     2.555431
      2.547788     2.540144     2.532501     2.524858     2.517215     2.509572     2.501928     2.494285     2.486642     2.478999
      2.471355     2.463712     2.456069     2.448426     2.440783     2.433139     2.425496     2.417853     2.410210     2.402566
      2.394923     2.387280     2.379637     2.371994     2.364350     2.356707     2.349064     2.341421     2.333777     2.326134
      2.318491     2.310848     2.303205     2.295561     2.287918     2.280275     2.272632     2.264988     2.257345     2.249702
      2.242059     2.234416     2.226772     2.219129     2.211486     2.203843     2.196199     2.188556     2.180913     2.173270
      2.165627     2.157983     2.150340     2.142697     2.135054     2.127410     2.119767     2.112124     2.104481     2.096838
      2.089194     2.081551     2.073908     2.066265     2.058621     2.050978     2.043335     2.035692     2.028049     2.020405
      2.012762     2.005119     1.997476     1.989833     1.982190     1.974546     1.966903     1.959260     1.951617     1.943974
      1.936331     1.928688     1.921045     1.913402     1.905759     1.898115     1.890472     1.882829     1.875186     1.867543
      1.859900     1.852257     1.844614     1.836971     1.829327     1.821684     1.814041     1.806398     1.798755     1.791112
      1.783469     1.775826     1.768183     1.760540     1.752896     1.745253     1.737610     1.729967     1.722324     1.714681
      1.707038     1.699395     1.691752     1.684108     1.676465     1.668822     1.661179     1.653536     1.645893     1.638250
      1.630607     1.622964     1.615321     1.607677     1.600034     1.592391     1.584748     1.577105     1.569462     1.561819
      1.554176     1.546533     1.538890     1.531246     1.523603     1.515960     1.508317     1.500674     1.493031     1.485388
      1.477745     1.470102     1.462458     1.454815     1.447172     1.439529     1.431886     1.424243     1.416600     1.408957
      1.401314     1.393671     1.386027     1.378384     1.370741     1.363098     1.355455     1.347812     1.340169     1.332526
      1.324883     1.317240     1.309596     1.301953     1.294310     1.286667     1.279024     1.271381     1.263738     1.256095
      1.248452     1.240808     1.233165     1.225522     1.217879     1.210236     1.202593     1.194950     1.187307     1.179664
      1.172021     1.164377     1.156734     1.149091     1.141448     1.133805     1.126162     1.118519     1.110876     1.103233
      1.095590     1.087946     1.080303     1.072660     1.065017     1.057374     1.049731     1.042088     1.034445     1.026802
      1.019158     1.011515     1.003872     0.996229     0.988586     0.980943     0.973300     0.965657     0.958014     0.950371
      0.942727     0.935084     0.927441     0.919798     0.912155     0.904512     0.896869     0.889226     0.881583     0.873940
      0.866296     0.858653     0.851010     0.843367     0.835724     0.828081     0.820438     0.812795     0.805152     0.797508
      0.789865     0.782222     0.774579     0.766936     0.759293     0.751650     0.744007     0.736364     0.728721     0.721077
      0.713434     0.705791     0.698148     0.690505     0.682862     0.675219     0.667576     0.659933     0.652290     0.644646
      0.637003     0.629360     0.621717     0.614074     0.606431     0.598788     0.591145     0.583502     0.575858     0.568215
      0.560572     0.552929     0.545286     0.537643     0.530000     0.522357     0.514714     0.507071     0.499427     0.491784
      0.484141     0.476498     0.468855     0.461212     0.453569     0.445925     0.438282     0.430639     0.422996     0.415353
      0.407710     0.400067     0.392424     0.384780     0.377137     0.369494     0.361851     0.354208     0.346565     0.338922
      0.331278     0.323635     0.315992     0.308349     0.300706     0.293063     0.285420     0.277777     0.270133     0.262490
      0.254847     0.247204     0.239561     0.231918     0.224275     0.216631     0.208988     0.201345
 NY phased data points follow
   1.81762E+00 -2.05773E+00 -5.51838E-02  1.48574E+00 -8.32417E-01  6.75453E-01  7.04092E-01  4.86157E-01  4.70305E+00  3.66677E+00
   1.45409E+00  3.02704E+00  2.65628E+00  2.78144E+00 -1.69287E-01 -3.38854E+00  2.09178E+00 -3.35460E-01  1.30217E+00 -5.28704E-01
   3.21406E+00  1.29658E+00  1.96920E+00 -3.96111E-01  9.95524E-01 -2.19854E+00  2.29431E+00 -1.43145E-01  4.23491E+00 -2.27616E-01
   1.38578E+00  4.13645E+00  2.19265E+00  2.28360E+00  5.41697E-01  3.16700E+00 -6.16623E-01  2.48519E+00  8.25280E-01  2.63081E-01
   2.91951E+00  2.34081E+00  1.10841E+00  2.67285E-01  6.93325E-01 -2.35079E-01  6.40854E-01 -8.37508E-01  7.50314E-01  6.25856E-02
   2.85912E+00  5.09920E-01  4.02736E+00  6.58873E+00  1.10511E-01  1.82203E+00 -1.75725E+00  2.55924E+00  7.66966E-01  2.54323E+00
   3.67403E+00 -2.56724E+00 -6.29399E-01  2.58986E+00  3.22980E+00  2.63452E+00  1.23108E+00 -2.30054E-02  4.72651E+00 -5.14576E-02
   1.90878E+00 -1.10640E+00  1.64915E+00  9.93817E-01  1.15187E+00  2.22939E+00  1.30926E-01  2.65953E-01  5.60948E-01  3.14364E+00
   3.19482E+00 -3.88453E+00  6.50566E-02  1.81475E+00  1.59827E+00 -7.15867E-01  1.41240E+00 -8.07867E-01 -8.39394E-01  2.67049E+00
   7.44800E-01  1.62537E+00  3.75880E+00  1.76991E-01  3.16707E+00  2.58072E+00  7.87095E-01 -2.96354E-01  2.51426E-01  8.30328E-01
   2.49660E+00  3.94702E+00  2.20296E+00  2.29354E+00  3.01209E+00  3.42479E+00 -7.92443E-01  2.03687E+00  6.32287E-01  1.46625E+00
   8.15126E-01  4.52217E+00 -5.20685E-02  3.23858E+00  1.71565E+00  2.98951E+00  2.26489E-01 -6.70339E-01  1.65167E-01  1.28868E+00
   3.09774E+00  2.09217E+00  4.22742E+00 -3.25044E+00  2.54681E+00  9.99686E-01  3.39864E+00  5.61089E-01  1.78705E+00  1.31034E+00
  -2.31146E-01  1.78452E+00  3.43728E+00  3.74459E-01  2.66098E+00  4.10180E+00 -2.18103E+00 -3.90870E-02 -1.80490E+00  3.05277E+00
   1.50651E-01  3.40449E-01  1.65953E+00  1.51426E+00  1.66000E-01  9.45096E-01  1.53682E+00  4.82227E-01 -5.84344E-01 -1.38845E+00
   4.26240E+00  3.79705E+00  5.53978E-01  2.51655E+00  1.04479E+00  4.02344E+00  3.88939E-01 -3.65228E-01  3.71255E+00  9.95957E-02
  -2.63911E-01  7.53978E-01  3.01619E+00 -3.78641E-01 -1.46127E+00  1.45186E-01  6.89248E-01 -3.40685E+00  4.10236E+00  1.47983E+00
   1.27720E+00  2.06736E+00  2.28743E+00  8.61570E-01  2.52876E+00  7.56722E-01 -2.54153E+00 -1.78405E+00 -3.77349E+00  2.06814E+00
   3.53061E+00 -1.13928E+00  3.45155E+00  1.42778E+00  1.69131E+00  5.08006E+00  3.04723E+00 -6.71250E-01  3.04921E+00 -1.32145E-01
   1.91256E+00 -2.80966E+00  8.35987E-01  3.28898E+00  1.30262E+00  2.18800E+00  2.07475E+00  1.88738E+00  3.02679E+00  5.02695E-01
   1.97615E+00  2.05512E+00  3.52620E+00  2.25899E+00  1.69278E+00  3.34214E+00  6.44829E-01  1.10804E+00  6.40845E-01  2.75367E+00
  -3.91443E-01  1.04855E+00  1.73135E+00 -5.88362E-01  4.42487E-01  1.54495E+00  5.91496E-01 -1.19170E+00 -2.31284E-02  5.00617E-01
   2.10915E-01 -5.15761E-01  8.58490E-01  1.29341E+00  4.38547E+00  2.39292E+00  1.79336E+00  4.65141E+00 -9.68503E-01  3.48204E+00
   4.34134E+00  5.76363E-01 -5.92265E-01  2.29835E+00  1.39155E+00  2.61545E+00  1.73142E+00 -1.16665E+00 -1.19570E+00 -3.01552E+00
   7.93165E-01  1.32487E+00  1.57585E+00  3.65681E+00 -1.15129E+00  2.18721E+00  2.23539E+00  1.33616E+00  1.82527E+00  1.33773E+00
   1.26457E+00  1.82081E-01  5.32044E-01  5.79663E-01  4.56918E-01  2.24689E+00  1.71773E+00  3.36707E+00 -3.06984E-01  2.05666E+00
   1.79722E+00  4.97055E+00 -7.11296E-01 -1.85160E+00  1.10066E-01 -1.03014E+00 -2.21410E+00 -1.75799E+00 -2.04161E-02  1.79292E+00
  -8.29755E-01  3.45810E-01  1.99411E+00 -5.40276E-01  2.89987E+00 -1.64948E+00 -5.36448E-01 -2.44967E-01 -1.11338E-01  4.07378E-01
   2.95021E+00  3.10827E+00 -6.02023E-02  2.01337E+00  3.02762E-01  1.10419E+00  1.55660E+00 -1.10389E+00 -2.55291E+00 -1.36749E+00
   2.79888E+00  3.37027E+00  1.38658E-01 -6.72457E-01  7.05847E-01  1.99599E+00  3.98686E-01 -1.18964E+00  9.78467E-01 -1.96513E+00
   5.46933E-01 -1.41707E+00  8.69515E-01  4.56299E-01 -3.48824E+00 -3.61295E+00  1.37496E+00 -1.77036E+00  2.52952E-01  8.84479E-02
  -1.04000E+00 -6.56840E-01  2.16252E+00 -2.78830E+00 -1.19602E+00 -1.03112E-01 -8.68132E-01  7.14923E-01 -5.16536E+00  1.05922E+00
   6.04720E-01  1.73404E+00 -1.36304E+00  2.42548E+00 -1.20496E+00  1.30365E-01 -1.00999E-01  3.40907E+00  3.02059E+00  8.24943E-02
   3.71000E+00 -1.15887E+00  3.34738E+00 -3.06913E-01  1.61178E+00 -1.40399E+00  1.92296E-01  3.78877E-01 -6.10301E-02  1.96087E+00
   1.77423E-02  1.65447E+00 -2.70992E-02 -1.66765E+00  1.48230E+00  1.44189E+00  2.42656E+00  9.69212E-01  4.13152E+00  3.09084E+00
   1.16153E+00  5.72820E+00  6.46587E+00  4.95701E+00  1.69913E+00  2.55724E+00  5.75692E+00  7.59597E+00  2.19456E+00  2.34156E+00
   5.14258E-01  1.82217E+00  3.19075E+00  8.55221E-01  2.80782E+00  1.06134E+00  3.12111E+00  2.52822E+00  3.07565E+00  2.33235E+00
   5.35906E-01 -2.25442E+00 -1.03099E+00  2.59364E+00 -5.07370E-01  1.00447E+00 -1.98334E+00  4.37636E-01  2.48229E-01 -4.65950E-01
  -5.41769E+00 -6.38411E-01  8.98613E-01  3.30073E+00  3.00006E+00  2.26513E+00  2.10724E+00  3.17043E+00  4.72969E+00  8.82196E-01
   1.66934E-01  2.65341E-01  2.85003E+00  5.79581E-01 -2.12089E+00 -1.33972E+00 -8.96979E-01  9.13187E-01 -1.30620E+00  1.51277E+00
   6.24890E-01  1.51265E+00  5.76734E-01  1.91714E+00  3.31384E+00  2.24703E+00  2.71818E+00  2.26364E+00  1.63622E+00 -1.43491E+00
  -1.82424E-01  1.34797E-01  3.88031E+00  4.25211E+00  4.09134E+00  9.01722E-01  3.25973E+00  6.62307E+00 -3.62285E-01  1.70735E+00
   4.20877E+00  5.63339E-02  2.79320E+00 -2.17754E-01  3.68087E+00  1.54556E+00 -1.18898E+00  7.07403E-01  2.87444E+00 -1.63001E+00
   2.40614E+00  5.14397E+00  2.61227E+00  3.04826E+00  2.15899E+00 -1.51129E+00 -2.08046E+00  7.47400E-02  4.36716E+00 -8.86660E-01
   1.01329E-01 -2.09659E+00 -5.02272E-01  2.76438E+00 -1.18869E+00  1.41474E+00  8.63704E-01 -2.19674E+00 -9.86526E-01  4.40172E-01
  -7.26196E-03  1.92683E+00 -6.99883E-01 -7.05408E-01  2.77393E-02 -1.32330E+00 -2.55063E+00 -8.06735E-01 -2.16893E+00 -8.54309E-01
   4.67193E-02 -2.24492E-01  9.48290E-01  2.18056E+00 -2.86972E-01 -1.18593E+00  3.39317E-01  1.74690E+00 -5.07222E-01  1.41131E+00
   2.22423E+00  4.09611E-01  4.74015E-01  1.49654E+00  7.75084E-01  1.67932E-01  2.23331E+00  8.52688E-01  2.68164E+00 -7.83897E-01
   7.52308E-01  2.42371E+00 -1.83458E+00 -3.46389E+00  4.80165E+00  1.09481E+00  3.68161E-01  2.65142E-01  2.73351E+00 -5.47666E-01
   4.63506E-01 -1.33003E-01  4.24279E+00 -1.01311E-01 -3.52010E-01 -1.41117E-02  3.17428E+00 -1.39520E+00
 NY points of the fit to the data follow
   1.09686E+00  1.10178E+00  1.10806E+00  1.11253E+00  1.11279E+00  1.12930E+00  1.22801E+00  1.41919E+00  1.62988E+00  1.78757E+00
   1.84993E+00  1.80743E+00  1.67395E+00  1.48792E+00  1.30667E+00  1.17570E+00  1.10670E+00  1.08580E+00  1.09247E+00  1.10618E+00
   1.11886E+00  1.13400E+00  1.14301E+00  1.12978E+00  1.11445E+00  1.16891E+00  1.30919E+00  1.48923E+00  1.66016E+00  1.78524E+00
   1.82429E+00  1.74794E+00  1.56998E+00  1.34131E+00  1.12437E+00  9.72066E-01  9.03002E-01  9.07503E-01  9.55159E-01  1.01427E+00
   1.05928E+00  1.07649E+00  1.06842E+00  1.04701E+00  1.02436E+00  1.00766E+00  9.95799E-01  9.87136E-01  9.82648E-01  9.82168E-01
   9.84813E-01  9.89113E-01  9.92887E-01  9.93936E-01  9.91070E-01  9.84859E-01  9.77444E-01  9.70785E-01  9.65847E-01  9.62798E-01
   9.61375E-01  9.61444E-01  9.62665E-01  9.63493E-01  9.63677E-01  9.62214E-01  9.58462E-01  9.53323E-01  9.48329E-01  9.44833E-01
   9.46090E-01  9.54128E-01  9.65411E-01  9.74640E-01  9.77791E-01  9.73186E-01  9.62178E-01  9.49135E-01  9.38930E-01  9.34739E-01
   9.38122E-01  9.52470E-01  9.75414E-01  9.97835E-01  1.01231E+00  1.01590E+00  1.00966E+00  9.96760E-01  9.80268E-01  9.63209E-01
   9.48727E-01  9.38680E-01  9.33959E-01  9.37157E-01  9.51838E-01  9.78111E-01  1.01808E+00  1.09337E+00  1.31335E+00  1.75830E+00
   2.28066E+00  2.69907E+00  2.89352E+00  2.82845E+00  2.53132E+00  2.08426E+00  1.61750E+00  1.25270E+00  1.03442E+00  9.33201E-01
   8.97424E-01  8.88697E-01  8.87994E-01  8.90619E-01  8.94993E-01  8.98533E-01  9.00642E-01  9.02770E-01  9.06821E-01  9.16574E-01
   9.40985E-01  1.01083E+00  1.21485E+00  1.54212E+00  1.87587E+00  2.11008E+00  2.18843E+00  2.10613E+00  1.90003E+00  1.63945E+00
   1.39371E+00  1.20274E+00  1.06510E+00  9.56614E-01  8.64753E-01  7.97147E-01  7.67785E-01  7.88326E-01  8.46472E-01  9.17117E-01
   9.76111E-01  1.00943E+00  1.01426E+00  9.97123E-01  9.70259E-01  9.43929E-01  9.22674E-01  9.06309E-01  8.92745E-01  8.79720E-01
   8.65654E-01  8.52388E-01  8.43140E-01  8.39534E-01  8.40932E-01  8.43668E-01  8.43661E-01  8.39186E-01  8.30944E-01  8.21111E-01
   8.12863E-01  8.07259E-01  8.04383E-01  8.03195E-01  8.01525E-01  7.97448E-01  7.91436E-01  7.85670E-01  7.81829E-01  7.79878E-01
   7.77273E-01  7.70437E-01  7.58807E-01  7.45302E-01  7.32670E-01  7.22206E-01  7.13102E-01  7.04610E-01  6.96398E-01  6.90357E-01
   6.85107E-01  6.78395E-01  6.70494E-01  6.64192E-01  6.64409E-01  6.77761E-01  7.09529E-01  7.58567E-01  8.12768E-01  8.54303E-01
   8.70239E-01  8.55559E-01  8.10564E-01  7.40048E-01  6.68784E-01  6.24124E-01  6.17148E-01  6.43319E-01  6.91413E-01  7.50007E-01
   8.07155E-01  8.51837E-01  8.71791E-01  8.68800E-01  8.45708E-01  8.00696E-01  7.41339E-01  6.81924E-01  6.41629E-01  6.43232E-01
   7.07983E-01  8.55378E-01  1.03690E+00  1.18413E+00  1.24653E+00  1.20253E+00  1.04861E+00  7.93138E-01  4.93116E-01  2.50952E-01
   1.41132E-01  1.73608E-01  3.21046E-01  5.35768E-01  7.61664E-01  9.43421E-01  1.03890E+00  1.04354E+00  9.92705E-01  9.29999E-01
   8.88447E-01  8.85948E-01  9.27559E-01  1.00389E+00  1.08090E+00  1.11593E+00  1.09000E+00  1.00971E+00  8.96197E-01  7.87751E-01
   7.25562E-01  7.34381E-01  8.08033E-01  9.21338E-01  1.03784E+00  1.12046E+00  1.14730E+00  1.12304E+00  1.07530E+00  1.03335E+00
   1.02475E+00  1.07788E+00  1.17969E+00  1.28182E+00  1.35500E+00  1.42281E+00  1.51588E+00  1.60808E+00  1.66880E+00  1.68540E+00
   1.64824E+00  1.55159E+00  1.40707E+00  1.24614E+00  1.10377E+00  9.96220E-01  9.20171E-01  8.65556E-01  8.26306E-01  8.01051E-01
   7.89053E-01  7.87322E-01  7.90583E-01  7.93101E-01  7.90081E-01  7.78305E-01  7.57943E-01  7.32894E-01  7.07922E-01  6.86254E-01
   6.69042E-01  6.56347E-01  6.47278E-01  6.40148E-01  6.33402E-01  6.26209E-01  6.18366E-01  6.10396E-01  6.02979E-01  5.96467E-01
   5.90897E-01  5.86041E-01  5.81582E-01  5.77187E-01  5.72486E-01  5.67476E-01  5.62463E-01  5.57767E-01  5.53659E-01  5.50238E-01
   5.47441E-01  5.45077E-01  5.42900E-01  5.40710E-01  5.38426E-01  5.36069E-01  5.33718E-01  5.31457E-01  5.29340E-01  5.27372E-01
   5.25541E-01  5.23834E-01  5.22248E-01  5.20787E-01  5.19462E-01  5.18287E-01  5.17276E-01  5.16441E-01  5.15796E-01  5.15355E-01
   5.15137E-01  5.15167E-01  5.15477E-01  5.16101E-01  5.17081E-01  5.18467E-01  5.20320E-01  5.22716E-01  5.25748E-01  5.29536E-01
   5.34231E-01  5.40030E-01  5.47201E-01  5.56105E-01  5.67250E-01  5.81357E-01  5.99459E-01  6.23032E-01  6.54165E-01  6.95746E-01
   7.51651E-01  8.26860E-01  9.27448E-01  1.06031E+00  1.23254E+00  1.45042E+00  1.71800E+00  2.03539E+00  2.39720E+00  2.79134E+00
   3.19875E+00  3.59438E+00  3.94949E+00  4.23516E+00  4.42632E+00  4.50555E+00  4.46598E+00  4.31229E+00  4.05996E+00  3.73262E+00
   3.35843E+00  2.96594E+00  2.58062E+00  2.22236E+00  1.90429E+00  1.63294E+00  1.40922E+00  1.22997E+00  1.08964E+00  9.81607E-01
   8.99348E-01  8.37021E-01  7.89799E-01  7.53922E-01  7.26602E-01  7.05853E-01  6.90316E-01  6.79093E-01  6.71625E-01  6.67585E-01
   6.66822E-01  6.69303E-01  6.75089E-01  6.84305E-01  6.97128E-01  7.13766E-01  7.34446E-01  7.59394E-01  7.88822E-01  8.22898E-01
   8.61729E-01  9.05331E-01  9.53606E-01  1.00632E+00  1.06307E+00  1.12329E+00  1.18621E+00  1.25089E+00  1.31622E+00  1.38092E+00
   1.44361E+00  1.50283E+00  1.55711E+00  1.60503E+00  1.64528E+00  1.67670E+00  1.69838E+00  1.70966E+00  1.71019E+00  1.69995E+00
   1.67921E+00  1.64857E+00  1.60887E+00  1.56118E+00  1.50675E+00  1.44693E+00  1.38310E+00  1.31665E+00  1.24890E+00  1.18105E+00
   1.11417E+00  1.04917E+00  9.86781E-01  9.27570E-01  8.71927E-01  8.20091E-01  7.72168E-01  7.28149E-01  6.87938E-01  6.51363E-01
   6.18209E-01  5.88225E-01  5.61147E-01  5.36704E-01  5.14634E-01  4.94682E-01  4.76614E-01  4.60213E-01  4.45284E-01  4.31652E-01
   4.19162E-01  4.07675E-01  3.97074E-01  3.87252E-01  3.78121E-01  3.69599E-01  3.61620E-01  3.54123E-01  3.47057E-01  3.40376E-01
   3.34042E-01  3.28019E-01  3.22280E-01  3.16795E-01  3.11544E-01  3.06503E-01  3.01657E-01  2.96987E-01  2.92480E-01  2.88120E-01
   2.83898E-01  2.79803E-01  2.75825E-01  2.71955E-01  2.68187E-01  2.64511E-01  2.60922E-01  2.57415E-01  2.53983E-01  2.50622E-01
   2.47327E-01  2.44095E-01  2.40921E-01  2.37802E-01  2.34736E-01  2.31717E-01  2.28744E-01  2.25814E-01  2.22925E-01  2.20074E-01
   2.17259E-01  2.14478E-01  2.11730E-01  2.09013E-01  2.06325E-01  2.03664E-01  2.01030E-01  1.98420E-01  1.95834E-01  1.93270E-01
   1.90728E-01  1.88205E-01  1.85702E-01  1.83216E-01  1.80748E-01  1.78295E-01  1.75858E-01  1.73435E-01
 NY background values follow
     1.004E+00    1.002E+00    1.000E+00    9.985E-01    9.968E-01    9.951E-01    9.934E-01    9.917E-01    9.899E-01    9.882E-01
     9.865E-01    9.848E-01    9.830E-01    9.813E-01    9.796E-01    9.779E-01    9.761E-01    9.744E-01    9.727E-01    9.710E-01
     9.692E-01    9.675E-01    9.658E-01    9.641E-01    9.623E-01    9.606E-01    9.589E-01    9.571E-01    9.554E-01    9.537E-01
     9.519E-01    9.502E-01    9.485E-01    9.468E-01    9.450E-01    9.433E-01    9.416E-01    9.398E-01    9.381E-01    9.364E-01
     9.346E-01    9.329E-01    9.311E-01    9.294E-01    9.277E-01    9.259E-01    9.242E-01    9.225E-01    9.207E-01    9.190E-01
     9.172E-01    9.155E-01    9.138E-01    9.120E-01    9.103E-01    9.085E-01    9.068E-01    9.051E-01    9.033E-01    9.016E-01
     8.998E-01    8.981E-01    8.964E-01    8.946E-01    8.929E-01    8.911E-01    8.894E-01    8.876E-01    8.859E-01    8.841E-01
     8.824E-01    8.806E-01    8.789E-01    8.771E-01    8.754E-01    8.737E-01    8.719E-01    8.702E-01    8.684E-01    8.667E-01
     8.649E-01    8.632E-01    8.614E-01    8.597E-01    8.579E-01    8.562E-01    8.544E-01    8.526E-01    8.509E-01    8.491E-01
     8.474E-01    8.456E-01    8.439E-01    8.421E-01    8.404E-01    8.386E-01    8.369E-01    8.351E-01    8.333E-01    8.316E-01
     8.298E-01    8.281E-01    8.263E-01    8.246E-01    8.228E-01    8.210E-01    8.193E-01    8.175E-01    8.158E-01    8.140E-01
     8.122E-01    8.105E-01    8.087E-01    8.070E-01    8.052E-01    8.034E-01    8.017E-01    7.999E-01    7.982E-01    7.964E-01
     7.946E-01    7.929E-01    7.911E-01    7.893E-01    7.876E-01    7.858E-01    7.840E-01    7.823E-01    7.805E-01    7.787E-01
     7.770E-01    7.752E-01    7.734E-01    7.717E-01    7.699E-01    7.681E-01    7.664E-01    7.646E-01    7.628E-01    7.611E-01
     7.593E-01    7.575E-01    7.558E-01    7.540E-01    7.522E-01    7.505E-01    7.487E-01    7.469E-01    7.451E-01    7.434E-01
     7.416E-01    7.398E-01    7.381E-01    7.363E-01    7.345E-01    7.327E-01    7.310E-01    7.292E-01    7.274E-01    7.256E-01
     7.239E-01    7.221E-01    7.203E-01    7.185E-01    7.168E-01    7.150E-01    7.132E-01    7.114E-01    7.097E-01    7.079E-01
     7.061E-01    7.043E-01    7.025E-01    7.008E-01    6.990E-01    6.972E-01    6.954E-01    6.937E-01    6.919E-01    6.901E-01
     6.883E-01    6.865E-01    6.848E-01    6.830E-01    6.812E-01    6.794E-01    6.776E-01    6.759E-01    6.741E-01    6.723E-01
     6.705E-01    6.687E-01    6.669E-01    6.652E-01    6.634E-01    6.616E-01    6.598E-01    6.580E-01    6.562E-01    6.545E-01
     6.527E-01    6.509E-01    6.491E-01    6.473E-01    6.455E-01    6.438E-01    6.420E-01    6.402E-01    6.384E-01    6.366E-01
     6.348E-01    6.330E-01    6.313E-01    6.295E-01    6.277E-01    6.259E-01    6.241E-01    6.223E-01    6.205E-01    6.187E-01
     6.170E-01    6.152E-01    6.134E-01    6.116E-01    6.098E-01    6.080E-01    6.062E-01    6.044E-01    6.026E-01    6.009E-01
     5.991E-01    5.973E-01    5.955E-01    5.937E-01    5.919E-01    5.901E-01    5.883E-01    5.865E-01    5.847E-01    5.830E-01
     5.812E-01    5.794E-01    5.776E-01    5.758E-01    5.740E-01    5.722E-01    5.704E-01    5.686E-01    5.668E-01    5.650E-01
     5.632E-01    5.614E-01    5.597E-01    5.579E-01    5.561E-01    5.543E-01    5.525E-01    5.507E-01    5.489E-01    5.471E-01
     5.453E-01    5.435E-01    5.417E-01    5.399E-01    5.381E-01    5.363E-01    5.345E-01    5.327E-01    5.309E-01    5.291E-01
     5.273E-01    5.256E-01    5.238E-01    5.220E-01    5.202E-01    5.184E-01    5.166E-01    5.148E-01    5.130E-01    5.112E-01
     5.094E-01    5.076E-01    5.058E-01    5.040E-01    5.022E-01    5.004E-01    4.986E-01    4.968E-01    4.950E-01    4.932E-01
     4.914E-01    4.896E-01    4.878E-01    4.860E-01    4.842E-01    4.824E-01    4.806E-01    4.788E-01    4.770E-01    4.752E-01
     4.734E-01    4.716E-01    4.698E-01    4.680E-01    4.662E-01    4.644E-01    4.626E-01    4.608E-01    4.590E-01    4.572E-01
     4.554E-01    4.536E-01    4.518E-01    4.500E-01    4.482E-01    4.464E-01    4.446E-01    4.428E-01    4.410E-01    4.392E-01
     4.374E-01    4.356E-01    4.338E-01    4.320E-01    4.302E-01    4.284E-01    4.266E-01    4.248E-01    4.230E-01    4.212E-01
     4.194E-01    4.176E-01    4.158E-01    4.140E-01    4.122E-01    4.104E-01    4.086E-01    4.068E-01    4.050E-01    4.032E-01
     4.014E-01    3.996E-01    3.978E-01    3.960E-01    3.942E-01    3.924E-01    3.906E-01    3.888E-01    3.870E-01    3.852E-01
     3.834E-01    3.816E-01    3.798E-01    3.780E-01    3.762E-01    3.744E-01    3.726E-01    3.708E-01    3.690E-01    3.672E-01
     3.654E-01    3.636E-01    3.617E-01    3.599E-01    3.581E-01    3.563E-01    3.545E-01    3.527E-01    3.509E-01    3.491E-01
     3.473E-01    3.455E-01    3.437E-01    3.419E-01    3.401E-01    3.383E-01    3.365E-01    3.347E-01    3.329E-01    3.311E-01
     3.293E-01    3.275E-01    3.257E-01    3.239E-01    3.221E-01    3.203E-01    3.185E-01    3.167E-01    3.149E-01    3.131E-01
     3.113E-01    3.095E-01    3.077E-01    3.059E-01    3.041E-01    3.023E-01    3.005E-01    2.987E-01    2.969E-01    2.951E-01
     2.933E-01    2.915E-01    2.897E-01    2.878E-01    2.860E-01    2.842E-01    2.824E-01    2.806E-01    2.788E-01    2.770E-01
     2.752E-01    2.734E-01    2.716E-01    2.698E-01    2.680E-01    2.662E-01    2.644E-01    2.626E-01    2.608E-01    2.590E-01
     2.572E-01    2.554E-01    2.536E-01    2.518E-01    2.500E-01    2.482E-01    2.464E-01    2.446E-01    2.428E-01    2.410E-01
     2.392E-01    2.374E-01    2.356E-01    2.338E-01    2.320E-01    2.302E-01    2.284E-01    2.266E-01    2.248E-01    2.230E-01
     2.212E-01    2.194E-01    2.176E-01    2.158E-01    2.140E-01    2.122E-01    2.104E-01    2.086E-01    2.068E-01    2.050E-01
     2.032E-01    2.014E-01    1.996E-01    1.978E-01    1.960E-01    1.942E-01    1.924E-01    1.906E-01    1.888E-01    1.870E-01
     1.852E-01    1.834E-01    1.816E-01    1.798E-01    1.780E-01    1.762E-01    1.744E-01    1.726E-01    1.708E-01    1.690E-01
     1.672E-01    1.654E-01    1.636E-01    1.618E-01    1.600E-01    1.583E-01    1.565E-01    1.547E-01    1.529E-01    1.511E-01
     1.493E-01    1.475E-01    1.457E-01    1.439E-01    1.421E-01    1.403E-01    1.385E-01    1.367E-01    1.349E-01    1.331E-01
     1.313E-01    1.295E-01    1.277E-01    1.259E-01    1.241E-01    1.223E-01    1.205E-01    1.188E-01
 Asp      Conc. = 5.14E+00
