 LCModel (Version 6.3-1L) Copyright: S.W. Provencher.          Ref.: Magn. Reson. Med. 30:672-679 (1993).                
 Slice#1 Row#7 Col#12  PD_24_press_1_raw_act
 36 lines in following concentration table = NCONC+1
    Conc.  %SD /Cr+PCr  Metabolite                                         
    0.000 999%   0.000 Ala                                                 
    0.000 999%   0.000 Asp                                                 
  174.982 107%   0.869 Cr                                                  
   26.370 704%   0.131 PCr                                                 
   49.783 116%   0.247 GABA                                                
   62.420  92%   0.310 Glc                                                 
  612.050  59%   3.040 Gln                                                 
  382.360 106%   1.899 Glu                                                 
    0.000 999%   0.000 GPC                                                 
   28.929  64%   0.144 PCh                                                 
    1.592 999% 7.9E-03 GSH                                                 
  251.161  92%   1.247 Ins                                                 
  107.436 190%   0.534 Lac                                                 
 1.50E+03   6%   7.454 NAA                                                 
    0.000 999%   0.000 NAAG                                                
   26.337  60%   0.131 Scyllo                                              
  207.885  43%   1.032 Tau                                                 
  280.498  25%   1.393 -CrCH2                                              
   28.929  64%   0.144 GPC+PCh                                             
 1.50E+03   6%   7.454 NAA+NAAG                                            
  201.352  25%   1.000 Cr+PCr                                              
  994.410  64%   4.939 Glu+Gln                                             
    0.000 999%   0.000 Lip13a                                              
  429.626  24%   2.134 Lip13b                                              
  105.752  80%   0.525 Lip09                                               
  855.908  13%   4.251 MM09                                                
   80.320  74%   0.399 Lip20                                               
 1.07E+03  25%   5.289 MM20                                                
  252.337  39%   1.253 MM12                                                
  426.625  39%   2.119 MM14                                                
  697.745  13%   3.465 MM17                                                
  429.626  24%   2.134 Lip13a+Lip13b                                       
 1.11E+03  18%   5.506 MM14+Lip13a+Lip13b+MM12                             
  961.660  10%   4.776 MM09+Lip09                                          
 1.15E+03  23%   5.688 MM20+Lip20                                          
   6 lines in following misc. output table
  FWHM = 0.092 ppm    S/N =   7                                            
  Data shift = 0.000 ppm                                                   
  Ph:  26 deg      12.6 deg/ppm                                            
  alphaB,S = 1.8E+00,   6.3E+01                                            
   14 spline knots.   Ns = 7(2)                                            
  ( 6) 2 infls.   ( 2) 1 extrs.                                            
  498 points on ppm-axis = NY
      4.000000     3.992357     3.984714     3.977070     3.969427     3.961784     3.954141     3.946497     3.938854     3.931211
      3.923568     3.915925     3.908281     3.900638     3.892995     3.885352     3.877708     3.870065     3.862422     3.854779
      3.847136     3.839492     3.831849     3.824206     3.816563     3.808919     3.801276     3.793633     3.785990     3.778347
      3.770703     3.763060     3.755417     3.747774     3.740130     3.732487     3.724844     3.717201     3.709558     3.701914
      3.694271     3.686628     3.678985     3.671341     3.663698     3.656055     3.648412     3.640769     3.633125     3.625482
      3.617839     3.610196     3.602552     3.594909     3.587266     3.579623     3.571980     3.564336     3.556693     3.549050
      3.541407     3.533763     3.526120     3.518477     3.510834     3.503191     3.495547     3.487904     3.480261     3.472618
      3.464974     3.457331     3.449688     3.442045     3.434402     3.426758     3.419115     3.411472     3.403829     3.396185
      3.388542     3.380899     3.373256     3.365613     3.357969     3.350326     3.342683     3.335040     3.327396     3.319753
      3.312110     3.304467     3.296824     3.289180     3.281537     3.273894     3.266251     3.258607     3.250964     3.243321
      3.235678     3.228034     3.220391     3.212748     3.205105     3.197462     3.189818     3.182175     3.174532     3.166889
      3.159245     3.151602     3.143959     3.136316     3.128673     3.121029     3.113386     3.105743     3.098100     3.090456
      3.082813     3.075170     3.067527     3.059884     3.052240     3.044597     3.036954     3.029311     3.021667     3.014024
      3.006381     2.998738     2.991095     2.983451     2.975808     2.968165     2.960522     2.952878     2.945235     2.937592
      2.929949     2.922306     2.914662     2.907019     2.899376     2.891733     2.884089     2.876446     2.868803     2.861160
      2.853517     2.845873     2.838230     2.830587     2.822944     2.815300     2.807657     2.800014     2.792371     2.784728
      2.777084     2.769441     2.761798     2.754155     2.746511     2.738868     2.731225     2.723582     2.715939     2.708295
      2.700652     2.693009     2.685366     2.677722     2.670079     2.662436     2.654793     2.647150     2.639506     2.631863
      2.624220     2.616577     2.608933     2.601290     2.593647     2.586004     2.578361     2.570717     2.563074     2.555431
      2.547788     2.540144     2.532501     2.524858     2.517215     2.509572     2.501928     2.494285     2.486642     2.478999
      2.471355     2.463712     2.456069     2.448426     2.440783     2.433139     2.425496     2.417853     2.410210     2.402566
      2.394923     2.387280     2.379637     2.371994     2.364350     2.356707     2.349064     2.341421     2.333777     2.326134
      2.318491     2.310848     2.303205     2.295561     2.287918     2.280275     2.272632     2.264988     2.257345     2.249702
      2.242059     2.234416     2.226772     2.219129     2.211486     2.203843     2.196199     2.188556     2.180913     2.173270
      2.165627     2.157983     2.150340     2.142697     2.135054     2.127410     2.119767     2.112124     2.104481     2.096838
      2.089194     2.081551     2.073908     2.066265     2.058621     2.050978     2.043335     2.035692     2.028049     2.020405
      2.012762     2.005119     1.997476     1.989833     1.982190     1.974546     1.966903     1.959260     1.951617     1.943974
      1.936331     1.928688     1.921045     1.913402     1.905759     1.898115     1.890472     1.882829     1.875186     1.867543
      1.859900     1.852257     1.844614     1.836971     1.829327     1.821684     1.814041     1.806398     1.798755     1.791112
      1.783469     1.775826     1.768183     1.760540     1.752896     1.745253     1.737610     1.729967     1.722324     1.714681
      1.707038     1.699395     1.691752     1.684108     1.676465     1.668822     1.661179     1.653536     1.645893     1.638250
      1.630607     1.622964     1.615321     1.607677     1.600034     1.592391     1.584748     1.577105     1.569462     1.561819
      1.554176     1.546533     1.538890     1.531246     1.523603     1.515960     1.508317     1.500674     1.493031     1.485388
      1.477745     1.470102     1.462458     1.454815     1.447172     1.439529     1.431886     1.424243     1.416600     1.408957
      1.401314     1.393671     1.386027     1.378384     1.370741     1.363098     1.355455     1.347812     1.340169     1.332526
      1.324883     1.317240     1.309596     1.301953     1.294310     1.286667     1.279024     1.271381     1.263738     1.256095
      1.248452     1.240808     1.233165     1.225522     1.217879     1.210236     1.202593     1.194950     1.187307     1.179664
      1.172021     1.164377     1.156734     1.149091     1.141448     1.133805     1.126162     1.118519     1.110876     1.103233
      1.095590     1.087946     1.080303     1.072660     1.065017     1.057374     1.049731     1.042088     1.034445     1.026802
      1.019158     1.011515     1.003872     0.996229     0.988586     0.980943     0.973300     0.965657     0.958014     0.950371
      0.942727     0.935084     0.927441     0.919798     0.912155     0.904512     0.896869     0.889226     0.881583     0.873940
      0.866296     0.858653     0.851010     0.843367     0.835724     0.828081     0.820438     0.812795     0.805152     0.797508
      0.789865     0.782222     0.774579     0.766936     0.759293     0.751650     0.744007     0.736364     0.728721     0.721077
      0.713434     0.705791     0.698148     0.690505     0.682862     0.675219     0.667576     0.659933     0.652290     0.644646
      0.637003     0.629360     0.621717     0.614074     0.606431     0.598788     0.591145     0.583502     0.575858     0.568215
      0.560572     0.552929     0.545286     0.537643     0.530000     0.522357     0.514714     0.507071     0.499427     0.491784
      0.484141     0.476498     0.468855     0.461212     0.453569     0.445925     0.438282     0.430639     0.422996     0.415353
      0.407710     0.400067     0.392424     0.384780     0.377137     0.369494     0.361851     0.354208     0.346565     0.338922
      0.331278     0.323635     0.315992     0.308349     0.300706     0.293063     0.285420     0.277777     0.270133     0.262490
      0.254847     0.247204     0.239561     0.231918     0.224275     0.216631     0.208988     0.201345
 NY phased data points follow
  -1.02325E+01 -6.21380E+00 -8.03734E+00 -9.74780E+00 -9.09472E+00 -9.56833E+00 -1.24226E+01 -9.47827E+00 -1.45543E+01 -8.48339E+00
  -1.43170E+01 -1.14130E+01 -1.09844E+01 -6.88948E+00 -9.46242E+00 -6.45327E+00 -7.30016E+00 -5.31315E+00 -6.99014E+00 -7.86061E+00
  -1.19891E+01 -5.30063E+00 -8.67653E+00 -6.79934E+00 -9.12584E+00 -8.26664E+00 -9.30028E+00 -2.88018E+00 -5.29621E+00 -5.38051E+00
  -9.61828E+00 -6.10705E+00 -8.83119E+00 -6.73116E+00 -1.13314E+01 -6.74966E+00 -9.85671E+00 -1.13354E+01 -8.06785E+00 -7.09164E+00
  -7.62231E+00 -6.67024E+00 -1.01298E+01 -4.88297E+00 -9.62046E+00 -6.32675E+00 -7.52518E+00 -5.86174E+00 -7.04020E+00 -4.45436E+00
  -8.67410E+00 -5.33645E+00 -4.88309E+00 -5.96861E+00 -6.21035E+00 -5.60100E+00 -5.86017E+00 -3.62627E+00 -5.78084E+00 -3.57260E+00
  -4.39158E+00 -4.29667E+00 -1.14171E+01  3.63526E+00 -6.32782E+00 -2.52765E+00 -4.39267E+00 -4.12077E+00 -6.18949E+00 -1.58378E+00
  -7.26071E+00 -8.92581E+00 -6.22839E+00 -4.49996E+00 -6.94048E+00 -4.93631E+00 -6.70736E+00 -5.11996E+00 -7.82363E+00 -2.93626E+00
  -2.75906E+00 -4.27178E+00 -5.84998E+00 -3.97803E+00 -5.16895E+00  2.04316E-01 -6.41863E+00 -9.01357E+00 -7.02821E+00 -8.98945E+00
  -5.84815E+00 -3.38978E+00 -5.77270E+00 -2.92019E+00 -5.95869E+00 -1.76357E+00 -4.69673E+00 -7.29658E+00 -1.21112E+00 -3.01528E+00
  -2.41829E-01 -6.65297E+00 -7.92913E+00 -4.82563E+00 -7.00281E+00 -8.98945E+00 -5.41955E+00 -4.21546E+00 -2.82634E+00 -4.23646E-01
  -4.70376E+00 -1.13697E+00 -4.14213E+00 -1.56464E+00 -1.19098E+00 -4.66473E+00 -4.11104E+00 -4.23271E+00 -6.16393E+00 -2.50800E+00
  -1.20026E+00 -4.13488E+00 -1.87369E+00 -2.96188E+00  3.20194E-01  4.20975E-01 -2.42319E+00 -1.93506E+00  8.43251E-02 -3.38456E+00
   1.97562E+00 -4.23487E+00  4.25088E-01  5.99980E-01 -2.25743E+00 -1.20411E+00 -3.27059E+00 -2.35638E+00 -3.18195E+00  1.60099E+00
  -5.59242E+00 -4.56808E+00 -2.79848E+00  5.16014E-01 -1.32488E+00 -7.46944E+00 -6.63194E+00  1.36838E+00 -2.37708E+00 -3.55074E+00
  -6.86173E+00  1.63373E-01 -2.96015E+00  1.74948E+00 -1.17578E+00 -7.43782E-01 -1.55731E+00 -3.81283E+00 -6.32996E+00 -5.33748E+00
  -2.96406E+00 -9.41639E-01 -3.51638E+00 -5.70710E+00 -4.13904E+00 -8.08881E+00 -7.92696E+00 -6.60711E+00 -6.49159E+00 -2.03309E+00
  -5.25793E+00 -1.99756E+00 -6.71530E+00 -3.84885E+00 -7.37938E+00 -8.54173E+00 -9.83641E+00 -5.79264E+00 -1.09556E+01 -7.66667E+00
  -7.04430E+00 -8.03757E+00 -6.67631E+00 -5.88228E+00 -7.82089E+00 -6.64341E+00 -7.17830E+00 -5.61678E+00 -6.08601E+00 -6.84801E+00
  -9.61024E+00 -4.54574E+00 -3.71814E+00 -3.26685E+00 -7.83209E+00 -8.09763E+00 -8.76020E+00 -1.10164E+01 -5.59812E+00 -1.74865E+00
  -8.88770E+00 -4.25275E+00 -3.32757E+00 -5.98192E+00 -5.01353E+00 -6.07891E+00 -8.39350E+00 -6.34558E+00 -9.39593E+00 -6.17058E+00
  -3.13001E+00  3.67236E-01 -2.54171E+00  1.27517E+00 -1.09872E+00  2.13407E-01 -2.46286E+00 -6.39718E+00 -5.69026E+00 -3.24489E+00
  -5.74381E+00 -4.16997E+00 -4.42725E+00 -3.59159E+00 -1.82874E+00 -1.42509E+00 -3.32870E+00 -5.39957E+00  1.28597E+00 -1.89337E+00
  -2.57978E+00  2.61628E+00  6.40613E-01 -2.37921E+00  9.84360E-01 -3.64507E+00  3.94552E-01 -1.04246E+00  2.63786E+00 -3.86714E-02
   1.51576E+00 -1.04112E+00 -8.11552E-02 -3.43435E+00 -1.76455E+00  3.52099E-01  4.37632E-01  5.17036E+00  4.77499E-01  5.66392E+00
   5.46392E+00  5.45401E+00  8.97493E+00  1.25863E+01  1.60904E+01  2.21677E+01  2.95264E+01  3.48516E+01  3.90544E+01  2.98215E+01
   2.91689E+01  3.20933E+01  2.35393E+01  2.30727E+01  1.74492E+01  1.74464E+01  1.45009E+01  1.30049E+01  4.82147E+00  7.72824E+00
   4.73083E+00  3.00249E+00 -8.66214E-01  2.54432E+00 -3.42713E+00 -6.12233E-01 -7.40081E+00 -2.96705E+00 -5.20244E+00 -2.50855E+00
  -4.38013E+00 -2.39995E+00 -4.00456E+00 -4.01244E+00 -4.35908E+00  5.32582E-01 -3.63176E+00 -3.87685E+00 -3.33948E+00 -4.99348E+00
  -8.68478E+00 -4.03576E+00 -4.14466E+00 -6.14642E+00 -4.94468E+00 -8.09164E-01 -5.19741E+00 -4.85396E-01 -4.80219E+00 -1.85167E+00
  -2.09087E+00  3.85279E-01 -1.35609E-01  3.35657E+00  5.58173E-01  1.94703E+00  2.01163E+00  2.76986E+00  5.56482E+00  7.43493E+00
   6.03123E+00  8.21445E+00  5.43007E+00  8.06710E+00  4.19101E+00  5.47533E+00  4.32582E+00  5.34690E+00  3.36009E+00  3.91487E-01
   3.38542E+00  5.37477E-01  4.30821E+00  4.24254E+00  3.14701E+00  3.87907E+00  3.45456E+00  2.83083E+00 -2.02675E+00  1.45630E-01
   4.39304E+00  3.89866E+00  9.76026E-01  2.75372E+00  6.71730E-01  3.50771E+00  1.92289E+00 -1.39862E+00  1.24562E+00  3.29823E+00
   3.17928E+00  1.74380E+00  1.72317E+00  2.18750E+00  3.11663E+00 -9.47368E-01  3.98458E+00 -5.83823E-01  4.07270E+00  3.34883E+00
   4.93689E+00  2.25462E+00  1.86324E+00  2.85462E+00  1.87039E+00  4.88035E+00  2.68818E+00  5.16332E+00  6.47392E+00  7.87466E+00
   8.12148E+00  6.89627E+00  5.50144E+00  3.57363E+00  3.87773E+00  6.99652E+00  4.81204E+00  4.27355E+00  5.11459E+00  1.12186E+00
   3.09904E+00  3.58943E-01  3.07609E+00  1.25274E+00 -2.17124E+00  3.93902E+00 -8.63780E-01  2.91876E-01  5.71126E-01 -5.43851E-01
  -2.02128E-01  3.76140E+00  3.05985E+00  2.44369E+00  2.33171E+00  4.77758E+00  5.07887E+00  2.91312E+00  2.99278E+00  5.16454E+00
   2.12347E+00  6.04177E+00  5.62161E+00  8.18487E+00  6.84254E+00  7.35633E+00  7.08666E+00  7.68527E+00  6.72944E+00  1.15254E+01
   7.10406E+00  8.36740E+00  1.38775E+01  9.51713E+00  7.69920E+00  8.81717E+00  1.06291E+01  7.12463E+00  1.28232E+01  8.14559E+00
   5.46247E+00  6.35751E+00  2.65735E+00  3.56176E+00  7.17858E+00  7.63375E+00  1.99418E+00  2.27079E+00 -6.36251E-01  5.47756E+00
   1.14495E+00  3.48617E-01  4.08159E+00  3.61576E+00  2.39891E+00  3.18632E-01 -2.67384E+00 -3.53927E-01  4.66899E+00  1.43858E+00
   2.79678E+00  4.80740E+00 -5.40489E-01  4.18068E+00  2.21399E+00  1.76619E-01  6.72726E+00  4.74633E+00  3.92970E-01 -2.55471E-01
   2.13636E+00  1.82160E+00  1.07248E+00  1.04624E+00  1.34977E+00  1.98958E+00  5.13695E+00 -1.23067E-01  4.83907E+00  3.55960E+00
   2.07741E+00  1.65507E+00  2.80966E+00  2.79172E+00  4.83749E+00  6.61906E+00  1.49943E+00  2.19564E+00  1.19881E+00  5.61599E-01
   5.04326E+00  7.47027E-01  4.17239E+00  4.04231E+00  4.78580E+00  3.23773E+00  4.45540E+00  5.90025E+00  3.33606E+00  6.73901E+00
   6.07383E+00  4.70779E+00  4.00973E+00  3.81552E+00  5.18667E+00  3.57480E+00  4.79909E+00  3.18050E+00 -2.50165E+00  1.35151E+00
   2.31230E+00  2.20665E+00  4.76763E+00  5.02407E+00  5.24750E+00  1.90069E+00  3.10786E+00  5.46773E-01  5.11832E+00  6.17968E+00
   3.86143E+00  1.58816E+00  4.80194E+00  3.54756E+00  4.84314E+00  2.70911E+00 -1.66636E+00  2.71087E+00
 NY points of the fit to the data follow
  -7.91961E+00 -8.62923E+00 -8.44200E+00 -9.30197E+00 -9.19551E+00 -9.84652E+00 -9.74615E+00 -9.76500E+00 -9.57433E+00 -9.23349E+00
  -9.08203E+00 -8.69013E+00 -8.66735E+00 -8.33462E+00 -8.43122E+00 -8.05772E+00 -8.18547E+00 -7.69043E+00 -7.80820E+00 -7.35149E+00
  -7.61700E+00 -7.22451E+00 -7.60342E+00 -7.37019E+00 -7.67691E+00 -7.49103E+00 -7.50965E+00 -7.10867E+00 -6.88945E+00 -6.54430E+00
  -6.54128E+00 -6.37340E+00 -6.69413E+00 -6.62719E+00 -7.03267E+00 -6.90280E+00 -7.18166E+00 -6.94068E+00 -7.06400E+00 -6.75420E+00
  -6.79907E+00 -6.46175E+00 -6.47118E+00 -6.18082E+00 -6.23398E+00 -6.06853E+00 -6.19582E+00 -6.14930E+00 -6.27860E+00 -6.27654E+00
  -6.41260E+00 -6.39655E+00 -6.49976E+00 -6.44242E+00 -6.50709E+00 -6.40567E+00 -6.43222E+00 -6.33765E+00 -6.35352E+00 -6.29064E+00
  -6.33693E+00 -6.23575E+00 -6.29599E+00 -6.11483E+00 -6.20582E+00 -5.97737E+00 -6.08845E+00 -5.84722E+00 -5.89960E+00 -5.65756E+00
  -5.66136E+00 -5.47506E+00 -5.45687E+00 -5.41409E+00 -5.46006E+00 -5.51752E+00 -5.53868E+00 -5.58815E+00 -5.49962E+00 -5.49459E+00
  -5.33078E+00 -5.30211E+00 -5.15085E+00 -5.15692E+00 -5.16012E+00 -5.19855E+00 -5.32373E+00 -5.39988E+00 -5.54074E+00 -5.58685E+00
  -5.69581E+00 -5.67510E+00 -5.72554E+00 -5.59065E+00 -5.60525E+00 -5.32896E+00 -5.28012E+00 -4.94433E+00 -4.76484E+00 -4.52376E+00
  -4.22814E+00 -4.25395E+00 -3.93964E+00 -4.20675E+00 -3.98711E+00 -4.36354E+00 -4.22738E+00 -4.58772E+00 -4.49724E+00 -4.80691E+00
  -4.77414E+00 -5.03930E+00 -5.01699E+00 -5.12108E+00 -5.10045E+00 -5.13963E+00 -5.12373E+00 -4.96169E+00 -4.82103E+00 -4.26406E+00
  -3.93873E+00 -2.98269E+00 -2.59485E+00 -1.52778E+00 -1.32425E+00 -7.56337E-01 -8.74734E-01 -8.76461E-01 -1.21162E+00 -1.51383E+00
  -1.89586E+00 -2.23406E+00 -2.57112E+00 -2.87574E+00 -3.17599E+00 -3.49345E+00 -3.75177E+00 -4.01166E+00 -4.22441E+00 -4.46038E+00
  -4.61498E+00 -4.75374E+00 -4.81971E+00 -4.78922E+00 -4.82087E+00 -4.81090E+00 -4.84648E+00 -4.85392E+00 -4.87947E+00 -4.87738E+00
  -4.88691E+00 -4.89474E+00 -4.92163E+00 -5.01873E+00 -5.04166E+00 -5.24098E+00 -5.22747E+00 -5.45326E+00 -5.38995E+00 -5.47184E+00
  -5.45332E+00 -5.40716E+00 -5.56911E+00 -5.53923E+00 -5.79977E+00 -5.85115E+00 -6.15718E+00 -6.28217E+00 -6.57529E+00 -6.68779E+00
  -6.94464E+00 -7.06671E+00 -7.19779E+00 -7.35513E+00 -7.20848E+00 -7.42746E+00 -7.13076E+00 -7.46629E+00 -7.08471E+00 -7.37684E+00
  -6.95195E+00 -7.14741E+00 -6.66592E+00 -6.74879E+00 -6.17004E+00 -6.08840E+00 -5.56360E+00 -5.34707E+00 -4.99872E+00 -4.69985E+00
  -4.62176E+00 -4.27679E+00 -4.42194E+00 -3.97505E+00 -4.15195E+00 -3.60016E+00 -3.71360E+00 -3.06844E+00 -2.99656E+00 -2.44874E+00
  -2.47916E+00 -2.29116E+00 -2.73844E+00 -2.98159E+00 -3.84390E+00 -4.18093E+00 -5.01104E+00 -5.10330E+00 -5.33640E+00 -5.17351E+00
  -4.77682E+00 -4.45754E+00 -3.90616E+00 -3.67887E+00 -3.44676E+00 -3.40381E+00 -3.46297E+00 -3.46079E+00 -3.50321E+00 -3.35861E+00
  -3.21532E+00 -2.86133E+00 -2.65253E+00 -2.26983E+00 -2.15615E+00 -1.88113E+00 -1.96149E+00 -1.75759E+00 -1.93737E+00 -1.77935E+00
  -1.96855E+00 -1.64017E+00 -1.76295E+00 -1.23473E+00 -1.18823E+00 -6.44545E-01 -4.94974E-01 -2.46788E-01 -1.17010E-01 -2.90184E-01
  -1.23433E-01 -4.39103E-01 -1.83429E-01 -3.69009E-01  6.72344E-02  2.28285E-01  1.38379E+00  1.87400E+00  2.83899E+00  3.53662E+00
   5.31073E+00  6.70473E+00  1.04508E+01  1.30297E+01  1.91023E+01  2.25973E+01  2.85422E+01  3.14285E+01  3.27127E+01  3.35818E+01
   3.04263E+01  2.96604E+01  2.47238E+01  2.33366E+01  1.87858E+01  1.74187E+01  1.36091E+01  1.23140E+01  8.72927E+00  7.50979E+00
   4.73179E+00  3.69652E+00  1.42614E+00  6.11940E-01 -6.69616E-01 -1.02399E+00 -8.98711E-01 -9.52779E-01 -1.07468E+00 -1.17396E+00
  -1.26382E+00 -1.33758E+00 -1.40357E+00 -1.45043E+00 -1.49546E+00 -1.52479E+00 -1.55525E+00 -1.56381E+00 -1.57665E+00 -1.55588E+00
  -1.53896E+00 -1.48096E+00 -1.42498E+00 -1.32032E+00 -1.21428E+00 -1.05260E+00 -8.81742E-01 -6.51305E-01 -4.03907E-01 -9.39844E-02
   2.35238E-01  6.24135E-01  1.02803E+00  1.47956E+00  1.93208E+00  2.41257E+00  2.87216E+00  3.33296E+00  3.74587E+00  4.13240E+00
   4.44465E+00  4.70761E+00  4.87792E+00  4.98642E+00  4.99656E+00  4.94642E+00  4.80663E+00  4.62172E+00  4.36784E+00  4.09356E+00
   3.77747E+00  3.46863E+00  3.14488E+00  2.85253E+00  2.56609E+00  2.32730E+00  2.10615E+00  1.93941E+00  1.79289E+00  1.69946E+00
   1.62232E+00  1.59265E+00  1.57466E+00  1.60207E+00  1.61383E+00  1.65502E+00  1.69627E+00  1.77273E+00  1.83739E+00  1.94509E+00
   2.00867E+00  2.12605E+00  2.15825E+00  2.16974E+00  2.13787E+00  2.01551E+00  2.01526E+00  1.95593E+00  2.11862E+00  2.32811E+00
   2.72908E+00  3.22810E+00  3.81110E+00  4.36840E+00  4.93636E+00  5.33853E+00  5.71988E+00  5.87984E+00  5.97433E+00  5.86656E+00
   5.69016E+00  5.38036E+00  5.02018E+00  4.59510E+00  4.14522E+00  3.69155E+00  3.27959E+00  2.89814E+00  2.57896E+00  2.31294E+00
   2.10186E+00  1.97138E+00  1.86540E+00  1.80768E+00  1.76337E+00  1.75887E+00  1.76190E+00  1.80144E+00  1.84779E+00  1.93173E+00
   2.02525E+00  2.16004E+00  2.30895E+00  2.50384E+00  2.71760E+00  2.98147E+00  3.26759E+00  3.60561E+00  3.96590E+00  4.37555E+00
   4.80216E+00  5.26940E+00  5.74152E+00  6.23849E+00  6.72136E+00  7.20702E+00  7.65443E+00  8.07909E+00  8.44002E+00  8.75373E+00
   8.98187E+00  9.14454E+00  9.20838E+00  9.19899E+00  9.08928E+00  8.91097E+00  8.64304E+00  8.32236E+00  7.93242E+00  7.51310E+00
   7.04985E+00  6.58294E+00  6.09722E+00  5.63100E+00  5.16656E+00  4.73884E+00  4.32662E+00  3.96103E+00  3.61745E+00  3.32365E+00
   3.05240E+00  2.82906E+00  2.62483E+00  2.46371E+00  2.31626E+00  2.20601E+00  2.10361E+00  2.03267E+00  1.96431E+00  1.92249E+00
   1.87899E+00  1.85817E+00  1.83246E+00  1.82657E+00  1.81348E+00  1.81816E+00  1.81403E+00  1.82625E+00  1.82858E+00  1.84624E+00
   1.85329E+00  1.87496E+00  1.88552E+00  1.91018E+00  1.92342E+00  1.95037E+00  1.96567E+00  1.99440E+00  2.01133E+00  2.04145E+00
   2.05969E+00  2.09094E+00  2.11023E+00  2.14237E+00  2.16253E+00  2.19541E+00  2.21630E+00  2.24978E+00  2.27127E+00  2.30526E+00
   2.32727E+00  2.36169E+00  2.38414E+00  2.41892E+00  2.44175E+00  2.47683E+00  2.50000E+00  2.53533E+00  2.55880E+00  2.59435E+00
   2.61808E+00  2.65383E+00  2.67779E+00  2.71372E+00  2.73789E+00  2.77397E+00  2.79833E+00  2.83455E+00  2.85910E+00  2.89545E+00
   2.92016E+00  2.95662E+00  2.98151E+00  3.01809E+00  3.04313E+00  3.07983E+00  3.10503E+00  3.14185E+00  3.16723E+00  3.20417E+00
   3.22973E+00  3.26681E+00  3.29257E+00  3.32982E+00  3.35581E+00  3.39326E+00  3.41952E+00  3.45723E+00
 NY background values follow
    -8.336E+00   -8.316E+00   -8.296E+00   -8.275E+00   -8.255E+00   -8.235E+00   -8.215E+00   -8.195E+00   -8.174E+00   -8.154E+00
    -8.134E+00   -8.114E+00   -8.093E+00   -8.073E+00   -8.053E+00   -8.033E+00   -8.012E+00   -7.992E+00   -7.972E+00   -7.951E+00
    -7.931E+00   -7.911E+00   -7.890E+00   -7.870E+00   -7.850E+00   -7.830E+00   -7.809E+00   -7.789E+00   -7.769E+00   -7.748E+00
    -7.728E+00   -7.708E+00   -7.687E+00   -7.667E+00   -7.647E+00   -7.626E+00   -7.606E+00   -7.586E+00   -7.565E+00   -7.545E+00
    -7.525E+00   -7.504E+00   -7.484E+00   -7.464E+00   -7.443E+00   -7.423E+00   -7.403E+00   -7.383E+00   -7.362E+00   -7.342E+00
    -7.322E+00   -7.301E+00   -7.281E+00   -7.261E+00   -7.241E+00   -7.220E+00   -7.200E+00   -7.180E+00   -7.160E+00   -7.139E+00
    -7.119E+00   -7.099E+00   -7.079E+00   -7.059E+00   -7.038E+00   -7.018E+00   -6.998E+00   -6.978E+00   -6.958E+00   -6.938E+00
    -6.917E+00   -6.897E+00   -6.877E+00   -6.857E+00   -6.837E+00   -6.817E+00   -6.797E+00   -6.777E+00   -6.757E+00   -6.737E+00
    -6.717E+00   -6.697E+00   -6.677E+00   -6.657E+00   -6.637E+00   -6.617E+00   -6.597E+00   -6.578E+00   -6.558E+00   -6.538E+00
    -6.518E+00   -6.498E+00   -6.478E+00   -6.459E+00   -6.439E+00   -6.419E+00   -6.400E+00   -6.380E+00   -6.360E+00   -6.341E+00
    -6.321E+00   -6.301E+00   -6.282E+00   -6.262E+00   -6.243E+00   -6.223E+00   -6.204E+00   -6.184E+00   -6.165E+00   -6.145E+00
    -6.126E+00   -6.106E+00   -6.087E+00   -6.068E+00   -6.048E+00   -6.029E+00   -6.010E+00   -5.990E+00   -5.971E+00   -5.952E+00
    -5.932E+00   -5.913E+00   -5.894E+00   -5.875E+00   -5.856E+00   -5.837E+00   -5.818E+00   -5.799E+00   -5.779E+00   -5.760E+00
    -5.741E+00   -5.722E+00   -5.703E+00   -5.685E+00   -5.666E+00   -5.647E+00   -5.628E+00   -5.609E+00   -5.590E+00   -5.571E+00
    -5.553E+00   -5.534E+00   -5.515E+00   -5.496E+00   -5.478E+00   -5.459E+00   -5.440E+00   -5.421E+00   -5.403E+00   -5.384E+00
    -5.365E+00   -5.347E+00   -5.328E+00   -5.310E+00   -5.291E+00   -5.272E+00   -5.254E+00   -5.235E+00   -5.217E+00   -5.198E+00
    -5.179E+00   -5.161E+00   -5.142E+00   -5.124E+00   -5.105E+00   -5.086E+00   -5.068E+00   -5.049E+00   -5.030E+00   -5.012E+00
    -4.993E+00   -4.974E+00   -4.956E+00   -4.937E+00   -4.918E+00   -4.900E+00   -4.881E+00   -4.862E+00   -4.843E+00   -4.825E+00
    -4.806E+00   -4.787E+00   -4.768E+00   -4.749E+00   -4.731E+00   -4.712E+00   -4.693E+00   -4.674E+00   -4.655E+00   -4.636E+00
    -4.617E+00   -4.598E+00   -4.579E+00   -4.560E+00   -4.540E+00   -4.521E+00   -4.502E+00   -4.483E+00   -4.464E+00   -4.444E+00
    -4.425E+00   -4.406E+00   -4.386E+00   -4.367E+00   -4.347E+00   -4.328E+00   -4.308E+00   -4.289E+00   -4.269E+00   -4.249E+00
    -4.230E+00   -4.210E+00   -4.190E+00   -4.170E+00   -4.150E+00   -4.131E+00   -4.111E+00   -4.091E+00   -4.071E+00   -4.050E+00
    -4.030E+00   -4.010E+00   -3.990E+00   -3.970E+00   -3.949E+00   -3.929E+00   -3.908E+00   -3.888E+00   -3.867E+00   -3.847E+00
    -3.826E+00   -3.805E+00   -3.785E+00   -3.764E+00   -3.743E+00   -3.722E+00   -3.701E+00   -3.680E+00   -3.659E+00   -3.637E+00
    -3.616E+00   -3.595E+00   -3.574E+00   -3.552E+00   -3.531E+00   -3.509E+00   -3.487E+00   -3.466E+00   -3.444E+00   -3.422E+00
    -3.400E+00   -3.378E+00   -3.356E+00   -3.334E+00   -3.312E+00   -3.290E+00   -3.268E+00   -3.245E+00   -3.223E+00   -3.201E+00
    -3.178E+00   -3.155E+00   -3.133E+00   -3.110E+00   -3.087E+00   -3.064E+00   -3.041E+00   -3.018E+00   -2.995E+00   -2.972E+00
    -2.949E+00   -2.925E+00   -2.902E+00   -2.878E+00   -2.855E+00   -2.831E+00   -2.807E+00   -2.784E+00   -2.760E+00   -2.736E+00
    -2.712E+00   -2.688E+00   -2.664E+00   -2.639E+00   -2.615E+00   -2.591E+00   -2.566E+00   -2.542E+00   -2.517E+00   -2.492E+00
    -2.468E+00   -2.443E+00   -2.418E+00   -2.393E+00   -2.368E+00   -2.343E+00   -2.317E+00   -2.292E+00   -2.267E+00   -2.241E+00
    -2.216E+00   -2.190E+00   -2.165E+00   -2.139E+00   -2.113E+00   -2.088E+00   -2.062E+00   -2.036E+00   -2.010E+00   -1.984E+00
    -1.957E+00   -1.931E+00   -1.905E+00   -1.878E+00   -1.852E+00   -1.826E+00   -1.799E+00   -1.772E+00   -1.746E+00   -1.719E+00
    -1.692E+00   -1.665E+00   -1.638E+00   -1.611E+00   -1.584E+00   -1.557E+00   -1.530E+00   -1.502E+00   -1.475E+00   -1.447E+00
    -1.420E+00   -1.392E+00   -1.365E+00   -1.337E+00   -1.309E+00   -1.282E+00   -1.254E+00   -1.226E+00   -1.198E+00   -1.170E+00
    -1.142E+00   -1.114E+00   -1.086E+00   -1.058E+00   -1.029E+00   -1.001E+00   -9.726E-01   -9.442E-01   -9.157E-01   -8.872E-01
    -8.586E-01   -8.300E-01   -8.013E-01   -7.726E-01   -7.438E-01   -7.150E-01   -6.861E-01   -6.572E-01   -6.282E-01   -5.992E-01
    -5.702E-01   -5.411E-01   -5.120E-01   -4.828E-01   -4.536E-01   -4.243E-01   -3.950E-01   -3.656E-01   -3.363E-01   -3.068E-01
    -2.774E-01   -2.478E-01   -2.183E-01   -1.887E-01   -1.591E-01   -1.294E-01   -9.972E-02   -6.998E-02   -4.020E-02   -1.039E-02
     1.946E-02    4.934E-02    7.926E-02    1.092E-01    1.392E-01    1.692E-01    1.993E-01    2.294E-01    2.595E-01    2.896E-01
     3.198E-01    3.500E-01    3.803E-01    4.105E-01    4.408E-01    4.712E-01    5.015E-01    5.319E-01    5.624E-01    5.928E-01
     6.233E-01    6.538E-01    6.843E-01    7.149E-01    7.454E-01    7.760E-01    8.067E-01    8.373E-01    8.680E-01    8.987E-01
     9.294E-01    9.601E-01    9.909E-01    1.022E+00    1.052E+00    1.083E+00    1.114E+00    1.145E+00    1.176E+00    1.207E+00
     1.238E+00    1.269E+00    1.300E+00    1.331E+00    1.362E+00    1.393E+00    1.424E+00    1.455E+00    1.486E+00    1.517E+00
     1.548E+00    1.579E+00    1.610E+00    1.641E+00    1.672E+00    1.703E+00    1.734E+00    1.765E+00    1.796E+00    1.828E+00
     1.859E+00    1.890E+00    1.921E+00    1.952E+00    1.983E+00    2.014E+00    2.046E+00    2.077E+00    2.108E+00    2.139E+00
     2.170E+00    2.201E+00    2.233E+00    2.264E+00    2.295E+00    2.326E+00    2.357E+00    2.388E+00    2.419E+00    2.451E+00
     2.482E+00    2.513E+00    2.544E+00    2.575E+00    2.606E+00    2.637E+00    2.668E+00    2.700E+00    2.731E+00    2.762E+00
     2.793E+00    2.824E+00    2.855E+00    2.886E+00    2.917E+00    2.948E+00    2.979E+00    3.011E+00    3.042E+00    3.073E+00
     3.104E+00    3.135E+00    3.166E+00    3.197E+00    3.228E+00    3.259E+00    3.290E+00    3.321E+00    3.352E+00    3.383E+00
     3.414E+00    3.445E+00    3.476E+00    3.507E+00    3.538E+00    3.569E+00    3.600E+00    3.630E+00
 Cr       Conc. = 1.75E+02
