 LCModel (Version 6.3-1L) Copyright: S.W. Provencher.          Ref.: Magn. Reson. Med. 30:672-679 (1993).                
 Slice#1 Row#5 Col#12  PD_24_press_1_raw_act
 36 lines in following concentration table = NCONC+1
    Conc.  %SD /Cr+PCr  Metabolite                                         
 1.01E+03  37%   2.411 Ala                                                 
   29.024 363% 7.0E-02 Asp                                                 
   28.072 999% 6.7E-02 Cr                                                  
  389.192  94%   0.933 PCr                                                 
   57.177 114%   0.137 GABA                                                
   55.304 116%   0.133 Glc                                                 
    0.000 999%   0.000 Gln                                                 
    0.000 999%   0.000 Glu                                                 
    0.000 999%   0.000 GPC                                                 
  103.037  22%   0.247 PCh                                                 
   98.893  83%   0.237 GSH                                                 
  347.011  76%   0.832 Ins                                                 
    0.000 999%   0.000 Lac                                                 
 1.10E+03  16%   2.640 NAA                                                 
   69.745 297%   0.167 NAAG                                                
   33.684  54% 8.1E-02 Scyllo                                              
  184.518  54%   0.442 Tau                                                 
  364.996  22%   0.875 -CrCH2                                              
  103.037  22%   0.247 GPC+PCh                                             
 1.17E+03  10%   2.808 NAA+NAAG                                            
  417.264  15%   1.000 Cr+PCr                                              
    0.000 999%   0.000 Glu+Gln                                             
 9.32E+03  14%  22.332 Lip13a                                              
    0.000 999%   0.000 Lip13b                                              
  730.879  47%   1.752 Lip09                                               
 1.32E+03  28%   3.155 MM09                                                
 1.62E+03  23%   3.893 Lip20                                               
  611.997  79%   1.467 MM20                                                
  490.125  46%   1.175 MM12                                                
 1.92E+03  26%   4.607 MM14                                                
  656.145  36%   1.572 MM17                                                
 9.32E+03  14%  22.332 Lip13a+Lip13b                                       
 1.17E+04   8%  28.114 MM14+Lip13a+Lip13b+MM12                             
 2.05E+03  15%   4.907 MM09+Lip09                                          
 2.24E+03  16%   5.359 MM20+Lip20                                          
   6 lines in following misc. output table
  FWHM = 0.122 ppm    S/N =   7                                            
  Data shift = 0.069 ppm                                                   
  Ph:  39 deg      14.4 deg/ppm                                            
  alphaB,S = 8.5E+01,   2.0E+02                                            
   14 spline knots.   Ns = 7(2)                                            
   2 inflections.     1 extrema                                            
  498 points on ppm-axis = NY
      4.000000     3.992357     3.984714     3.977070     3.969427     3.961784     3.954141     3.946497     3.938854     3.931211
      3.923568     3.915925     3.908281     3.900638     3.892995     3.885352     3.877708     3.870065     3.862422     3.854779
      3.847136     3.839492     3.831849     3.824206     3.816563     3.808919     3.801276     3.793633     3.785990     3.778347
      3.770703     3.763060     3.755417     3.747774     3.740130     3.732487     3.724844     3.717201     3.709558     3.701914
      3.694271     3.686628     3.678985     3.671341     3.663698     3.656055     3.648412     3.640769     3.633125     3.625482
      3.617839     3.610196     3.602552     3.594909     3.587266     3.579623     3.571980     3.564336     3.556693     3.549050
      3.541407     3.533763     3.526120     3.518477     3.510834     3.503191     3.495547     3.487904     3.480261     3.472618
      3.464974     3.457331     3.449688     3.442045     3.434402     3.426758     3.419115     3.411472     3.403829     3.396185
      3.388542     3.380899     3.373256     3.365613     3.357969     3.350326     3.342683     3.335040     3.327396     3.319753
      3.312110     3.304467     3.296824     3.289180     3.281537     3.273894     3.266251     3.258607     3.250964     3.243321
      3.235678     3.228034     3.220391     3.212748     3.205105     3.197462     3.189818     3.182175     3.174532     3.166889
      3.159245     3.151602     3.143959     3.136316     3.128673     3.121029     3.113386     3.105743     3.098100     3.090456
      3.082813     3.075170     3.067527     3.059884     3.052240     3.044597     3.036954     3.029311     3.021667     3.014024
      3.006381     2.998738     2.991095     2.983451     2.975808     2.968165     2.960522     2.952878     2.945235     2.937592
      2.929949     2.922306     2.914662     2.907019     2.899376     2.891733     2.884089     2.876446     2.868803     2.861160
      2.853517     2.845873     2.838230     2.830587     2.822944     2.815300     2.807657     2.800014     2.792371     2.784728
      2.777084     2.769441     2.761798     2.754155     2.746511     2.738868     2.731225     2.723582     2.715939     2.708295
      2.700652     2.693009     2.685366     2.677722     2.670079     2.662436     2.654793     2.647150     2.639506     2.631863
      2.624220     2.616577     2.608933     2.601290     2.593647     2.586004     2.578361     2.570717     2.563074     2.555431
      2.547788     2.540144     2.532501     2.524858     2.517215     2.509572     2.501928     2.494285     2.486642     2.478999
      2.471355     2.463712     2.456069     2.448426     2.440783     2.433139     2.425496     2.417853     2.410210     2.402566
      2.394923     2.387280     2.379637     2.371994     2.364350     2.356707     2.349064     2.341421     2.333777     2.326134
      2.318491     2.310848     2.303205     2.295561     2.287918     2.280275     2.272632     2.264988     2.257345     2.249702
      2.242059     2.234416     2.226772     2.219129     2.211486     2.203843     2.196199     2.188556     2.180913     2.173270
      2.165627     2.157983     2.150340     2.142697     2.135054     2.127410     2.119767     2.112124     2.104481     2.096838
      2.089194     2.081551     2.073908     2.066265     2.058621     2.050978     2.043335     2.035692     2.028049     2.020405
      2.012762     2.005119     1.997476     1.989833     1.982190     1.974546     1.966903     1.959260     1.951617     1.943974
      1.936331     1.928688     1.921045     1.913402     1.905759     1.898115     1.890472     1.882829     1.875186     1.867543
      1.859900     1.852257     1.844614     1.836971     1.829327     1.821684     1.814041     1.806398     1.798755     1.791112
      1.783469     1.775826     1.768183     1.760540     1.752896     1.745253     1.737610     1.729967     1.722324     1.714681
      1.707038     1.699395     1.691752     1.684108     1.676465     1.668822     1.661179     1.653536     1.645893     1.638250
      1.630607     1.622964     1.615321     1.607677     1.600034     1.592391     1.584748     1.577105     1.569462     1.561819
      1.554176     1.546533     1.538890     1.531246     1.523603     1.515960     1.508317     1.500674     1.493031     1.485388
      1.477745     1.470102     1.462458     1.454815     1.447172     1.439529     1.431886     1.424243     1.416600     1.408957
      1.401314     1.393671     1.386027     1.378384     1.370741     1.363098     1.355455     1.347812     1.340169     1.332526
      1.324883     1.317240     1.309596     1.301953     1.294310     1.286667     1.279024     1.271381     1.263738     1.256095
      1.248452     1.240808     1.233165     1.225522     1.217879     1.210236     1.202593     1.194950     1.187307     1.179664
      1.172021     1.164377     1.156734     1.149091     1.141448     1.133805     1.126162     1.118519     1.110876     1.103233
      1.095590     1.087946     1.080303     1.072660     1.065017     1.057374     1.049731     1.042088     1.034445     1.026802
      1.019158     1.011515     1.003872     0.996229     0.988586     0.980943     0.973300     0.965657     0.958014     0.950371
      0.942727     0.935084     0.927441     0.919798     0.912155     0.904512     0.896869     0.889226     0.881583     0.873940
      0.866296     0.858653     0.851010     0.843367     0.835724     0.828081     0.820438     0.812795     0.805152     0.797508
      0.789865     0.782222     0.774579     0.766936     0.759293     0.751650     0.744007     0.736364     0.728721     0.721077
      0.713434     0.705791     0.698148     0.690505     0.682862     0.675219     0.667576     0.659933     0.652290     0.644646
      0.637003     0.629360     0.621717     0.614074     0.606431     0.598788     0.591145     0.583502     0.575858     0.568215
      0.560572     0.552929     0.545286     0.537643     0.530000     0.522357     0.514714     0.507071     0.499427     0.491784
      0.484141     0.476498     0.468855     0.461212     0.453569     0.445925     0.438282     0.430639     0.422996     0.415353
      0.407710     0.400067     0.392424     0.384780     0.377137     0.369494     0.361851     0.354208     0.346565     0.338922
      0.331278     0.323635     0.315992     0.308349     0.300706     0.293063     0.285420     0.277777     0.270133     0.262490
      0.254847     0.247204     0.239561     0.231918     0.224275     0.216631     0.208988     0.201345
 NY phased data points follow
  -2.45966E+00 -4.16264E+00 -2.57056E+00 -4.71000E+00 -7.86661E+00 -7.32566E+00 -5.75951E+00 -5.05826E+00 -3.55710E+00 -5.32251E+00
  -4.03056E+00 -6.22453E+00 -2.17451E+00 -5.57088E+00 -6.53247E+00 -3.39902E+00 -4.91721E+00 -6.76144E+00 -1.35228E+00 -4.61429E+00
  -4.35021E+00 -4.30527E+00 -3.45725E-01 -7.68287E+00 -2.35613E+00 -4.67873E+00 -4.80398E+00 -6.30180E+00 -5.32954E+00 -3.97631E+00
  -2.28268E+00 -3.62318E+00 -2.93978E+00 -3.37871E+00 -5.95530E+00 -1.22792E+00 -3.85705E+00 -5.42297E+00 -4.10454E+00 -3.79831E+00
  -4.26129E+00 -5.93123E+00 -4.82148E+00 -3.89443E+00 -7.11459E-01 -5.87916E+00 -4.84525E+00 -1.29389E+00 -2.18371E+00 -3.14874E+00
  -1.05316E+00 -5.98089E+00 -3.74243E+00 -8.35493E+00 -5.55146E+00 -2.70173E+00 -5.65728E-01 -2.90019E+00 -5.05017E+00 -8.30317E-01
  -2.37430E+00 -4.44518E+00 -3.80671E-01 -3.03545E+00 -6.36868E+00  5.24625E-01 -4.71298E+00 -3.79049E+00 -2.90314E+00 -3.34242E-01
  -2.24309E+00 -5.43797E+00 -2.46705E+00 -3.62019E+00  1.07846E+00 -4.95860E+00 -3.89176E+00 -4.67665E+00 -4.35795E+00 -2.72137E+00
  -1.27322E+00 -5.40640E+00 -5.05613E+00 -6.12027E+00 -3.70716E+00 -2.01616E+00  2.69567E-01 -4.42682E+00 -2.47794E+00 -2.05042E+00
  -2.17799E-01 -4.63324E-01 -2.05374E+00 -1.07526E+00 -5.94853E-01 -9.30635E-01 -2.03439E+00 -3.70301E+00 -1.55598E+00 -2.60222E-01
   2.38082E+00  1.07725E+00  1.72695E+00 -1.27853E+00 -7.53531E-01 -1.91310E+00  6.65590E-01  1.08851E+00  1.71367E+00 -7.35977E-01
  -3.58246E+00 -2.82136E+00  8.87109E-01 -3.26658E+00 -1.72040E+00 -1.35192E+00 -2.99367E+00 -3.78753E+00  5.30511E+00  1.26626E+00
  -4.26658E-01  1.51907E+00  9.70628E-02 -6.08512E-02  2.12768E+00  4.25727E+00  2.92077E+00  1.89973E+00  3.43018E+00 -1.01642E+00
   2.70544E+00  4.54015E+00  5.31339E+00  5.97639E+00  2.42852E-02  2.80536E+00  1.38020E+00  7.89386E-01 -2.76173E+00  5.67055E-02
  -4.55020E-01  6.33443E-01 -2.37811E+00 -1.05618E+00  5.27801E-01 -7.42447E-01 -2.45239E+00 -1.90524E-01 -9.17506E-01 -5.37718E-01
   2.65321E-01  4.04896E-01  2.18616E+00 -2.50742E+00 -1.00498E+00 -2.98327E+00  5.54440E+00 -1.49612E+00 -6.42184E-01  3.02483E+00
   1.62647E+00 -3.02716E+00  6.45437E-01 -2.26532E+00 -2.98926E+00  9.66436E-01 -5.16493E+00 -3.88603E+00 -4.35521E+00 -5.36038E+00
  -5.12644E+00 -6.39982E+00 -4.08822E+00 -5.95247E+00 -4.95614E+00 -6.47887E+00 -2.60943E+00 -4.08098E+00 -6.32526E+00 -4.43169E+00
  -5.53039E+00 -6.68929E+00 -3.96919E+00 -5.72553E+00 -3.57299E+00 -5.27850E+00 -2.45702E+00 -5.63281E+00 -5.80309E+00 -3.95110E+00
  -4.72455E+00 -6.95571E+00 -7.12119E+00 -3.31882E+00 -5.40710E+00 -4.31262E+00 -3.05251E+00 -7.67529E+00 -3.26201E+00 -3.96648E+00
  -5.59061E+00 -4.35477E+00 -2.32215E+00 -5.38734E+00 -7.41488E+00 -1.19268E+00 -1.37120E+00 -6.88523E+00 -2.44425E+00 -3.21281E+00
  -3.07019E+00 -1.29684E+00  1.42046E+00 -5.27634E-01  4.73262E-01  7.73571E-01  1.16556E+00  9.07365E-01  1.30291E+00  4.98761E-01
  -1.58498E+00 -2.99021E+00 -3.87072E+00 -1.97732E+00 -1.48969E+00 -1.23988E+00 -7.26352E-01 -3.35745E+00  1.08560E+00 -3.90044E+00
   5.42790E-01  8.75438E-01  1.87558E+00  2.57122E-01  3.59926E+00  2.28607E+00 -1.65211E+00  3.55386E-01 -9.13111E-01  2.19247E+00
   2.77820E+00  4.72560E+00  1.96781E+00  3.67588E+00  4.72653E+00  2.96371E+00  6.48209E+00  5.46502E+00  6.69792E+00  1.09999E+01
   1.30470E+01  1.69917E+01  1.34081E+01  1.65473E+01  1.50656E+01  1.95511E+01  2.35050E+01  2.87049E+01  2.37138E+01  2.75492E+01
   2.75763E+01  2.49993E+01  2.16692E+01  2.16056E+01  1.68513E+01  1.45911E+01  1.20268E+01  9.36322E+00  7.53413E+00  4.47889E+00
   2.49708E+00  1.35259E+00  5.98204E-01  3.15276E-01  3.19744E+00 -2.74023E+00 -1.59425E+00 -1.17739E-01  1.31330E-01 -3.92284E+00
  -2.50527E+00 -4.28843E+00 -1.33614E+00 -1.34602E+00 -1.64774E+00 -4.87606E-01 -3.25736E+00 -3.03905E+00 -1.17122E+00 -1.12446E+00
  -1.73536E+00 -3.10961E+00  2.24490E+00 -8.10112E-01 -1.87413E+00 -1.13458E+00  1.19541E+00 -2.51766E-01  2.30204E+00 -1.31562E+00
   4.31347E+00  4.58028E+00  6.52264E+00  4.34944E+00  4.06593E+00  3.71151E+00  2.22336E+00  4.84036E+00  9.40496E+00  3.58803E+00
   3.25950E+00  9.19772E+00  6.88912E+00  9.52642E+00  6.49447E+00  7.02566E+00  4.93475E+00  8.84772E+00  8.49900E+00  1.08368E+01
   1.02859E+01  6.33270E+00  1.22669E+01  6.97299E+00  1.38886E+01  9.94063E+00  1.17045E+01  1.09992E+01  1.34425E+01  1.42917E+01
   1.21815E+01  1.18811E+01  1.60546E+01  1.59158E+01  1.38828E+01  1.85667E+01  1.88819E+01  1.91737E+01  2.28708E+01  2.01607E+01
   2.22813E+01  2.34605E+01  2.11148E+01  2.18880E+01  2.72929E+01  2.68199E+01  2.57245E+01  2.81339E+01  2.75804E+01  2.61933E+01
   2.43424E+01  2.04793E+01  2.45692E+01  2.83876E+01  2.86568E+01  2.36339E+01  2.82115E+01  2.01063E+01  2.80409E+01  2.35342E+01
   2.56317E+01  2.64907E+01  2.50637E+01  2.68226E+01  2.57259E+01  2.59839E+01  2.80551E+01  2.73809E+01  2.49424E+01  2.54724E+01
   2.70421E+01  2.58330E+01  2.23335E+01  2.42920E+01  2.31198E+01  2.43663E+01  2.56790E+01  2.35940E+01  2.14791E+01  2.15471E+01
   1.94202E+01  2.10039E+01  1.93460E+01  2.09803E+01  1.87436E+01  1.92619E+01  1.73374E+01  1.80001E+01  1.54803E+01  1.23290E+01
   1.69106E+01  1.39923E+01  1.50157E+01  1.43631E+01  1.34419E+01  1.64987E+01  1.66707E+01  1.55220E+01  1.75386E+01  1.47791E+01
   1.26873E+01  1.26353E+01  1.22341E+01  1.10733E+01  1.21415E+01  1.20399E+01  1.21601E+01  8.31402E+00  6.73077E+00  1.01262E+01
   9.00259E+00  5.51788E+00  9.89050E+00  7.86246E+00  6.10344E+00  4.07395E+00  9.83885E-01 -3.18604E-01 -5.79118E-01  6.97683E-01
   4.78898E+00  3.44962E+00 -1.99015E+00 -9.69088E-01 -1.61862E-01 -1.70239E+00 -2.07525E+00 -2.57061E+00 -3.45698E-01 -2.27948E+00
  -7.75013E-01 -1.39724E+00  1.99343E+00 -3.84897E+00 -4.01749E+00 -3.18498E+00 -1.54391E+00 -1.62439E+00 -4.40531E+00 -3.54649E+00
  -4.08710E+00 -4.49642E+00 -3.47011E+00 -4.59475E+00 -4.10569E+00 -8.13287E-01 -2.61556E+00 -5.13362E+00 -2.16943E+00 -3.50378E+00
  -2.41647E+00 -3.48407E+00 -1.57099E+00 -8.75213E-01 -4.33486E+00 -2.97717E+00 -4.39771E+00 -5.58685E+00 -2.57847E+00 -8.58618E+00
  -2.85622E+00 -7.51066E+00 -5.45636E+00 -4.54059E+00 -1.76769E+00 -5.91505E+00 -1.02019E+00 -4.16282E+00 -3.99648E+00 -2.69455E+00
  -5.43819E+00 -3.59503E+00 -6.75429E-01 -2.62654E+00 -6.43752E-01 -2.93001E+00 -2.87617E+00 -3.42633E+00 -5.79586E+00 -2.58600E+00
  -4.13376E+00 -6.49059E+00 -1.30754E+00 -3.60348E+00 -4.85073E+00 -5.17374E+00 -6.79544E+00 -1.19509E+00 -6.52216E+00 -2.29435E+00
   4.42900E-01 -2.29983E+00 -5.11989E+00 -4.34870E+00 -3.28952E+00 -1.52127E+00 -3.44445E+00 -8.99296E-02
 NY points of the fit to the data follow
  -3.96833E+00 -4.29210E+00 -3.96475E+00 -4.52329E+00 -3.93610E+00 -4.76606E+00 -3.84247E+00 -4.91691E+00 -3.71654E+00 -4.95852E+00
  -3.59665E+00 -4.85993E+00 -3.44703E+00 -4.72425E+00 -3.40964E+00 -4.61909E+00 -3.41206E+00 -4.51634E+00 -3.47243E+00 -4.47634E+00
  -3.51634E+00 -4.39180E+00 -3.50321E+00 -4.28552E+00 -3.44593E+00 -4.16454E+00 -3.36326E+00 -4.08081E+00 -3.33494E+00 -4.02326E+00
  -3.36219E+00 -3.97021E+00 -3.42237E+00 -3.87689E+00 -3.42058E+00 -3.74887E+00 -3.42998E+00 -3.67058E+00 -3.47578E+00 -3.64252E+00
  -3.54982E+00 -3.65240E+00 -3.60517E+00 -3.66149E+00 -3.64384E+00 -3.68403E+00 -3.67716E+00 -3.71007E+00 -3.69913E+00 -3.74469E+00
  -3.72879E+00 -3.78258E+00 -3.74708E+00 -3.79573E+00 -3.75510E+00 -3.78702E+00 -3.75013E+00 -3.77606E+00 -3.73880E+00 -3.75867E+00
  -3.72287E+00 -3.70478E+00 -3.65042E+00 -3.60683E+00 -3.54990E+00 -3.50391E+00 -3.46236E+00 -3.43790E+00 -3.40043E+00 -3.39626E+00
  -3.35195E+00 -3.35586E+00 -3.24483E+00 -3.28312E+00 -3.14264E+00 -3.23664E+00 -3.07835E+00 -3.22064E+00 -3.04358E+00 -3.22704E+00
  -3.04337E+00 -3.26193E+00 -3.08279E+00 -3.32850E+00 -3.17194E+00 -3.41189E+00 -3.30761E+00 -3.52029E+00 -3.43613E+00 -3.40644E+00
  -3.16277E+00 -3.01376E+00 -2.60935E+00 -2.43795E+00 -1.86965E+00 -1.76489E+00 -1.06143E+00 -1.05690E+00 -2.15116E-01 -3.69042E-01
   5.65205E-01  1.29781E-01  1.03437E+00  2.92044E-01  1.06199E+00  6.67527E-02  6.22982E-01 -4.91795E-01 -1.56578E-01 -1.25658E+00
  -1.10973E+00 -2.05419E+00 -1.95953E+00 -2.34494E+00 -2.13585E+00 -2.08091E+00 -1.74309E+00 -1.37721E+00 -9.10756E-01 -3.74799E-01
   2.13847E-01  8.02992E-01  1.47074E+00  1.94722E+00  2.58347E+00  2.74532E+00  3.24587E+00  3.02046E+00  3.33056E+00  2.73346E+00
   2.84646E+00  1.99537E+00  1.95350E+00  1.00080E+00  8.74810E-01 -1.02218E-02 -1.44899E-01 -8.75279E-01 -9.65806E-01 -1.46841E+00
  -1.47894E+00 -1.74483E+00 -1.66456E+00 -1.72147E+00 -1.56693E+00 -1.49740E+00 -1.32467E+00 -1.27165E+00 -1.12091E+00 -1.09679E+00
  -9.60160E-01 -9.47837E-01 -8.49337E-01 -8.64769E-01 -8.18571E-01 -8.72678E-01 -8.87373E-01 -9.83629E-01 -1.05377E+00 -1.17808E+00
  -1.30759E+00 -1.46323E+00 -1.68221E+00 -1.86950E+00 -2.12847E+00 -2.34284E+00 -2.61733E+00 -2.88541E+00 -3.14332E+00 -3.44978E+00
  -3.66277E+00 -3.99597E+00 -4.15095E+00 -4.51507E+00 -4.56700E+00 -4.91965E+00 -4.85650E+00 -5.16486E+00 -4.99464E+00 -5.23280E+00
  -4.98880E+00 -5.14405E+00 -4.85179E+00 -4.91257E+00 -4.63004E+00 -4.59301E+00 -4.34785E+00 -4.23081E+00 -4.05733E+00 -3.87455E+00
  -3.75608E+00 -3.54824E+00 -3.48948E+00 -3.29296E+00 -3.28676E+00 -3.13038E+00 -3.14830E+00 -3.04627E+00 -3.07384E+00 -3.06628E+00
  -3.06573E+00 -3.14196E+00 -3.09991E+00 -3.24419E+00 -3.15576E+00 -3.33536E+00 -3.20575E+00 -3.38806E+00 -3.21904E+00 -3.36949E+00
  -3.15390E+00 -3.22921E+00 -2.96760E+00 -2.94482E+00 -2.64761E+00 -2.52184E+00 -2.20631E+00 -2.00570E+00 -1.68187E+00 -1.42335E+00
  -1.10338E+00 -8.18561E-01 -5.20211E-01 -2.38267E-01  1.33128E-02  2.45761E-01  4.28562E-01  5.88661E-01  7.01015E-01  7.90614E-01
   8.49460E-01  8.95151E-01  9.34619E-01  9.63600E-01  1.00705E+00  1.03817E+00  1.11050E+00  1.17216E+00  1.30048E+00  1.42507E+00
   1.63900E+00  1.87812E+00  2.25721E+00  2.60959E+00  3.16577E+00  3.77718E+00  5.36180E+00  6.58443E+00  8.61723E+00  1.03032E+01
   1.23696E+01  1.43572E+01  1.60963E+01  1.82183E+01  1.94847E+01  2.16314E+01  2.21809E+01  2.41486E+01  2.34894E+01  2.49719E+01
   2.30180E+01  2.38430E+01  2.08112E+01  2.09541E+01  1.73299E+01  1.69097E+01  1.31927E+01  1.24047E+01  9.07524E+00  8.13634E+00
   5.41706E+00  4.49000E+00  2.55472E+00  1.78335E+00  6.08854E-01  6.40700E-02 -4.83542E-01 -7.94108E-01 -9.74245E-01 -1.12874E+00
  -1.22701E+00 -1.31713E+00 -1.35796E+00 -1.39440E+00 -1.38459E+00 -1.37007E+00 -1.31001E+00 -1.24202E+00 -1.12794E+00 -1.00117E+00
  -8.27640E-01 -6.37141E-01 -4.00056E-01 -1.43596E-01  1.57265E-01  4.76558E-01  8.34892E-01  1.20651E+00  1.60784E+00  2.01255E+00
   2.43381E+00  2.84530E+00  3.25826E+00  3.64768E+00  4.02530E+00  4.36925E+00  4.69426E+00  4.98404E+00  5.25880E+00  5.51016E+00
   5.76737E+00  6.03662E+00  6.37380E+00  6.85817E+00  7.48845E+00  7.79415E+00  8.57338E+00  8.56225E+00  9.44564E+00  9.03341E+00
   9.92877E+00  9.10574E+00  1.04743E+01  9.42469E+00  1.12271E+01  9.91532E+00  1.19834E+01  1.05596E+01  1.27667E+01  1.14334E+01
   1.37712E+01  1.27875E+01  1.52587E+01  1.47757E+01  1.71643E+01  1.71416E+01  1.92358E+01  1.95118E+01  2.11298E+01  2.15608E+01
   2.26755E+01  2.31235E+01  2.37773E+01  2.41478E+01  2.44734E+01  2.47169E+01  2.48057E+01  2.49212E+01  2.49102E+01  2.50170E+01
   2.50560E+01  2.52218E+01  2.53989E+01  2.56526E+01  2.59552E+01  2.62659E+01  2.65775E+01  2.68626E+01  2.71187E+01  2.73219E+01
   2.74730E+01  2.75514E+01  2.75616E+01  2.74874E+01  2.73376E+01  2.71008E+01  2.67904E+01  2.63997E+01  2.59464E+01  2.54278E+01
   2.48648E+01  2.42576E+01  2.36289E+01  2.29803E+01  2.23347E+01  2.16934E+01  2.10779E+01  2.04877E+01  1.99413E+01  1.94352E+01
   1.89840E+01  1.85801E+01  1.82340E+01  1.79337E+01  1.76854E+01  1.74737E+01  1.73011E+01  1.71496E+01  1.70199E+01  1.68928E+01
   1.67683E+01  1.66280E+01  1.64730E+01  1.62865E+01  1.60719E+01  1.58149E+01  1.55215E+01  1.51803E+01  1.47997E+01  1.43707E+01
   1.39037E+01  1.33918E+01  1.28465E+01  1.22624E+01  1.16521E+01  1.10111E+01  1.03526E+01  9.67299E+00  8.98585E+00  8.28811E+00
   7.59355E+00  6.89929E+00  6.21885E+00  5.54908E+00  4.90278E+00  4.27601E+00  3.68034E+00  3.11070E+00  2.57713E+00  2.07319E+00
   1.60740E+00  1.17200E+00  7.74151E-01  4.05112E-01  7.10109E-02 -2.37497E-01 -5.14908E-01 -7.70786E-01 -9.99886E-01 -1.21168E+00
  -1.40092E+00 -1.57678E+00 -1.73387E+00 -1.88098E+00 -2.01249E+00 -2.13678E+00 -2.24803E+00 -2.35423E+00 -2.44939E+00 -2.54118E+00
  -2.62348E+00 -2.70365E+00 -2.77554E+00 -2.84625E+00 -2.90961E+00 -2.97251E+00 -3.02878E+00 -3.08514E+00 -3.13545E+00 -3.18628E+00
  -3.23151E+00 -3.27760E+00 -3.31848E+00 -3.36047E+00 -3.39757E+00 -3.43598E+00 -3.46979E+00 -3.50506E+00 -3.53596E+00 -3.56846E+00
  -3.59679E+00 -3.62682E+00 -3.65286E+00 -3.68068E+00 -3.70468E+00 -3.73051E+00 -3.75267E+00 -3.77672E+00 -3.79721E+00 -3.81963E+00
  -3.83862E+00 -3.85957E+00 -3.87719E+00 -3.89679E+00 -3.91316E+00 -3.93152E+00 -3.94674E+00 -3.96396E+00 -3.97814E+00 -3.99431E+00
  -4.00751E+00 -4.02270E+00 -4.03500E+00 -4.04928E+00 -4.06075E+00 -4.07417E+00 -4.08485E+00 -4.09747E+00 -4.10741E+00 -4.11927E+00
  -4.12850E+00 -4.13963E+00 -4.14818E+00 -4.15859E+00 -4.16647E+00 -4.17618E+00 -4.18339E+00 -4.19237E+00
 NY background values follow
    -4.433E+00   -4.433E+00   -4.433E+00   -4.433E+00   -4.433E+00   -4.433E+00   -4.433E+00   -4.433E+00   -4.434E+00   -4.434E+00
    -4.434E+00   -4.434E+00   -4.434E+00   -4.434E+00   -4.434E+00   -4.434E+00   -4.434E+00   -4.435E+00   -4.435E+00   -4.435E+00
    -4.435E+00   -4.435E+00   -4.435E+00   -4.435E+00   -4.435E+00   -4.435E+00   -4.435E+00   -4.435E+00   -4.436E+00   -4.436E+00
    -4.436E+00   -4.436E+00   -4.436E+00   -4.436E+00   -4.436E+00   -4.436E+00   -4.436E+00   -4.436E+00   -4.436E+00   -4.437E+00
    -4.437E+00   -4.437E+00   -4.437E+00   -4.437E+00   -4.437E+00   -4.437E+00   -4.437E+00   -4.437E+00   -4.437E+00   -4.437E+00
    -4.437E+00   -4.438E+00   -4.438E+00   -4.438E+00   -4.438E+00   -4.438E+00   -4.438E+00   -4.438E+00   -4.438E+00   -4.438E+00
    -4.438E+00   -4.438E+00   -4.438E+00   -4.438E+00   -4.438E+00   -4.439E+00   -4.439E+00   -4.439E+00   -4.439E+00   -4.439E+00
    -4.439E+00   -4.439E+00   -4.439E+00   -4.439E+00   -4.439E+00   -4.439E+00   -4.439E+00   -4.439E+00   -4.439E+00   -4.439E+00
    -4.439E+00   -4.439E+00   -4.439E+00   -4.440E+00   -4.440E+00   -4.440E+00   -4.440E+00   -4.440E+00   -4.440E+00   -4.440E+00
    -4.440E+00   -4.440E+00   -4.440E+00   -4.440E+00   -4.440E+00   -4.440E+00   -4.440E+00   -4.440E+00   -4.440E+00   -4.440E+00
    -4.440E+00   -4.440E+00   -4.440E+00   -4.440E+00   -4.440E+00   -4.440E+00   -4.440E+00   -4.440E+00   -4.441E+00   -4.441E+00
    -4.441E+00   -4.441E+00   -4.441E+00   -4.441E+00   -4.441E+00   -4.441E+00   -4.441E+00   -4.441E+00   -4.441E+00   -4.441E+00
    -4.441E+00   -4.441E+00   -4.441E+00   -4.441E+00   -4.441E+00   -4.441E+00   -4.441E+00   -4.441E+00   -4.441E+00   -4.441E+00
    -4.441E+00   -4.441E+00   -4.441E+00   -4.441E+00   -4.441E+00   -4.441E+00   -4.441E+00   -4.441E+00   -4.441E+00   -4.441E+00
    -4.441E+00   -4.441E+00   -4.441E+00   -4.441E+00   -4.441E+00   -4.441E+00   -4.441E+00   -4.441E+00   -4.441E+00   -4.441E+00
    -4.441E+00   -4.441E+00   -4.441E+00   -4.441E+00   -4.441E+00   -4.441E+00   -4.441E+00   -4.441E+00   -4.441E+00   -4.441E+00
    -4.441E+00   -4.441E+00   -4.441E+00   -4.441E+00   -4.441E+00   -4.441E+00   -4.441E+00   -4.441E+00   -4.441E+00   -4.441E+00
    -4.441E+00   -4.441E+00   -4.441E+00   -4.441E+00   -4.441E+00   -4.441E+00   -4.441E+00   -4.441E+00   -4.441E+00   -4.441E+00
    -4.441E+00   -4.441E+00   -4.441E+00   -4.441E+00   -4.441E+00   -4.440E+00   -4.440E+00   -4.440E+00   -4.440E+00   -4.440E+00
    -4.440E+00   -4.440E+00   -4.440E+00   -4.440E+00   -4.440E+00   -4.440E+00   -4.440E+00   -4.440E+00   -4.440E+00   -4.440E+00
    -4.440E+00   -4.440E+00   -4.440E+00   -4.440E+00   -4.440E+00   -4.440E+00   -4.440E+00   -4.440E+00   -4.440E+00   -4.439E+00
    -4.439E+00   -4.439E+00   -4.439E+00   -4.439E+00   -4.439E+00   -4.439E+00   -4.439E+00   -4.439E+00   -4.439E+00   -4.439E+00
    -4.439E+00   -4.439E+00   -4.439E+00   -4.439E+00   -4.439E+00   -4.439E+00   -4.439E+00   -4.438E+00   -4.438E+00   -4.438E+00
    -4.438E+00   -4.438E+00   -4.438E+00   -4.438E+00   -4.438E+00   -4.438E+00   -4.438E+00   -4.438E+00   -4.438E+00   -4.438E+00
    -4.438E+00   -4.437E+00   -4.437E+00   -4.437E+00   -4.437E+00   -4.437E+00   -4.437E+00   -4.437E+00   -4.437E+00   -4.437E+00
    -4.437E+00   -4.437E+00   -4.437E+00   -4.436E+00   -4.436E+00   -4.436E+00   -4.436E+00   -4.436E+00   -4.436E+00   -4.436E+00
    -4.436E+00   -4.436E+00   -4.436E+00   -4.436E+00   -4.435E+00   -4.435E+00   -4.435E+00   -4.435E+00   -4.435E+00   -4.435E+00
    -4.435E+00   -4.435E+00   -4.435E+00   -4.435E+00   -4.434E+00   -4.434E+00   -4.434E+00   -4.434E+00   -4.434E+00   -4.434E+00
    -4.434E+00   -4.434E+00   -4.434E+00   -4.433E+00   -4.433E+00   -4.433E+00   -4.433E+00   -4.433E+00   -4.433E+00   -4.433E+00
    -4.433E+00   -4.433E+00   -4.432E+00   -4.432E+00   -4.432E+00   -4.432E+00   -4.432E+00   -4.432E+00   -4.432E+00   -4.432E+00
    -4.431E+00   -4.431E+00   -4.431E+00   -4.431E+00   -4.431E+00   -4.431E+00   -4.431E+00   -4.431E+00   -4.430E+00   -4.430E+00
    -4.430E+00   -4.430E+00   -4.430E+00   -4.430E+00   -4.430E+00   -4.429E+00   -4.429E+00   -4.429E+00   -4.429E+00   -4.429E+00
    -4.429E+00   -4.429E+00   -4.428E+00   -4.428E+00   -4.428E+00   -4.428E+00   -4.428E+00   -4.428E+00   -4.428E+00   -4.427E+00
    -4.427E+00   -4.427E+00   -4.427E+00   -4.427E+00   -4.427E+00   -4.426E+00   -4.426E+00   -4.426E+00   -4.426E+00   -4.426E+00
    -4.426E+00   -4.426E+00   -4.425E+00   -4.425E+00   -4.425E+00   -4.425E+00   -4.425E+00   -4.425E+00   -4.424E+00   -4.424E+00
    -4.424E+00   -4.424E+00   -4.424E+00   -4.424E+00   -4.423E+00   -4.423E+00   -4.423E+00   -4.423E+00   -4.423E+00   -4.423E+00
    -4.422E+00   -4.422E+00   -4.422E+00   -4.422E+00   -4.422E+00   -4.421E+00   -4.421E+00   -4.421E+00   -4.421E+00   -4.421E+00
    -4.421E+00   -4.420E+00   -4.420E+00   -4.420E+00   -4.420E+00   -4.420E+00   -4.419E+00   -4.419E+00   -4.419E+00   -4.419E+00
    -4.419E+00   -4.418E+00   -4.418E+00   -4.418E+00   -4.418E+00   -4.418E+00   -4.417E+00   -4.417E+00   -4.417E+00   -4.417E+00
    -4.417E+00   -4.417E+00   -4.416E+00   -4.416E+00   -4.416E+00   -4.416E+00   -4.415E+00   -4.415E+00   -4.415E+00   -4.415E+00
    -4.415E+00   -4.414E+00   -4.414E+00   -4.414E+00   -4.414E+00   -4.414E+00   -4.413E+00   -4.413E+00   -4.413E+00   -4.413E+00
    -4.413E+00   -4.412E+00   -4.412E+00   -4.412E+00   -4.412E+00   -4.411E+00   -4.411E+00   -4.411E+00   -4.411E+00   -4.411E+00
    -4.410E+00   -4.410E+00   -4.410E+00   -4.410E+00   -4.409E+00   -4.409E+00   -4.409E+00   -4.409E+00   -4.409E+00   -4.408E+00
    -4.408E+00   -4.408E+00   -4.408E+00   -4.407E+00   -4.407E+00   -4.407E+00   -4.407E+00   -4.406E+00   -4.406E+00   -4.406E+00
    -4.406E+00   -4.405E+00   -4.405E+00   -4.405E+00   -4.405E+00   -4.404E+00   -4.404E+00   -4.404E+00   -4.404E+00   -4.403E+00
    -4.403E+00   -4.403E+00   -4.403E+00   -4.403E+00   -4.402E+00   -4.402E+00   -4.402E+00   -4.401E+00   -4.401E+00   -4.401E+00
    -4.401E+00   -4.400E+00   -4.400E+00   -4.400E+00   -4.400E+00   -4.399E+00   -4.399E+00   -4.399E+00   -4.399E+00   -4.398E+00
    -4.398E+00   -4.398E+00   -4.398E+00   -4.397E+00   -4.397E+00   -4.397E+00   -4.397E+00   -4.396E+00   -4.396E+00   -4.396E+00
    -4.395E+00   -4.395E+00   -4.395E+00   -4.395E+00   -4.394E+00   -4.394E+00   -4.394E+00   -4.394E+00   -4.393E+00   -4.393E+00
    -4.393E+00   -4.392E+00   -4.392E+00   -4.392E+00   -4.392E+00   -4.391E+00   -4.391E+00   -4.391E+00
 Ala      Conc. = 1.01E+03
