 LCModel (Version 6.3-1L) Copyright: S.W. Provencher.          Ref.: Magn. Reson. Med. 30:672-679 (1993).                
 Slice#1 Row#5 Col#9  PD_24_press_1_raw_act
 36 lines in following concentration table = NCONC+1
    Conc.  %SD /Cr+PCr  Metabolite                                         
  285.797  70%   0.327 Ala                                                 
    0.000 999%   0.000 Asp                                                 
    5.674 999% 6.5E-03 Cr                                                  
  869.578  35%   0.994 PCr                                                 
  125.389  98%   0.143 GABA                                                
   84.714 138% 9.7E-02 Glc                                                 
 1.40E+03  31%   1.601 Gln                                                 
 1.64E+03  30%   1.874 Glu                                                 
  466.299   5%   0.533 GPC                                                 
    0.000 999%   0.000 PCh                                                 
  187.746  48%   0.215 GSH                                                 
  794.825  34%   0.908 Ins                                                 
    7.319 999% 8.4E-03 Lac                                                 
 1.36E+03  11%   1.549 NAA                                                 
  223.062  71%   0.255 NAAG                                                
   64.010  42% 7.3E-02 Scyllo                                              
    0.000 999%   0.000 Tau                                                 
    0.000 999%   0.000 -CrCH2                                              
  466.299   5%   0.533 GPC+PCh                                             
 1.58E+03   6%   1.804 NAA+NAAG                                            
  875.252   7%   1.000 Cr+PCr                                              
 3.04E+03  27%   3.475 Glu+Gln                                             
    0.000 999%   0.000 Lip13a                                              
 2.40E+03  20%   2.742 Lip13b                                              
  180.683 152%   0.206 Lip09                                               
  808.945  31%   0.924 MM09                                                
  261.414  78%   0.299 Lip20                                               
 1.28E+03  28%   1.468 MM20                                                
  183.842  69%   0.210 MM12                                                
 1.41E+03  23%   1.614 MM14                                                
  954.747  21%   1.091 MM17                                                
 2.40E+03  20%   2.742 Lip13a+Lip13b                                       
 4.00E+03   9%   4.566 MM14+Lip13a+Lip13b+MM12                             
  989.628  15%   1.131 MM09+Lip09                                          
 1.55E+03  22%   1.767 MM20+Lip20                                          
   6 lines in following misc. output table
  FWHM = 0.084 ppm    S/N =   6                                            
  Data shift = 0.000 ppm                                                   
  Ph: -54 deg     -15.9 deg/ppm                                            
  alphaB,S = 8.5E+01,   2.0E+02                                            
   14 spline knots.   Ns =10(1)                                            
   2 inflections.     1 extrema                                            
  498 points on ppm-axis = NY
      4.000000     3.992357     3.984714     3.977070     3.969427     3.961784     3.954141     3.946497     3.938854     3.931211
      3.923568     3.915925     3.908281     3.900638     3.892995     3.885352     3.877708     3.870065     3.862422     3.854779
      3.847136     3.839492     3.831849     3.824206     3.816563     3.808919     3.801276     3.793633     3.785990     3.778347
      3.770703     3.763060     3.755417     3.747774     3.740130     3.732487     3.724844     3.717201     3.709558     3.701914
      3.694271     3.686628     3.678985     3.671341     3.663698     3.656055     3.648412     3.640769     3.633125     3.625482
      3.617839     3.610196     3.602552     3.594909     3.587266     3.579623     3.571980     3.564336     3.556693     3.549050
      3.541407     3.533763     3.526120     3.518477     3.510834     3.503191     3.495547     3.487904     3.480261     3.472618
      3.464974     3.457331     3.449688     3.442045     3.434402     3.426758     3.419115     3.411472     3.403829     3.396185
      3.388542     3.380899     3.373256     3.365613     3.357969     3.350326     3.342683     3.335040     3.327396     3.319753
      3.312110     3.304467     3.296824     3.289180     3.281537     3.273894     3.266251     3.258607     3.250964     3.243321
      3.235678     3.228034     3.220391     3.212748     3.205105     3.197462     3.189818     3.182175     3.174532     3.166889
      3.159245     3.151602     3.143959     3.136316     3.128673     3.121029     3.113386     3.105743     3.098100     3.090456
      3.082813     3.075170     3.067527     3.059884     3.052240     3.044597     3.036954     3.029311     3.021667     3.014024
      3.006381     2.998738     2.991095     2.983451     2.975808     2.968165     2.960522     2.952878     2.945235     2.937592
      2.929949     2.922306     2.914662     2.907019     2.899376     2.891733     2.884089     2.876446     2.868803     2.861160
      2.853517     2.845873     2.838230     2.830587     2.822944     2.815300     2.807657     2.800014     2.792371     2.784728
      2.777084     2.769441     2.761798     2.754155     2.746511     2.738868     2.731225     2.723582     2.715939     2.708295
      2.700652     2.693009     2.685366     2.677722     2.670079     2.662436     2.654793     2.647150     2.639506     2.631863
      2.624220     2.616577     2.608933     2.601290     2.593647     2.586004     2.578361     2.570717     2.563074     2.555431
      2.547788     2.540144     2.532501     2.524858     2.517215     2.509572     2.501928     2.494285     2.486642     2.478999
      2.471355     2.463712     2.456069     2.448426     2.440783     2.433139     2.425496     2.417853     2.410210     2.402566
      2.394923     2.387280     2.379637     2.371994     2.364350     2.356707     2.349064     2.341421     2.333777     2.326134
      2.318491     2.310848     2.303205     2.295561     2.287918     2.280275     2.272632     2.264988     2.257345     2.249702
      2.242059     2.234416     2.226772     2.219129     2.211486     2.203843     2.196199     2.188556     2.180913     2.173270
      2.165627     2.157983     2.150340     2.142697     2.135054     2.127410     2.119767     2.112124     2.104481     2.096838
      2.089194     2.081551     2.073908     2.066265     2.058621     2.050978     2.043335     2.035692     2.028049     2.020405
      2.012762     2.005119     1.997476     1.989833     1.982190     1.974546     1.966903     1.959260     1.951617     1.943974
      1.936331     1.928688     1.921045     1.913402     1.905759     1.898115     1.890472     1.882829     1.875186     1.867543
      1.859900     1.852257     1.844614     1.836971     1.829327     1.821684     1.814041     1.806398     1.798755     1.791112
      1.783469     1.775826     1.768183     1.760540     1.752896     1.745253     1.737610     1.729967     1.722324     1.714681
      1.707038     1.699395     1.691752     1.684108     1.676465     1.668822     1.661179     1.653536     1.645893     1.638250
      1.630607     1.622964     1.615321     1.607677     1.600034     1.592391     1.584748     1.577105     1.569462     1.561819
      1.554176     1.546533     1.538890     1.531246     1.523603     1.515960     1.508317     1.500674     1.493031     1.485388
      1.477745     1.470102     1.462458     1.454815     1.447172     1.439529     1.431886     1.424243     1.416600     1.408957
      1.401314     1.393671     1.386027     1.378384     1.370741     1.363098     1.355455     1.347812     1.340169     1.332526
      1.324883     1.317240     1.309596     1.301953     1.294310     1.286667     1.279024     1.271381     1.263738     1.256095
      1.248452     1.240808     1.233165     1.225522     1.217879     1.210236     1.202593     1.194950     1.187307     1.179664
      1.172021     1.164377     1.156734     1.149091     1.141448     1.133805     1.126162     1.118519     1.110876     1.103233
      1.095590     1.087946     1.080303     1.072660     1.065017     1.057374     1.049731     1.042088     1.034445     1.026802
      1.019158     1.011515     1.003872     0.996229     0.988586     0.980943     0.973300     0.965657     0.958014     0.950371
      0.942727     0.935084     0.927441     0.919798     0.912155     0.904512     0.896869     0.889226     0.881583     0.873940
      0.866296     0.858653     0.851010     0.843367     0.835724     0.828081     0.820438     0.812795     0.805152     0.797508
      0.789865     0.782222     0.774579     0.766936     0.759293     0.751650     0.744007     0.736364     0.728721     0.721077
      0.713434     0.705791     0.698148     0.690505     0.682862     0.675219     0.667576     0.659933     0.652290     0.644646
      0.637003     0.629360     0.621717     0.614074     0.606431     0.598788     0.591145     0.583502     0.575858     0.568215
      0.560572     0.552929     0.545286     0.537643     0.530000     0.522357     0.514714     0.507071     0.499427     0.491784
      0.484141     0.476498     0.468855     0.461212     0.453569     0.445925     0.438282     0.430639     0.422996     0.415353
      0.407710     0.400067     0.392424     0.384780     0.377137     0.369494     0.361851     0.354208     0.346565     0.338922
      0.331278     0.323635     0.315992     0.308349     0.300706     0.293063     0.285420     0.277777     0.270133     0.262490
      0.254847     0.247204     0.239561     0.231918     0.224275     0.216631     0.208988     0.201345
 NY phased data points follow
   1.37899E+00 -2.39135E+00  8.16545E+00  1.14028E+01  7.89906E+00  1.34882E+01  1.42723E+01  1.77175E+01  1.28547E+01  1.73551E+01
   1.09416E+01  1.93706E+01  1.06801E+01  7.75657E+00  8.70236E+00  8.23268E+00  9.51506E+00  6.09677E+00  2.56734E+00  1.36123E+00
   1.83017E+00  3.00121E-02  2.95715E+00 -1.31758E-01  6.58780E+00  4.38449E-01  4.72751E+00  4.11798E+00  9.89438E-01  3.24444E+00
   3.85754E+00 -5.05874E+00  6.60854E+00  6.37270E+00  5.96836E+00  2.51604E+00  2.30635E+00  2.64352E+00  2.10816E+00  4.74692E-01
   4.57903E+00  4.25648E+00  2.30229E+00  2.47937E+00  4.18867E+00  4.43280E+00  1.14867E+00  3.24116E+00  5.60932E+00  1.52094E-01
   3.07015E+00  6.60078E-03  5.13520E+00  5.08589E+00  1.55323E+00  4.19119E+00  4.85803E+00  3.80226E+00  8.95641E-01  2.72418E+00
  -1.31564E+00  2.15506E+00 -4.90861E+00 -2.98658E+00 -2.68404E+00 -9.99066E-01 -3.31307E+00 -3.79958E+00 -1.02860E-02 -1.79971E+00
   2.63925E-01 -3.00606E+00 -1.63205E+00 -2.91663E+00 -3.91165E+00 -5.20679E+00 -3.62099E+00 -3.60999E-01  1.01002E+00  3.01008E+00
  -2.04087E+00 -2.24503E+00 -1.43108E+00  3.51509E-01  3.63595E-01 -8.60054E-01 -1.36581E+00  3.11506E+00  1.11154E+00 -5.08939E-01
   4.94519E-01  2.76758E+00  3.93104E+00 -1.00827E+00 -4.38358E+00 -1.65378E+00  7.75679E+00  1.56548E+01  2.43211E+01  2.81331E+01
   3.19437E+01  2.69912E+01  2.38843E+01  2.34061E+01  2.82968E+01  2.08905E+01  1.57446E+01  8.25324E+00  1.20486E+01  7.33067E+00
   4.73958E+00  1.75069E+00 -4.76531E+00  2.97969E+00 -3.04675E+00 -4.83990E+00 -5.97709E+00 -3.17189E+00 -4.72669E+00 -2.25481E+00
   4.32598E+00  7.16027E+00  9.98142E+00  1.26524E+01  1.49848E+01  1.45606E+01  1.81551E+01  1.78909E+01  1.52628E+01  1.27123E+01
   1.22845E+01  9.30301E+00  7.09674E+00  3.50951E+00  2.46720E+00 -5.27718E+00 -8.19973E-02 -3.55545E+00  2.77605E+00  3.31391E-01
  -3.41505E+00 -4.15786E+00 -1.56976E+00  1.57062E-01 -2.13753E-01 -5.65689E+00 -3.66244E+00 -4.36973E+00 -8.99214E+00 -6.70355E+00
  -5.78227E+00 -5.29030E+00 -4.54492E+00 -4.72630E+00  7.98523E-01 -5.04624E+00 -1.92609E+00 -4.60045E+00 -1.99893E+00 -3.91096E+00
   3.20609E+00 -3.37656E+00 -8.62746E-01 -6.51258E+00 -6.08396E+00 -5.42759E+00 -3.76755E+00 -8.08153E+00 -7.11899E+00 -5.41585E+00
  -5.99957E+00 -7.12877E+00 -1.07964E+01 -1.36350E+01 -7.67890E+00 -8.73182E+00 -8.37301E+00 -8.07284E+00 -6.61595E+00 -9.28908E+00
  -9.58224E+00 -1.29095E+01 -5.32839E+00 -9.40899E+00 -6.75212E+00 -4.07803E+00 -4.07563E+00 -2.88228E+00 -2.46140E+00 -2.10779E+00
  -1.15616E+00 -3.04723E+00 -5.51860E+00 -4.24400E+00 -8.56186E-01 -5.12944E-01 -4.77428E+00 -4.96115E+00 -4.63938E+00 -1.84308E+00
  -6.80572E-01 -2.83740E+00  1.73202E+00 -2.42527E+00 -2.92613E+00 -3.73019E+00 -4.52313E+00 -3.91025E+00 -5.15079E+00 -4.95114E+00
  -2.49047E+00  6.13851E-01 -3.68106E+00 -2.43222E+00 -1.85646E+00 -1.60359E+00 -3.41610E-01 -4.53729E+00  5.37034E-01  1.18251E+00
  -3.44597E+00 -5.97879E+00  4.14815E+00 -3.75305E+00 -2.61972E+00 -2.47057E+00  3.26019E+00  1.25918E+00  3.89932E+00 -2.11306E+00
   2.54100E+00 -2.94189E+00 -1.38421E-01  2.84989E+00 -2.22836E+00  3.14396E+00  9.28796E-01  3.56618E+00 -3.52140E+00  3.11414E-01
   5.28143E-01  4.05386E+00  2.72895E+00  6.40200E+00  1.56672E+00  1.06048E+00 -2.15081E+00  3.43490E+00  1.47708E+00  5.46681E+00
   7.71316E+00  6.76180E+00  1.81777E+01  1.29425E+01  1.31720E+01  1.87103E+01  2.75745E+01  3.50943E+01  3.93123E+01  3.78745E+01
   2.87068E+01  3.64300E+01  3.34622E+01  3.33270E+01  3.05424E+01  2.28401E+01  1.90581E+01  1.62465E+01  1.01618E+01  4.68352E+00
   6.76112E+00  5.69335E-01  8.00712E+00  2.44359E+00  5.11176E+00  2.29445E-01  4.39078E+00  2.19126E+00  5.86042E+00  4.15783E-01
  -1.53725E+00  2.57094E+00  4.65275E+00  4.60429E+00  1.58139E+00 -7.38501E-01  5.50462E+00  2.51531E+00  6.52044E+00 -2.69384E+00
   6.31425E+00  4.41223E+00  2.95665E+00  1.25406E-01  7.43415E+00 -5.22131E+00  3.02306E+00  1.06437E+00  2.27719E+00 -1.72390E+00
   2.16484E+00  2.00806E+00  7.45019E+00  1.00844E-01  5.18222E+00 -3.68064E+00  1.53909E+00  2.82908E+00  1.37916E+00  6.13759E+00
   8.74442E+00  1.20693E+00  9.11707E+00  6.38550E+00  1.15615E+01  1.53235E+00  8.55522E+00  5.20563E+00  8.05763E+00  5.30201E+00
   5.61181E+00  7.78315E+00  5.03722E+00  6.80597E+00  2.67865E+00  4.80099E+00  6.49794E+00  3.02118E+00  6.13696E+00  4.00207E+00
   5.71537E+00  2.53726E+00  7.65794E+00  4.23998E+00  7.15441E+00  1.13382E+01  6.02928E+00  8.33946E-01  8.56719E+00  8.41990E+00
   6.33370E+00  7.94680E+00  7.62445E+00  8.45090E+00  1.49076E+01  1.79425E+01  1.64667E+01  1.92000E+01  2.03214E+01  1.84293E+01
   2.16209E+01  2.08346E+01  2.36192E+01  1.87755E+01  1.96780E+01  1.55850E+01  1.62704E+01  1.19611E+01  1.29203E+01  1.51323E+01
   1.86514E+01  9.09162E+00  7.38345E+00  1.39928E+01  8.73836E+00  4.86697E+00  6.40189E+00  3.20639E+00  2.45392E+00  8.07349E-01
   2.84314E+00 -2.11122E+00  3.02833E+00  2.42306E-01 -2.65378E+00 -7.03346E+00 -2.51097E+00 -7.93982E+00 -4.23229E+00 -8.55888E+00
  -4.59059E+00 -9.54735E+00 -6.60484E+00 -6.13218E+00 -4.08613E+00 -2.27011E+00 -2.93884E-01 -2.23981E+00  1.75163E+00  1.03854E-01
  -5.49850E-01  7.68535E-01  5.05437E+00 -1.40236E-01  3.71960E+00  1.03706E+00  3.24646E+00  2.97254E+00  2.95077E+00 -2.58632E+00
   1.84887E+00  2.84493E+00  8.52812E+00  2.71416E+00  1.87825E+00  2.76591E+00  4.53070E+00  6.51715E-02  1.45149E+01  9.70588E+00
   6.74092E+00  5.95800E-01  9.39418E+00  4.27626E+00  6.35385E+00 -1.92032E+00  5.33667E+00  2.18653E+00  1.24134E+00  4.33178E+00
  -1.52320E+00  4.29215E+00  2.56584E+00 -2.27025E+00 -2.30415E+00 -5.98942E-01  1.95107E+00  1.51199E+00  4.98675E-01 -2.69117E+00
  -1.16783E+00 -4.44377E+00  2.03722E+00 -1.15934E+00 -1.52383E+00 -4.98902E+00 -1.04479E+00 -4.17680E+00  2.22505E-01  3.44553E+00
  -2.83647E+00  1.16582E+00 -9.11246E-01 -1.40504E+00 -4.52442E-01 -6.20365E+00  2.33248E-01 -3.92515E+00 -1.88486E+00 -5.45454E+00
   1.52257E+00 -3.30598E+00 -8.68001E-01 -1.31615E+00 -4.16729E+00 -7.57037E+00 -3.24198E+00 -2.85461E+00  1.86741E+00 -2.28500E+00
  -5.65714E+00 -3.27625E+00 -1.64767E+00 -5.88270E+00 -4.25261E+00 -4.08205E+00  3.05651E-01 -4.83450E+00 -4.52727E+00 -2.74556E+00
  -3.68927E+00 -7.45477E+00 -7.11926E-01 -3.87124E+00 -3.34913E-01 -6.53937E-01 -2.14412E+00 -5.18556E+00 -6.39190E-01  1.15296E+00
  -2.07446E+00 -5.59850E+00 -2.20714E+00  1.34787E+00 -1.15756E+00  3.21109E-01  3.41775E-01 -7.88886E+00 -3.56134E+00 -4.24293E+00
  -2.95189E+00 -1.43262E+00  5.87557E-01 -5.70002E+00 -1.57258E+00  2.68103E+00  2.01591E+00 -9.01975E-01
 NY points of the fit to the data follow
   2.27134E+00  3.26523E+00  5.00587E+00  7.34451E+00  9.84128E+00  1.19768E+01  1.33569E+01  1.39410E+01  1.40091E+01  1.38409E+01
   1.34513E+01  1.26565E+01  1.13545E+01  9.71413E+00  8.04053E+00  6.51326E+00  5.16732E+00  4.02699E+00  3.11184E+00  2.35545E+00
   1.67526E+00  1.10616E+00  5.63886E-01  1.35023E-01  7.71906E-02  5.68748E-01  1.56017E+00  2.75955E+00  3.80418E+00  4.45626E+00
   4.65840E+00  4.50019E+00  4.15640E+00  3.78928E+00  3.47585E+00  3.18772E+00  2.85513E+00  2.48555E+00  2.14716E+00  1.93127E+00
   1.93165E+00  2.22081E+00  2.76219E+00  3.35759E+00  3.86941E+00  4.18646E+00  4.25118E+00  4.09766E+00  3.78492E+00  3.33627E+00
   2.75026E+00  2.09848E+00  1.47134E+00  9.35141E-01  5.44209E-01  2.80314E-01  5.86460E-02 -1.70631E-01 -4.12354E-01 -6.41450E-01
  -8.18666E-01 -9.35159E-01 -1.01752E+00 -1.09409E+00 -1.16157E+00 -1.20282E+00 -1.20233E+00 -1.16143E+00 -1.09534E+00 -1.02510E+00
  -9.66377E-01 -9.07767E-01 -8.39687E-01 -7.73477E-01 -7.27993E-01 -7.21289E-01 -7.39489E-01 -7.47437E-01 -6.95785E-01 -5.39773E-01
  -2.98849E-01 -5.92097E-02  7.51163E-02  5.14134E-02 -9.60196E-02 -2.81126E-01 -4.16222E-01 -4.82675E-01 -5.25023E-01 -5.81044E-01
  -6.31022E-01 -6.04579E-01 -3.74988E-01  2.77876E-01  1.79824E+00  4.84348E+00  9.62273E+00  1.54297E+01  2.09960E+01  2.50915E+01
   2.71462E+01  2.75255E+01  2.70831E+01  2.62799E+01  2.48481E+01  2.23365E+01  1.88035E+01  1.48886E+01  1.11636E+01  7.73819E+00
   4.58708E+00  1.83182E+00 -3.94347E-01 -2.04009E+00 -2.85918E+00 -2.88778E+00 -2.65969E+00 -2.20135E+00 -1.31489E+00  3.70296E-01
   3.13964E+00  6.78311E+00  1.06131E+01  1.38185E+01  1.58611E+01  1.67277E+01  1.68586E+01  1.66631E+01  1.61018E+01  1.48527E+01
   1.27745E+01  1.01695E+01  7.51671E+00  5.06304E+00  2.84160E+00  8.89100E-01 -7.23502E-01 -1.97530E+00 -2.79447E+00 -3.04396E+00
  -3.04110E+00 -2.98731E+00 -2.91930E+00 -2.85886E+00 -2.82281E+00 -2.81368E+00 -2.83431E+00 -2.89483E+00 -2.98670E+00 -3.09528E+00
  -3.20292E+00 -3.28704E+00 -3.34498E+00 -3.39538E+00 -3.47255E+00 -3.60199E+00 -3.76668E+00 -3.91664E+00 -4.00121E+00 -4.01268E+00
  -3.99746E+00 -4.02126E+00 -4.12261E+00 -4.28578E+00 -4.45794E+00 -4.59818E+00 -4.71511E+00 -4.84793E+00 -5.02594E+00 -5.25750E+00
  -5.51832E+00 -5.75911E+00 -5.93812E+00 -6.04850E+00 -6.11604E+00 -6.17336E+00 -6.23848E+00 -6.28349E+00 -6.27090E+00 -6.19640E+00
  -6.08479E+00 -5.96634E+00 -5.82130E+00 -5.57770E+00 -5.18391E+00 -4.66909E+00 -4.14114E+00 -3.72155E+00 -3.47514E+00 -3.39938E+00
  -3.44039E+00 -3.54858E+00 -3.67419E+00 -3.75289E+00 -3.69235E+00 -3.39166E+00 -2.81461E+00 -2.00310E+00 -1.05453E+00 -1.30996E-01
   5.74912E-01  8.95567E-01  6.59625E-01 -2.25529E-01 -1.61875E+00 -3.15994E+00 -4.44264E+00 -5.15734E+00 -5.18228E+00 -4.60932E+00
  -3.68181E+00 -2.65129E+00 -1.70914E+00 -1.00380E+00 -6.74710E-01 -7.99910E-01 -1.26460E+00 -1.81395E+00 -2.25996E+00 -2.51674E+00
  -2.51495E+00 -2.32230E+00 -2.14973E+00 -2.01095E+00 -1.75798E+00 -1.33076E+00 -7.68420E-01 -1.48940E-01  4.73695E-01  9.72126E-01
   1.30642E+00  1.51926E+00  1.70288E+00  1.94555E+00  2.24965E+00  2.52751E+00  2.66340E+00  2.60205E+00  2.39656E+00  2.16847E+00
   1.98139E+00  1.83585E+00  1.68675E+00  1.48751E+00  1.28082E+00  1.19995E+00  1.39429E+00  1.93342E+00  2.81177E+00  4.06528E+00
   5.67579E+00  7.58335E+00  9.89391E+00  1.31154E+01  1.76875E+01  2.33189E+01  2.90980E+01  3.38067E+01  3.65248E+01  3.71899E+01
   3.65648E+01  3.53931E+01  3.36941E+01  3.10405E+01  2.72785E+01  2.28898E+01  1.85396E+01  1.45388E+01  1.09534E+01  7.79171E+00
   5.11321E+00  2.95878E+00  1.48636E+00  8.80823E-01  6.47230E-01  5.04780E-01  4.01917E-01  3.06764E-01  2.12450E-01  1.30614E-01
   6.07784E-02 -2.01755E-05 -5.04920E-02 -8.38140E-02 -9.36322E-02 -6.98266E-02 -5.21865E-03  9.73476E-02  2.31607E-01  3.90003E-01
   5.65945E-01  7.56057E-01  9.57486E-01  1.16731E+00  1.38511E+00  1.61017E+00  1.84039E+00  2.07352E+00  2.30709E+00  2.53564E+00
   2.75320E+00  2.95630E+00  3.14235E+00  3.30826E+00  3.45237E+00  3.57355E+00  3.67095E+00  3.74558E+00  3.79992E+00  3.83763E+00
   3.86316E+00  3.88157E+00  3.89963E+00  3.92484E+00  3.96524E+00  4.03019E+00  4.13169E+00  4.28766E+00  4.51816E+00  4.84421E+00
   5.25846E+00  5.68029E+00  5.98151E+00  6.05956E+00  5.88714E+00  5.52290E+00  5.07478E+00  4.64487E+00  4.31193E+00  4.13466E+00
   4.15240E+00  4.37795E+00  4.76768E+00  5.21979E+00  5.65957E+00  6.10977E+00  6.63197E+00  7.23193E+00  7.86191E+00  8.49441E+00
   9.11622E+00  9.75457E+00  1.04628E+01  1.12691E+01  1.21956E+01  1.32536E+01  1.44283E+01  1.57144E+01  1.70749E+01  1.83913E+01
   1.95449E+01  2.04279E+01  2.09493E+01  2.10449E+01  2.06864E+01  1.98864E+01  1.86946E+01  1.71887E+01  1.54641E+01  1.36234E+01
   1.17641E+01  9.96907E+00  8.30159E+00  6.80230E+00  5.49102E+00  4.37003E+00  3.42881E+00  2.64997E+00  2.01143E+00  1.48968E+00
   1.06328E+00  7.13687E-01  4.25649E-01  1.87077E-01 -1.12492E-02 -1.76160E-01 -3.12610E-01 -4.24111E-01 -5.13040E-01 -5.80850E-01
  -6.28243E-01 -6.55341E-01 -6.61837E-01 -6.47064E-01 -6.10021E-01 -5.49391E-01 -4.63614E-01 -3.51009E-01 -2.09907E-01 -3.87506E-02
   1.63792E-01  3.98684E-01  6.66293E-01  9.66146E-01  1.29673E+00  1.65533E+00  2.03795E+00  2.43922E+00  2.85235E+00  3.26918E+00
   3.68041E+00  4.07586E+00  4.44496E+00  4.77710E+00  5.06214E+00  5.29089E+00  5.45565E+00  5.55063E+00  5.57233E+00  5.51970E+00
   5.39412E+00  5.19939E+00  4.94150E+00  4.62828E+00  4.26900E+00  3.87379E+00  3.45310E+00  3.01730E+00  2.57616E+00  2.13862E+00
   1.71239E+00  1.30380E+00  9.17712E-01  5.57596E-01  2.25615E-01 -7.72223E-02 -3.50916E-01 -5.96308E-01 -8.14856E-01 -1.00842E+00
  -1.17909E+00 -1.32905E+00 -1.46054E+00 -1.57573E+00 -1.67668E+00 -1.76522E+00 -1.84300E+00 -1.91146E+00 -1.97192E+00 -2.02551E+00
  -2.07319E+00 -2.11578E+00 -2.15393E+00 -2.18824E+00 -2.21920E+00 -2.24729E+00 -2.27285E+00 -2.29616E+00 -2.31746E+00 -2.33698E+00
  -2.35493E+00 -2.37151E+00 -2.38683E+00 -2.40099E+00 -2.41410E+00 -2.42627E+00 -2.43761E+00 -2.44819E+00 -2.45806E+00 -2.46725E+00
  -2.47583E+00 -2.48385E+00 -2.49139E+00 -2.49847E+00 -2.50511E+00 -2.51131E+00 -2.51713E+00 -2.52262E+00 -2.52780E+00 -2.53267E+00
  -2.53725E+00 -2.54153E+00 -2.54557E+00 -2.54939E+00 -2.55301E+00 -2.55641E+00 -2.55960E+00 -2.56259E+00 -2.56543E+00 -2.56812E+00
  -2.57066E+00 -2.57305E+00 -2.57527E+00 -2.57737E+00 -2.57937E+00 -2.58126E+00 -2.58305E+00 -2.58471E+00 -2.58626E+00 -2.58772E+00
  -2.58912E+00 -2.59044E+00 -2.59168E+00 -2.59281E+00 -2.59387E+00 -2.59488E+00 -2.59583E+00 -2.59672E+00
 NY background values follow
    -4.081E+00   -4.079E+00   -4.077E+00   -4.075E+00   -4.073E+00   -4.071E+00   -4.069E+00   -4.067E+00   -4.065E+00   -4.063E+00
    -4.061E+00   -4.059E+00   -4.057E+00   -4.055E+00   -4.053E+00   -4.050E+00   -4.048E+00   -4.046E+00   -4.044E+00   -4.042E+00
    -4.040E+00   -4.038E+00   -4.036E+00   -4.034E+00   -4.032E+00   -4.030E+00   -4.028E+00   -4.026E+00   -4.024E+00   -4.021E+00
    -4.019E+00   -4.017E+00   -4.015E+00   -4.013E+00   -4.011E+00   -4.009E+00   -4.007E+00   -4.005E+00   -4.003E+00   -4.001E+00
    -3.999E+00   -3.997E+00   -3.994E+00   -3.992E+00   -3.990E+00   -3.988E+00   -3.986E+00   -3.984E+00   -3.982E+00   -3.980E+00
    -3.978E+00   -3.976E+00   -3.974E+00   -3.971E+00   -3.969E+00   -3.967E+00   -3.965E+00   -3.963E+00   -3.961E+00   -3.959E+00
    -3.957E+00   -3.955E+00   -3.953E+00   -3.950E+00   -3.948E+00   -3.946E+00   -3.944E+00   -3.942E+00   -3.940E+00   -3.938E+00
    -3.936E+00   -3.934E+00   -3.932E+00   -3.929E+00   -3.927E+00   -3.925E+00   -3.923E+00   -3.921E+00   -3.919E+00   -3.917E+00
    -3.915E+00   -3.912E+00   -3.910E+00   -3.908E+00   -3.906E+00   -3.904E+00   -3.902E+00   -3.900E+00   -3.898E+00   -3.896E+00
    -3.893E+00   -3.891E+00   -3.889E+00   -3.887E+00   -3.885E+00   -3.883E+00   -3.881E+00   -3.878E+00   -3.876E+00   -3.874E+00
    -3.872E+00   -3.870E+00   -3.868E+00   -3.866E+00   -3.864E+00   -3.861E+00   -3.859E+00   -3.857E+00   -3.855E+00   -3.853E+00
    -3.851E+00   -3.849E+00   -3.846E+00   -3.844E+00   -3.842E+00   -3.840E+00   -3.838E+00   -3.836E+00   -3.834E+00   -3.831E+00
    -3.829E+00   -3.827E+00   -3.825E+00   -3.823E+00   -3.821E+00   -3.819E+00   -3.816E+00   -3.814E+00   -3.812E+00   -3.810E+00
    -3.808E+00   -3.806E+00   -3.803E+00   -3.801E+00   -3.799E+00   -3.797E+00   -3.795E+00   -3.793E+00   -3.790E+00   -3.788E+00
    -3.786E+00   -3.784E+00   -3.782E+00   -3.780E+00   -3.777E+00   -3.775E+00   -3.773E+00   -3.771E+00   -3.769E+00   -3.767E+00
    -3.764E+00   -3.762E+00   -3.760E+00   -3.758E+00   -3.756E+00   -3.754E+00   -3.751E+00   -3.749E+00   -3.747E+00   -3.745E+00
    -3.743E+00   -3.741E+00   -3.738E+00   -3.736E+00   -3.734E+00   -3.732E+00   -3.730E+00   -3.727E+00   -3.725E+00   -3.723E+00
    -3.721E+00   -3.719E+00   -3.716E+00   -3.714E+00   -3.712E+00   -3.710E+00   -3.708E+00   -3.706E+00   -3.703E+00   -3.701E+00
    -3.699E+00   -3.697E+00   -3.695E+00   -3.692E+00   -3.690E+00   -3.688E+00   -3.686E+00   -3.684E+00   -3.681E+00   -3.679E+00
    -3.677E+00   -3.675E+00   -3.673E+00   -3.670E+00   -3.668E+00   -3.666E+00   -3.664E+00   -3.662E+00   -3.659E+00   -3.657E+00
    -3.655E+00   -3.653E+00   -3.651E+00   -3.648E+00   -3.646E+00   -3.644E+00   -3.642E+00   -3.639E+00   -3.637E+00   -3.635E+00
    -3.633E+00   -3.631E+00   -3.628E+00   -3.626E+00   -3.624E+00   -3.622E+00   -3.620E+00   -3.617E+00   -3.615E+00   -3.613E+00
    -3.611E+00   -3.608E+00   -3.606E+00   -3.604E+00   -3.602E+00   -3.600E+00   -3.597E+00   -3.595E+00   -3.593E+00   -3.591E+00
    -3.588E+00   -3.586E+00   -3.584E+00   -3.582E+00   -3.579E+00   -3.577E+00   -3.575E+00   -3.573E+00   -3.571E+00   -3.568E+00
    -3.566E+00   -3.564E+00   -3.562E+00   -3.559E+00   -3.557E+00   -3.555E+00   -3.553E+00   -3.550E+00   -3.548E+00   -3.546E+00
    -3.544E+00   -3.541E+00   -3.539E+00   -3.537E+00   -3.535E+00   -3.532E+00   -3.530E+00   -3.528E+00   -3.526E+00   -3.523E+00
    -3.521E+00   -3.519E+00   -3.517E+00   -3.514E+00   -3.512E+00   -3.510E+00   -3.508E+00   -3.505E+00   -3.503E+00   -3.501E+00
    -3.499E+00   -3.496E+00   -3.494E+00   -3.492E+00   -3.490E+00   -3.487E+00   -3.485E+00   -3.483E+00   -3.481E+00   -3.478E+00
    -3.476E+00   -3.474E+00   -3.472E+00   -3.469E+00   -3.467E+00   -3.465E+00   -3.463E+00   -3.460E+00   -3.458E+00   -3.456E+00
    -3.454E+00   -3.451E+00   -3.449E+00   -3.447E+00   -3.444E+00   -3.442E+00   -3.440E+00   -3.438E+00   -3.435E+00   -3.433E+00
    -3.431E+00   -3.429E+00   -3.426E+00   -3.424E+00   -3.422E+00   -3.419E+00   -3.417E+00   -3.415E+00   -3.413E+00   -3.410E+00
    -3.408E+00   -3.406E+00   -3.404E+00   -3.401E+00   -3.399E+00   -3.397E+00   -3.394E+00   -3.392E+00   -3.390E+00   -3.388E+00
    -3.385E+00   -3.383E+00   -3.381E+00   -3.378E+00   -3.376E+00   -3.374E+00   -3.372E+00   -3.369E+00   -3.367E+00   -3.365E+00
    -3.362E+00   -3.360E+00   -3.358E+00   -3.356E+00   -3.353E+00   -3.351E+00   -3.349E+00   -3.346E+00   -3.344E+00   -3.342E+00
    -3.340E+00   -3.337E+00   -3.335E+00   -3.333E+00   -3.330E+00   -3.328E+00   -3.326E+00   -3.323E+00   -3.321E+00   -3.319E+00
    -3.317E+00   -3.314E+00   -3.312E+00   -3.310E+00   -3.307E+00   -3.305E+00   -3.303E+00   -3.301E+00   -3.298E+00   -3.296E+00
    -3.294E+00   -3.291E+00   -3.289E+00   -3.287E+00   -3.284E+00   -3.282E+00   -3.280E+00   -3.277E+00   -3.275E+00   -3.273E+00
    -3.271E+00   -3.268E+00   -3.266E+00   -3.264E+00   -3.261E+00   -3.259E+00   -3.257E+00   -3.254E+00   -3.252E+00   -3.250E+00
    -3.247E+00   -3.245E+00   -3.243E+00   -3.240E+00   -3.238E+00   -3.236E+00   -3.234E+00   -3.231E+00   -3.229E+00   -3.227E+00
    -3.224E+00   -3.222E+00   -3.220E+00   -3.217E+00   -3.215E+00   -3.213E+00   -3.210E+00   -3.208E+00   -3.206E+00   -3.203E+00
    -3.201E+00   -3.199E+00   -3.196E+00   -3.194E+00   -3.192E+00   -3.189E+00   -3.187E+00   -3.185E+00   -3.182E+00   -3.180E+00
    -3.178E+00   -3.175E+00   -3.173E+00   -3.171E+00   -3.168E+00   -3.166E+00   -3.164E+00   -3.161E+00   -3.159E+00   -3.157E+00
    -3.154E+00   -3.152E+00   -3.150E+00   -3.147E+00   -3.145E+00   -3.143E+00   -3.140E+00   -3.138E+00   -3.136E+00   -3.133E+00
    -3.131E+00   -3.129E+00   -3.126E+00   -3.124E+00   -3.122E+00   -3.119E+00   -3.117E+00   -3.115E+00   -3.112E+00   -3.110E+00
    -3.108E+00   -3.105E+00   -3.103E+00   -3.101E+00   -3.098E+00   -3.096E+00   -3.094E+00   -3.091E+00   -3.089E+00   -3.087E+00
    -3.084E+00   -3.082E+00   -3.080E+00   -3.077E+00   -3.075E+00   -3.073E+00   -3.070E+00   -3.068E+00   -3.065E+00   -3.063E+00
    -3.061E+00   -3.058E+00   -3.056E+00   -3.054E+00   -3.051E+00   -3.049E+00   -3.047E+00   -3.044E+00   -3.042E+00   -3.040E+00
    -3.037E+00   -3.035E+00   -3.033E+00   -3.030E+00   -3.028E+00   -3.025E+00   -3.023E+00   -3.021E+00   -3.018E+00   -3.016E+00
    -3.014E+00   -3.011E+00   -3.009E+00   -3.007E+00   -3.004E+00   -3.002E+00   -3.000E+00   -2.997E+00   -2.995E+00   -2.992E+00
    -2.990E+00   -2.988E+00   -2.985E+00   -2.983E+00   -2.981E+00   -2.978E+00   -2.976E+00   -2.974E+00
 Ala      Conc. = 2.86E+02
