 LCModel (Version 6.3-1L) Copyright: S.W. Provencher.          Ref.: Magn. Reson. Med. 30:672-679 (1993).                
 Slice#1 Row#11 Col#3  PD_24_press_1_raw_act
 36 lines in following concentration table = NCONC+1
    Conc.  %SD /Cr+PCr  Metabolite                                         
   36.336 240%   0.597 Ala                                                 
   33.568 160%   0.551 Asp                                                 
   60.897  57%   1.000 Cr                                                  
    0.000 999%   0.000 PCr                                                 
   17.870 183%   0.293 GABA                                                
   20.720 158%   0.340 Glc                                                 
  280.189  68%   4.601 Gln                                                 
  743.881  29%  12.215 Glu                                                 
   63.852 123%   1.049 GPC                                                 
    9.858 804%   0.162 PCh                                                 
  103.326  52%   1.697 GSH                                                 
  349.460  54%   5.739 Ins                                                 
  215.658  46%   3.541 Lac                                                 
  533.195   8%   8.756 NAA                                                 
    0.000 999%   0.000 NAAG                                                
   17.673  56%   0.290 Scyllo                                              
   60.637  89%   0.996 Tau                                                 
  160.381  31%   2.634 -CrCH2                                              
   73.709  19%   1.210 GPC+PCh                                             
  533.195   8%   8.756 NAA+NAAG                                            
   60.897  57%   1.000 Cr+PCr                                              
 1.02E+03  32%  16.816 Glu+Gln                                             
  455.815  40%   7.485 Lip13a                                              
    0.000 999%   0.000 Lip13b                                              
    0.000 999%   0.000 Lip09                                               
  400.075  27%   6.570 MM09                                                
   77.526  94%   1.273 Lip20                                               
  629.332  28%  10.334 MM20                                                
  127.640  36%   2.096 MM12                                                
  313.655  44%   5.151 MM14                                                
  209.760  43%   3.444 MM17                                                
  455.815  40%   7.485 Lip13a+Lip13b                                       
  897.110  28%  14.732 MM14+Lip13a+Lip13b+MM12                             
  400.075  27%   6.570 MM09+Lip09                                          
  706.858  26%  11.607 MM20+Lip20                                          
   6 lines in following misc. output table
  FWHM = 0.069 ppm    S/N =   4                                            
  Data shift =-0.038 ppm                                                   
  Ph: -41 deg      -4.2 deg/ppm                                            
  alphaB,S = 6.3E-01,   1.4E+02                                            
   14 spline knots.   Ns = 7(1)                                            
  ( 5) 2 infls.   ( 1) 1 extrs.                                            
  498 points on ppm-axis = NY
      4.000000     3.992357     3.984714     3.977070     3.969427     3.961784     3.954141     3.946497     3.938854     3.931211
      3.923568     3.915925     3.908281     3.900638     3.892995     3.885352     3.877708     3.870065     3.862422     3.854779
      3.847136     3.839492     3.831849     3.824206     3.816563     3.808919     3.801276     3.793633     3.785990     3.778347
      3.770703     3.763060     3.755417     3.747774     3.740130     3.732487     3.724844     3.717201     3.709558     3.701914
      3.694271     3.686628     3.678985     3.671341     3.663698     3.656055     3.648412     3.640769     3.633125     3.625482
      3.617839     3.610196     3.602552     3.594909     3.587266     3.579623     3.571980     3.564336     3.556693     3.549050
      3.541407     3.533763     3.526120     3.518477     3.510834     3.503191     3.495547     3.487904     3.480261     3.472618
      3.464974     3.457331     3.449688     3.442045     3.434402     3.426758     3.419115     3.411472     3.403829     3.396185
      3.388542     3.380899     3.373256     3.365613     3.357969     3.350326     3.342683     3.335040     3.327396     3.319753
      3.312110     3.304467     3.296824     3.289180     3.281537     3.273894     3.266251     3.258607     3.250964     3.243321
      3.235678     3.228034     3.220391     3.212748     3.205105     3.197462     3.189818     3.182175     3.174532     3.166889
      3.159245     3.151602     3.143959     3.136316     3.128673     3.121029     3.113386     3.105743     3.098100     3.090456
      3.082813     3.075170     3.067527     3.059884     3.052240     3.044597     3.036954     3.029311     3.021667     3.014024
      3.006381     2.998738     2.991095     2.983451     2.975808     2.968165     2.960522     2.952878     2.945235     2.937592
      2.929949     2.922306     2.914662     2.907019     2.899376     2.891733     2.884089     2.876446     2.868803     2.861160
      2.853517     2.845873     2.838230     2.830587     2.822944     2.815300     2.807657     2.800014     2.792371     2.784728
      2.777084     2.769441     2.761798     2.754155     2.746511     2.738868     2.731225     2.723582     2.715939     2.708295
      2.700652     2.693009     2.685366     2.677722     2.670079     2.662436     2.654793     2.647150     2.639506     2.631863
      2.624220     2.616577     2.608933     2.601290     2.593647     2.586004     2.578361     2.570717     2.563074     2.555431
      2.547788     2.540144     2.532501     2.524858     2.517215     2.509572     2.501928     2.494285     2.486642     2.478999
      2.471355     2.463712     2.456069     2.448426     2.440783     2.433139     2.425496     2.417853     2.410210     2.402566
      2.394923     2.387280     2.379637     2.371994     2.364350     2.356707     2.349064     2.341421     2.333777     2.326134
      2.318491     2.310848     2.303205     2.295561     2.287918     2.280275     2.272632     2.264988     2.257345     2.249702
      2.242059     2.234416     2.226772     2.219129     2.211486     2.203843     2.196199     2.188556     2.180913     2.173270
      2.165627     2.157983     2.150340     2.142697     2.135054     2.127410     2.119767     2.112124     2.104481     2.096838
      2.089194     2.081551     2.073908     2.066265     2.058621     2.050978     2.043335     2.035692     2.028049     2.020405
      2.012762     2.005119     1.997476     1.989833     1.982190     1.974546     1.966903     1.959260     1.951617     1.943974
      1.936331     1.928688     1.921045     1.913402     1.905759     1.898115     1.890472     1.882829     1.875186     1.867543
      1.859900     1.852257     1.844614     1.836971     1.829327     1.821684     1.814041     1.806398     1.798755     1.791112
      1.783469     1.775826     1.768183     1.760540     1.752896     1.745253     1.737610     1.729967     1.722324     1.714681
      1.707038     1.699395     1.691752     1.684108     1.676465     1.668822     1.661179     1.653536     1.645893     1.638250
      1.630607     1.622964     1.615321     1.607677     1.600034     1.592391     1.584748     1.577105     1.569462     1.561819
      1.554176     1.546533     1.538890     1.531246     1.523603     1.515960     1.508317     1.500674     1.493031     1.485388
      1.477745     1.470102     1.462458     1.454815     1.447172     1.439529     1.431886     1.424243     1.416600     1.408957
      1.401314     1.393671     1.386027     1.378384     1.370741     1.363098     1.355455     1.347812     1.340169     1.332526
      1.324883     1.317240     1.309596     1.301953     1.294310     1.286667     1.279024     1.271381     1.263738     1.256095
      1.248452     1.240808     1.233165     1.225522     1.217879     1.210236     1.202593     1.194950     1.187307     1.179664
      1.172021     1.164377     1.156734     1.149091     1.141448     1.133805     1.126162     1.118519     1.110876     1.103233
      1.095590     1.087946     1.080303     1.072660     1.065017     1.057374     1.049731     1.042088     1.034445     1.026802
      1.019158     1.011515     1.003872     0.996229     0.988586     0.980943     0.973300     0.965657     0.958014     0.950371
      0.942727     0.935084     0.927441     0.919798     0.912155     0.904512     0.896869     0.889226     0.881583     0.873940
      0.866296     0.858653     0.851010     0.843367     0.835724     0.828081     0.820438     0.812795     0.805152     0.797508
      0.789865     0.782222     0.774579     0.766936     0.759293     0.751650     0.744007     0.736364     0.728721     0.721077
      0.713434     0.705791     0.698148     0.690505     0.682862     0.675219     0.667576     0.659933     0.652290     0.644646
      0.637003     0.629360     0.621717     0.614074     0.606431     0.598788     0.591145     0.583502     0.575858     0.568215
      0.560572     0.552929     0.545286     0.537643     0.530000     0.522357     0.514714     0.507071     0.499427     0.491784
      0.484141     0.476498     0.468855     0.461212     0.453569     0.445925     0.438282     0.430639     0.422996     0.415353
      0.407710     0.400067     0.392424     0.384780     0.377137     0.369494     0.361851     0.354208     0.346565     0.338922
      0.331278     0.323635     0.315992     0.308349     0.300706     0.293063     0.285420     0.277777     0.270133     0.262490
      0.254847     0.247204     0.239561     0.231918     0.224275     0.216631     0.208988     0.201345
 NY phased data points follow
  -7.06983E+01 -6.39107E+01 -6.85801E+01 -6.74294E+01 -6.89282E+01 -6.28686E+01 -6.78688E+01 -6.23923E+01 -6.39773E+01 -5.98974E+01
  -6.51577E+01 -5.72979E+01 -6.65028E+01 -5.88264E+01 -5.84693E+01 -5.75540E+01 -6.21698E+01 -5.31651E+01 -5.91987E+01 -5.33595E+01
  -5.63674E+01 -4.91131E+01 -5.44030E+01 -5.20435E+01 -5.48247E+01 -5.07812E+01 -5.32393E+01 -4.93100E+01 -5.11670E+01 -4.82555E+01
  -4.90407E+01 -4.85790E+01 -4.99850E+01 -4.37433E+01 -4.62919E+01 -4.21575E+01 -4.60590E+01 -4.17463E+01 -4.70451E+01 -4.32047E+01
  -4.23343E+01 -4.34493E+01 -4.45933E+01 -3.94418E+01 -4.45576E+01 -4.13127E+01 -4.49508E+01 -4.05100E+01 -4.17758E+01 -3.96171E+01
  -4.63438E+01 -3.85383E+01 -4.20645E+01 -3.84102E+01 -4.24852E+01 -4.01433E+01 -3.78080E+01 -3.89522E+01 -4.15732E+01 -3.71048E+01
  -4.08654E+01 -3.38436E+01 -4.24065E+01 -3.66220E+01 -3.95740E+01 -3.75831E+01 -3.33065E+01 -3.25084E+01 -3.83650E+01 -3.31728E+01
  -3.45730E+01 -3.18683E+01 -3.46682E+01 -3.52057E+01 -3.67542E+01 -3.46181E+01 -3.74780E+01 -3.19065E+01 -3.64823E+01 -3.35059E+01
  -3.62791E+01 -3.18319E+01 -3.25544E+01 -3.10024E+01 -3.54508E+01 -2.77262E+01 -3.03308E+01 -2.92160E+01 -3.02249E+01 -2.90906E+01
  -2.69000E+01 -3.09941E+01 -2.97059E+01 -2.67211E+01 -3.15187E+01 -3.03375E+01 -3.03810E+01 -2.67882E+01 -2.53428E+01 -2.53653E+01
  -2.39536E+01 -1.95789E+01 -2.36385E+01 -2.12392E+01 -2.46676E+01 -2.10967E+01 -2.67079E+01 -2.23292E+01 -2.41572E+01 -2.53803E+01
  -2.85338E+01 -2.55418E+01 -2.66555E+01 -2.59379E+01 -2.37305E+01 -2.34442E+01 -2.71627E+01 -2.40866E+01 -2.65200E+01 -2.23067E+01
  -2.44751E+01 -2.63657E+01 -2.37264E+01 -2.14366E+01 -2.36407E+01 -1.96791E+01 -2.32491E+01 -1.81618E+01 -1.91600E+01 -1.71758E+01
  -2.19723E+01 -2.28425E+01 -2.23493E+01 -2.07814E+01 -2.18568E+01 -1.96801E+01 -1.98722E+01 -1.75692E+01 -2.21692E+01 -2.15245E+01
  -2.08665E+01 -1.81402E+01 -2.18709E+01 -2.18130E+01 -2.20040E+01 -2.27284E+01 -2.61450E+01 -2.01790E+01 -2.50435E+01 -1.71252E+01
  -2.16382E+01 -2.05472E+01 -2.02778E+01 -2.02781E+01 -2.06743E+01 -2.05871E+01 -1.87318E+01 -1.79579E+01 -1.87363E+01 -2.21312E+01
  -1.94396E+01 -2.03512E+01 -1.51626E+01 -1.50318E+01 -2.28145E+01 -2.05792E+01 -1.80901E+01 -1.85038E+01 -1.90992E+01 -2.08011E+01
  -1.93727E+01 -1.96200E+01 -1.85178E+01 -2.00867E+01 -1.79357E+01 -1.89677E+01 -2.17455E+01 -1.97628E+01 -1.96546E+01 -1.88773E+01
  -2.32588E+01 -1.75734E+01 -2.05630E+01 -1.45146E+01 -1.89517E+01 -1.89992E+01 -1.92716E+01 -1.87834E+01 -1.72460E+01 -1.72967E+01
  -2.13654E+01 -1.56454E+01 -2.20383E+01 -1.72436E+01 -1.75739E+01 -1.89680E+01 -1.85912E+01 -1.56667E+01 -1.90273E+01 -1.53775E+01
  -1.73067E+01 -1.59818E+01 -1.90993E+01 -1.65431E+01 -1.69673E+01 -1.47628E+01 -1.36508E+01 -1.62677E+01 -1.58305E+01 -1.72034E+01
  -1.60886E+01 -1.62493E+01 -1.42610E+01 -1.15849E+01 -1.18497E+01 -1.07640E+01 -1.34161E+01 -1.14952E+01 -1.07867E+01 -1.25661E+01
  -1.47695E+01 -1.65390E+01 -1.84985E+01 -1.48064E+01 -1.70455E+01 -1.00929E+01 -1.82088E+01 -1.15143E+01 -1.41775E+01 -8.99051E+00
  -1.23365E+01 -9.89568E+00 -1.43063E+01 -1.26755E+01 -1.50121E+01 -1.36390E+01 -1.27198E+01 -1.14412E+01 -1.18045E+01 -1.23161E+01
  -1.48846E+01 -1.25266E+01 -1.33374E+01 -1.35092E+01 -1.11700E+01 -9.94327E+00 -8.56934E+00 -7.70115E+00 -1.13550E+01 -8.87513E+00
  -1.32218E+01 -1.16031E+01 -9.46546E+00 -5.66629E+00 -6.42361E+00 -5.18079E+00 -5.00606E+00  2.60559E+00  9.43233E-01  8.44364E+00
   5.62143E+00  5.35025E+00  1.52434E+00 -3.05578E-01 -6.71949E+00 -2.14536E+00 -6.33238E+00 -7.11819E+00 -1.00888E+01 -1.16703E+01
  -1.04245E+01 -1.11075E+01 -7.66168E+00 -7.04893E+00 -1.17069E+01 -1.27798E+01 -1.19281E+01 -1.16997E+01 -1.02575E+01 -1.20105E+01
  -1.28906E+01 -1.24722E+01 -1.14965E+01 -9.54884E+00 -1.30867E+01 -1.25166E+01 -9.58301E+00 -1.19124E+01 -1.21764E+01 -9.45142E+00
  -1.33249E+01 -8.95996E+00 -1.60412E+01 -1.30600E+01 -1.32371E+01 -1.32306E+01 -1.27295E+01 -9.24277E+00 -1.18459E+01 -9.59025E+00
  -9.00427E+00 -1.16607E+01 -8.37295E+00 -8.38755E+00 -9.44271E+00 -9.08781E+00 -6.61041E+00 -9.11117E+00 -5.84671E+00 -7.00281E+00
  -7.99153E+00 -1.06998E+01 -9.88460E+00 -8.57711E+00 -1.15601E+01 -8.27789E+00 -1.04841E+01 -1.19025E+01 -1.14185E+01 -9.42324E+00
  -6.61973E+00 -7.44270E+00 -9.19502E+00 -8.16899E+00 -1.02351E+01 -1.24686E+01 -9.41775E+00 -9.26986E+00 -1.00817E+01 -6.50037E+00
  -8.31541E+00 -7.81133E+00 -9.23064E+00 -9.78777E+00 -9.86843E+00 -6.78938E+00 -1.07736E+01 -7.38083E+00 -1.05021E+01 -4.94879E+00
  -4.36986E+00 -9.78793E+00 -7.23929E+00 -6.80649E+00 -5.46639E+00 -6.75232E+00 -9.31391E+00 -7.96876E+00 -9.45337E+00 -7.51504E+00
  -8.57308E+00 -1.13614E+01 -1.13120E+01 -7.94223E+00 -7.31493E+00 -7.73143E+00 -1.37900E+01 -5.66306E+00 -8.31024E+00 -5.11086E+00
  -8.12739E+00 -5.61753E+00 -8.82174E+00 -1.11866E+01 -6.44004E+00 -6.30497E+00 -6.15362E+00 -5.47906E+00 -6.27371E+00 -9.51407E+00
  -8.88328E+00 -8.87653E+00 -7.79948E+00 -8.22922E+00 -1.07251E+01 -7.49363E+00 -1.01302E+01 -8.69262E+00 -8.78295E+00 -9.31021E+00
  -1.01134E+01 -9.65838E+00 -1.17214E+01 -6.28035E+00 -8.83057E+00 -6.88230E+00 -1.31915E+01 -8.18555E+00 -8.09522E+00 -8.48047E+00
  -9.33410E+00 -8.40092E+00 -9.94856E+00 -6.04922E+00 -1.02278E+01 -5.72327E+00 -8.13411E+00 -1.02238E+01 -8.75352E+00 -1.08971E+01
  -1.10968E+01 -6.05087E+00 -1.04797E+01 -1.03542E+01 -1.40591E+01 -4.66541E+00 -7.62824E+00 -1.01678E+01 -1.13807E+01 -1.19071E+01
  -1.06173E+01 -1.21576E+01 -1.29495E+01 -7.79781E+00 -9.67145E+00 -1.19509E+01 -9.73996E+00 -1.03875E+01 -1.16345E+01 -1.08947E+01
  -1.06157E+01 -1.22298E+01 -1.19660E+01 -1.32887E+01 -1.11707E+01 -1.40152E+01 -1.35328E+01 -1.12416E+01 -1.13945E+01 -8.49148E+00
  -1.26601E+01 -1.39926E+01 -1.16845E+01 -9.96387E+00 -1.29414E+01 -1.26732E+01 -1.44503E+01 -9.21295E+00 -1.06644E+01 -8.29623E+00
  -9.73024E+00 -1.21452E+01 -9.77382E+00 -8.39098E+00 -9.69643E+00 -1.45812E+01 -1.34710E+01 -9.13261E+00 -1.20879E+01 -1.23448E+01
  -1.13735E+01 -1.12902E+01 -1.05896E+01 -9.57444E+00 -1.35206E+01 -8.53286E+00 -1.25513E+01 -8.72847E+00 -1.00881E+01 -5.77162E+00
  -1.04755E+01 -9.12940E+00 -8.31556E+00 -1.24366E+01 -9.04944E+00 -6.03516E+00 -9.28610E+00 -7.22761E+00 -1.11597E+01 -1.19380E+01
  -5.29147E+00 -8.36628E+00 -8.66057E+00 -9.49571E+00 -1.13404E+01 -9.24861E+00 -9.53417E+00 -8.73704E+00 -1.36347E+01 -1.07411E+01
  -7.31388E+00 -8.15674E+00 -9.90920E+00 -5.76816E+00 -1.00860E+01 -1.07833E+01 -7.99772E+00 -7.65095E+00 -8.64601E+00 -1.24452E+01
  -8.56515E+00 -3.09165E+00 -8.14566E+00 -8.22570E+00 -6.56704E+00 -1.11729E+01 -9.65200E+00 -6.86166E+00
 NY points of the fit to the data follow
  -6.40672E+01 -6.38519E+01 -6.37305E+01 -6.37063E+01 -6.36855E+01 -6.35966E+01 -6.34229E+01 -6.31255E+01 -6.26572E+01 -6.20135E+01
  -6.12424E+01 -6.04145E+01 -5.95844E+01 -5.87811E+01 -5.80060E+01 -5.72593E+01 -5.65657E+01 -5.59856E+01 -5.55226E+01 -5.50725E+01
  -5.45793E+01 -5.41013E+01 -5.37000E+01 -5.33098E+01 -5.28759E+01 -5.23586E+01 -5.16965E+01 -5.08725E+01 -4.99168E+01 -4.89359E+01
  -4.80440E+01 -4.73400E+01 -4.68976E+01 -4.67065E+01 -4.66948E+01 -4.67931E+01 -4.69373E+01 -4.70802E+01 -4.71371E+01 -4.69951E+01
  -4.66088E+01 -4.59776E+01 -4.51514E+01 -4.42362E+01 -4.33397E+01 -4.25751E+01 -4.20124E+01 -4.16817E+01 -4.15562E+01 -4.15485E+01
  -4.15847E+01 -4.16188E+01 -4.16053E+01 -4.15189E+01 -4.13370E+01 -4.10292E+01 -4.05939E+01 -4.00869E+01 -3.95929E+01 -3.91635E+01
  -3.88071E+01 -3.85142E+01 -3.82596E+01 -3.80211E+01 -3.77750E+01 -3.74991E+01 -3.71942E+01 -3.68629E+01 -3.64917E+01 -3.60807E+01
  -3.56555E+01 -3.52462E+01 -3.48776E+01 -3.45608E+01 -3.42957E+01 -3.40684E+01 -3.38617E+01 -3.36634E+01 -3.34546E+01 -3.32082E+01
  -3.29160E+01 -3.26069E+01 -3.23119E+01 -3.20435E+01 -3.18024E+01 -3.15893E+01 -3.14066E+01 -3.12429E+01 -3.10818E+01 -3.09048E+01
  -3.07069E+01 -3.04882E+01 -3.02488E+01 -2.99893E+01 -2.96871E+01 -2.92349E+01 -2.84610E+01 -2.74229E+01 -2.62409E+01 -2.50104E+01
  -2.38520E+01 -2.29095E+01 -2.23107E+01 -2.21059E+01 -2.22537E+01 -2.26583E+01 -2.32217E+01 -2.38581E+01 -2.45126E+01 -2.51411E+01
  -2.56557E+01 -2.59265E+01 -2.59042E+01 -2.57559E+01 -2.55836E+01 -2.54064E+01 -2.52287E+01 -2.50468E+01 -2.48553E+01 -2.46353E+01
  -2.43291E+01 -2.39175E+01 -2.34389E+01 -2.29279E+01 -2.24203E+01 -2.19589E+01 -2.15785E+01 -2.12957E+01 -2.11243E+01 -2.10656E+01
  -2.11045E+01 -2.12258E+01 -2.14118E+01 -2.16309E+01 -2.18386E+01 -2.19701E+01 -2.19772E+01 -2.18839E+01 -2.17384E+01 -2.15624E+01
  -2.13744E+01 -2.11868E+01 -2.10033E+01 -2.08331E+01 -2.06975E+01 -2.06045E+01 -2.05487E+01 -2.05205E+01 -2.05041E+01 -2.04824E+01
  -2.04464E+01 -2.03916E+01 -2.03248E+01 -2.02547E+01 -2.01995E+01 -2.01639E+01 -2.01413E+01 -2.01202E+01 -2.00799E+01 -2.00189E+01
  -1.99406E+01 -1.98461E+01 -1.97439E+01 -1.96479E+01 -1.95691E+01 -1.95094E+01 -1.94633E+01 -1.94259E+01 -1.94011E+01 -1.94068E+01
  -1.94493E+01 -1.94940E+01 -1.95142E+01 -1.94986E+01 -1.94545E+01 -1.93954E+01 -1.93207E+01 -1.92300E+01 -1.91322E+01 -1.90380E+01
  -1.89559E+01 -1.88715E+01 -1.87624E+01 -1.86192E+01 -1.84366E+01 -1.82103E+01 -1.79336E+01 -1.76171E+01 -1.72977E+01 -1.70211E+01
  -1.68225E+01 -1.67174E+01 -1.66863E+01 -1.66982E+01 -1.67211E+01 -1.67188E+01 -1.66500E+01 -1.64688E+01 -1.61579E+01 -1.57399E+01
  -1.52786E+01 -1.48656E+01 -1.45814E+01 -1.45399E+01 -1.47588E+01 -1.51737E+01 -1.57206E+01 -1.62873E+01 -1.67052E+01 -1.67843E+01
  -1.64384E+01 -1.57628E+01 -1.48895E+01 -1.39736E+01 -1.32028E+01 -1.27866E+01 -1.28732E+01 -1.34215E+01 -1.42492E+01 -1.51986E+01
  -1.60500E+01 -1.66109E+01 -1.67999E+01 -1.65878E+01 -1.60194E+01 -1.52005E+01 -1.42978E+01 -1.34794E+01 -1.28110E+01 -1.23362E+01
  -1.20583E+01 -1.19590E+01 -1.19801E+01 -1.20028E+01 -1.19501E+01 -1.18370E+01 -1.17371E+01 -1.16808E+01 -1.16671E+01 -1.16875E+01
  -1.17434E+01 -1.17986E+01 -1.17947E+01 -1.17219E+01 -1.16103E+01 -1.14849E+01 -1.13204E+01 -1.11014E+01 -1.08401E+01 -1.05436E+01
  -1.02153E+01 -9.86788E+00 -9.44805E+00 -8.48570E+00 -6.68591E+00 -4.35163E+00 -1.78317E+00  7.53586E-01  2.90274E+00  4.26566E+00
   4.61159E+00  3.95759E+00  2.51379E+00  5.49269E-01 -1.69046E+00 -4.03326E+00 -6.36485E+00 -8.51930E+00 -1.02009E+01 -1.10884E+01
  -1.13506E+01 -1.14246E+01 -1.14266E+01 -1.13865E+01 -1.13358E+01 -1.13010E+01 -1.12796E+01 -1.12731E+01 -1.12828E+01 -1.13058E+01
  -1.13374E+01 -1.13726E+01 -1.14007E+01 -1.14109E+01 -1.14018E+01 -1.13774E+01 -1.13408E+01 -1.12943E+01 -1.12403E+01 -1.11811E+01
  -1.11191E+01 -1.10523E+01 -1.09795E+01 -1.09004E+01 -1.08146E+01 -1.07226E+01 -1.06255E+01 -1.05248E+01 -1.04221E+01 -1.03187E+01
  -1.02168E+01 -1.01184E+01 -1.00254E+01 -9.93959E+00 -9.86240E+00 -9.79498E+00 -9.73805E+00 -9.69186E+00 -9.65619E+00 -9.63034E+00
  -9.61321E+00 -9.60324E+00 -9.59848E+00 -9.59667E+00 -9.59558E+00 -9.59274E+00 -9.58559E+00 -9.57130E+00 -9.54632E+00 -9.50477E+00
  -9.43864E+00 -9.35920E+00 -9.28560E+00 -9.22734E+00 -9.19165E+00 -9.18456E+00 -9.20775E+00 -9.25533E+00 -9.30100E+00 -9.31310E+00
  -9.27960E+00 -9.19686E+00 -9.06659E+00 -8.89606E+00 -8.69574E+00 -8.47699E+00 -8.25279E+00 -8.04063E+00 -7.83866E+00 -7.61596E+00
  -7.31859E+00 -6.98153E+00 -6.72786E+00 -6.61652E+00 -6.67470E+00 -6.93517E+00 -7.42239E+00 -8.10297E+00 -8.80402E+00 -9.34737E+00
  -9.66139E+00 -9.71924E+00 -9.53131E+00 -9.14894E+00 -8.64263E+00 -8.08116E+00 -7.53712E+00 -7.12928E+00 -6.93347E+00 -6.91358E+00
  -7.03371E+00 -7.27473E+00 -7.61145E+00 -7.98169E+00 -8.28244E+00 -8.49576E+00 -8.66837E+00 -8.82006E+00 -8.95812E+00 -9.08554E+00
  -9.20345E+00 -9.31201E+00 -9.41092E+00 -9.49960E+00 -9.57740E+00 -9.64358E+00 -9.69739E+00 -9.73814E+00 -9.76519E+00 -9.77806E+00
  -9.77637E+00 -9.75990E+00 -9.72864E+00 -9.68281E+00 -9.62295E+00 -9.54993E+00 -9.46499E+00 -9.36977E+00 -9.26633E+00 -9.15713E+00
  -9.04505E+00 -8.93328E+00 -8.82525E+00 -8.72451E+00 -8.63463E+00 -8.55903E+00 -8.50082E+00 -8.46267E+00 -8.44666E+00 -8.45413E+00
  -8.48568E+00 -8.54111E+00 -8.61941E+00 -8.71880E+00 -8.83689E+00 -8.97071E+00 -9.11696E+00 -9.27212E+00 -9.43264E+00 -9.59507E+00
  -9.75623E+00 -9.91323E+00 -1.00637E+01 -1.02056E+01 -1.03374E+01 -1.04582E+01 -1.05673E+01 -1.06645E+01 -1.07500E+01 -1.08241E+01
  -1.08873E+01 -1.09405E+01 -1.09843E+01 -1.10196E+01 -1.10472E+01 -1.10678E+01 -1.10824E+01 -1.10914E+01 -1.10957E+01 -1.10956E+01
  -1.10917E+01 -1.10844E+01 -1.10741E+01 -1.10611E+01 -1.10457E+01 -1.10281E+01 -1.10085E+01 -1.09871E+01 -1.09640E+01 -1.09394E+01
  -1.09132E+01 -1.08858E+01 -1.08570E+01 -1.08271E+01 -1.07960E+01 -1.07638E+01 -1.07306E+01 -1.06964E+01 -1.06613E+01 -1.06252E+01
  -1.05882E+01 -1.05504E+01 -1.05117E+01 -1.04723E+01 -1.04321E+01 -1.03911E+01 -1.03494E+01 -1.03070E+01 -1.02640E+01 -1.02203E+01
  -1.01761E+01 -1.01313E+01 -1.00859E+01 -1.00400E+01 -9.99365E+00 -9.94679E+00 -9.89948E+00 -9.85173E+00 -9.80358E+00 -9.75504E+00
  -9.70614E+00 -9.65689E+00 -9.60731E+00 -9.55743E+00 -9.50727E+00 -9.45685E+00 -9.40618E+00 -9.35529E+00 -9.30418E+00 -9.25290E+00
  -9.20145E+00 -9.14985E+00 -9.09812E+00 -9.04628E+00 -8.99434E+00 -8.94233E+00 -8.89026E+00 -8.83815E+00 -8.78601E+00 -8.73385E+00
  -8.68170E+00 -8.62958E+00 -8.57749E+00 -8.52544E+00 -8.47345E+00 -8.42154E+00 -8.36970E+00 -8.31796E+00
 NY background values follow
    -6.487E+01   -6.443E+01   -6.398E+01   -6.354E+01   -6.309E+01   -6.264E+01   -6.220E+01   -6.175E+01   -6.131E+01   -6.086E+01
    -6.042E+01   -5.997E+01   -5.953E+01   -5.908E+01   -5.864E+01   -5.820E+01   -5.776E+01   -5.732E+01   -5.688E+01   -5.644E+01
    -5.601E+01   -5.557E+01   -5.513E+01   -5.470E+01   -5.427E+01   -5.384E+01   -5.341E+01   -5.298E+01   -5.256E+01   -5.213E+01
    -5.171E+01   -5.129E+01   -5.087E+01   -5.045E+01   -5.004E+01   -4.963E+01   -4.922E+01   -4.881E+01   -4.840E+01   -4.800E+01
    -4.760E+01   -4.720E+01   -4.681E+01   -4.641E+01   -4.602E+01   -4.564E+01   -4.525E+01   -4.487E+01   -4.449E+01   -4.412E+01
    -4.374E+01   -4.337E+01   -4.301E+01   -4.264E+01   -4.228E+01   -4.192E+01   -4.157E+01   -4.122E+01   -4.087E+01   -4.052E+01
    -4.018E+01   -3.984E+01   -3.950E+01   -3.916E+01   -3.883E+01   -3.850E+01   -3.818E+01   -3.785E+01   -3.753E+01   -3.722E+01
    -3.690E+01   -3.659E+01   -3.628E+01   -3.598E+01   -3.568E+01   -3.538E+01   -3.508E+01   -3.479E+01   -3.450E+01   -3.421E+01
    -3.392E+01   -3.364E+01   -3.336E+01   -3.309E+01   -3.282E+01   -3.255E+01   -3.228E+01   -3.202E+01   -3.176E+01   -3.150E+01
    -3.124E+01   -3.099E+01   -3.074E+01   -3.050E+01   -3.025E+01   -3.001E+01   -2.978E+01   -2.954E+01   -2.931E+01   -2.908E+01
    -2.886E+01   -2.863E+01   -2.841E+01   -2.820E+01   -2.798E+01   -2.777E+01   -2.756E+01   -2.736E+01   -2.715E+01   -2.695E+01
    -2.675E+01   -2.656E+01   -2.637E+01   -2.618E+01   -2.599E+01   -2.580E+01   -2.562E+01   -2.544E+01   -2.526E+01   -2.509E+01
    -2.492E+01   -2.475E+01   -2.458E+01   -2.442E+01   -2.425E+01   -2.409E+01   -2.394E+01   -2.378E+01   -2.363E+01   -2.348E+01
    -2.333E+01   -2.318E+01   -2.304E+01   -2.290E+01   -2.276E+01   -2.262E+01   -2.249E+01   -2.235E+01   -2.222E+01   -2.210E+01
    -2.197E+01   -2.185E+01   -2.172E+01   -2.160E+01   -2.149E+01   -2.137E+01   -2.126E+01   -2.114E+01   -2.103E+01   -2.092E+01
    -2.082E+01   -2.071E+01   -2.060E+01   -2.050E+01   -2.040E+01   -2.030E+01   -2.020E+01   -2.011E+01   -2.001E+01   -1.991E+01
    -1.982E+01   -1.973E+01   -1.964E+01   -1.955E+01   -1.946E+01   -1.937E+01   -1.929E+01   -1.920E+01   -1.912E+01   -1.903E+01
    -1.895E+01   -1.887E+01   -1.878E+01   -1.870E+01   -1.862E+01   -1.854E+01   -1.847E+01   -1.839E+01   -1.831E+01   -1.823E+01
    -1.815E+01   -1.808E+01   -1.800E+01   -1.793E+01   -1.785E+01   -1.777E+01   -1.770E+01   -1.762E+01   -1.755E+01   -1.748E+01
    -1.740E+01   -1.733E+01   -1.726E+01   -1.718E+01   -1.711E+01   -1.704E+01   -1.697E+01   -1.690E+01   -1.683E+01   -1.676E+01
    -1.669E+01   -1.662E+01   -1.655E+01   -1.648E+01   -1.641E+01   -1.634E+01   -1.628E+01   -1.621E+01   -1.614E+01   -1.607E+01
    -1.601E+01   -1.594E+01   -1.588E+01   -1.581E+01   -1.575E+01   -1.568E+01   -1.562E+01   -1.556E+01   -1.549E+01   -1.543E+01
    -1.537E+01   -1.531E+01   -1.525E+01   -1.519E+01   -1.513E+01   -1.507E+01   -1.501E+01   -1.495E+01   -1.489E+01   -1.483E+01
    -1.477E+01   -1.472E+01   -1.466E+01   -1.460E+01   -1.455E+01   -1.449E+01   -1.443E+01   -1.438E+01   -1.433E+01   -1.427E+01
    -1.422E+01   -1.416E+01   -1.411E+01   -1.406E+01   -1.401E+01   -1.396E+01   -1.391E+01   -1.386E+01   -1.381E+01   -1.376E+01
    -1.371E+01   -1.366E+01   -1.361E+01   -1.356E+01   -1.351E+01   -1.347E+01   -1.342E+01   -1.338E+01   -1.333E+01   -1.329E+01
    -1.324E+01   -1.320E+01   -1.315E+01   -1.311E+01   -1.307E+01   -1.302E+01   -1.298E+01   -1.294E+01   -1.290E+01   -1.286E+01
    -1.282E+01   -1.278E+01   -1.274E+01   -1.270E+01   -1.267E+01   -1.263E+01   -1.259E+01   -1.255E+01   -1.252E+01   -1.248E+01
    -1.245E+01   -1.241E+01   -1.238E+01   -1.234E+01   -1.231E+01   -1.228E+01   -1.225E+01   -1.221E+01   -1.218E+01   -1.215E+01
    -1.212E+01   -1.209E+01   -1.206E+01   -1.203E+01   -1.201E+01   -1.198E+01   -1.195E+01   -1.192E+01   -1.190E+01   -1.187E+01
    -1.185E+01   -1.182E+01   -1.180E+01   -1.177E+01   -1.175E+01   -1.173E+01   -1.170E+01   -1.168E+01   -1.166E+01   -1.164E+01
    -1.162E+01   -1.160E+01   -1.158E+01   -1.156E+01   -1.154E+01   -1.152E+01   -1.151E+01   -1.149E+01   -1.147E+01   -1.146E+01
    -1.144E+01   -1.143E+01   -1.141E+01   -1.140E+01   -1.138E+01   -1.137E+01   -1.136E+01   -1.135E+01   -1.134E+01   -1.132E+01
    -1.131E+01   -1.130E+01   -1.130E+01   -1.129E+01   -1.128E+01   -1.127E+01   -1.126E+01   -1.126E+01   -1.125E+01   -1.124E+01
    -1.124E+01   -1.123E+01   -1.123E+01   -1.122E+01   -1.122E+01   -1.122E+01   -1.122E+01   -1.121E+01   -1.121E+01   -1.121E+01
    -1.121E+01   -1.121E+01   -1.121E+01   -1.121E+01   -1.122E+01   -1.122E+01   -1.122E+01   -1.122E+01   -1.123E+01   -1.123E+01
    -1.124E+01   -1.124E+01   -1.125E+01   -1.125E+01   -1.126E+01   -1.127E+01   -1.128E+01   -1.128E+01   -1.129E+01   -1.130E+01
    -1.131E+01   -1.132E+01   -1.133E+01   -1.134E+01   -1.135E+01   -1.135E+01   -1.136E+01   -1.137E+01   -1.138E+01   -1.139E+01
    -1.140E+01   -1.141E+01   -1.142E+01   -1.143E+01   -1.144E+01   -1.145E+01   -1.146E+01   -1.146E+01   -1.147E+01   -1.148E+01
    -1.149E+01   -1.149E+01   -1.150E+01   -1.151E+01   -1.151E+01   -1.152E+01   -1.152E+01   -1.152E+01   -1.153E+01   -1.153E+01
    -1.153E+01   -1.153E+01   -1.153E+01   -1.153E+01   -1.153E+01   -1.152E+01   -1.152E+01   -1.151E+01   -1.151E+01   -1.150E+01
    -1.149E+01   -1.149E+01   -1.148E+01   -1.147E+01   -1.145E+01   -1.144E+01   -1.143E+01   -1.142E+01   -1.140E+01   -1.138E+01
    -1.137E+01   -1.135E+01   -1.133E+01   -1.131E+01   -1.129E+01   -1.127E+01   -1.125E+01   -1.123E+01   -1.120E+01   -1.118E+01
    -1.115E+01   -1.113E+01   -1.110E+01   -1.107E+01   -1.105E+01   -1.102E+01   -1.099E+01   -1.096E+01   -1.093E+01   -1.089E+01
    -1.086E+01   -1.083E+01   -1.079E+01   -1.076E+01   -1.072E+01   -1.069E+01   -1.065E+01   -1.061E+01   -1.058E+01   -1.054E+01
    -1.050E+01   -1.046E+01   -1.042E+01   -1.038E+01   -1.033E+01   -1.029E+01   -1.025E+01   -1.020E+01   -1.016E+01   -1.011E+01
    -1.007E+01   -1.002E+01   -9.978E+00   -9.931E+00   -9.884E+00   -9.837E+00   -9.789E+00   -9.741E+00   -9.692E+00   -9.643E+00
    -9.594E+00   -9.544E+00   -9.495E+00   -9.445E+00   -9.394E+00   -9.344E+00   -9.293E+00   -9.243E+00   -9.192E+00   -9.140E+00
    -9.089E+00   -9.038E+00   -8.986E+00   -8.935E+00   -8.883E+00   -8.832E+00   -8.780E+00   -8.728E+00   -8.677E+00   -8.625E+00
    -8.574E+00   -8.522E+00   -8.471E+00   -8.420E+00   -8.369E+00   -8.318E+00   -8.267E+00   -8.216E+00
 Ala      Conc. = 3.63E+01
