 LCModel (Version 6.3-1L) Copyright: S.W. Provencher.          Ref.: Magn. Reson. Med. 30:672-679 (1993).                
 Slice#2 Row#6 Col#11  PD_24_press_1_raw_act
 36 lines in following concentration table = NCONC+1
    Conc.  %SD /Cr+PCr  Metabolite                                         
    0.000 999%   0.000 Ala                                                 
    0.000 999%   0.000 Asp                                                 
    0.000 999%   0.000 Cr                                                  
 1.39E+03   4%   1.000 PCr                                                 
    0.000 999%   0.000 GABA                                                
    0.000 999%   0.000 Glc                                                 
  412.016  65%   0.297 Gln                                                 
 1.39E+03  21%   1.006 Glu                                                 
  501.288   5%   0.362 GPC                                                 
    0.000 999%   0.000 PCh                                                 
  208.073  36%   0.150 GSH                                                 
  873.109  32%   0.630 Ins                                                 
    0.000 999%   0.000 Lac                                                 
 2.37E+03   7%   1.712 NAA                                                 
   62.476 283% 4.5E-02 NAAG                                                
  109.497  26% 7.9E-02 Scyllo                                              
    0.000 999%   0.000 Tau                                                 
 1.12E+03  10%   0.811 -CrCH2                                              
  501.288   5%   0.362 GPC+PCh                                             
 2.43E+03   4%   1.757 NAA+NAAG                                            
 1.39E+03   4%   1.000 Cr+PCr                                              
 1.81E+03  25%   1.304 Glu+Gln                                             
    0.000 999%   0.000 Lip13a                                              
  192.649  74%   0.139 Lip13b                                              
    0.000 999%   0.000 Lip09                                               
 3.78E+03   8%   2.727 MM09                                                
  321.541  71%   0.232 Lip20                                               
 6.08E+03   8%   4.392 MM20                                                
 1.75E+03  15%   1.262 MM12                                                
    0.000 999%   0.000 MM14                                                
  611.459  32%   0.441 MM17                                                
  192.649  74%   0.139 Lip13a+Lip13b                                       
 1.94E+03  12%   1.401 MM14+Lip13a+Lip13b+MM12                             
 3.78E+03   8%   2.727 MM09+Lip09                                          
 6.40E+03   8%   4.624 MM20+Lip20                                          
   6 lines in following misc. output table
  FWHM = 0.061 ppm    S/N =  13                                            
  Data shift = 0.008 ppm                                                   
  Ph:   7 deg       5.7 deg/ppm                                            
  alphaB,S = 4.7E-01,   1.8E+02                                            
   14 spline knots.   Ns = 8(1)                                            
  (12) 2 infls.   ( 3) 1 extrs.                                            
  498 points on ppm-axis = NY
      4.000000     3.992357     3.984714     3.977070     3.969427     3.961784     3.954141     3.946497     3.938854     3.931211
      3.923568     3.915925     3.908281     3.900638     3.892995     3.885352     3.877708     3.870065     3.862422     3.854779
      3.847136     3.839492     3.831849     3.824206     3.816563     3.808919     3.801276     3.793633     3.785990     3.778347
      3.770703     3.763060     3.755417     3.747774     3.740130     3.732487     3.724844     3.717201     3.709558     3.701914
      3.694271     3.686628     3.678985     3.671341     3.663698     3.656055     3.648412     3.640769     3.633125     3.625482
      3.617839     3.610196     3.602552     3.594909     3.587266     3.579623     3.571980     3.564336     3.556693     3.549050
      3.541407     3.533763     3.526120     3.518477     3.510834     3.503191     3.495547     3.487904     3.480261     3.472618
      3.464974     3.457331     3.449688     3.442045     3.434402     3.426758     3.419115     3.411472     3.403829     3.396185
      3.388542     3.380899     3.373256     3.365613     3.357969     3.350326     3.342683     3.335040     3.327396     3.319753
      3.312110     3.304467     3.296824     3.289180     3.281537     3.273894     3.266251     3.258607     3.250964     3.243321
      3.235678     3.228034     3.220391     3.212748     3.205105     3.197462     3.189818     3.182175     3.174532     3.166889
      3.159245     3.151602     3.143959     3.136316     3.128673     3.121029     3.113386     3.105743     3.098100     3.090456
      3.082813     3.075170     3.067527     3.059884     3.052240     3.044597     3.036954     3.029311     3.021667     3.014024
      3.006381     2.998738     2.991095     2.983451     2.975808     2.968165     2.960522     2.952878     2.945235     2.937592
      2.929949     2.922306     2.914662     2.907019     2.899376     2.891733     2.884089     2.876446     2.868803     2.861160
      2.853517     2.845873     2.838230     2.830587     2.822944     2.815300     2.807657     2.800014     2.792371     2.784728
      2.777084     2.769441     2.761798     2.754155     2.746511     2.738868     2.731225     2.723582     2.715939     2.708295
      2.700652     2.693009     2.685366     2.677722     2.670079     2.662436     2.654793     2.647150     2.639506     2.631863
      2.624220     2.616577     2.608933     2.601290     2.593647     2.586004     2.578361     2.570717     2.563074     2.555431
      2.547788     2.540144     2.532501     2.524858     2.517215     2.509572     2.501928     2.494285     2.486642     2.478999
      2.471355     2.463712     2.456069     2.448426     2.440783     2.433139     2.425496     2.417853     2.410210     2.402566
      2.394923     2.387280     2.379637     2.371994     2.364350     2.356707     2.349064     2.341421     2.333777     2.326134
      2.318491     2.310848     2.303205     2.295561     2.287918     2.280275     2.272632     2.264988     2.257345     2.249702
      2.242059     2.234416     2.226772     2.219129     2.211486     2.203843     2.196199     2.188556     2.180913     2.173270
      2.165627     2.157983     2.150340     2.142697     2.135054     2.127410     2.119767     2.112124     2.104481     2.096838
      2.089194     2.081551     2.073908     2.066265     2.058621     2.050978     2.043335     2.035692     2.028049     2.020405
      2.012762     2.005119     1.997476     1.989833     1.982190     1.974546     1.966903     1.959260     1.951617     1.943974
      1.936331     1.928688     1.921045     1.913402     1.905759     1.898115     1.890472     1.882829     1.875186     1.867543
      1.859900     1.852257     1.844614     1.836971     1.829327     1.821684     1.814041     1.806398     1.798755     1.791112
      1.783469     1.775826     1.768183     1.760540     1.752896     1.745253     1.737610     1.729967     1.722324     1.714681
      1.707038     1.699395     1.691752     1.684108     1.676465     1.668822     1.661179     1.653536     1.645893     1.638250
      1.630607     1.622964     1.615321     1.607677     1.600034     1.592391     1.584748     1.577105     1.569462     1.561819
      1.554176     1.546533     1.538890     1.531246     1.523603     1.515960     1.508317     1.500674     1.493031     1.485388
      1.477745     1.470102     1.462458     1.454815     1.447172     1.439529     1.431886     1.424243     1.416600     1.408957
      1.401314     1.393671     1.386027     1.378384     1.370741     1.363098     1.355455     1.347812     1.340169     1.332526
      1.324883     1.317240     1.309596     1.301953     1.294310     1.286667     1.279024     1.271381     1.263738     1.256095
      1.248452     1.240808     1.233165     1.225522     1.217879     1.210236     1.202593     1.194950     1.187307     1.179664
      1.172021     1.164377     1.156734     1.149091     1.141448     1.133805     1.126162     1.118519     1.110876     1.103233
      1.095590     1.087946     1.080303     1.072660     1.065017     1.057374     1.049731     1.042088     1.034445     1.026802
      1.019158     1.011515     1.003872     0.996229     0.988586     0.980943     0.973300     0.965657     0.958014     0.950371
      0.942727     0.935084     0.927441     0.919798     0.912155     0.904512     0.896869     0.889226     0.881583     0.873940
      0.866296     0.858653     0.851010     0.843367     0.835724     0.828081     0.820438     0.812795     0.805152     0.797508
      0.789865     0.782222     0.774579     0.766936     0.759293     0.751650     0.744007     0.736364     0.728721     0.721077
      0.713434     0.705791     0.698148     0.690505     0.682862     0.675219     0.667576     0.659933     0.652290     0.644646
      0.637003     0.629360     0.621717     0.614074     0.606431     0.598788     0.591145     0.583502     0.575858     0.568215
      0.560572     0.552929     0.545286     0.537643     0.530000     0.522357     0.514714     0.507071     0.499427     0.491784
      0.484141     0.476498     0.468855     0.461212     0.453569     0.445925     0.438282     0.430639     0.422996     0.415353
      0.407710     0.400067     0.392424     0.384780     0.377137     0.369494     0.361851     0.354208     0.346565     0.338922
      0.331278     0.323635     0.315992     0.308349     0.300706     0.293063     0.285420     0.277777     0.270133     0.262490
      0.254847     0.247204     0.239561     0.231918     0.224275     0.216631     0.208988     0.201345
 NY phased data points follow
  -2.86427E+00 -2.66192E+00  4.93898E-02 -1.51652E+00  2.12058E+00 -3.67704E+00 -1.33844E-01  5.88874E+00  5.81038E+00  5.73451E+00
   8.63056E+00  8.17900E+00  9.60772E+00  8.16796E+00  1.24548E+01  7.12700E+00  3.47880E+00  2.64818E+00  3.94856E+00  2.70764E+00
   4.93398E+00  7.21845E-02  4.63670E+00  1.88896E+00  3.75827E+00  2.92324E+00  3.06819E+00 -3.05099E-01  3.88765E+00  2.29511E+00
   1.93049E+00  5.51810E+00  1.62038E+00  5.37469E+00  7.89989E+00  3.30690E+00  3.77177E+00  3.43509E+00  6.21612E+00  3.90701E+00
   4.43394E+00  5.64110E+00  9.64555E+00  5.26675E+00  5.04209E+00  5.37453E+00  9.74929E+00  1.01447E+01  9.26800E+00  9.21586E+00
   8.80776E+00  9.76527E+00  8.79403E+00  9.31940E+00  5.72520E+00  7.60167E+00  7.01165E+00  7.46382E+00  7.53681E+00  3.38091E+00
   3.57245E+00 -6.50379E-01 -1.47815E-01 -4.71224E+00  3.03453E+00  3.06030E-01  9.49347E-01 -3.72239E+00 -3.08361E+00 -2.19220E+00
  -3.73369E+00  5.93793E-02 -2.96597E+00 -2.17261E+00 -5.38244E-01 -2.02377E+00 -1.62794E+00 -1.74030E+00  6.39131E-01 -2.65852E+00
  -3.11729E+00  6.86701E-01  1.95411E+00  9.33771E-01  3.26651E+00  1.48183E+00  5.70510E+00  8.95125E-01  1.91923E+00  2.10578E+00
   1.84988E+00  1.08489E+00  2.11527E+00  1.72123E+00  2.01522E+00  2.59918E+00 -5.74354E-01  5.13830E+00  8.56752E+00  1.35728E+01
   2.31106E+01  3.11806E+01  3.43896E+01  3.74699E+01  4.01757E+01  3.44152E+01  2.89889E+01  2.50006E+01  2.44710E+01  1.43591E+01
   1.02135E+01  7.95969E+00  6.22444E+00  5.60137E+00  5.96357E+00  5.80588E+00  2.19843E+00  2.53972E+00  1.64634E+00  1.16159E+00
   4.14216E+00  5.20943E+00  8.50692E+00  1.92835E+01  2.55693E+01  3.19845E+01  3.75907E+01  4.16679E+01  4.28693E+01  3.45382E+01
   3.39025E+01  2.75076E+01  2.26073E+01  1.31684E+01  1.23275E+01  1.00640E+01  8.43584E+00  5.37078E+00  6.81192E+00  1.61858E+00
   5.76077E+00  8.67555E-01  3.34051E+00  1.72735E+00  1.05167E+00  2.31009E+00  5.71680E-01 -8.97748E-01  2.71394E+00 -5.06778E-01
  -2.00551E+00 -1.60043E+00 -1.22102E+00 -3.71424E+00  9.46284E-01 -1.89943E+00 -2.13779E+00 -1.69559E+00 -3.76783E-01 -1.32758E+00
  -6.36663E-01 -2.24727E+00 -4.53647E-01 -2.83367E+00 -4.76400E+00 -3.00545E+00 -8.16712E+00 -5.93398E+00 -1.05299E+01 -7.21851E+00
  -1.42689E+01 -7.74227E+00 -1.28884E+01 -1.57200E+01 -1.58496E+01 -1.68048E+01 -1.70546E+01 -1.67584E+01 -1.26749E+01 -1.59662E+01
  -1.60458E+01 -1.29887E+01 -1.15590E+01 -1.43969E+01 -1.54559E+01 -6.66340E+00 -1.36947E+01 -1.24627E+01 -9.79448E+00 -7.74717E+00
  -9.19570E+00 -7.18811E+00 -8.73647E+00 -5.71610E+00 -1.02508E+01 -7.29516E+00 -8.21879E+00 -9.10819E+00 -9.63846E+00 -9.22156E+00
  -5.98598E+00 -6.72500E+00 -5.28236E+00 -4.99729E+00 -7.16416E-01 -3.51831E+00 -5.29942E+00 -3.81455E+00 -5.70135E+00 -3.31810E+00
  -9.29829E-02 -7.35467E-01  1.27067E-01  1.75523E+00  9.19553E+00  2.75972E+00  6.94152E+00  8.51997E+00  4.20651E-01 -2.50217E-01
  -4.30312E+00 -4.38906E+00 -2.64502E+00 -4.62696E+00 -3.78590E+00 -1.58477E+00  1.69950E+00 -1.26427E+00  2.62712E+00 -3.75586E-01
   4.38035E+00  9.31988E+00  2.83800E+00  3.42224E+00  5.95649E+00  4.25159E+00  4.28715E+00  4.59949E+00  4.66466E+00  5.81368E+00
   1.26382E+00  2.61999E+00  7.34300E+00  6.70811E+00  5.45616E+00  6.84156E+00  8.06511E+00  8.61577E+00  1.03812E+01  1.18161E+01
   1.07040E+01  1.51633E+01  1.79974E+01  2.30899E+01  2.62735E+01  3.65201E+01  5.11295E+01  6.56732E+01  7.20832E+01  7.59579E+01
   7.44612E+01  6.66752E+01  5.99836E+01  5.01722E+01  4.09912E+01  2.92437E+01  2.16738E+01  1.24535E+01  1.07547E+01  2.95998E+00
  -2.03390E+00 -2.98676E+00 -3.67432E+00 -4.84035E+00 -3.48133E+00 -6.00127E+00 -5.78229E+00 -1.05222E+01 -6.54976E+00 -5.74550E+00
  -3.63533E+00 -1.07663E+01 -1.09035E+01 -8.20292E+00 -6.81643E+00 -9.89712E+00 -8.65526E+00 -9.65472E+00 -1.20631E+01 -1.10520E+01
  -9.72104E+00 -7.49590E+00 -1.36291E+01 -1.02720E+01 -1.05794E+01 -6.95563E+00 -1.32470E+01 -1.22599E+01 -1.16072E+01 -7.70544E+00
  -1.14467E+01 -5.62191E+00 -6.22258E+00 -7.17735E+00 -1.17169E+01 -4.92476E+00 -7.25973E+00 -6.02207E+00 -4.05543E+00 -7.09907E+00
  -5.23197E+00 -6.61554E+00 -8.47729E+00 -5.61030E+00 -7.72881E+00 -9.15569E+00 -7.24601E+00 -6.44269E+00 -8.30847E+00 -1.01377E+01
  -9.05165E+00 -1.05656E+01 -1.13961E+01 -7.99338E+00 -1.10991E+01 -1.47446E+01 -8.23309E+00 -1.19094E+01 -1.05256E+01 -9.33741E+00
  -1.12258E+01 -7.33065E+00 -1.45414E+01 -1.26178E+01 -1.01264E+01 -1.18249E+01 -1.08883E+01 -1.09187E+01 -7.74222E+00 -9.74094E+00
  -1.09517E+01 -1.35743E+01 -1.44458E+01 -1.38629E+01 -1.41171E+01 -1.78224E+01 -1.61229E+01 -1.10411E+01 -1.02968E+01 -7.33509E+00
  -6.49436E+00 -2.98532E+00 -2.50375E+00 -4.52734E+00 -4.79309E+00 -1.28844E+00  4.46016E+00  8.64391E-01  2.18956E+00  4.44660E+00
   9.10806E+00  5.16541E+00  9.49130E+00  7.48942E+00  2.11395E+00  9.55188E+00  7.86467E+00  8.73061E+00  9.14006E+00  6.26314E+00
   9.11155E+00  1.10075E+01  8.75416E+00  7.63907E+00  8.72728E+00  9.47054E+00  8.95985E+00  6.06780E+00  8.84990E+00  5.52874E+00
   7.66767E+00  6.66758E+00  9.32925E+00  9.43039E+00  8.68796E+00  1.06415E+01  1.04117E+01  1.24284E+01  1.03132E+01  8.94259E+00
   1.23289E+01  1.04648E+01  1.12803E+01  1.29170E+01  1.53547E+01  1.08581E+01  1.24461E+01  1.24848E+01  1.55414E+01  1.60734E+01
   1.62507E+01  1.29201E+01  1.38435E+01  1.47611E+01  1.95586E+01  1.35637E+01  1.60821E+01  1.42273E+01  1.43775E+01  1.31514E+01
   1.36713E+01  1.45224E+01  1.03063E+01  9.10616E+00  7.36498E+00  7.24593E+00  7.80670E+00  6.67873E+00  4.41926E+00  3.58661E+00
   5.84059E+00  4.94871E+00  4.38219E+00  3.39027E+00  3.53804E+00  5.35247E+00  7.56040E+00  1.61097E+00  4.79320E+00  7.92825E+00
   4.99414E+00  6.30065E+00  3.79822E+00  3.54433E+00  5.63098E+00  5.67022E+00  1.42918E+00  4.56628E+00  4.96670E+00  5.19688E+00
   7.51593E+00  2.18440E+00  6.03745E+00  2.96225E+00  1.41555E+00  5.89932E+00  8.40501E+00  6.56595E+00  5.08116E+00  4.48140E+00
   2.67310E+00  3.32719E+00  4.80422E+00  4.62837E+00  7.92371E+00  5.62600E+00  3.37031E+00  2.26185E+00  5.04462E+00  4.76655E+00
   4.86098E+00  4.85382E+00  5.02868E+00  3.90109E+00  4.22059E+00  3.45874E+00  4.65183E+00  4.37788E+00  2.92102E+00  2.89384E+00
   4.88205E+00  7.45851E+00  1.90951E+00  4.62166E+00  1.60214E+00  4.91864E+00  5.52534E+00  1.87497E+00  7.69016E+00  4.12662E+00
   2.81556E+00  6.53989E+00  7.42807E+00  7.65881E+00  5.67499E+00  3.03475E+00  4.04492E+00  6.99821E+00  1.34886E+00  4.03871E+00
   4.35034E+00  4.85018E+00  3.08456E+00  5.87061E+00  5.58311E+00  1.49261E+00  7.03651E+00  2.43131E+00
 NY points of the fit to the data follow
   1.33608E+00  6.29878E-01  5.08287E-02 -3.15871E-01 -4.85030E-01 -8.36240E-02  1.24468E+00  3.26603E+00  5.42268E+00  7.31778E+00
   8.65869E+00  9.26831E+00  9.31546E+00  9.04841E+00  8.50927E+00  7.68490E+00  6.82784E+00  6.16563E+00  5.43365E+00  4.34442E+00
   3.64563E+00  3.24210E+00  2.90508E+00  2.62093E+00  2.42138E+00  2.41993E+00  2.73294E+00  3.38505E+00  4.27652E+00  5.26092E+00
   6.14872E+00  6.72672E+00  6.88636E+00  6.63983E+00  6.02772E+00  5.18979E+00  4.34715E+00  3.66512E+00  3.14083E+00  2.83376E+00
   2.92027E+00  3.36164E+00  4.10039E+00  5.11878E+00  6.24157E+00  7.20849E+00  7.77794E+00  7.87603E+00  7.52237E+00  6.79524E+00
   5.88308E+00  4.95148E+00  4.04944E+00  3.29259E+00  2.79677E+00  2.50686E+00  2.34039E+00  2.32156E+00  2.40582E+00  2.42307E+00
   2.25950E+00  1.94821E+00  1.55611E+00  1.15732E+00  8.15679E-01  5.72813E-01  4.57352E-01  4.56827E-01  5.24153E-01  6.23753E-01
   7.22884E-01  7.84620E-01  7.93746E-01  7.34896E-01  6.19652E-01  4.66604E-01  2.89640E-01  1.17932E-01  3.00767E-02  1.23348E-01
   4.02136E-01  8.88865E-01  1.59218E+00  2.35462E+00  2.93299E+00  3.17128E+00  3.05153E+00  2.63493E+00  2.04722E+00  1.43210E+00
   8.54984E-01  3.27519E-01 -1.28868E-01 -4.88956E-01 -7.45446E-01 -5.92325E-01  7.84522E-01  3.76075E+00  8.57286E+00  1.53338E+01
   2.32417E+01  3.06260E+01  3.59673E+01  3.85153E+01  3.81571E+01  3.53883E+01  3.11425E+01  2.61649E+01  2.08927E+01  1.58162E+01
   1.14653E+01  7.86143E+00  4.68332E+00  2.23867E+00  1.21453E+00  8.91513E-01  7.69876E-01  7.58745E-01  8.95594E-01  1.53755E+00
   3.36678E+00  6.59376E+00  1.15273E+01  1.82642E+01  2.59509E+01  3.29637E+01  3.79091E+01  4.01390E+01  3.95962E+01  3.67916E+01
   3.25797E+01  2.75995E+01  2.22510E+01  1.70341E+01  1.25030E+01  8.70375E+00  5.37525E+00  2.88404E+00  1.83977E+00  1.43542E+00
   1.18280E+00  9.57287E-01  7.10922E-01  4.45203E-01  1.74457E-01 -1.17564E-01 -4.37488E-01 -7.76505E-01 -1.12600E+00 -1.47049E+00
  -1.79318E+00 -2.08055E+00 -2.32894E+00 -2.58629E+00 -2.87642E+00 -3.22797E+00 -3.65426E+00 -4.10826E+00 -4.52171E+00 -4.81138E+00
  -4.95036E+00 -4.99594E+00 -5.05586E+00 -5.21661E+00 -5.50142E+00 -5.88994E+00 -6.34402E+00 -6.84247E+00 -7.39006E+00 -7.95504E+00
  -8.52414E+00 -9.12234E+00 -9.68286E+00 -1.01353E+01 -1.03945E+01 -1.04610E+01 -1.04678E+01 -1.04794E+01 -1.05073E+01 -1.05545E+01
  -1.05871E+01 -1.05971E+01 -1.05814E+01 -1.04654E+01 -1.01250E+01 -9.52727E+00 -8.77100E+00 -7.91745E+00 -7.02577E+00 -6.20553E+00
  -5.57273E+00 -5.19075E+00 -5.02857E+00 -5.06363E+00 -5.23411E+00 -5.41848E+00 -5.52374E+00 -5.50006E+00 -5.21999E+00 -4.67151E+00
  -3.99390E+00 -3.36239E+00 -2.96932E+00 -2.95397E+00 -3.41350E+00 -4.34455E+00 -5.55881E+00 -6.80171E+00 -7.83854E+00 -8.35377E+00
  -8.16304E+00 -7.20955E+00 -5.65516E+00 -3.84479E+00 -2.25950E+00 -1.35224E+00 -1.31817E+00 -2.11717E+00 -3.55629E+00 -5.25181E+00
  -6.77282E+00 -7.68535E+00 -7.78460E+00 -7.14571E+00 -5.95468E+00 -4.48493E+00 -2.91749E+00 -1.36221E+00 -5.73687E-02  9.50236E-01
   1.73677E+00  2.42469E+00  3.07417E+00  3.65480E+00  4.20512E+00  4.77454E+00  5.30421E+00  5.71802E+00  5.99190E+00  6.16758E+00
   6.37635E+00  6.72255E+00  7.22026E+00  7.86768E+00  8.62470E+00  9.38712E+00  1.00515E+01  1.06268E+01  1.11807E+01  1.17596E+01
   1.24552E+01  1.36256E+01  1.64300E+01  2.13302E+01  2.86039E+01  3.87453E+01  5.09675E+01  6.27290E+01  7.12924E+01  7.52045E+01
   7.41501E+01  6.87469E+01  6.05184E+01  5.09364E+01  4.08328E+01  3.09245E+01  2.22082E+01  1.50012E+01  8.69086E+00  3.26810E+00
   2.31615E-01 -1.08259E+00 -1.96215E+00 -2.68811E+00 -3.32715E+00 -3.91103E+00 -4.49067E+00 -5.06445E+00 -5.62106E+00 -6.15697E+00
  -6.66336E+00 -7.13081E+00 -7.56258E+00 -7.96189E+00 -8.31999E+00 -8.63015E+00 -8.89601E+00 -9.12207E+00 -9.30880E+00 -9.45317E+00
  -9.55431E+00 -9.61630E+00 -9.63895E+00 -9.61946E+00 -9.55780E+00 -9.45531E+00 -9.31353E+00 -9.13461E+00 -8.92255E+00 -8.68323E+00
  -8.42389E+00 -8.15307E+00 -7.88061E+00 -7.61703E+00 -7.37326E+00 -7.15964E+00 -6.98562E+00 -6.85874E+00 -6.78511E+00 -6.76856E+00
  -6.81021E+00 -6.90834E+00 -7.05927E+00 -7.25679E+00 -7.49300E+00 -7.75876E+00 -8.04448E+00 -8.34009E+00 -8.63611E+00 -8.92368E+00
  -9.19536E+00 -9.44489E+00 -9.66778E+00 -9.86077E+00 -1.00223E+01 -1.01520E+01 -1.02505E+01 -1.03192E+01 -1.03604E+01 -1.03761E+01
  -1.03691E+01 -1.03415E+01 -1.02959E+01 -1.02339E+01 -1.01574E+01 -1.00672E+01 -9.96428E+00 -9.84855E+00 -9.71968E+00 -9.57632E+00
  -9.41643E+00 -9.23656E+00 -9.03206E+00 -8.79622E+00 -8.52049E+00 -8.19387E+00 -7.80369E+00 -7.33596E+00 -6.77733E+00 -6.11674E+00
  -5.34843E+00 -4.47388E+00 -3.50408E+00 -2.45933E+00 -1.36832E+00 -2.64224E-01  8.19225E-01  1.85306E+00  2.81628E+00  3.69823E+00
   4.49748E+00  5.21966E+00  5.87300E+00  6.46472E+00  6.99755E+00  7.46892E+00  7.87106E+00  8.19360E+00  8.42587E+00  8.56020E+00
   8.59374E+00  8.53017E+00  8.37950E+00  8.15799E+00  7.88630E+00  7.58840E+00  7.28930E+00  7.01396E+00  6.78526E+00  6.62344E+00
   6.54470E+00  6.56119E+00  6.68029E+00  6.90510E+00  7.23424E+00  7.66263E+00  8.18146E+00  8.77922E+00  9.44174E+00  1.01532E+01
   1.08963E+01  1.16529E+01  1.24046E+01  1.31330E+01  1.38204E+01  1.44502E+01  1.50070E+01  1.54779E+01  1.58515E+01  1.61195E+01
   1.62761E+01  1.63186E+01  1.62470E+01  1.60644E+01  1.57763E+01  1.53908E+01  1.49178E+01  1.43689E+01  1.37567E+01  1.30947E+01
   1.23961E+01  1.16742E+01  1.09414E+01  1.02093E+01  9.48805E+00  8.78662E+00  8.11227E+00  7.47100E+00  6.86715E+00  6.30389E+00
   5.78297E+00  5.30526E+00  4.87049E+00  4.47789E+00  4.12588E+00  3.81268E+00  3.53595E+00  3.29343E+00  3.08251E+00  2.90084E+00
   2.74586E+00  2.61536E+00  2.50697E+00  2.41874E+00  2.34861E+00  2.29495E+00  2.25602E+00  2.23047E+00  2.21683E+00  2.21403E+00
   2.22087E+00  2.23651E+00  2.25995E+00  2.29053E+00  2.32741E+00  2.37007E+00  2.41784E+00  2.47034E+00  2.52695E+00  2.58740E+00
   2.65117E+00  2.71805E+00  2.78762E+00  2.85971E+00  2.93399E+00  3.01036E+00  3.08852E+00  3.16843E+00  3.24982E+00  3.33269E+00
   3.41678E+00  3.50211E+00  3.58845E+00  3.67584E+00  3.76409E+00  3.85325E+00  3.94310E+00  4.03373E+00  4.12495E+00  4.21686E+00
   4.30928E+00  4.40230E+00  4.49575E+00  4.58974E+00  4.68411E+00  4.77898E+00  4.87419E+00  4.96984E+00  5.06579E+00  5.16217E+00
   5.25884E+00  5.35591E+00  5.45326E+00  5.55100E+00  5.64901E+00  5.74741E+00  5.84609E+00  5.94518E+00  6.04454E+00  6.14431E+00
   6.24439E+00  6.34490E+00  6.44575E+00  6.54707E+00  6.64874E+00  6.75092E+00  6.85352E+00  6.95669E+00
 NY background values follow
    -2.362E-01   -2.429E-01   -2.495E-01   -2.561E-01   -2.626E-01   -2.690E-01   -2.755E-01   -2.819E-01   -2.884E-01   -2.948E-01
    -3.013E-01   -3.078E-01   -3.144E-01   -3.210E-01   -3.277E-01   -3.345E-01   -3.414E-01   -3.483E-01   -3.555E-01   -3.627E-01
    -3.701E-01   -3.776E-01   -3.854E-01   -3.933E-01   -4.014E-01   -4.097E-01   -4.182E-01   -4.269E-01   -4.359E-01   -4.452E-01
    -4.547E-01   -4.645E-01   -4.746E-01   -4.850E-01   -4.957E-01   -5.067E-01   -5.181E-01   -5.299E-01   -5.420E-01   -5.544E-01
    -5.673E-01   -5.806E-01   -5.942E-01   -6.083E-01   -6.229E-01   -6.379E-01   -6.533E-01   -6.692E-01   -6.856E-01   -7.025E-01
    -7.198E-01   -7.376E-01   -7.559E-01   -7.746E-01   -7.938E-01   -8.135E-01   -8.337E-01   -8.543E-01   -8.754E-01   -8.971E-01
    -9.191E-01   -9.417E-01   -9.648E-01   -9.883E-01   -1.012E+00   -1.037E+00   -1.062E+00   -1.087E+00   -1.113E+00   -1.140E+00
    -1.167E+00   -1.194E+00   -1.222E+00   -1.251E+00   -1.280E+00   -1.309E+00   -1.339E+00   -1.370E+00   -1.401E+00   -1.432E+00
    -1.464E+00   -1.497E+00   -1.530E+00   -1.564E+00   -1.598E+00   -1.632E+00   -1.667E+00   -1.703E+00   -1.739E+00   -1.776E+00
    -1.813E+00   -1.851E+00   -1.889E+00   -1.928E+00   -1.967E+00   -2.007E+00   -2.048E+00   -2.089E+00   -2.130E+00   -2.172E+00
    -2.215E+00   -2.258E+00   -2.302E+00   -2.346E+00   -2.391E+00   -2.437E+00   -2.483E+00   -2.530E+00   -2.577E+00   -2.625E+00
    -2.673E+00   -2.723E+00   -2.772E+00   -2.823E+00   -2.874E+00   -2.926E+00   -2.978E+00   -3.031E+00   -3.085E+00   -3.139E+00
    -3.194E+00   -3.250E+00   -3.306E+00   -3.363E+00   -3.420E+00   -3.479E+00   -3.538E+00   -3.597E+00   -3.658E+00   -3.719E+00
    -3.781E+00   -3.843E+00   -3.907E+00   -3.970E+00   -4.035E+00   -4.101E+00   -4.167E+00   -4.234E+00   -4.301E+00   -4.369E+00
    -4.438E+00   -4.508E+00   -4.578E+00   -4.649E+00   -4.720E+00   -4.792E+00   -4.864E+00   -4.937E+00   -5.010E+00   -5.084E+00
    -5.158E+00   -5.233E+00   -5.308E+00   -5.383E+00   -5.458E+00   -5.534E+00   -5.610E+00   -5.687E+00   -5.763E+00   -5.840E+00
    -5.917E+00   -5.994E+00   -6.071E+00   -6.148E+00   -6.226E+00   -6.303E+00   -6.381E+00   -6.458E+00   -6.535E+00   -6.613E+00
    -6.690E+00   -6.767E+00   -6.844E+00   -6.921E+00   -6.998E+00   -7.075E+00   -7.151E+00   -7.227E+00   -7.303E+00   -7.379E+00
    -7.454E+00   -7.529E+00   -7.603E+00   -7.678E+00   -7.752E+00   -7.825E+00   -7.898E+00   -7.971E+00   -8.044E+00   -8.116E+00
    -8.188E+00   -8.260E+00   -8.331E+00   -8.403E+00   -8.473E+00   -8.544E+00   -8.615E+00   -8.685E+00   -8.755E+00   -8.824E+00
    -8.894E+00   -8.963E+00   -9.032E+00   -9.101E+00   -9.170E+00   -9.238E+00   -9.307E+00   -9.375E+00   -9.443E+00   -9.511E+00
    -9.578E+00   -9.646E+00   -9.714E+00   -9.781E+00   -9.848E+00   -9.915E+00   -9.982E+00   -1.005E+01   -1.012E+01   -1.018E+01
    -1.025E+01   -1.032E+01   -1.038E+01   -1.045E+01   -1.052E+01   -1.058E+01   -1.065E+01   -1.072E+01   -1.078E+01   -1.085E+01
    -1.091E+01   -1.098E+01   -1.105E+01   -1.111E+01   -1.118E+01   -1.124E+01   -1.131E+01   -1.137E+01   -1.144E+01   -1.150E+01
    -1.156E+01   -1.163E+01   -1.169E+01   -1.175E+01   -1.181E+01   -1.187E+01   -1.193E+01   -1.199E+01   -1.205E+01   -1.211E+01
    -1.217E+01   -1.222E+01   -1.228E+01   -1.233E+01   -1.239E+01   -1.244E+01   -1.249E+01   -1.254E+01   -1.259E+01   -1.264E+01
    -1.269E+01   -1.274E+01   -1.278E+01   -1.283E+01   -1.287E+01   -1.291E+01   -1.295E+01   -1.299E+01   -1.303E+01   -1.307E+01
    -1.310E+01   -1.314E+01   -1.317E+01   -1.320E+01   -1.323E+01   -1.326E+01   -1.329E+01   -1.331E+01   -1.334E+01   -1.336E+01
    -1.338E+01   -1.340E+01   -1.342E+01   -1.343E+01   -1.345E+01   -1.346E+01   -1.347E+01   -1.348E+01   -1.349E+01   -1.350E+01
    -1.351E+01   -1.351E+01   -1.351E+01   -1.351E+01   -1.351E+01   -1.351E+01   -1.350E+01   -1.350E+01   -1.349E+01   -1.348E+01
    -1.347E+01   -1.346E+01   -1.344E+01   -1.343E+01   -1.341E+01   -1.339E+01   -1.337E+01   -1.335E+01   -1.332E+01   -1.330E+01
    -1.327E+01   -1.324E+01   -1.321E+01   -1.317E+01   -1.314E+01   -1.310E+01   -1.306E+01   -1.302E+01   -1.298E+01   -1.293E+01
    -1.289E+01   -1.284E+01   -1.279E+01   -1.274E+01   -1.269E+01   -1.263E+01   -1.258E+01   -1.252E+01   -1.246E+01   -1.240E+01
    -1.234E+01   -1.227E+01   -1.221E+01   -1.214E+01   -1.207E+01   -1.200E+01   -1.192E+01   -1.185E+01   -1.178E+01   -1.170E+01
    -1.162E+01   -1.154E+01   -1.146E+01   -1.137E+01   -1.129E+01   -1.120E+01   -1.112E+01   -1.103E+01   -1.094E+01   -1.085E+01
    -1.075E+01   -1.066E+01   -1.056E+01   -1.046E+01   -1.037E+01   -1.027E+01   -1.016E+01   -1.006E+01   -9.958E+00   -9.853E+00
    -9.746E+00   -9.639E+00   -9.530E+00   -9.419E+00   -9.308E+00   -9.195E+00   -9.082E+00   -8.967E+00   -8.851E+00   -8.734E+00
    -8.616E+00   -8.497E+00   -8.377E+00   -8.256E+00   -8.134E+00   -8.011E+00   -7.887E+00   -7.763E+00   -7.637E+00   -7.511E+00
    -7.384E+00   -7.257E+00   -7.128E+00   -6.999E+00   -6.870E+00   -6.739E+00   -6.608E+00   -6.477E+00   -6.345E+00   -6.212E+00
    -6.079E+00   -5.946E+00   -5.812E+00   -5.678E+00   -5.543E+00   -5.408E+00   -5.272E+00   -5.137E+00   -5.001E+00   -4.864E+00
    -4.728E+00   -4.591E+00   -4.455E+00   -4.318E+00   -4.181E+00   -4.044E+00   -3.906E+00   -3.769E+00   -3.632E+00   -3.495E+00
    -3.358E+00   -3.221E+00   -3.084E+00   -2.947E+00   -2.810E+00   -2.673E+00   -2.536E+00   -2.400E+00   -2.263E+00   -2.127E+00
    -1.991E+00   -1.856E+00   -1.720E+00   -1.585E+00   -1.450E+00   -1.315E+00   -1.180E+00   -1.046E+00   -9.121E-01   -7.785E-01
    -6.453E-01   -5.124E-01   -3.800E-01   -2.479E-01   -1.162E-01    1.508E-02    1.459E-01    2.762E-01    4.061E-01    5.355E-01
     6.644E-01    7.928E-01    9.206E-01    1.048E+00    1.175E+00    1.301E+00    1.426E+00    1.551E+00    1.675E+00    1.799E+00
     1.922E+00    2.044E+00    2.166E+00    2.287E+00    2.407E+00    2.527E+00    2.645E+00    2.764E+00    2.881E+00    2.998E+00
     3.115E+00    3.231E+00    3.346E+00    3.461E+00    3.575E+00    3.689E+00    3.802E+00    3.915E+00    4.028E+00    4.140E+00
     4.251E+00    4.362E+00    4.473E+00    4.584E+00    4.694E+00    4.804E+00    4.913E+00    5.022E+00    5.131E+00    5.240E+00
     5.349E+00    5.457E+00    5.565E+00    5.673E+00    5.781E+00    5.888E+00    5.996E+00    6.103E+00    6.210E+00    6.317E+00
     6.425E+00    6.532E+00    6.639E+00    6.746E+00    6.853E+00    6.960E+00    7.067E+00    7.174E+00
 PCr      Conc. = 1.39E+03
