 LCModel (Version 6.3-1L) Copyright: S.W. Provencher.          Ref.: Magn. Reson. Med. 30:672-679 (1993).                
 Slice#1 Row#14 Col#3  PD_24_press_1_raw_act
 36 lines in following concentration table = NCONC+1
    Conc.  %SD /Cr+PCr  Metabolite                                         
    0.000 999%   0.000 Ala                                                 
    7.622 119%   0.124 Asp                                                 
   61.387  46%   1.000 Cr                                                  
    0.000 999%   0.000 PCr                                                 
    4.768 114% 7.8E-02 GABA                                                
    4.710 116% 7.7E-02 Glc                                                 
 1.06E+03  24%  17.229 Gln                                                 
 1.39E+03  21%  22.655 Glu                                                 
    4.637 238% 7.6E-02 GPC                                                 
    0.000 999%   0.000 PCh                                                 
   46.942 109%   0.765 GSH                                                 
   92.362 149%   1.505 Ins                                                 
  319.406  35%   5.203 Lac                                                 
   77.402  41%   1.261 NAA                                                 
    0.000 999%   0.000 NAAG                                                
    1.748 105% 2.8E-02 Scyllo                                              
    8.191 111%   0.133 Tau                                                 
    3.301 284% 5.4E-02 -CrCH2                                              
    4.637 238% 7.6E-02 GPC+PCh                                             
   77.402  41%   1.261 NAA+NAAG                                            
   61.387  46%   1.000 Cr+PCr                                              
 2.45E+03  20%  39.885 Glu+Gln                                             
    0.000 999%   0.000 Lip13a                                              
    0.000 999%   0.000 Lip13b                                              
    0.000 999%   0.000 Lip09                                               
   15.969 346%   0.260 MM09                                                
    3.443 604% 5.6E-02 Lip20                                               
   33.849 250%   0.551 MM20                                                
    4.744 373% 7.7E-02 MM12                                                
   25.036 195%   0.408 MM14                                                
    5.801 476% 9.4E-02 MM17                                                
    0.000 999%   0.000 Lip13a+Lip13b                                       
   29.780 214%   0.485 MM14+Lip13a+Lip13b+MM12                             
   15.969 346%   0.260 MM09+Lip09                                          
   37.292 231%   0.607 MM20+Lip20                                          
   6 lines in following misc. output table
  FWHM = 0.099 ppm    S/N =   1                                            
  Data shift =-0.008 ppm                                                   
  Ph: -79 deg      -8.7 deg/ppm                                            
  alphaB,S = 4.3E+01,   1.5E+02                                            
   14 spline knots.   Ns =10(1)                                            
   2 inflections.     1 extrema                                            
  498 points on ppm-axis = NY
      4.000000     3.992357     3.984714     3.977070     3.969427     3.961784     3.954141     3.946497     3.938854     3.931211
      3.923568     3.915925     3.908281     3.900638     3.892995     3.885352     3.877708     3.870065     3.862422     3.854779
      3.847136     3.839492     3.831849     3.824206     3.816563     3.808919     3.801276     3.793633     3.785990     3.778347
      3.770703     3.763060     3.755417     3.747774     3.740130     3.732487     3.724844     3.717201     3.709558     3.701914
      3.694271     3.686628     3.678985     3.671341     3.663698     3.656055     3.648412     3.640769     3.633125     3.625482
      3.617839     3.610196     3.602552     3.594909     3.587266     3.579623     3.571980     3.564336     3.556693     3.549050
      3.541407     3.533763     3.526120     3.518477     3.510834     3.503191     3.495547     3.487904     3.480261     3.472618
      3.464974     3.457331     3.449688     3.442045     3.434402     3.426758     3.419115     3.411472     3.403829     3.396185
      3.388542     3.380899     3.373256     3.365613     3.357969     3.350326     3.342683     3.335040     3.327396     3.319753
      3.312110     3.304467     3.296824     3.289180     3.281537     3.273894     3.266251     3.258607     3.250964     3.243321
      3.235678     3.228034     3.220391     3.212748     3.205105     3.197462     3.189818     3.182175     3.174532     3.166889
      3.159245     3.151602     3.143959     3.136316     3.128673     3.121029     3.113386     3.105743     3.098100     3.090456
      3.082813     3.075170     3.067527     3.059884     3.052240     3.044597     3.036954     3.029311     3.021667     3.014024
      3.006381     2.998738     2.991095     2.983451     2.975808     2.968165     2.960522     2.952878     2.945235     2.937592
      2.929949     2.922306     2.914662     2.907019     2.899376     2.891733     2.884089     2.876446     2.868803     2.861160
      2.853517     2.845873     2.838230     2.830587     2.822944     2.815300     2.807657     2.800014     2.792371     2.784728
      2.777084     2.769441     2.761798     2.754155     2.746511     2.738868     2.731225     2.723582     2.715939     2.708295
      2.700652     2.693009     2.685366     2.677722     2.670079     2.662436     2.654793     2.647150     2.639506     2.631863
      2.624220     2.616577     2.608933     2.601290     2.593647     2.586004     2.578361     2.570717     2.563074     2.555431
      2.547788     2.540144     2.532501     2.524858     2.517215     2.509572     2.501928     2.494285     2.486642     2.478999
      2.471355     2.463712     2.456069     2.448426     2.440783     2.433139     2.425496     2.417853     2.410210     2.402566
      2.394923     2.387280     2.379637     2.371994     2.364350     2.356707     2.349064     2.341421     2.333777     2.326134
      2.318491     2.310848     2.303205     2.295561     2.287918     2.280275     2.272632     2.264988     2.257345     2.249702
      2.242059     2.234416     2.226772     2.219129     2.211486     2.203843     2.196199     2.188556     2.180913     2.173270
      2.165627     2.157983     2.150340     2.142697     2.135054     2.127410     2.119767     2.112124     2.104481     2.096838
      2.089194     2.081551     2.073908     2.066265     2.058621     2.050978     2.043335     2.035692     2.028049     2.020405
      2.012762     2.005119     1.997476     1.989833     1.982190     1.974546     1.966903     1.959260     1.951617     1.943974
      1.936331     1.928688     1.921045     1.913402     1.905759     1.898115     1.890472     1.882829     1.875186     1.867543
      1.859900     1.852257     1.844614     1.836971     1.829327     1.821684     1.814041     1.806398     1.798755     1.791112
      1.783469     1.775826     1.768183     1.760540     1.752896     1.745253     1.737610     1.729967     1.722324     1.714681
      1.707038     1.699395     1.691752     1.684108     1.676465     1.668822     1.661179     1.653536     1.645893     1.638250
      1.630607     1.622964     1.615321     1.607677     1.600034     1.592391     1.584748     1.577105     1.569462     1.561819
      1.554176     1.546533     1.538890     1.531246     1.523603     1.515960     1.508317     1.500674     1.493031     1.485388
      1.477745     1.470102     1.462458     1.454815     1.447172     1.439529     1.431886     1.424243     1.416600     1.408957
      1.401314     1.393671     1.386027     1.378384     1.370741     1.363098     1.355455     1.347812     1.340169     1.332526
      1.324883     1.317240     1.309596     1.301953     1.294310     1.286667     1.279024     1.271381     1.263738     1.256095
      1.248452     1.240808     1.233165     1.225522     1.217879     1.210236     1.202593     1.194950     1.187307     1.179664
      1.172021     1.164377     1.156734     1.149091     1.141448     1.133805     1.126162     1.118519     1.110876     1.103233
      1.095590     1.087946     1.080303     1.072660     1.065017     1.057374     1.049731     1.042088     1.034445     1.026802
      1.019158     1.011515     1.003872     0.996229     0.988586     0.980943     0.973300     0.965657     0.958014     0.950371
      0.942727     0.935084     0.927441     0.919798     0.912155     0.904512     0.896869     0.889226     0.881583     0.873940
      0.866296     0.858653     0.851010     0.843367     0.835724     0.828081     0.820438     0.812795     0.805152     0.797508
      0.789865     0.782222     0.774579     0.766936     0.759293     0.751650     0.744007     0.736364     0.728721     0.721077
      0.713434     0.705791     0.698148     0.690505     0.682862     0.675219     0.667576     0.659933     0.652290     0.644646
      0.637003     0.629360     0.621717     0.614074     0.606431     0.598788     0.591145     0.583502     0.575858     0.568215
      0.560572     0.552929     0.545286     0.537643     0.530000     0.522357     0.514714     0.507071     0.499427     0.491784
      0.484141     0.476498     0.468855     0.461212     0.453569     0.445925     0.438282     0.430639     0.422996     0.415353
      0.407710     0.400067     0.392424     0.384780     0.377137     0.369494     0.361851     0.354208     0.346565     0.338922
      0.331278     0.323635     0.315992     0.308349     0.300706     0.293063     0.285420     0.277777     0.270133     0.262490
      0.254847     0.247204     0.239561     0.231918     0.224275     0.216631     0.208988     0.201345
 NY phased data points follow
  -5.56062E+00 -5.97599E+00 -4.92742E+00 -7.67276E+00 -6.35879E+00 -4.81394E+00 -4.38082E+00 -4.77698E+00 -4.29722E+00 -6.15240E+00
  -4.69344E+00 -6.91176E+00 -4.43937E+00 -5.64576E+00 -6.44820E+00 -7.15312E+00 -6.06329E+00 -6.69730E+00 -5.49704E+00 -7.62061E+00
  -6.82266E+00 -7.37184E+00 -5.04733E+00 -8.14096E+00 -8.28869E+00 -7.66807E+00 -6.66887E+00 -5.42134E+00 -6.16166E+00 -9.59794E+00
  -5.61906E+00 -7.72456E+00 -7.57228E+00 -6.86396E+00 -7.93903E+00 -9.19357E+00 -8.68734E+00 -1.04231E+01 -7.52926E+00 -1.04295E+01
  -6.51466E+00 -9.15471E+00 -7.75075E+00 -9.62945E+00 -1.01827E+01 -8.72949E+00 -1.05653E+01 -8.92431E+00 -7.72356E+00 -9.76077E+00
  -1.03984E+01 -9.34159E+00 -9.87347E+00 -1.04911E+01 -1.24264E+01 -9.51395E+00 -9.95831E+00 -1.04467E+01 -1.00654E+01 -7.10457E+00
  -1.02818E+01 -8.27408E+00 -1.24491E+01 -1.03966E+01 -9.22009E+00 -1.14696E+01 -8.60744E+00 -9.72664E+00 -1.09763E+01 -1.06262E+01
  -1.03647E+01 -9.24153E+00 -8.54238E+00 -1.08836E+01 -7.94709E+00 -1.17211E+01 -1.02094E+01 -1.06394E+01 -8.41428E+00 -1.12773E+01
  -1.11915E+01 -1.07219E+01 -1.00274E+01 -1.08707E+01 -9.39253E+00 -9.06760E+00 -1.08714E+01 -1.00540E+01 -1.01213E+01 -1.40018E+01
  -9.38073E+00 -1.05350E+01 -8.20534E+00 -1.25467E+01 -1.04817E+01 -1.18153E+01 -1.10139E+01 -1.17529E+01 -1.32145E+01 -1.02934E+01
  -1.29631E+01 -1.10103E+01 -9.19722E+00 -9.26789E+00 -9.91173E+00 -1.01175E+01 -9.70348E+00 -1.16095E+01 -8.25037E+00 -1.00441E+01
  -1.00875E+01 -1.02301E+01 -9.74879E+00 -1.09901E+01 -1.07104E+01 -1.20420E+01 -1.14658E+01 -1.20117E+01 -1.01591E+01 -1.00695E+01
  -1.18073E+01 -9.70141E+00 -1.20424E+01 -1.22650E+01 -1.04637E+01 -1.27806E+01 -8.68565E+00 -1.10628E+01 -8.79716E+00 -8.55062E+00
  -8.50501E+00 -1.41425E+01 -9.87363E+00 -9.36936E+00 -7.09804E+00 -1.27170E+01 -1.26251E+01 -1.10764E+01 -1.34621E+01 -1.17960E+01
  -9.53433E+00 -1.22693E+01 -1.14323E+01 -1.53249E+01 -8.72926E+00 -1.31178E+01 -1.21408E+01 -1.05481E+01 -1.26116E+01 -1.10389E+01
  -9.95792E+00 -1.00952E+01 -1.21337E+01 -1.17683E+01 -1.22059E+01 -1.33130E+01 -1.26766E+01 -1.23966E+01 -9.48906E+00 -1.18978E+01
  -1.00549E+01 -8.27174E+00 -1.29759E+01 -1.15943E+01 -1.47304E+01 -1.20403E+01 -9.97087E+00 -1.30845E+01 -1.16012E+01 -1.38298E+01
  -1.05366E+01 -1.15732E+01 -1.02432E+01 -1.24098E+01 -1.33526E+01 -1.22089E+01 -1.12211E+01 -1.09348E+01 -1.40672E+01 -1.10253E+01
  -1.32784E+01 -1.19068E+01 -1.12781E+01 -1.24792E+01 -1.24099E+01 -1.18118E+01 -1.40677E+01 -1.13582E+01 -1.32257E+01 -9.51984E+00
  -9.56571E+00 -9.12608E+00 -1.22130E+01 -1.01713E+01 -1.12287E+01 -1.27384E+01 -8.32325E+00 -1.00237E+01 -9.98194E+00 -8.68551E+00
  -9.38559E+00 -1.16147E+01 -1.12913E+01 -1.05537E+01 -1.03623E+01 -9.02669E+00 -9.84271E+00 -1.17552E+01 -1.08782E+01 -1.14627E+01
  -9.98636E+00 -8.93345E+00 -8.43378E+00 -8.18441E+00 -9.00194E+00 -9.09912E+00 -9.58390E+00 -1.02275E+01 -8.41559E+00 -8.07633E+00
  -1.07577E+01 -8.44034E+00 -1.20419E+01 -1.22153E+01 -1.00819E+01 -9.21465E+00 -9.27031E+00 -9.32910E+00 -1.13043E+01 -9.92685E+00
  -8.83355E+00 -9.88250E+00 -9.64887E+00 -8.45672E+00 -1.16156E+01 -8.13370E+00 -9.70294E+00 -8.48677E+00 -1.14379E+01 -9.59550E+00
  -9.58366E+00 -9.92119E+00 -8.46742E+00 -8.68324E+00 -8.61393E+00 -8.80787E+00 -1.06828E+01 -9.07490E+00 -5.84026E+00 -6.97273E+00
  -8.54936E+00 -9.22322E+00 -1.17520E+01 -8.68592E+00 -1.15909E+01 -1.19328E+01 -6.42333E+00 -8.54042E+00 -9.91689E+00 -8.75604E+00
  -6.08432E+00 -7.40319E+00 -9.25843E+00 -4.53714E+00 -7.75560E+00 -6.29433E+00 -4.85265E+00 -1.04132E+01 -8.22258E+00 -6.43985E+00
  -5.43861E+00 -5.56588E+00 -4.48312E+00 -8.06847E+00 -8.30272E+00 -5.47045E+00 -8.98261E+00 -8.49742E+00 -1.00978E+01 -7.92773E+00
  -1.03487E+01 -8.88894E+00 -1.07440E+01 -8.98119E+00 -1.00390E+01 -1.05974E+01 -7.26352E+00 -9.26068E+00 -9.31575E+00 -1.04211E+01
  -1.07559E+01 -9.78007E+00 -8.07289E+00 -7.14198E+00 -9.28233E+00 -8.49111E+00 -8.59227E+00 -7.93089E+00 -1.14241E+01 -9.25593E+00
  -8.22829E+00 -7.94661E+00 -7.66509E+00 -6.51847E+00 -9.57428E+00 -8.61159E+00 -9.81222E+00 -6.00782E+00 -1.02847E+01 -7.56823E+00
  -9.02603E+00 -9.65133E+00 -6.77279E+00 -7.58760E+00 -6.83785E+00 -6.01239E+00 -7.34128E+00 -9.44272E+00 -7.76394E+00 -4.97612E+00
  -1.01335E+01 -1.00023E+01 -6.31069E+00 -7.21781E+00 -7.07870E+00 -6.12192E+00 -6.04603E+00 -7.00590E+00 -6.86636E+00 -6.73158E+00
  -6.10204E+00 -5.67361E+00 -6.55372E+00 -6.93192E+00 -5.50265E+00 -5.10770E+00 -5.71340E+00 -4.79801E+00 -5.96934E+00 -4.36436E+00
  -7.50789E+00 -7.01311E+00 -9.08742E+00 -3.58331E+00 -6.98705E+00 -7.78990E+00 -1.02914E+01 -6.14371E+00 -7.08163E+00 -8.65947E+00
  -7.18929E+00 -5.73274E+00 -7.79571E+00 -9.03100E+00 -7.69541E+00 -6.00819E+00 -6.63689E+00 -6.11671E+00 -7.75155E+00 -6.05945E+00
  -3.90098E+00 -8.11494E+00 -4.48407E+00 -6.01270E+00 -7.04970E+00 -5.38860E+00 -6.25754E+00 -6.42346E+00 -5.90423E+00 -3.38235E+00
  -5.91717E+00 -5.15933E+00 -6.81252E+00 -7.53558E+00 -6.49317E+00 -5.82435E+00 -8.28884E+00 -5.75499E+00 -6.92505E+00 -3.95215E+00
  -5.07348E+00 -4.12183E+00 -6.46676E+00 -7.63127E+00 -7.56239E+00 -5.11776E+00 -7.03265E+00 -7.78505E+00 -4.98027E+00 -6.49480E+00
  -6.40669E+00 -7.47318E+00 -5.27796E+00 -5.84305E+00 -4.41550E+00 -8.06034E+00 -4.72040E+00 -6.50211E+00 -5.77298E+00 -3.88850E+00
  -5.50223E+00 -3.87000E+00 -6.70378E+00 -5.58241E+00 -5.60271E+00 -5.47219E+00 -8.01894E+00 -7.81363E+00 -6.86125E+00 -6.03707E+00
  -5.73635E+00 -3.63077E+00 -6.85395E+00 -8.76129E+00 -6.20209E+00 -5.02509E+00 -5.86575E+00 -5.16799E+00 -3.64104E+00 -6.50690E+00
  -6.73022E+00 -6.11258E+00 -5.19075E+00 -5.27139E+00 -6.14092E+00 -5.80873E+00 -6.85799E+00 -4.60252E+00 -4.33404E+00 -6.68496E+00
  -4.99383E+00 -7.08543E+00 -4.92415E+00 -5.82084E+00 -4.83271E+00 -5.53689E+00 -3.90608E+00 -6.66782E+00 -2.66698E+00 -1.52577E+00
  -5.06200E+00 -5.47237E+00 -3.28494E+00 -1.59750E+00 -6.71658E+00 -5.98055E+00 -3.53996E+00 -1.49163E+00 -3.02752E+00 -4.01629E+00
  -2.22327E+00 -5.35688E+00 -4.34081E+00 -3.19803E+00 -4.18873E+00 -3.31382E+00 -4.13461E+00 -5.09303E+00 -4.89261E+00 -5.24831E+00
  -3.96063E+00 -3.28999E+00 -4.67595E+00 -2.85963E+00 -2.47838E+00 -3.86360E+00 -4.35638E+00 -3.27312E+00 -3.64427E+00 -2.02507E+00
  -3.03459E+00 -3.01503E+00 -4.11244E+00 -3.52707E+00 -3.77752E+00 -4.01671E+00 -4.28374E+00 -6.30468E+00 -3.35469E+00 -4.39622E+00
  -4.61005E+00 -3.01678E+00 -1.86328E+00 -4.45198E+00 -3.88502E+00 -2.99010E+00 -4.42651E+00 -2.18112E+00 -5.23633E+00 -2.22809E+00
  -1.18008E+00 -3.96823E+00 -2.18228E+00 -3.90942E+00 -2.69490E+00 -3.67912E+00 -2.17846E+00 -1.47035E+00
 NY points of the fit to the data follow
  -6.40725E+00 -6.40935E+00 -6.37379E+00 -6.32286E+00 -6.28041E+00 -6.23961E+00 -6.19478E+00 -6.14523E+00 -6.10518E+00 -6.09323E+00
  -6.10530E+00 -6.13491E+00 -6.17987E+00 -6.23049E+00 -6.27415E+00 -6.31891E+00 -6.40545E+00 -6.52375E+00 -6.69757E+00 -6.90360E+00
  -7.06301E+00 -7.09963E+00 -6.95587E+00 -6.72138E+00 -6.54256E+00 -6.48996E+00 -6.58562E+00 -6.77967E+00 -6.97183E+00 -7.07984E+00
  -7.08783E+00 -7.07536E+00 -7.17817E+00 -7.46658E+00 -7.90255E+00 -8.35820E+00 -8.67479E+00 -8.76821E+00 -8.68474E+00 -8.52171E+00
  -8.49322E+00 -8.66595E+00 -8.95642E+00 -9.23461E+00 -9.36357E+00 -9.36370E+00 -9.25428E+00 -9.10402E+00 -9.06240E+00 -9.17925E+00
  -9.40912E+00 -9.66467E+00 -9.85718E+00 -9.95767E+00 -1.00112E+01 -1.00479E+01 -1.00840E+01 -1.01205E+01 -1.01454E+01 -1.01464E+01
  -1.01325E+01 -1.01211E+01 -1.01181E+01 -1.01218E+01 -1.01289E+01 -1.01362E+01 -1.01421E+01 -1.01481E+01 -1.01581E+01 -1.01753E+01
  -1.01977E+01 -1.02180E+01 -1.02345E+01 -1.02488E+01 -1.02637E+01 -1.02821E+01 -1.03044E+01 -1.03331E+01 -1.03674E+01 -1.04030E+01
  -1.04363E+01 -1.04654E+01 -1.04914E+01 -1.05124E+01 -1.05279E+01 -1.05423E+01 -1.05550E+01 -1.05640E+01 -1.05679E+01 -1.05671E+01
  -1.05618E+01 -1.05519E+01 -1.05350E+01 -1.05098E+01 -1.04876E+01 -1.04745E+01 -1.04672E+01 -1.04590E+01 -1.04478E+01 -1.04408E+01
  -1.04403E+01 -1.04454E+01 -1.04563E+01 -1.04746E+01 -1.05004E+01 -1.05309E+01 -1.05609E+01 -1.05853E+01 -1.05998E+01 -1.06066E+01
  -1.06110E+01 -1.06177E+01 -1.06280E+01 -1.06345E+01 -1.06225E+01 -1.05818E+01 -1.05123E+01 -1.03906E+01 -1.02433E+01 -1.01164E+01
  -1.00226E+01 -9.95133E+00 -9.88887E+00 -9.83123E+00 -9.78471E+00 -9.76290E+00 -9.78148E+00 -9.85301E+00 -9.97781E+00 -1.01393E+01
  -1.03132E+01 -1.04762E+01 -1.06127E+01 -1.07214E+01 -1.08153E+01 -1.09179E+01 -1.10431E+01 -1.11760E+01 -1.12679E+01 -1.12695E+01
  -1.12283E+01 -1.11976E+01 -1.11850E+01 -1.11866E+01 -1.11924E+01 -1.11908E+01 -1.11811E+01 -1.11732E+01 -1.11718E+01 -1.11795E+01
  -1.11971E+01 -1.12194E+01 -1.12398E+01 -1.12526E+01 -1.12563E+01 -1.12550E+01 -1.12527E+01 -1.12513E+01 -1.12509E+01 -1.12512E+01
  -1.12509E+01 -1.12490E+01 -1.12452E+01 -1.12395E+01 -1.12337E+01 -1.12304E+01 -1.12320E+01 -1.12377E+01 -1.12423E+01 -1.12433E+01
  -1.12409E+01 -1.12377E+01 -1.12359E+01 -1.12364E+01 -1.12365E+01 -1.12352E+01 -1.12316E+01 -1.12241E+01 -1.12124E+01 -1.11956E+01
  -1.11724E+01 -1.11435E+01 -1.11136E+01 -1.10970E+01 -1.11128E+01 -1.11557E+01 -1.12372E+01 -1.13472E+01 -1.14620E+01 -1.15548E+01
  -1.16001E+01 -1.15610E+01 -1.14256E+01 -1.12277E+01 -1.09990E+01 -1.07180E+01 -1.03908E+01 -1.00673E+01 -9.83324E+00 -9.76461E+00
  -9.95013E+00 -1.02689E+01 -1.05709E+01 -1.08304E+01 -1.10558E+01 -1.12243E+01 -1.12530E+01 -1.10675E+01 -1.08363E+01 -1.06162E+01
  -1.03718E+01 -1.00838E+01 -9.81823E+00 -9.67333E+00 -9.65940E+00 -9.72251E+00 -9.86007E+00 -1.00463E+01 -1.02332E+01 -1.03682E+01
  -1.04695E+01 -1.06164E+01 -1.08761E+01 -1.09902E+01 -1.08660E+01 -1.07108E+01 -1.06851E+01 -1.06912E+01 -1.05386E+01 -1.01700E+01
  -9.76863E+00 -9.32037E+00 -8.82832E+00 -8.43904E+00 -8.32396E+00 -8.53327E+00 -8.87934E+00 -9.16337E+00 -9.38642E+00 -9.60438E+00
  -9.83728E+00 -1.01159E+01 -1.04347E+01 -1.07237E+01 -1.08767E+01 -1.08096E+01 -1.05632E+01 -1.03164E+01 -1.02205E+01 -1.02348E+01
  -1.02301E+01 -1.00775E+01 -9.71845E+00 -9.19896E+00 -8.67392E+00 -8.27447E+00 -8.00176E+00 -7.81039E+00 -7.66210E+00 -7.53454E+00
  -7.41540E+00 -7.31896E+00 -7.28814E+00 -7.36426E+00 -7.54978E+00 -7.77691E+00 -7.96471E+00 -8.07768E+00 -8.12701E+00 -8.16541E+00
  -8.26128E+00 -8.45484E+00 -8.61790E+00 -8.67956E+00 -8.69284E+00 -8.68490E+00 -8.65441E+00 -8.60653E+00 -8.58551E+00 -8.58360E+00
  -8.57754E+00 -8.56330E+00 -8.54163E+00 -8.52115E+00 -8.51858E+00 -8.53733E+00 -8.55925E+00 -8.57187E+00 -8.57765E+00 -8.57845E+00
  -8.57271E+00 -8.55898E+00 -8.53986E+00 -8.52291E+00 -8.50924E+00 -8.49558E+00 -8.48120E+00 -8.46575E+00 -8.44884E+00 -8.43026E+00
  -8.41033E+00 -8.38995E+00 -8.36879E+00 -8.34664E+00 -8.32397E+00 -8.30110E+00 -8.27817E+00 -8.25520E+00 -8.23213E+00 -8.20884E+00
  -8.18516E+00 -8.16094E+00 -8.13613E+00 -8.11079E+00 -8.08501E+00 -8.05871E+00 -8.03145E+00 -8.00313E+00 -7.97364E+00 -7.94293E+00
  -7.91093E+00 -7.87761E+00 -7.84289E+00 -7.80666E+00 -7.76876E+00 -7.72900E+00 -7.68717E+00 -7.64296E+00 -7.59596E+00 -7.54550E+00
  -7.49064E+00 -7.42997E+00 -7.36140E+00 -7.28147E+00 -7.18393E+00 -7.05564E+00 -6.86183E+00 -6.55469E+00 -6.23654E+00 -6.02729E+00
  -5.94373E+00 -5.94958E+00 -6.01927E+00 -6.16979E+00 -6.39934E+00 -6.58702E+00 -6.71203E+00 -6.85303E+00 -7.06493E+00 -7.32522E+00
  -7.55799E+00 -7.69086E+00 -7.67741E+00 -7.50193E+00 -7.21382E+00 -6.92622E+00 -6.73618E+00 -6.64614E+00 -6.55117E+00 -6.34609E+00
  -6.13839E+00 -5.97836E+00 -5.81222E+00 -5.64911E+00 -5.56903E+00 -5.66167E+00 -5.90002E+00 -6.08645E+00 -6.18777E+00 -6.24721E+00
  -6.28347E+00 -6.30497E+00 -6.31632E+00 -6.32033E+00 -6.31884E+00 -6.31306E+00 -6.30382E+00 -6.29172E+00 -6.27721E+00 -6.26068E+00
  -6.24241E+00 -6.22257E+00 -6.20129E+00 -6.17867E+00 -6.15481E+00 -6.12979E+00 -6.10368E+00 -6.07650E+00 -6.04827E+00 -6.01903E+00
  -5.98884E+00 -5.95777E+00 -5.92589E+00 -5.89327E+00 -5.85998E+00 -5.82617E+00 -5.79198E+00 -5.75756E+00 -5.72308E+00 -5.68869E+00
  -5.65455E+00 -5.62084E+00 -5.58771E+00 -5.55530E+00 -5.52370E+00 -5.49297E+00 -5.46315E+00 -5.43427E+00 -5.40631E+00 -5.37921E+00
  -5.35287E+00 -5.32720E+00 -5.30207E+00 -5.27737E+00 -5.25299E+00 -5.22878E+00 -5.20463E+00 -5.18043E+00 -5.15609E+00 -5.13157E+00
  -5.10679E+00 -5.08171E+00 -5.05629E+00 -5.03054E+00 -5.00445E+00 -4.97804E+00 -4.95132E+00 -4.92430E+00 -4.89699E+00 -4.86943E+00
  -4.84165E+00 -4.81367E+00 -4.78552E+00 -4.75719E+00 -4.72872E+00 -4.70013E+00 -4.67144E+00 -4.64266E+00 -4.61380E+00 -4.58487E+00
  -4.55588E+00 -4.52685E+00 -4.49779E+00 -4.46869E+00 -4.43957E+00 -4.41042E+00 -4.38126E+00 -4.35211E+00 -4.32295E+00 -4.29380E+00
  -4.26465E+00 -4.23550E+00 -4.20638E+00 -4.17728E+00 -4.14821E+00 -4.11915E+00 -4.09013E+00 -4.06113E+00 -4.03218E+00 -4.00326E+00
  -3.97439E+00 -3.94556E+00 -3.91677E+00 -3.88804E+00 -3.85936E+00 -3.83074E+00 -3.80218E+00 -3.77368E+00 -3.74524E+00 -3.71688E+00
  -3.68859E+00 -3.66038E+00 -3.63225E+00 -3.60419E+00 -3.57623E+00 -3.54836E+00 -3.52060E+00 -3.49293E+00 -3.46537E+00 -3.43792E+00
  -3.41059E+00 -3.38338E+00 -3.35631E+00 -3.32938E+00 -3.30259E+00 -3.27595E+00 -3.24949E+00 -3.22320E+00 -3.19710E+00 -3.17120E+00
  -3.14552E+00 -3.12007E+00 -3.09487E+00 -3.06994E+00 -3.04531E+00 -3.02100E+00 -2.99704E+00 -2.97348E+00
 NY background values follow
    -7.724E+00   -7.763E+00   -7.803E+00   -7.842E+00   -7.880E+00   -7.919E+00   -7.957E+00   -7.995E+00   -8.032E+00   -8.070E+00
    -8.107E+00   -8.144E+00   -8.181E+00   -8.217E+00   -8.253E+00   -8.289E+00   -8.324E+00   -8.360E+00   -8.395E+00   -8.430E+00
    -8.464E+00   -8.499E+00   -8.533E+00   -8.567E+00   -8.600E+00   -8.633E+00   -8.666E+00   -8.699E+00   -8.732E+00   -8.764E+00
    -8.796E+00   -8.828E+00   -8.859E+00   -8.890E+00   -8.921E+00   -8.952E+00   -8.982E+00   -9.013E+00   -9.043E+00   -9.072E+00
    -9.102E+00   -9.131E+00   -9.160E+00   -9.188E+00   -9.217E+00   -9.245E+00   -9.273E+00   -9.300E+00   -9.328E+00   -9.355E+00
    -9.382E+00   -9.408E+00   -9.434E+00   -9.461E+00   -9.486E+00   -9.512E+00   -9.537E+00   -9.562E+00   -9.587E+00   -9.611E+00
    -9.636E+00   -9.660E+00   -9.683E+00   -9.707E+00   -9.730E+00   -9.753E+00   -9.776E+00   -9.798E+00   -9.820E+00   -9.842E+00
    -9.864E+00   -9.886E+00   -9.907E+00   -9.928E+00   -9.948E+00   -9.969E+00   -9.989E+00   -1.001E+01   -1.003E+01   -1.005E+01
    -1.007E+01   -1.009E+01   -1.010E+01   -1.012E+01   -1.014E+01   -1.016E+01   -1.018E+01   -1.019E+01   -1.021E+01   -1.023E+01
    -1.024E+01   -1.026E+01   -1.028E+01   -1.029E+01   -1.031E+01   -1.032E+01   -1.034E+01   -1.035E+01   -1.037E+01   -1.038E+01
    -1.040E+01   -1.041E+01   -1.042E+01   -1.044E+01   -1.045E+01   -1.046E+01   -1.048E+01   -1.049E+01   -1.050E+01   -1.051E+01
    -1.052E+01   -1.054E+01   -1.055E+01   -1.056E+01   -1.057E+01   -1.058E+01   -1.059E+01   -1.060E+01   -1.061E+01   -1.062E+01
    -1.063E+01   -1.064E+01   -1.064E+01   -1.065E+01   -1.066E+01   -1.067E+01   -1.068E+01   -1.068E+01   -1.069E+01   -1.070E+01
    -1.070E+01   -1.071E+01   -1.072E+01   -1.072E+01   -1.073E+01   -1.074E+01   -1.074E+01   -1.075E+01   -1.075E+01   -1.076E+01
    -1.076E+01   -1.076E+01   -1.077E+01   -1.077E+01   -1.077E+01   -1.078E+01   -1.078E+01   -1.078E+01   -1.079E+01   -1.079E+01
    -1.079E+01   -1.079E+01   -1.079E+01   -1.080E+01   -1.080E+01   -1.080E+01   -1.080E+01   -1.080E+01   -1.080E+01   -1.080E+01
    -1.080E+01   -1.080E+01   -1.080E+01   -1.080E+01   -1.080E+01   -1.079E+01   -1.079E+01   -1.079E+01   -1.079E+01   -1.079E+01
    -1.079E+01   -1.078E+01   -1.078E+01   -1.078E+01   -1.077E+01   -1.077E+01   -1.077E+01   -1.076E+01   -1.076E+01   -1.075E+01
    -1.075E+01   -1.074E+01   -1.074E+01   -1.073E+01   -1.073E+01   -1.072E+01   -1.072E+01   -1.071E+01   -1.071E+01   -1.070E+01
    -1.069E+01   -1.069E+01   -1.068E+01   -1.067E+01   -1.066E+01   -1.066E+01   -1.065E+01   -1.064E+01   -1.063E+01   -1.062E+01
    -1.062E+01   -1.061E+01   -1.060E+01   -1.059E+01   -1.058E+01   -1.057E+01   -1.056E+01   -1.055E+01   -1.054E+01   -1.053E+01
    -1.052E+01   -1.051E+01   -1.050E+01   -1.048E+01   -1.047E+01   -1.046E+01   -1.045E+01   -1.044E+01   -1.043E+01   -1.041E+01
    -1.040E+01   -1.039E+01   -1.038E+01   -1.036E+01   -1.035E+01   -1.034E+01   -1.032E+01   -1.031E+01   -1.030E+01   -1.028E+01
    -1.027E+01   -1.025E+01   -1.024E+01   -1.022E+01   -1.021E+01   -1.019E+01   -1.018E+01   -1.016E+01   -1.015E+01   -1.013E+01
    -1.011E+01   -1.010E+01   -1.008E+01   -1.007E+01   -1.005E+01   -1.003E+01   -1.001E+01   -9.998E+00   -9.980E+00   -9.963E+00
    -9.945E+00   -9.928E+00   -9.910E+00   -9.891E+00   -9.873E+00   -9.855E+00   -9.836E+00   -9.817E+00   -9.799E+00   -9.779E+00
    -9.760E+00   -9.741E+00   -9.721E+00   -9.702E+00   -9.682E+00   -9.662E+00   -9.642E+00   -9.622E+00   -9.601E+00   -9.581E+00
    -9.560E+00   -9.539E+00   -9.518E+00   -9.497E+00   -9.476E+00   -9.455E+00   -9.433E+00   -9.411E+00   -9.390E+00   -9.368E+00
    -9.346E+00   -9.324E+00   -9.301E+00   -9.279E+00   -9.256E+00   -9.233E+00   -9.211E+00   -9.188E+00   -9.165E+00   -9.141E+00
    -9.118E+00   -9.095E+00   -9.071E+00   -9.047E+00   -9.023E+00   -8.999E+00   -8.975E+00   -8.951E+00   -8.927E+00   -8.902E+00
    -8.878E+00   -8.853E+00   -8.828E+00   -8.804E+00   -8.779E+00   -8.753E+00   -8.728E+00   -8.703E+00   -8.677E+00   -8.652E+00
    -8.626E+00   -8.600E+00   -8.575E+00   -8.549E+00   -8.523E+00   -8.496E+00   -8.470E+00   -8.444E+00   -8.417E+00   -8.391E+00
    -8.364E+00   -8.337E+00   -8.310E+00   -8.283E+00   -8.256E+00   -8.229E+00   -8.202E+00   -8.175E+00   -8.147E+00   -8.120E+00
    -8.092E+00   -8.065E+00   -8.037E+00   -8.009E+00   -7.981E+00   -7.953E+00   -7.925E+00   -7.897E+00   -7.868E+00   -7.840E+00
    -7.812E+00   -7.783E+00   -7.755E+00   -7.726E+00   -7.697E+00   -7.669E+00   -7.640E+00   -7.611E+00   -7.582E+00   -7.553E+00
    -7.524E+00   -7.494E+00   -7.465E+00   -7.436E+00   -7.406E+00   -7.377E+00   -7.348E+00   -7.318E+00   -7.288E+00   -7.259E+00
    -7.229E+00   -7.199E+00   -7.169E+00   -7.139E+00   -7.109E+00   -7.079E+00   -7.049E+00   -7.019E+00   -6.989E+00   -6.959E+00
    -6.928E+00   -6.898E+00   -6.868E+00   -6.837E+00   -6.807E+00   -6.776E+00   -6.746E+00   -6.715E+00   -6.685E+00   -6.654E+00
    -6.623E+00   -6.593E+00   -6.562E+00   -6.531E+00   -6.500E+00   -6.469E+00   -6.438E+00   -6.407E+00   -6.376E+00   -6.345E+00
    -6.314E+00   -6.283E+00   -6.252E+00   -6.221E+00   -6.190E+00   -6.159E+00   -6.128E+00   -6.096E+00   -6.065E+00   -6.034E+00
    -6.003E+00   -5.971E+00   -5.940E+00   -5.909E+00   -5.878E+00   -5.846E+00   -5.815E+00   -5.784E+00   -5.752E+00   -5.721E+00
    -5.689E+00   -5.658E+00   -5.627E+00   -5.595E+00   -5.564E+00   -5.532E+00   -5.501E+00   -5.470E+00   -5.438E+00   -5.407E+00
    -5.375E+00   -5.344E+00   -5.312E+00   -5.281E+00   -5.250E+00   -5.218E+00   -5.187E+00   -5.156E+00   -5.124E+00   -5.093E+00
    -5.061E+00   -5.030E+00   -4.999E+00   -4.967E+00   -4.936E+00   -4.905E+00   -4.874E+00   -4.842E+00   -4.811E+00   -4.780E+00
    -4.749E+00   -4.718E+00   -4.686E+00   -4.655E+00   -4.624E+00   -4.593E+00   -4.562E+00   -4.531E+00   -4.500E+00   -4.469E+00
    -4.438E+00   -4.407E+00   -4.376E+00   -4.346E+00   -4.315E+00   -4.284E+00   -4.253E+00   -4.223E+00   -4.192E+00   -4.161E+00
    -4.131E+00   -4.100E+00   -4.070E+00   -4.039E+00   -4.009E+00   -3.978E+00   -3.948E+00   -3.918E+00   -3.888E+00   -3.857E+00
    -3.827E+00   -3.797E+00   -3.767E+00   -3.737E+00   -3.707E+00   -3.677E+00   -3.647E+00   -3.618E+00   -3.588E+00   -3.558E+00
    -3.529E+00   -3.499E+00   -3.470E+00   -3.440E+00   -3.411E+00   -3.382E+00   -3.352E+00   -3.323E+00   -3.294E+00   -3.265E+00
    -3.236E+00   -3.207E+00   -3.178E+00   -3.149E+00   -3.121E+00   -3.092E+00   -3.064E+00   -3.035E+00
 Asp      Conc. = 7.62E+00
