 LCModel (Version 6.3-1L) Copyright: S.W. Provencher.          Ref.: Magn. Reson. Med. 30:672-679 (1993).                
 Slice#2 Row#11 Col#6  PD_24_press_1_raw_act
 36 lines in following concentration table = NCONC+1
    Conc.  %SD /Cr+PCr  Metabolite                                         
   18.705 656% 9.0E-03 Ala                                                 
    0.000 999%   0.000 Asp                                                 
  997.740  24%   0.478 Cr                                                  
 1.09E+03  22%   0.522 PCr                                                 
    0.000 999%   0.000 GABA                                                
    0.000 999%   0.000 Glc                                                 
 1.06E+03  24%   0.509 Gln                                                 
 2.36E+03  12%   1.129 Glu                                                 
  829.131   3%   0.397 GPC                                                 
    0.000 999%   0.000 PCh                                                 
  830.091   9%   0.397 GSH                                                 
 2.30E+03  11%   1.099 Ins                                                 
   10.959 999% 5.2E-03 Lac                                                 
 2.91E+03   5%   1.396 NAA                                                 
  249.869  69%   0.120 NAAG                                                
  134.110  21% 6.4E-02 Scyllo                                              
    0.000 999%   0.000 Tau                                                 
    0.000 999%   0.000 -CrCH2                                              
  829.131   3%   0.397 GPC+PCh                                             
 3.16E+03   3%   1.515 NAA+NAAG                                            
 2.09E+03   3%   1.000 Cr+PCr                                              
 3.42E+03  13%   1.639 Glu+Gln                                             
 2.08E+03  35%   0.994 Lip13a                                              
    8.271 999% 4.0E-03 Lip13b                                              
   54.015 630% 2.6E-02 Lip09                                               
 1.65E+03  22%   0.791 MM09                                                
  454.686  53%   0.218 Lip20                                               
 3.62E+03  12%   1.732 MM20                                                
  531.952  43%   0.255 MM12                                                
 1.58E+03  29%   0.758 MM14                                                
 1.29E+03  22%   0.616 MM17                                                
 2.08E+03  29%   0.998 Lip13a+Lip13b                                       
 4.20E+03  10%   2.011 MM14+Lip13a+Lip13b+MM12                             
 1.71E+03  12%   0.817 MM09+Lip09                                          
 4.07E+03  10%   1.949 MM20+Lip20                                          
   6 lines in following misc. output table
  FWHM = 0.061 ppm    S/N =  15                                            
  Data shift = 0.015 ppm                                                   
  Ph:   0 deg       6.3 deg/ppm                                            
  alphaB,S = 2.0E+00,   4.9E+01                                            
   14 spline knots.   Ns = 7(1)                                            
  (12) 2 infls.   ( 1) 1 extrs.                                            
  498 points on ppm-axis = NY
      4.000000     3.992357     3.984714     3.977070     3.969427     3.961784     3.954141     3.946497     3.938854     3.931211
      3.923568     3.915925     3.908281     3.900638     3.892995     3.885352     3.877708     3.870065     3.862422     3.854779
      3.847136     3.839492     3.831849     3.824206     3.816563     3.808919     3.801276     3.793633     3.785990     3.778347
      3.770703     3.763060     3.755417     3.747774     3.740130     3.732487     3.724844     3.717201     3.709558     3.701914
      3.694271     3.686628     3.678985     3.671341     3.663698     3.656055     3.648412     3.640769     3.633125     3.625482
      3.617839     3.610196     3.602552     3.594909     3.587266     3.579623     3.571980     3.564336     3.556693     3.549050
      3.541407     3.533763     3.526120     3.518477     3.510834     3.503191     3.495547     3.487904     3.480261     3.472618
      3.464974     3.457331     3.449688     3.442045     3.434402     3.426758     3.419115     3.411472     3.403829     3.396185
      3.388542     3.380899     3.373256     3.365613     3.357969     3.350326     3.342683     3.335040     3.327396     3.319753
      3.312110     3.304467     3.296824     3.289180     3.281537     3.273894     3.266251     3.258607     3.250964     3.243321
      3.235678     3.228034     3.220391     3.212748     3.205105     3.197462     3.189818     3.182175     3.174532     3.166889
      3.159245     3.151602     3.143959     3.136316     3.128673     3.121029     3.113386     3.105743     3.098100     3.090456
      3.082813     3.075170     3.067527     3.059884     3.052240     3.044597     3.036954     3.029311     3.021667     3.014024
      3.006381     2.998738     2.991095     2.983451     2.975808     2.968165     2.960522     2.952878     2.945235     2.937592
      2.929949     2.922306     2.914662     2.907019     2.899376     2.891733     2.884089     2.876446     2.868803     2.861160
      2.853517     2.845873     2.838230     2.830587     2.822944     2.815300     2.807657     2.800014     2.792371     2.784728
      2.777084     2.769441     2.761798     2.754155     2.746511     2.738868     2.731225     2.723582     2.715939     2.708295
      2.700652     2.693009     2.685366     2.677722     2.670079     2.662436     2.654793     2.647150     2.639506     2.631863
      2.624220     2.616577     2.608933     2.601290     2.593647     2.586004     2.578361     2.570717     2.563074     2.555431
      2.547788     2.540144     2.532501     2.524858     2.517215     2.509572     2.501928     2.494285     2.486642     2.478999
      2.471355     2.463712     2.456069     2.448426     2.440783     2.433139     2.425496     2.417853     2.410210     2.402566
      2.394923     2.387280     2.379637     2.371994     2.364350     2.356707     2.349064     2.341421     2.333777     2.326134
      2.318491     2.310848     2.303205     2.295561     2.287918     2.280275     2.272632     2.264988     2.257345     2.249702
      2.242059     2.234416     2.226772     2.219129     2.211486     2.203843     2.196199     2.188556     2.180913     2.173270
      2.165627     2.157983     2.150340     2.142697     2.135054     2.127410     2.119767     2.112124     2.104481     2.096838
      2.089194     2.081551     2.073908     2.066265     2.058621     2.050978     2.043335     2.035692     2.028049     2.020405
      2.012762     2.005119     1.997476     1.989833     1.982190     1.974546     1.966903     1.959260     1.951617     1.943974
      1.936331     1.928688     1.921045     1.913402     1.905759     1.898115     1.890472     1.882829     1.875186     1.867543
      1.859900     1.852257     1.844614     1.836971     1.829327     1.821684     1.814041     1.806398     1.798755     1.791112
      1.783469     1.775826     1.768183     1.760540     1.752896     1.745253     1.737610     1.729967     1.722324     1.714681
      1.707038     1.699395     1.691752     1.684108     1.676465     1.668822     1.661179     1.653536     1.645893     1.638250
      1.630607     1.622964     1.615321     1.607677     1.600034     1.592391     1.584748     1.577105     1.569462     1.561819
      1.554176     1.546533     1.538890     1.531246     1.523603     1.515960     1.508317     1.500674     1.493031     1.485388
      1.477745     1.470102     1.462458     1.454815     1.447172     1.439529     1.431886     1.424243     1.416600     1.408957
      1.401314     1.393671     1.386027     1.378384     1.370741     1.363098     1.355455     1.347812     1.340169     1.332526
      1.324883     1.317240     1.309596     1.301953     1.294310     1.286667     1.279024     1.271381     1.263738     1.256095
      1.248452     1.240808     1.233165     1.225522     1.217879     1.210236     1.202593     1.194950     1.187307     1.179664
      1.172021     1.164377     1.156734     1.149091     1.141448     1.133805     1.126162     1.118519     1.110876     1.103233
      1.095590     1.087946     1.080303     1.072660     1.065017     1.057374     1.049731     1.042088     1.034445     1.026802
      1.019158     1.011515     1.003872     0.996229     0.988586     0.980943     0.973300     0.965657     0.958014     0.950371
      0.942727     0.935084     0.927441     0.919798     0.912155     0.904512     0.896869     0.889226     0.881583     0.873940
      0.866296     0.858653     0.851010     0.843367     0.835724     0.828081     0.820438     0.812795     0.805152     0.797508
      0.789865     0.782222     0.774579     0.766936     0.759293     0.751650     0.744007     0.736364     0.728721     0.721077
      0.713434     0.705791     0.698148     0.690505     0.682862     0.675219     0.667576     0.659933     0.652290     0.644646
      0.637003     0.629360     0.621717     0.614074     0.606431     0.598788     0.591145     0.583502     0.575858     0.568215
      0.560572     0.552929     0.545286     0.537643     0.530000     0.522357     0.514714     0.507071     0.499427     0.491784
      0.484141     0.476498     0.468855     0.461212     0.453569     0.445925     0.438282     0.430639     0.422996     0.415353
      0.407710     0.400067     0.392424     0.384780     0.377137     0.369494     0.361851     0.354208     0.346565     0.338922
      0.331278     0.323635     0.315992     0.308349     0.300706     0.293063     0.285420     0.277777     0.270133     0.262490
      0.254847     0.247204     0.239561     0.231918     0.224275     0.216631     0.208988     0.201345
 NY phased data points follow
   1.51115E+00 -2.25224E-01  2.08555E+00  8.38978E+00  1.55091E+01  2.07929E+01  2.50539E+01  3.73115E+01  4.26846E+01  4.52164E+01
   5.09706E+01  5.48941E+01  5.13160E+01  5.16523E+01  3.97237E+01  3.65378E+01  2.76558E+01  2.23576E+01  1.36598E+01  1.78940E+01
   9.84217E+00  6.72442E+00  1.10901E+01  1.61977E+01  1.19141E+01  1.58268E+01  1.56572E+01  2.47915E+01  2.22072E+01  2.18488E+01
   2.22685E+01  2.06326E+01  2.21860E+01  2.36950E+01  1.41256E+01  1.92352E+01  1.32765E+01  1.71093E+01  1.35550E+01  1.53282E+01
   1.15416E+01  1.69312E+01  1.71208E+01  2.42744E+01  1.72666E+01  1.83738E+01  1.93144E+01  2.08770E+01  1.57231E+01  2.49972E+01
   1.95684E+01  1.68527E+01  1.08161E+01  1.78611E+01  9.09042E+00  5.41807E+00  1.12190E+01  1.07314E+01  5.53981E+00  1.53444E+01
   7.17845E+00  1.00020E+01  6.88392E+00  5.71851E+00  1.11144E+00  1.25931E+00  2.40830E+00 -7.21938E-01 -6.70956E-01 -2.19894E+00
   3.44061E-01  1.50820E+00  1.89124E+00  9.81048E+00  1.08368E+00  6.11594E+00  1.10311E+00  2.82634E+00 -9.30612E-01 -6.10432E+00
  -5.68817E-05  7.30775E+00  1.70446E+00  3.88158E+00  7.26133E+00  2.58998E+00  3.57043E-01  5.81539E+00  5.24816E-01  5.17405E+00
  -2.45529E+00  2.58757E+00  2.17279E+00  4.59916E+00  3.93450E+00  4.18533E+00  3.82540E+00  1.56560E+01  1.90853E+01  2.91348E+01
   3.75014E+01  4.96909E+01  5.71867E+01  6.80671E+01  7.24527E+01  6.34351E+01  5.37655E+01  4.03037E+01  2.35712E+01  1.81093E+01
   1.11329E+01  8.31699E+00  3.31495E+00  3.52800E+00  1.16577E+00  3.31199E+00  3.11071E+00  4.66697E+00  1.78320E-01  2.74684E+00
  -4.76647E-01  2.80806E+00  1.08146E+01  2.28653E+01  3.32679E+01  4.71913E+01  5.19858E+01  5.93265E+01  6.29444E+01  6.13994E+01
   5.10288E+01  4.23189E+01  3.16193E+01  2.02827E+01  8.92018E+00  7.65086E+00 -1.63987E-01 -2.34140E-01 -1.86411E+00  2.09467E+00
  -3.75961E+00  7.40145E+00  2.24892E+00  1.25663E+00  1.85799E+00 -1.09681E-01 -2.23548E-02  6.66101E-01 -3.01361E+00 -2.46692E+00
   3.09373E+00 -1.91643E+00 -6.92901E-01 -2.03302E-01 -3.44268E+00 -4.51447E-01 -7.27417E+00  5.68310E-01 -2.36733E+00 -3.78080E+00
  -4.99099E+00 -5.11908E+00 -4.85841E+00 -5.24871E+00 -4.43517E+00 -5.42670E+00 -4.83915E+00 -4.24407E+00 -7.54240E+00 -9.71033E+00
  -9.66101E+00 -1.43881E+01 -1.18147E+01 -1.57884E+01 -1.48157E+01 -1.51663E+01 -1.82475E+01 -1.58876E+01 -1.42302E+01 -1.11730E+01
  -1.76047E+01 -1.48455E+01 -1.96081E+01 -2.01148E+01 -1.71723E+01 -1.14997E+01 -1.44087E+01 -1.22478E+01 -1.15000E+01 -7.89334E+00
  -3.87166E+00 -4.48422E+00  1.85269E+00  4.59316E+00 -2.23794E+00 -6.46546E+00 -9.76372E+00 -4.94695E+00 -1.22001E+01 -4.59798E+00
  -4.67781E+00 -6.06542E+00 -1.66279E+00 -1.66095E-01 -5.27263E+00 -1.39752E+00 -6.29828E+00 -6.29279E+00 -8.64440E+00 -4.92991E+00
  -8.79199E+00 -7.05141E+00 -2.46964E+00  5.78632E-01  4.57109E+00  8.61418E+00  7.85616E+00  7.63390E+00  1.57518E+00 -9.96349E-01
  -6.59731E+00 -8.27606E+00 -1.04116E+01 -1.08200E+00 -4.36593E+00 -6.96818E-01 -1.70153E+00  3.50534E+00  5.91782E+00  7.93871E+00
   8.37384E+00  1.40335E+01  5.84730E+00  4.41588E+00  8.49843E+00  1.00604E+01  3.40144E+00  4.07705E+00  4.21162E+00  6.21931E+00
  -2.37353E+00  3.42650E+00  6.27501E+00  4.59201E+00  2.99437E+00  1.45858E+00  2.66591E+00  9.02801E+00  1.22072E+01  1.36639E+01
   1.37250E+01  1.60009E+01  1.67553E+01  2.39366E+01  3.33147E+01  4.58218E+01  6.15544E+01  7.84414E+01  8.66942E+01  9.41456E+01
   9.81670E+01  9.98643E+01  8.53516E+01  7.30131E+01  5.16321E+01  3.42717E+01  2.26979E+01  1.19166E+01  3.92725E+00  4.06969E+00
   6.21296E+00  4.90780E+00  5.83088E+00  2.77490E+00  3.12452E+00  7.15447E-01  6.28972E+00  2.56723E-01  1.21441E+00 -6.60722E-01
   2.85253E-01  1.26970E+00 -9.04314E-01 -3.81615E+00  8.35512E-01 -6.95772E-01 -3.38080E+00 -1.64339E+00 -1.61042E+00 -9.22429E-01
  -1.67030E+00  2.34921E-01  1.00193E+00 -4.43416E+00 -5.60883E+00 -2.01408E+00 -1.89379E+00 -2.52553E+00  2.29437E+00 -4.28756E+00
   9.00024E-01 -2.32932E+00 -4.14900E-01  1.22003E+00  1.72562E+00  5.47967E+00  1.84421E+00  2.01788E+00  3.65490E+00  3.20633E+00
   2.94947E-01  7.54434E+00  3.31612E+00  8.71425E+00  4.01728E+00  9.16214E+00  6.19696E+00  6.22753E+00  2.86203E+00  4.52309E+00
   6.55166E+00  6.61794E+00  3.07821E+00  5.98561E+00  4.14691E+00  2.91139E-01  4.57813E+00  6.91774E+00  2.91324E+00 -2.43963E+00
   4.05408E+00  6.26687E+00  4.69836E+00  7.30780E+00  6.82845E+00  8.14794E+00  3.36150E+00  4.60799E+00  2.66275E+00  7.55994E+00
   7.58546E+00  3.99784E+00  4.93872E+00  8.78089E+00  7.56222E+00  7.72544E+00  3.63330E+00  1.05344E+01  8.98918E+00  9.23427E+00
   1.05983E+01  8.87386E+00  8.40178E+00  8.43599E+00  5.66638E+00  2.92752E+00  1.00420E+01  1.00550E+01  1.09417E+01  1.06809E+01
   4.05343E+00  4.97429E+00  4.35462E+00  8.62405E+00  2.26584E+00  9.13922E+00  7.91115E+00  3.80812E+00  1.53297E+00  4.32059E+00
  -2.26481E+00  3.57361E+00 -2.89276E+00  6.26105E+00  3.75089E+00  1.13175E+00  1.60269E+00  3.20169E+00  1.36823E+00  9.60435E-01
   1.41281E+00 -2.83289E+00  1.19454E+00  2.15547E+00 -3.34363E+00 -1.22135E+00 -5.59232E-01 -6.74116E-01  1.95869E+00  1.82235E+00
   4.16586E+00  6.56321E-01 -4.78182E-02  3.32623E+00  2.03129E+00  3.95947E+00  3.33913E+00  3.03103E+00  3.46884E+00  1.43548E+00
   3.97901E+00  6.62566E+00  1.88774E+00  5.23349E+00  1.31391E+01  7.13483E+00  5.52269E+00  7.91689E+00  1.03296E+01  8.01813E+00
   1.32896E+01  4.50317E+00  3.73249E+00  4.29762E+00  2.75795E+00  2.71993E+00  4.53297E+00 -1.24876E+00 -1.46520E+00  3.88850E+00
  -2.25582E+00  1.64216E+00 -8.67728E-01 -1.22490E+00 -3.88690E+00  1.13758E+00  1.36831E+00 -2.67889E+00 -3.97116E+00  3.79579E-01
  -1.60538E+00 -4.28279E+00 -8.00411E+00 -1.10113E+00 -8.00365E-03 -2.21860E+00 -7.03359E+00 -6.12370E+00 -3.70399E+00 -2.22304E+00
  -3.78257E+00 -3.23836E+00 -4.22404E+00 -3.00678E+00 -7.44989E+00 -3.97454E+00 -9.50939E-01 -4.77051E+00 -5.02339E+00 -4.22002E+00
  -7.30021E+00 -1.84755E+00 -3.76768E+00 -7.38749E+00 -5.18335E-01 -6.58051E+00 -4.85033E+00 -2.49412E+00 -5.01001E+00 -3.98977E+00
  -5.28045E+00 -4.95110E+00 -1.32822E+00 -5.37219E+00 -1.84167E+00 -2.53480E+00 -4.87345E-01 -2.03023E+00 -3.50007E+00 -2.95406E+00
  -6.49555E-01 -4.08484E+00 -4.02815E+00 -3.38272E+00 -7.51263E+00 -5.46363E+00 -3.70333E+00 -1.94579E+00 -3.61464E+00 -3.99399E+00
  -3.14152E+00 -6.10953E+00 -2.21607E+00 -5.53713E+00 -2.00529E+00 -3.13223E+00 -5.55515E+00 -4.69973E+00 -5.95355E+00 -4.53966E+00
  -3.71484E+00 -5.99216E-01 -7.88399E+00 -6.38677E+00 -4.70681E+00 -2.14306E+00 -3.95688E+00 -2.80707E+00
 NY points of the fit to the data follow
   8.84366E+00  8.11534E+00  8.27742E+00  9.94599E+00  1.33261E+01  1.84663E+01  2.48499E+01  3.18779E+01  3.85699E+01  4.42466E+01
   4.85914E+01  5.09027E+01  5.01283E+01  4.59015E+01  3.91049E+01  3.16602E+01  2.50057E+01  1.98877E+01  1.61108E+01  1.34106E+01
   1.15485E+01  1.03646E+01  9.96624E+00  1.03868E+01  1.11778E+01  1.28308E+01  1.54448E+01  1.81909E+01  2.07555E+01  2.35208E+01
   2.57891E+01  2.63442E+01  2.52304E+01  2.28236E+01  1.94538E+01  1.59366E+01  1.27224E+01  9.98180E+00  8.00603E+00  7.37943E+00
   8.22841E+00  1.00428E+01  1.23226E+01  1.50751E+01  1.77646E+01  1.96575E+01  2.08694E+01  2.15338E+01  2.10690E+01  1.91418E+01
   1.60230E+01  1.23963E+01  9.28823E+00  7.31491E+00  6.31459E+00  6.06950E+00  6.51184E+00  7.28713E+00  7.97093E+00  8.37499E+00
   8.40697E+00  7.98702E+00  7.13789E+00  5.92311E+00  4.70092E+00  3.87277E+00  3.52240E+00  3.64310E+00  4.15313E+00  4.80610E+00
   5.35535E+00  5.73951E+00  5.91745E+00  5.78846E+00  5.38011E+00  4.79475E+00  4.15676E+00  3.61314E+00  3.23935E+00  3.10319E+00
   3.27847E+00  3.52172E+00  3.76975E+00  4.02232E+00  4.05648E+00  3.80488E+00  3.54230E+00  3.20373E+00  2.46515E+00  1.55377E+00
   8.03358E-01  3.06878E-01  2.32418E-01  4.43055E-01  7.03409E-01  1.46015E+00  4.90582E+00  1.16348E+01  1.98648E+01  3.00816E+01
   4.17339E+01  5.19288E+01  5.98447E+01  6.66263E+01  6.95181E+01  6.51147E+01  5.47835E+01  4.13361E+01  2.78625E+01  1.76088E+01
   1.03822E+01  4.90975E+00  1.52438E+00  3.69597E-01 -5.14209E-02 -2.70315E-01 -3.91257E-01 -3.92247E-01 -2.23372E-01  3.30387E-01
   2.55616E+00  8.16212E+00  1.57027E+01  2.48104E+01  3.55830E+01  4.58551E+01  5.38335E+01  6.05561E+01  6.49751E+01  6.34684E+01
   5.57002E+01  4.41098E+01  3.12460E+01  2.04813E+01  1.25673E+01  6.37381E+00  1.87648E+00 -4.44478E-02 -3.34377E-01  1.47980E-01
   9.09979E-01  1.64364E+00  2.12914E+00  2.15075E+00  1.76488E+00  1.12395E+00  3.92047E-01 -3.26999E-01 -9.54544E-01 -1.49949E+00
  -1.94687E+00 -2.30134E+00 -2.56264E+00 -2.79788E+00 -3.12139E+00 -3.45452E+00 -3.78207E+00 -4.11263E+00 -4.34074E+00 -4.53388E+00
  -4.79822E+00 -5.09329E+00 -5.31559E+00 -5.45837E+00 -5.48927E+00 -5.53146E+00 -5.89948E+00 -6.55751E+00 -7.31746E+00 -8.15855E+00
  -8.92059E+00 -9.51175E+00 -1.00274E+01 -1.04401E+01 -1.07292E+01 -1.10065E+01 -1.12760E+01 -1.13546E+01 -1.12049E+01 -1.10188E+01
  -1.10566E+01 -1.12536E+01 -1.13205E+01 -1.09941E+01 -1.01922E+01 -8.98844E+00 -7.62815E+00 -6.15209E+00 -4.47204E+00 -2.85421E+00
  -1.79073E+00 -1.43944E+00 -1.81115E+00 -2.83203E+00 -4.09750E+00 -5.09861E+00 -5.56638E+00 -5.34523E+00 -4.32672E+00 -2.58873E+00
  -5.36494E-01  1.39056E+00  2.72333E+00  2.87539E+00  1.99195E+00  2.17199E-01 -2.44892E+00 -5.37962E+00 -7.68071E+00 -8.84013E+00
  -8.77900E+00 -7.14946E+00 -4.14849E+00 -7.04697E-01  2.37112E+00  4.34463E+00  4.77069E+00  3.43984E+00  4.28467E-01 -3.56591E+00
  -7.24351E+00 -9.61842E+00 -1.05896E+01 -1.00650E+01 -7.96972E+00 -4.66756E+00 -1.12008E+00  1.76499E+00  3.53619E+00  4.35024E+00
   4.75172E+00  4.75314E+00  4.56557E+00  4.72328E+00  5.31203E+00  5.85748E+00  6.03022E+00  5.99704E+00  5.72117E+00  5.05953E+00
   4.26005E+00  3.70188E+00  3.45202E+00  3.51953E+00  4.14612E+00  5.26770E+00  6.62009E+00  7.98808E+00  9.23754E+00  1.05554E+01
   1.20352E+01  1.38096E+01  1.69129E+01  2.45513E+01  3.53645E+01  4.77271E+01  6.23257E+01  7.66349E+01  8.66949E+01  9.38430E+01
   9.91996E+01  9.79498E+01  8.77181E+01  7.17411E+01  5.30622E+01  3.63711E+01  2.43199E+01  1.54771E+01  8.56732E+00  4.86382E+00
   3.46961E+00  2.66425E+00  2.09085E+00  1.70860E+00  1.43923E+00  1.16768E+00  8.51816E-01  4.59606E-01  1.38434E-02 -4.26311E-01
  -8.33156E-01 -1.20465E+00 -1.51991E+00 -1.76171E+00 -1.94235E+00 -2.08112E+00 -2.19780E+00 -2.29458E+00 -2.36128E+00 -2.38905E+00
  -2.37949E+00 -2.32654E+00 -2.22475E+00 -2.07517E+00 -1.88601E+00 -1.66082E+00 -1.39977E+00 -1.10065E+00 -7.63481E-01 -3.88955E-01
   2.22748E-02  4.67456E-01  9.38525E-01  1.42546E+00  1.91447E+00  2.39238E+00  2.84912E+00  3.27475E+00  3.65926E+00  3.99582E+00
   4.27900E+00  4.50479E+00  4.67198E+00  4.78137E+00  4.83578E+00  4.84068E+00  4.80389E+00  4.73508E+00  4.64536E+00  4.54755E+00
   4.45573E+00  4.37110E+00  4.29501E+00  4.23508E+00  4.18899E+00  4.15265E+00  4.13337E+00  4.13257E+00  4.14724E+00  4.18721E+00
   4.26500E+00  4.39165E+00  4.57375E+00  4.79642E+00  5.03927E+00  5.30076E+00  5.57290E+00  5.82971E+00  6.05875E+00  6.26245E+00
   6.45091E+00  6.63555E+00  6.81685E+00  6.99352E+00  7.16477E+00  7.32892E+00  7.48397E+00  7.62837E+00  7.75828E+00  7.87214E+00
   7.97481E+00  8.07130E+00  8.16045E+00  8.23035E+00  8.26782E+00  8.26748E+00  8.21943E+00  8.10908E+00  7.93029E+00  7.68490E+00
   7.38172E+00  7.03265E+00  6.64451E+00  6.22200E+00  5.77434E+00  5.30930E+00  4.83187E+00  4.34802E+00  3.86398E+00  3.38579E+00
   2.91917E+00  2.46948E+00  2.04166E+00  1.64014E+00  1.26875E+00  9.30752E-01  6.28930E-01  3.65729E-01  1.43283E-01 -3.65769E-02
  -1.72307E-01 -2.62546E-01 -3.06005E-01 -3.01426E-01 -2.47641E-01 -1.43691E-01  1.10909E-02  2.17026E-01  4.73994E-01  7.81253E-01
   1.13718E+00  1.53903E+00  1.98277E+00  2.46300E+00  2.97286E+00  3.50401E+00  4.04652E+00  4.58914E+00  5.11947E+00  5.62446E+00
   6.09083E+00  6.50553E+00  6.85625E+00  7.13199E+00  7.32363E+00  7.42445E+00  7.43040E+00  7.34030E+00  7.15584E+00  6.88153E+00
   6.52447E+00  6.09405E+00  5.60136E+00  5.05861E+00  4.47859E+00  3.87411E+00  3.25757E+00  2.64050E+00  2.03313E+00  1.44415E+00
   8.80619E-01  3.47951E-01 -1.50000E-01 -6.10850E-01 -1.03357E+00 -1.41830E+00 -1.76606E+00 -2.07852E+00 -2.35780E+00 -2.60633E+00
  -2.82676E+00 -3.02180E+00 -3.19407E+00 -3.34603E+00 -3.47995E+00 -3.59793E+00 -3.70192E+00 -3.79367E+00 -3.87467E+00 -3.94622E+00
  -4.00942E+00 -4.06531E+00 -4.11477E+00 -4.15859E+00 -4.19740E+00 -4.23172E+00 -4.26202E+00 -4.28877E+00 -4.31236E+00 -4.33312E+00
  -4.35131E+00 -4.36712E+00 -4.38078E+00 -4.39252E+00 -4.40253E+00 -4.41095E+00 -4.41787E+00 -4.42339E+00 -4.42765E+00 -4.43078E+00
  -4.43289E+00 -4.43401E+00 -4.43418E+00 -4.43347E+00 -4.43196E+00 -4.42975E+00 -4.42686E+00 -4.42332E+00 -4.41913E+00 -4.41435E+00
  -4.40906E+00 -4.40328E+00 -4.39704E+00 -4.39031E+00 -4.38311E+00 -4.37550E+00 -4.36753E+00 -4.35922E+00 -4.35054E+00 -4.34149E+00
  -4.33210E+00 -4.32242E+00 -4.31247E+00 -4.30224E+00 -4.29171E+00 -4.28087E+00 -4.26976E+00 -4.25841E+00 -4.24684E+00 -4.23500E+00
  -4.22288E+00 -4.21049E+00 -4.19784E+00 -4.18497E+00 -4.17185E+00 -4.15842E+00 -4.14467E+00 -4.13060E+00
 NY background values follow
     2.813E+00    2.756E+00    2.699E+00    2.643E+00    2.586E+00    2.529E+00    2.472E+00    2.415E+00    2.358E+00    2.301E+00
     2.244E+00    2.187E+00    2.130E+00    2.073E+00    2.016E+00    1.959E+00    1.902E+00    1.845E+00    1.788E+00    1.731E+00
     1.674E+00    1.617E+00    1.560E+00    1.503E+00    1.446E+00    1.390E+00    1.333E+00    1.276E+00    1.219E+00    1.162E+00
     1.105E+00    1.048E+00    9.910E-01    9.342E-01    8.773E-01    8.205E-01    7.636E-01    7.068E-01    6.500E-01    5.933E-01
     5.365E-01    4.798E-01    4.231E-01    3.664E-01    3.098E-01    2.532E-01    1.966E-01    1.400E-01    8.352E-02    2.704E-02
    -2.940E-02   -8.579E-02   -1.421E-01   -1.984E-01   -2.547E-01   -3.108E-01   -3.669E-01   -4.230E-01   -4.790E-01   -5.349E-01
    -5.907E-01   -6.464E-01   -7.021E-01   -7.576E-01   -8.131E-01   -8.685E-01   -9.238E-01   -9.789E-01   -1.034E+00   -1.089E+00
    -1.144E+00   -1.199E+00   -1.253E+00   -1.308E+00   -1.362E+00   -1.416E+00   -1.470E+00   -1.524E+00   -1.578E+00   -1.632E+00
    -1.685E+00   -1.738E+00   -1.792E+00   -1.845E+00   -1.898E+00   -1.950E+00   -2.003E+00   -2.055E+00   -2.107E+00   -2.159E+00
    -2.211E+00   -2.263E+00   -2.314E+00   -2.365E+00   -2.416E+00   -2.467E+00   -2.518E+00   -2.568E+00   -2.619E+00   -2.669E+00
    -2.718E+00   -2.768E+00   -2.817E+00   -2.867E+00   -2.916E+00   -2.964E+00   -3.013E+00   -3.061E+00   -3.109E+00   -3.157E+00
    -3.205E+00   -3.252E+00   -3.299E+00   -3.346E+00   -3.393E+00   -3.439E+00   -3.485E+00   -3.531E+00   -3.577E+00   -3.622E+00
    -3.667E+00   -3.712E+00   -3.757E+00   -3.801E+00   -3.845E+00   -3.889E+00   -3.933E+00   -3.976E+00   -4.019E+00   -4.062E+00
    -4.104E+00   -4.147E+00   -4.189E+00   -4.230E+00   -4.272E+00   -4.313E+00   -4.354E+00   -4.394E+00   -4.434E+00   -4.474E+00
    -4.514E+00   -4.553E+00   -4.592E+00   -4.631E+00   -4.669E+00   -4.707E+00   -4.745E+00   -4.783E+00   -4.820E+00   -4.857E+00
    -4.893E+00   -4.929E+00   -4.965E+00   -5.001E+00   -5.036E+00   -5.071E+00   -5.105E+00   -5.140E+00   -5.173E+00   -5.207E+00
    -5.240E+00   -5.273E+00   -5.306E+00   -5.338E+00   -5.369E+00   -5.401E+00   -5.432E+00   -5.463E+00   -5.493E+00   -5.523E+00
    -5.553E+00   -5.582E+00   -5.611E+00   -5.639E+00   -5.667E+00   -5.695E+00   -5.723E+00   -5.750E+00   -5.776E+00   -5.802E+00
    -5.828E+00   -5.854E+00   -5.879E+00   -5.903E+00   -5.928E+00   -5.952E+00   -5.975E+00   -5.998E+00   -6.021E+00   -6.044E+00
    -6.066E+00   -6.087E+00   -6.109E+00   -6.129E+00   -6.150E+00   -6.170E+00   -6.190E+00   -6.210E+00   -6.229E+00   -6.248E+00
    -6.266E+00   -6.285E+00   -6.302E+00   -6.320E+00   -6.337E+00   -6.354E+00   -6.371E+00   -6.387E+00   -6.403E+00   -6.419E+00
    -6.434E+00   -6.449E+00   -6.464E+00   -6.478E+00   -6.492E+00   -6.506E+00   -6.520E+00   -6.533E+00   -6.546E+00   -6.559E+00
    -6.571E+00   -6.584E+00   -6.596E+00   -6.607E+00   -6.619E+00   -6.630E+00   -6.641E+00   -6.651E+00   -6.662E+00   -6.672E+00
    -6.682E+00   -6.691E+00   -6.701E+00   -6.710E+00   -6.719E+00   -6.728E+00   -6.736E+00   -6.744E+00   -6.752E+00   -6.760E+00
    -6.768E+00   -6.775E+00   -6.782E+00   -6.789E+00   -6.795E+00   -6.802E+00   -6.808E+00   -6.814E+00   -6.820E+00   -6.825E+00
    -6.831E+00   -6.836E+00   -6.841E+00   -6.845E+00   -6.850E+00   -6.854E+00   -6.858E+00   -6.862E+00   -6.866E+00   -6.869E+00
    -6.872E+00   -6.875E+00   -6.878E+00   -6.881E+00   -6.883E+00   -6.886E+00   -6.888E+00   -6.890E+00   -6.891E+00   -6.893E+00
    -6.894E+00   -6.895E+00   -6.896E+00   -6.897E+00   -6.898E+00   -6.898E+00   -6.898E+00   -6.899E+00   -6.899E+00   -6.898E+00
    -6.898E+00   -6.897E+00   -6.897E+00   -6.896E+00   -6.895E+00   -6.893E+00   -6.892E+00   -6.890E+00   -6.889E+00   -6.887E+00
    -6.885E+00   -6.882E+00   -6.880E+00   -6.878E+00   -6.875E+00   -6.872E+00   -6.869E+00   -6.866E+00   -6.863E+00   -6.859E+00
    -6.855E+00   -6.852E+00   -6.848E+00   -6.844E+00   -6.840E+00   -6.835E+00   -6.831E+00   -6.826E+00   -6.821E+00   -6.816E+00
    -6.811E+00   -6.806E+00   -6.801E+00   -6.795E+00   -6.790E+00   -6.784E+00   -6.778E+00   -6.772E+00   -6.766E+00   -6.760E+00
    -6.753E+00   -6.747E+00   -6.740E+00   -6.733E+00   -6.726E+00   -6.719E+00   -6.712E+00   -6.705E+00   -6.697E+00   -6.690E+00
    -6.682E+00   -6.674E+00   -6.666E+00   -6.658E+00   -6.650E+00   -6.642E+00   -6.633E+00   -6.625E+00   -6.616E+00   -6.607E+00
    -6.599E+00   -6.590E+00   -6.581E+00   -6.571E+00   -6.562E+00   -6.553E+00   -6.543E+00   -6.533E+00   -6.524E+00   -6.514E+00
    -6.504E+00   -6.494E+00   -6.484E+00   -6.473E+00   -6.463E+00   -6.452E+00   -6.442E+00   -6.431E+00   -6.420E+00   -6.409E+00
    -6.398E+00   -6.387E+00   -6.376E+00   -6.365E+00   -6.353E+00   -6.342E+00   -6.330E+00   -6.319E+00   -6.307E+00   -6.295E+00
    -6.283E+00   -6.271E+00   -6.259E+00   -6.247E+00   -6.234E+00   -6.222E+00   -6.209E+00   -6.197E+00   -6.184E+00   -6.171E+00
    -6.159E+00   -6.146E+00   -6.133E+00   -6.120E+00   -6.106E+00   -6.093E+00   -6.080E+00   -6.066E+00   -6.053E+00   -6.039E+00
    -6.026E+00   -6.012E+00   -5.998E+00   -5.984E+00   -5.970E+00   -5.956E+00   -5.942E+00   -5.928E+00   -5.913E+00   -5.899E+00
    -5.885E+00   -5.870E+00   -5.856E+00   -5.841E+00   -5.826E+00   -5.811E+00   -5.796E+00   -5.782E+00   -5.767E+00   -5.751E+00
    -5.736E+00   -5.721E+00   -5.706E+00   -5.691E+00   -5.675E+00   -5.660E+00   -5.644E+00   -5.629E+00   -5.613E+00   -5.597E+00
    -5.582E+00   -5.566E+00   -5.550E+00   -5.534E+00   -5.518E+00   -5.502E+00   -5.486E+00   -5.470E+00   -5.454E+00   -5.438E+00
    -5.421E+00   -5.405E+00   -5.389E+00   -5.372E+00   -5.356E+00   -5.340E+00   -5.323E+00   -5.307E+00   -5.290E+00   -5.274E+00
    -5.257E+00   -5.240E+00   -5.224E+00   -5.207E+00   -5.190E+00   -5.174E+00   -5.157E+00   -5.140E+00   -5.123E+00   -5.107E+00
    -5.090E+00   -5.073E+00   -5.056E+00   -5.039E+00   -5.022E+00   -5.005E+00   -4.989E+00   -4.972E+00   -4.955E+00   -4.938E+00
    -4.921E+00   -4.904E+00   -4.887E+00   -4.870E+00   -4.853E+00   -4.836E+00   -4.819E+00   -4.802E+00   -4.785E+00   -4.768E+00
    -4.750E+00   -4.733E+00   -4.716E+00   -4.699E+00   -4.682E+00   -4.665E+00   -4.648E+00   -4.631E+00   -4.614E+00   -4.597E+00
    -4.580E+00   -4.562E+00   -4.545E+00   -4.528E+00   -4.511E+00   -4.494E+00   -4.477E+00   -4.460E+00   -4.443E+00   -4.426E+00
    -4.408E+00   -4.391E+00   -4.374E+00   -4.357E+00   -4.340E+00   -4.323E+00   -4.306E+00   -4.289E+00
 Ala      Conc. = 1.87E+01
