 LCModel (Version 6.3-1L) Copyright: S.W. Provencher.          Ref.: Magn. Reson. Med. 30:672-679 (1993).                
 Slice#1 Row#11 Col#7  PD_24_press_1_raw_act
 36 lines in following concentration table = NCONC+1
    Conc.  %SD /Cr+PCr  Metabolite                                         
   14.855 788% 1.4E-02 Ala                                                 
   80.302 237% 7.4E-02 Asp                                                 
  478.875  44%   0.442 Cr                                                  
  605.608  36%   0.558 PCr                                                 
   36.160 337% 3.3E-02 GABA                                                
   67.304 180% 6.2E-02 Glc                                                 
  693.828  36%   0.640 Gln                                                 
 1.43E+03  20%   1.317 Glu                                                 
  371.623   6%   0.343 GPC                                                 
    0.000 999%   0.000 PCh                                                 
  266.448  29%   0.246 GSH                                                 
 1.46E+03  17%   1.344 Ins                                                 
  292.920  44%   0.270 Lac                                                 
 1.87E+03   7%   1.720 NAA                                                 
  244.405  55%   0.225 NAAG                                                
  122.473  21%   0.113 Scyllo                                              
  117.139 149%   0.108 Tau                                                 
  181.627  58%   0.167 -CrCH2                                              
  371.623   6%   0.343 GPC+PCh                                             
 2.11E+03   5%   1.946 NAA+NAAG                                            
 1.08E+03   6%   1.000 Cr+PCr                                              
 2.12E+03  19%   1.957 Glu+Gln                                             
 3.01E+03  21%   2.778 Lip13a                                              
    0.000 999%   0.000 Lip13b                                              
  466.688  75%   0.430 Lip09                                               
 1.40E+03  25%   1.294 MM09                                                
  475.490  53%   0.438 Lip20                                               
 2.41E+03  18%   2.226 MM20                                                
  480.639  44%   0.443 MM12                                                
 1.30E+03  33%   1.202 MM14                                                
 1.18E+03  21%   1.088 MM17                                                
 3.01E+03  21%   2.778 Lip13a+Lip13b                                       
 4.80E+03   9%   4.423 MM14+Lip13a+Lip13b+MM12                             
 1.87E+03  10%   1.724 MM09+Lip09                                          
 2.89E+03  13%   2.664 MM20+Lip20                                          
   6 lines in following misc. output table
  FWHM = 0.054 ppm    S/N =   9                                            
  Data shift = 0.000 ppm                                                   
  Ph: -28 deg       2.3 deg/ppm                                            
  alphaB,S = 8.5E+01,   1.0E+02                                            
   14 spline knots.   Ns = 7(1)                                            
   2 inflections.     1 extrema                                            
  498 points on ppm-axis = NY
      4.000000     3.992357     3.984714     3.977070     3.969427     3.961784     3.954141     3.946497     3.938854     3.931211
      3.923568     3.915925     3.908281     3.900638     3.892995     3.885352     3.877708     3.870065     3.862422     3.854779
      3.847136     3.839492     3.831849     3.824206     3.816563     3.808919     3.801276     3.793633     3.785990     3.778347
      3.770703     3.763060     3.755417     3.747774     3.740130     3.732487     3.724844     3.717201     3.709558     3.701914
      3.694271     3.686628     3.678985     3.671341     3.663698     3.656055     3.648412     3.640769     3.633125     3.625482
      3.617839     3.610196     3.602552     3.594909     3.587266     3.579623     3.571980     3.564336     3.556693     3.549050
      3.541407     3.533763     3.526120     3.518477     3.510834     3.503191     3.495547     3.487904     3.480261     3.472618
      3.464974     3.457331     3.449688     3.442045     3.434402     3.426758     3.419115     3.411472     3.403829     3.396185
      3.388542     3.380899     3.373256     3.365613     3.357969     3.350326     3.342683     3.335040     3.327396     3.319753
      3.312110     3.304467     3.296824     3.289180     3.281537     3.273894     3.266251     3.258607     3.250964     3.243321
      3.235678     3.228034     3.220391     3.212748     3.205105     3.197462     3.189818     3.182175     3.174532     3.166889
      3.159245     3.151602     3.143959     3.136316     3.128673     3.121029     3.113386     3.105743     3.098100     3.090456
      3.082813     3.075170     3.067527     3.059884     3.052240     3.044597     3.036954     3.029311     3.021667     3.014024
      3.006381     2.998738     2.991095     2.983451     2.975808     2.968165     2.960522     2.952878     2.945235     2.937592
      2.929949     2.922306     2.914662     2.907019     2.899376     2.891733     2.884089     2.876446     2.868803     2.861160
      2.853517     2.845873     2.838230     2.830587     2.822944     2.815300     2.807657     2.800014     2.792371     2.784728
      2.777084     2.769441     2.761798     2.754155     2.746511     2.738868     2.731225     2.723582     2.715939     2.708295
      2.700652     2.693009     2.685366     2.677722     2.670079     2.662436     2.654793     2.647150     2.639506     2.631863
      2.624220     2.616577     2.608933     2.601290     2.593647     2.586004     2.578361     2.570717     2.563074     2.555431
      2.547788     2.540144     2.532501     2.524858     2.517215     2.509572     2.501928     2.494285     2.486642     2.478999
      2.471355     2.463712     2.456069     2.448426     2.440783     2.433139     2.425496     2.417853     2.410210     2.402566
      2.394923     2.387280     2.379637     2.371994     2.364350     2.356707     2.349064     2.341421     2.333777     2.326134
      2.318491     2.310848     2.303205     2.295561     2.287918     2.280275     2.272632     2.264988     2.257345     2.249702
      2.242059     2.234416     2.226772     2.219129     2.211486     2.203843     2.196199     2.188556     2.180913     2.173270
      2.165627     2.157983     2.150340     2.142697     2.135054     2.127410     2.119767     2.112124     2.104481     2.096838
      2.089194     2.081551     2.073908     2.066265     2.058621     2.050978     2.043335     2.035692     2.028049     2.020405
      2.012762     2.005119     1.997476     1.989833     1.982190     1.974546     1.966903     1.959260     1.951617     1.943974
      1.936331     1.928688     1.921045     1.913402     1.905759     1.898115     1.890472     1.882829     1.875186     1.867543
      1.859900     1.852257     1.844614     1.836971     1.829327     1.821684     1.814041     1.806398     1.798755     1.791112
      1.783469     1.775826     1.768183     1.760540     1.752896     1.745253     1.737610     1.729967     1.722324     1.714681
      1.707038     1.699395     1.691752     1.684108     1.676465     1.668822     1.661179     1.653536     1.645893     1.638250
      1.630607     1.622964     1.615321     1.607677     1.600034     1.592391     1.584748     1.577105     1.569462     1.561819
      1.554176     1.546533     1.538890     1.531246     1.523603     1.515960     1.508317     1.500674     1.493031     1.485388
      1.477745     1.470102     1.462458     1.454815     1.447172     1.439529     1.431886     1.424243     1.416600     1.408957
      1.401314     1.393671     1.386027     1.378384     1.370741     1.363098     1.355455     1.347812     1.340169     1.332526
      1.324883     1.317240     1.309596     1.301953     1.294310     1.286667     1.279024     1.271381     1.263738     1.256095
      1.248452     1.240808     1.233165     1.225522     1.217879     1.210236     1.202593     1.194950     1.187307     1.179664
      1.172021     1.164377     1.156734     1.149091     1.141448     1.133805     1.126162     1.118519     1.110876     1.103233
      1.095590     1.087946     1.080303     1.072660     1.065017     1.057374     1.049731     1.042088     1.034445     1.026802
      1.019158     1.011515     1.003872     0.996229     0.988586     0.980943     0.973300     0.965657     0.958014     0.950371
      0.942727     0.935084     0.927441     0.919798     0.912155     0.904512     0.896869     0.889226     0.881583     0.873940
      0.866296     0.858653     0.851010     0.843367     0.835724     0.828081     0.820438     0.812795     0.805152     0.797508
      0.789865     0.782222     0.774579     0.766936     0.759293     0.751650     0.744007     0.736364     0.728721     0.721077
      0.713434     0.705791     0.698148     0.690505     0.682862     0.675219     0.667576     0.659933     0.652290     0.644646
      0.637003     0.629360     0.621717     0.614074     0.606431     0.598788     0.591145     0.583502     0.575858     0.568215
      0.560572     0.552929     0.545286     0.537643     0.530000     0.522357     0.514714     0.507071     0.499427     0.491784
      0.484141     0.476498     0.468855     0.461212     0.453569     0.445925     0.438282     0.430639     0.422996     0.415353
      0.407710     0.400067     0.392424     0.384780     0.377137     0.369494     0.361851     0.354208     0.346565     0.338922
      0.331278     0.323635     0.315992     0.308349     0.300706     0.293063     0.285420     0.277777     0.270133     0.262490
      0.254847     0.247204     0.239561     0.231918     0.224275     0.216631     0.208988     0.201345
 NY phased data points follow
  -1.07150E+01 -1.42979E+00 -6.60690E+00 -1.38080E+00 -5.65128E-02  6.15185E+00  3.37665E+00  1.26714E+01  8.70708E+00  1.58298E+01
   1.14581E+01  1.57950E+01  1.12022E+01  1.02891E+01  4.29396E+00  2.89020E+00 -2.22805E+00  3.02271E+00 -3.15667E+00 -1.01410E+01
  -5.57963E+00 -1.02374E+00 -5.82548E+00 -7.13455E+00 -6.11012E+00 -1.71021E+00 -5.20109E+00 -3.70095E+00 -8.26193E+00  1.42644E+01
   6.97763E+00  7.46112E+00  1.69157E+00  7.60395E+00 -3.99532E-01  4.19176E+00 -5.01343E+00  2.84534E+00 -8.43526E+00  1.04495E+00
  -1.11824E+01  4.14124E+00 -8.48587E-01  8.17063E+00 -8.68018E-01  1.03905E+01  3.98534E+00  1.08458E+01 -4.33120E-01  2.58689E+00
   4.58370E+00  1.40063E+00 -3.02509E+00 -2.32601E-02 -2.13753E+00  3.78880E+00  1.36563E+00  2.60477E+00 -6.60654E+00 -2.66118E-02
   2.15375E+00  4.34519E-01 -1.20881E+00 -2.24627E+00 -7.00917E+00 -4.07754E+00 -2.37943E+00 -2.22410E+00  1.59668E+00 -1.23543E+00
  -4.94610E+00  7.81756E-02 -1.04861E+01 -1.23226E+00 -5.60916E+00 -3.49377E+00 -4.12246E+00  1.08999E+00 -6.74583E+00 -1.23208E+00
  -1.01411E+01 -3.73510E+00 -4.27846E+00 -6.75812E-01 -5.35077E+00 -3.32619E-01  2.07299E-01  2.71060E+00  3.43562E+00  1.38698E+00
  -4.01212E+00  3.47588E+00 -3.85543E+00  2.30317E+00  2.71672E+00  2.36239E+00 -1.62655E+00 -3.58741E+00  6.38916E+00  1.73044E+01
   1.27918E+01  3.05938E+01  2.65162E+01  3.07430E+01  2.17935E+01  2.33016E+01  1.63559E+01  7.67772E+00  1.87420E+00 -5.97114E+00
  -1.04778E+01 -5.13664E+00 -8.58593E+00 -1.81290E+00 -4.91267E+00 -5.33523E-01 -6.29951E+00 -8.32200E+00 -3.25531E+00 -4.16584E-01
  -2.39129E+00  2.04308E+00  4.19018E+00  1.91766E+01  2.29291E+01  3.15050E+01  2.89715E+01  3.17290E+01  2.41149E+01  2.55941E+01
   1.76167E+01  1.58407E+01  3.15925E+00  2.99485E+00  2.02857E-02  1.23235E+00  1.72305E-02 -1.92746E+00 -6.10036E+00 -2.03380E+00
  -2.61142E+00 -5.70495E+00 -9.87848E+00  2.31449E-01 -7.48651E+00 -4.56742E+00 -8.61512E+00 -5.55496E+00 -3.07383E+00 -5.64850E+00
  -5.48298E+00 -3.61996E+00 -3.28522E+00 -4.35320E+00 -1.08783E+00  1.41167E+00  8.11941E-01  3.51634E+00 -1.10120E+01  3.45671E+00
  -6.23787E+00 -8.48852E+00 -7.16753E+00 -5.65237E+00 -8.62854E+00 -9.64100E-01 -3.87229E+00 -4.82872E+00 -1.06374E+01 -6.08744E+00
  -1.51279E+01 -1.06493E+01 -9.52814E+00 -1.20235E+01 -1.49704E+01 -1.09085E+01 -1.25361E+01 -1.15583E+01 -1.68403E+01 -1.21924E+01
  -8.94025E+00 -4.62084E+00 -8.34296E+00 -2.33041E+00 -1.45425E+01 -7.43266E+00 -1.10856E+01 -1.38543E+00 -1.06529E+01 -6.84008E+00
  -8.13212E+00 -6.95649E+00 -9.77463E+00 -8.36091E+00 -9.04848E+00 -1.03619E+01 -2.52332E+00 -6.62630E+00 -8.95999E+00 -6.44654E+00
  -7.85244E+00 -4.09209E+00 -9.79989E+00 -2.93641E+00 -4.43942E+00 -3.73349E+00 -4.16530E+00 -7.77666E+00 -9.39768E+00 -4.03622E-01
  -1.22607E+01 -8.96544E-01 -5.97306E+00  3.27307E+00  2.09744E+00  7.31354E+00  6.43674E+00  4.01019E+00 -4.92040E+00 -7.25697E+00
  -5.20321E+00 -8.06336E+00 -8.88926E+00 -2.70474E+00 -2.58262E+00  7.47436E+00  5.92363E+00  1.16060E+01  1.40005E+00  1.15914E+00
   3.11567E+00  4.35461E+00  2.43594E+00  6.74669E+00  1.70713E+00 -1.53782E+00 -1.40210E+00  4.94827E+00 -4.97816E+00  4.60580E+00
  -1.82633E-01  8.37243E+00 -4.97219E+00  5.30119E+00  2.33521E+00  2.85597E+00  5.18702E+00  9.89907E+00  9.34342E+00  5.92127E+00
   7.91776E+00  1.29422E+01  1.31398E+01  2.11465E+01  2.15354E+01  3.22657E+01  4.06847E+01  5.49545E+01  6.45380E+01  7.72407E+01
   7.40027E+01  6.52093E+01  5.03414E+01  4.40752E+01  3.07636E+01  2.16477E+01  1.41566E+01  9.32367E+00  4.28491E+00  3.13770E+00
   1.44404E+00  8.34732E+00  2.63070E-01  5.48022E+00  4.03801E+00  1.73019E+00 -2.39990E+00 -2.07488E+00  1.91929E+00  1.69661E+00
  -8.43735E-02 -1.20907E+00  6.99239E-02  2.31583E+00 -4.58304E+00  9.45034E-02  2.07550E+00 -9.02100E-01  4.46339E-01  4.67211E+00
  -3.51008E+00 -9.95101E-02  4.66133E+00  4.59883E+00  2.94544E+00 -2.55155E+00  5.41220E+00 -2.23960E-01  1.32775E+00  1.36670E+00
  -2.39767E+00 -3.44241E+00  5.52592E+00  4.44788E+00  2.91809E+00  3.33758E+00  7.57836E+00  9.01291E+00  4.89917E+00  8.90788E+00
   3.97556E+00  3.40574E+00  8.30413E+00  9.29386E+00  4.25717E+00  1.00316E+01  9.20053E+00  9.05140E+00  1.01260E+00  8.61943E+00
   9.30416E+00  5.31319E-01  4.55624E+00  5.23903E+00  9.01259E-01  7.34301E+00  5.33317E+00  4.63752E+00  8.32699E+00  6.45369E+00
   9.59620E-01  3.51924E+00  5.98930E+00  1.34849E+01  9.25187E+00  6.02679E+00  8.08757E+00  8.89103E+00  4.65435E+00  1.06652E+01
   1.25097E+01  1.67295E+01  1.62150E+01  9.55966E+00  1.61324E+01  1.32496E+01  1.27440E+01  1.18611E+01  9.28584E+00  1.13518E+01
   9.11077E+00  1.27257E+01  1.14197E+01  1.07914E+01  1.27168E+01  1.17450E+01  1.59566E+01  2.00694E+01  1.09844E+01  1.77260E+01
   9.54208E+00  1.62424E+01  9.47548E+00  1.26783E+01  1.33829E+01  1.54121E+01  1.18400E+01  1.46650E+01  1.07707E+01  1.56901E+01
   1.20395E+01  5.97383E+00  7.51213E+00  6.53058E+00  2.57940E+00  1.45011E+01  4.02694E+00  7.86798E+00  3.59853E+00 -9.78210E-01
   1.68867E-01  2.89452E+00  1.18224E+00  8.75585E+00  5.82579E+00  7.13543E-01  7.30971E-01  4.35119E+00  6.97554E+00 -7.06369E-01
   1.82530E+00  9.88082E+00  2.46744E+00  4.87092E+00  1.15298E+01  5.50073E+00  4.91625E+00  1.33066E+01  8.34927E+00  8.38894E+00
   1.38866E+01  1.18825E+01  6.82401E+00  1.39080E+01  1.14979E+01  1.90201E+01  1.07358E+01  1.44479E+01  1.35518E+01  1.01309E+01
   1.32517E+01  1.04084E+01  7.91205E+00  1.11785E+01  1.26218E+01  9.44126E+00  8.83856E+00 -2.89559E-02  5.11785E+00  5.43904E+00
   1.47179E+00  4.05801E+00  2.15311E+00 -6.12933E+00  2.07688E+00  5.60008E+00  3.59903E-01  1.28020E+00  1.93422E+00  3.82772E+00
   4.15648E+00  4.64512E+00  3.89420E+00  1.86163E+00 -1.48827E+00 -4.07414E+00  3.12452E+00  2.07822E+00 -5.31566E+00 -3.78414E+00
   2.27851E+00 -2.32336E-02 -3.72967E+00 -3.88027E+00 -5.00839E+00 -3.08663E+00 -7.87059E+00 -5.79484E+00  3.87152E+00 -3.09916E+00
  -2.39166E+00  5.31848E-02 -3.00738E+00  1.77316E+00 -6.68716E+00 -6.40617E-02  3.61831E-02  1.98278E+00  5.06777E-01  5.45587E-01
   3.13933E+00 -1.42607E+00 -1.68319E+00  3.61836E+00 -4.17906E+00 -1.28319E+00  1.05099E+00  5.29639E+00  1.77687E+00  1.30338E+00
  -2.68114E+00  2.22169E+00 -4.87198E+00  1.40820E+00 -3.49001E+00  1.13023E+00 -7.31896E-01 -2.62379E-01 -4.61414E+00 -5.62659E+00
   1.97776E+00 -3.26171E+00 -3.54302E+00 -1.98991E+00 -2.71765E+00 -5.73213E+00 -7.09022E+00 -6.10802E+00 -5.05173E+00 -2.30345E+00
  -2.65903E+00 -2.19625E+00 -1.44744E+00 -2.51033E+00  2.04261E+00  4.84835E-01 -1.43318E+00  3.78936E+00
 NY points of the fit to the data follow
  -4.43879E+00 -4.48990E+00 -3.90940E+00 -2.59275E+00 -4.29080E-01  2.57823E+00  6.12220E+00  9.70594E+00  1.26498E+01  1.43942E+01
   1.46814E+01  1.35342E+01  1.12441E+01  8.33007E+00  5.32980E+00  2.60359E+00  3.84277E-01 -1.18090E+00 -2.07821E+00 -2.43634E+00
  -2.54528E+00 -2.71632E+00 -3.09564E+00 -3.60257E+00 -4.00521E+00 -3.98604E+00 -3.23193E+00 -1.59988E+00  6.98447E-01  3.09883E+00
   4.94490E+00  5.77209E+00  5.45414E+00  4.14248E+00  2.13263E+00 -1.20538E-01 -2.12756E+00 -3.53776E+00 -4.20990E+00 -4.12888E+00
  -3.27897E+00 -1.69693E+00  4.42091E-01  2.81565E+00  5.00658E+00  6.54934E+00  7.01106E+00  6.24474E+00  4.53751E+00  2.38261E+00
   1.65845E-01 -1.84778E+00 -3.36779E+00 -4.14117E+00 -4.08744E+00 -3.39955E+00 -2.42114E+00 -1.48285E+00 -8.58181E-01 -7.20731E-01
  -1.07474E+00 -1.76966E+00 -2.57418E+00 -3.29672E+00 -3.78045E+00 -3.93466E+00 -3.75265E+00 -3.30637E+00 -2.72630E+00 -2.14424E+00
  -1.68826E+00 -1.44099E+00 -1.41610E+00 -1.56539E+00 -1.83310E+00 -2.18786E+00 -2.59129E+00 -2.97295E+00 -3.26596E+00 -3.41737E+00
  -3.30064E+00 -2.90144E+00 -2.26269E+00 -1.50359E+00 -8.13718E-01 -3.89396E-01 -3.97323E-01 -8.43902E-01 -1.53398E+00 -2.21689E+00
  -2.81744E+00 -3.34909E+00 -3.79034E+00 -4.09784E+00 -4.23411E+00 -3.96286E+00 -2.42549E+00  9.43211E-01  6.30563E+00  1.31617E+01
   2.03238E+01  2.62248E+01  2.92388E+01  2.86292E+01  2.50502E+01  1.98398E+01  1.39521E+01  8.00969E+00  2.76908E+00 -1.04520E+00
  -3.20741E+00 -4.08970E+00 -4.36462E+00 -4.45478E+00 -4.48605E+00 -4.48630E+00 -4.45604E+00 -4.37367E+00 -4.16566E+00 -3.51445E+00
  -1.55032E+00  2.28522E+00  8.06248E+00  1.52510E+01  2.26631E+01  2.87457E+01  3.19377E+01  3.15416E+01  2.81786E+01  2.31360E+01
   1.73384E+01  1.13426E+01  5.82859E+00  1.50776E+00 -1.30698E+00 -2.80269E+00 -3.48851E+00 -3.73313E+00 -3.68887E+00 -3.45526E+00
  -3.13590E+00 -2.83722E+00 -2.64044E+00 -2.58913E+00 -2.67850E+00 -2.87425E+00 -3.12999E+00 -3.39948E+00 -3.65305E+00 -3.88220E+00
  -4.08416E+00 -4.25188E+00 -4.36953E+00 -4.43879E+00 -4.50867E+00 -4.63296E+00 -4.85504E+00 -5.17115E+00 -5.50167E+00 -5.76210E+00
  -5.87310E+00 -5.82034E+00 -5.68840E+00 -5.60565E+00 -5.65789E+00 -5.84792E+00 -6.12707E+00 -6.45077E+00 -6.81504E+00 -7.23332E+00
  -7.68102E+00 -8.10197E+00 -8.46256E+00 -8.72575E+00 -8.88422E+00 -8.92343E+00 -8.85738E+00 -8.75183E+00 -8.66776E+00 -8.60772E+00
  -8.54180E+00 -8.45104E+00 -8.34591E+00 -8.21028E+00 -7.93534E+00 -7.38132E+00 -6.49984E+00 -5.41433E+00 -4.33922E+00 -3.47257E+00
  -2.90480E+00 -2.69988E+00 -2.86943E+00 -3.33901E+00 -3.94428E+00 -4.46893E+00 -4.70118E+00 -4.45953E+00 -3.67320E+00 -2.44217E+00
  -1.04976E+00  1.89715E-01  9.36716E-01  8.62560E-01 -1.64797E-01 -2.02762E+00 -4.37180E+00 -6.64434E+00 -8.22961E+00 -8.56024E+00
  -7.47408E+00 -5.21972E+00 -2.36979E+00  3.96566E-01  2.35067E+00  2.82838E+00  1.65826E+00 -7.44280E-01 -3.67558E+00 -6.41246E+00
  -8.28094E+00 -8.77341E+00 -7.75924E+00 -5.63580E+00 -3.09362E+00 -7.17543E-01  1.16699E+00  2.37053E+00  2.82470E+00  2.64333E+00
   2.15328E+00  1.73233E+00  1.60433E+00  1.79234E+00  2.25822E+00  2.90125E+00  3.52243E+00  3.91449E+00  3.94395E+00  3.67328E+00
   3.28620E+00  2.97541E+00  2.87875E+00  3.04930E+00  3.43619E+00  3.95465E+00  4.56138E+00  5.23471E+00  6.03057E+00  7.16326E+00
   8.75025E+00  1.07906E+01  1.33428E+01  1.73166E+01  2.37766E+01  3.27883E+01  4.38592E+01  5.55254E+01  6.56130E+01  7.14529E+01
   7.11101E+01  6.50042E+01  5.54146E+01  4.44165E+01  3.30802E+01  2.24626E+01  1.39040E+01  8.23450E+00  5.23480E+00  3.88620E+00
   3.21501E+00  2.82836E+00  2.57588E+00  2.36014E+00  2.12489E+00  1.84726E+00  1.52602E+00  1.17396E+00  8.14005E-01  4.79341E-01
   2.01136E-01 -7.19115E-03 -1.53817E-01 -2.56526E-01 -3.29082E-01 -3.77491E-01 -4.03513E-01 -4.04543E-01 -3.73448E-01 -3.01956E-01
  -1.84901E-01 -2.29602E-02  1.78144E-01  4.12870E-01  6.78186E-01  9.72178E-01  1.29383E+00  1.64315E+00  2.02072E+00  2.42491E+00
   2.84973E+00  3.28496E+00  3.71900E+00  4.14021E+00  4.53709E+00  4.89904E+00  5.21732E+00  5.48559E+00  5.70007E+00  5.85884E+00
   5.96184E+00  6.01112E+00  6.01090E+00  5.96748E+00  5.88893E+00  5.78465E+00  5.66499E+00  5.54085E+00  5.42333E+00  5.32377E+00
   5.25387E+00  5.21960E+00  5.22111E+00  5.25475E+00  5.31381E+00  5.39191E+00  5.48517E+00  5.59588E+00  5.73644E+00  5.92206E+00
   6.16071E+00  6.45577E+00  6.80705E+00  7.20873E+00  7.64639E+00  8.10121E+00  8.56177E+00  9.03235E+00  9.53143E+00  1.00968E+01
   1.08015E+01  1.16408E+01  1.25174E+01  1.32849E+01  1.37564E+01  1.37768E+01  1.32646E+01  1.22996E+01  1.12154E+01  1.03760E+01
   1.00104E+01  1.02220E+01  1.10255E+01  1.23085E+01  1.37689E+01  1.50298E+01  1.58497E+01  1.62078E+01  1.61724E+01  1.57990E+01
   1.51712E+01  1.44180E+01  1.36610E+01  1.29614E+01  1.23051E+01  1.16603E+01  1.10137E+01  1.03638E+01  9.71427E+00  9.07082E+00
   8.43982E+00  7.82776E+00  7.24088E+00  6.68492E+00  6.16504E+00  5.68570E+00  5.25076E+00  4.86349E+00  4.52671E+00  4.24290E+00
   4.01424E+00  3.84275E+00  3.73034E+00  3.67883E+00  3.69003E+00  3.76564E+00  3.90711E+00  4.11547E+00  4.39118E+00  4.73383E+00
   5.14193E+00  5.61251E+00  6.14088E+00  6.72034E+00  7.34213E+00  7.99527E+00  8.66672E+00  9.34148E+00  1.00030E+01  1.06338E+01
   1.12159E+01  1.17317E+01  1.21651E+01  1.25016E+01  1.27294E+01  1.28401E+01  1.28292E+01  1.26958E+01  1.24433E+01  1.20788E+01
   1.16125E+01  1.10577E+01  1.04294E+01  9.74419E+00  9.01885E+00  8.26993E+00  7.51305E+00  6.76232E+00  6.02999E+00  5.32617E+00
   4.65871E+00  4.03329E+00  3.45352E+00  2.92120E+00  2.43659E+00  1.99864E+00  1.60533E+00  1.25392E+00  9.41250E-01  6.63951E-01
   4.18588E-01  2.01760E-01  1.02347E-02 -1.59000E-01 -3.08654E-01 -4.41169E-01 -5.58706E-01 -6.63200E-01 -7.56325E-01 -8.39533E-01
  -9.14041E-01 -9.80914E-01 -1.04107E+00 -1.09533E+00 -1.14438E+00 -1.18880E+00 -1.22908E+00 -1.26565E+00 -1.29889E+00 -1.32918E+00
  -1.35678E+00 -1.38194E+00 -1.40486E+00 -1.42574E+00 -1.44478E+00 -1.46213E+00 -1.47794E+00 -1.49232E+00 -1.50535E+00 -1.51717E+00
  -1.52785E+00 -1.53752E+00 -1.54620E+00 -1.55397E+00 -1.56086E+00 -1.56697E+00 -1.57236E+00 -1.57707E+00 -1.58112E+00 -1.58455E+00
  -1.58739E+00 -1.58970E+00 -1.59150E+00 -1.59284E+00 -1.59369E+00 -1.59410E+00 -1.59410E+00 -1.59372E+00 -1.59299E+00 -1.59191E+00
  -1.59048E+00 -1.58872E+00 -1.58666E+00 -1.58433E+00 -1.58173E+00 -1.57885E+00 -1.57570E+00 -1.57230E+00 -1.56867E+00 -1.56483E+00
  -1.56077E+00 -1.55649E+00 -1.55197E+00 -1.54726E+00 -1.54236E+00 -1.53728E+00 -1.53198E+00 -1.52647E+00
 NY background values follow
    -7.612E+00   -7.601E+00   -7.589E+00   -7.578E+00   -7.566E+00   -7.555E+00   -7.544E+00   -7.532E+00   -7.521E+00   -7.509E+00
    -7.498E+00   -7.487E+00   -7.475E+00   -7.464E+00   -7.452E+00   -7.441E+00   -7.430E+00   -7.418E+00   -7.407E+00   -7.396E+00
    -7.384E+00   -7.373E+00   -7.361E+00   -7.350E+00   -7.339E+00   -7.327E+00   -7.316E+00   -7.304E+00   -7.293E+00   -7.282E+00
    -7.270E+00   -7.259E+00   -7.248E+00   -7.236E+00   -7.225E+00   -7.213E+00   -7.202E+00   -7.191E+00   -7.179E+00   -7.168E+00
    -7.156E+00   -7.145E+00   -7.134E+00   -7.122E+00   -7.111E+00   -7.099E+00   -7.088E+00   -7.077E+00   -7.065E+00   -7.054E+00
    -7.043E+00   -7.031E+00   -7.020E+00   -7.008E+00   -6.997E+00   -6.986E+00   -6.974E+00   -6.963E+00   -6.951E+00   -6.940E+00
    -6.929E+00   -6.917E+00   -6.906E+00   -6.895E+00   -6.883E+00   -6.872E+00   -6.860E+00   -6.849E+00   -6.838E+00   -6.826E+00
    -6.815E+00   -6.803E+00   -6.792E+00   -6.781E+00   -6.769E+00   -6.758E+00   -6.746E+00   -6.735E+00   -6.724E+00   -6.712E+00
    -6.701E+00   -6.690E+00   -6.678E+00   -6.667E+00   -6.655E+00   -6.644E+00   -6.633E+00   -6.621E+00   -6.610E+00   -6.598E+00
    -6.587E+00   -6.576E+00   -6.564E+00   -6.553E+00   -6.542E+00   -6.530E+00   -6.519E+00   -6.507E+00   -6.496E+00   -6.485E+00
    -6.473E+00   -6.462E+00   -6.450E+00   -6.439E+00   -6.428E+00   -6.416E+00   -6.405E+00   -6.394E+00   -6.382E+00   -6.371E+00
    -6.359E+00   -6.348E+00   -6.337E+00   -6.325E+00   -6.314E+00   -6.302E+00   -6.291E+00   -6.280E+00   -6.268E+00   -6.257E+00
    -6.245E+00   -6.234E+00   -6.223E+00   -6.211E+00   -6.200E+00   -6.189E+00   -6.177E+00   -6.166E+00   -6.154E+00   -6.143E+00
    -6.132E+00   -6.120E+00   -6.109E+00   -6.097E+00   -6.086E+00   -6.075E+00   -6.063E+00   -6.052E+00   -6.041E+00   -6.029E+00
    -6.018E+00   -6.006E+00   -5.995E+00   -5.984E+00   -5.972E+00   -5.961E+00   -5.949E+00   -5.938E+00   -5.927E+00   -5.915E+00
    -5.904E+00   -5.892E+00   -5.881E+00   -5.870E+00   -5.858E+00   -5.847E+00   -5.836E+00   -5.824E+00   -5.813E+00   -5.801E+00
    -5.790E+00   -5.779E+00   -5.767E+00   -5.756E+00   -5.744E+00   -5.733E+00   -5.722E+00   -5.710E+00   -5.699E+00   -5.687E+00
    -5.676E+00   -5.665E+00   -5.653E+00   -5.642E+00   -5.631E+00   -5.619E+00   -5.608E+00   -5.596E+00   -5.585E+00   -5.574E+00
    -5.562E+00   -5.551E+00   -5.539E+00   -5.528E+00   -5.517E+00   -5.505E+00   -5.494E+00   -5.482E+00   -5.471E+00   -5.460E+00
    -5.448E+00   -5.437E+00   -5.426E+00   -5.414E+00   -5.403E+00   -5.391E+00   -5.380E+00   -5.369E+00   -5.357E+00   -5.346E+00
    -5.334E+00   -5.323E+00   -5.312E+00   -5.300E+00   -5.289E+00   -5.277E+00   -5.266E+00   -5.255E+00   -5.243E+00   -5.232E+00
    -5.221E+00   -5.209E+00   -5.198E+00   -5.186E+00   -5.175E+00   -5.164E+00   -5.152E+00   -5.141E+00   -5.129E+00   -5.118E+00
    -5.107E+00   -5.095E+00   -5.084E+00   -5.072E+00   -5.061E+00   -5.050E+00   -5.038E+00   -5.027E+00   -5.016E+00   -5.004E+00
    -4.993E+00   -4.981E+00   -4.970E+00   -4.959E+00   -4.947E+00   -4.936E+00   -4.924E+00   -4.913E+00   -4.902E+00   -4.890E+00
    -4.879E+00   -4.867E+00   -4.856E+00   -4.845E+00   -4.833E+00   -4.822E+00   -4.810E+00   -4.799E+00   -4.788E+00   -4.776E+00
    -4.765E+00   -4.754E+00   -4.742E+00   -4.731E+00   -4.719E+00   -4.708E+00   -4.697E+00   -4.685E+00   -4.674E+00   -4.662E+00
    -4.651E+00   -4.640E+00   -4.628E+00   -4.617E+00   -4.605E+00   -4.594E+00   -4.583E+00   -4.571E+00   -4.560E+00   -4.549E+00
    -4.537E+00   -4.526E+00   -4.514E+00   -4.503E+00   -4.492E+00   -4.480E+00   -4.469E+00   -4.457E+00   -4.446E+00   -4.435E+00
    -4.423E+00   -4.412E+00   -4.400E+00   -4.389E+00   -4.378E+00   -4.366E+00   -4.355E+00   -4.343E+00   -4.332E+00   -4.321E+00
    -4.309E+00   -4.298E+00   -4.287E+00   -4.275E+00   -4.264E+00   -4.252E+00   -4.241E+00   -4.230E+00   -4.218E+00   -4.207E+00
    -4.195E+00   -4.184E+00   -4.173E+00   -4.161E+00   -4.150E+00   -4.138E+00   -4.127E+00   -4.116E+00   -4.104E+00   -4.093E+00
    -4.081E+00   -4.070E+00   -4.059E+00   -4.047E+00   -4.036E+00   -4.025E+00   -4.013E+00   -4.002E+00   -3.990E+00   -3.979E+00
    -3.968E+00   -3.956E+00   -3.945E+00   -3.933E+00   -3.922E+00   -3.911E+00   -3.899E+00   -3.888E+00   -3.876E+00   -3.865E+00
    -3.854E+00   -3.842E+00   -3.831E+00   -3.819E+00   -3.808E+00   -3.797E+00   -3.785E+00   -3.774E+00   -3.763E+00   -3.751E+00
    -3.740E+00   -3.728E+00   -3.717E+00   -3.706E+00   -3.694E+00   -3.683E+00   -3.671E+00   -3.660E+00   -3.649E+00   -3.637E+00
    -3.626E+00   -3.614E+00   -3.603E+00   -3.592E+00   -3.580E+00   -3.569E+00   -3.557E+00   -3.546E+00   -3.535E+00   -3.523E+00
    -3.512E+00   -3.501E+00   -3.489E+00   -3.478E+00   -3.466E+00   -3.455E+00   -3.444E+00   -3.432E+00   -3.421E+00   -3.409E+00
    -3.398E+00   -3.387E+00   -3.375E+00   -3.364E+00   -3.352E+00   -3.341E+00   -3.330E+00   -3.318E+00   -3.307E+00   -3.295E+00
    -3.284E+00   -3.273E+00   -3.261E+00   -3.250E+00   -3.239E+00   -3.227E+00   -3.216E+00   -3.204E+00   -3.193E+00   -3.182E+00
    -3.170E+00   -3.159E+00   -3.147E+00   -3.136E+00   -3.125E+00   -3.113E+00   -3.102E+00   -3.090E+00   -3.079E+00   -3.068E+00
    -3.056E+00   -3.045E+00   -3.033E+00   -3.022E+00   -3.011E+00   -2.999E+00   -2.988E+00   -2.977E+00   -2.965E+00   -2.954E+00
    -2.942E+00   -2.931E+00   -2.920E+00   -2.908E+00   -2.897E+00   -2.885E+00   -2.874E+00   -2.863E+00   -2.851E+00   -2.840E+00
    -2.828E+00   -2.817E+00   -2.806E+00   -2.794E+00   -2.783E+00   -2.771E+00   -2.760E+00   -2.749E+00   -2.737E+00   -2.726E+00
    -2.715E+00   -2.703E+00   -2.692E+00   -2.680E+00   -2.669E+00   -2.658E+00   -2.646E+00   -2.635E+00   -2.623E+00   -2.612E+00
    -2.601E+00   -2.589E+00   -2.578E+00   -2.566E+00   -2.555E+00   -2.544E+00   -2.532E+00   -2.521E+00   -2.509E+00   -2.498E+00
    -2.487E+00   -2.475E+00   -2.464E+00   -2.453E+00   -2.441E+00   -2.430E+00   -2.418E+00   -2.407E+00   -2.396E+00   -2.384E+00
    -2.373E+00   -2.361E+00   -2.350E+00   -2.339E+00   -2.327E+00   -2.316E+00   -2.304E+00   -2.293E+00   -2.282E+00   -2.270E+00
    -2.259E+00   -2.247E+00   -2.236E+00   -2.225E+00   -2.213E+00   -2.202E+00   -2.190E+00   -2.179E+00   -2.168E+00   -2.156E+00
    -2.145E+00   -2.134E+00   -2.122E+00   -2.111E+00   -2.099E+00   -2.088E+00   -2.077E+00   -2.065E+00   -2.054E+00   -2.042E+00
    -2.031E+00   -2.020E+00   -2.008E+00   -1.997E+00   -1.985E+00   -1.974E+00   -1.963E+00   -1.951E+00
 Ala      Conc. = 1.49E+01
