 LCModel (Version 6.3-1L) Copyright: S.W. Provencher.          Ref.: Magn. Reson. Med. 30:672-679 (1993).                
 Slice#3 Row#7 Col#4  PD_24_press_1_raw_act
 36 lines in following concentration table = NCONC+1
    Conc.  %SD /Cr+PCr  Metabolite                                         
    0.000 999%   0.000 Ala                                                 
   89.790 253% 5.6E-02 Asp                                                 
  521.979  54%   0.325 Cr                                                  
 1.08E+03  27%   0.675 PCr                                                 
    2.188 999% 1.4E-03 GABA                                                
    0.000 999%   0.000 Glc                                                 
  592.444  58%   0.369 Gln                                                 
 1.55E+03  26%   0.965 Glu                                                 
  474.169   5%   0.296 GPC                                                 
    0.000 999%   0.000 PCh                                                 
   87.106  93% 5.4E-02 GSH                                                 
    0.000 999%   0.000 Ins                                                 
    0.000 999%   0.000 Lac                                                 
 1.96E+03   9%   1.221 NAA                                                 
  250.157  74%   0.156 NAAG                                                
   46.457  62% 2.9E-02 Scyllo                                              
    0.000 999%   0.000 Tau                                                 
    0.000 999%   0.000 -CrCH2                                              
  474.169   5%   0.296 GPC+PCh                                             
 2.21E+03   4%   1.376 NAA+NAAG                                            
 1.60E+03   4%   1.000 Cr+PCr                                              
 2.14E+03  29%   1.334 Glu+Gln                                             
    0.000 999%   0.000 Lip13a                                              
    0.000 999%   0.000 Lip13b                                              
    0.000 999%   0.000 Lip09                                               
 1.01E+03  17%   0.632 MM09                                                
    0.000 999%   0.000 Lip20                                               
 1.83E+03  17%   1.142 MM20                                                
  282.413  30%   0.176 MM12                                                
    0.000 999%   0.000 MM14                                                
 1.37E+03   8%   0.852+MM17                                                
    0.000 999%   0.000 Lip13a+Lip13b                                       
  282.413  30%   0.176 MM14+Lip13a+Lip13b+MM12                             
 1.01E+03  17%   0.632 MM09+Lip09                                          
 1.83E+03  17%   1.142 MM20+Lip20                                          
   6 lines in following misc. output table
  FWHM = 0.069 ppm    S/N =  10                                            
  Data shift =-0.008 ppm                                                   
  Ph: -15 deg      -0.6 deg/ppm                                            
  alphaB,S = 4.7E-01,   1.0E+02                                            
   14 spline knots.   Ns = 9(1)                                            
  (14) 4 infls.   (13) 1 extrs.                                            
  498 points on ppm-axis = NY
      4.000000     3.992357     3.984714     3.977070     3.969427     3.961784     3.954141     3.946497     3.938854     3.931211
      3.923568     3.915925     3.908281     3.900638     3.892995     3.885352     3.877708     3.870065     3.862422     3.854779
      3.847136     3.839492     3.831849     3.824206     3.816563     3.808919     3.801276     3.793633     3.785990     3.778347
      3.770703     3.763060     3.755417     3.747774     3.740130     3.732487     3.724844     3.717201     3.709558     3.701914
      3.694271     3.686628     3.678985     3.671341     3.663698     3.656055     3.648412     3.640769     3.633125     3.625482
      3.617839     3.610196     3.602552     3.594909     3.587266     3.579623     3.571980     3.564336     3.556693     3.549050
      3.541407     3.533763     3.526120     3.518477     3.510834     3.503191     3.495547     3.487904     3.480261     3.472618
      3.464974     3.457331     3.449688     3.442045     3.434402     3.426758     3.419115     3.411472     3.403829     3.396185
      3.388542     3.380899     3.373256     3.365613     3.357969     3.350326     3.342683     3.335040     3.327396     3.319753
      3.312110     3.304467     3.296824     3.289180     3.281537     3.273894     3.266251     3.258607     3.250964     3.243321
      3.235678     3.228034     3.220391     3.212748     3.205105     3.197462     3.189818     3.182175     3.174532     3.166889
      3.159245     3.151602     3.143959     3.136316     3.128673     3.121029     3.113386     3.105743     3.098100     3.090456
      3.082813     3.075170     3.067527     3.059884     3.052240     3.044597     3.036954     3.029311     3.021667     3.014024
      3.006381     2.998738     2.991095     2.983451     2.975808     2.968165     2.960522     2.952878     2.945235     2.937592
      2.929949     2.922306     2.914662     2.907019     2.899376     2.891733     2.884089     2.876446     2.868803     2.861160
      2.853517     2.845873     2.838230     2.830587     2.822944     2.815300     2.807657     2.800014     2.792371     2.784728
      2.777084     2.769441     2.761798     2.754155     2.746511     2.738868     2.731225     2.723582     2.715939     2.708295
      2.700652     2.693009     2.685366     2.677722     2.670079     2.662436     2.654793     2.647150     2.639506     2.631863
      2.624220     2.616577     2.608933     2.601290     2.593647     2.586004     2.578361     2.570717     2.563074     2.555431
      2.547788     2.540144     2.532501     2.524858     2.517215     2.509572     2.501928     2.494285     2.486642     2.478999
      2.471355     2.463712     2.456069     2.448426     2.440783     2.433139     2.425496     2.417853     2.410210     2.402566
      2.394923     2.387280     2.379637     2.371994     2.364350     2.356707     2.349064     2.341421     2.333777     2.326134
      2.318491     2.310848     2.303205     2.295561     2.287918     2.280275     2.272632     2.264988     2.257345     2.249702
      2.242059     2.234416     2.226772     2.219129     2.211486     2.203843     2.196199     2.188556     2.180913     2.173270
      2.165627     2.157983     2.150340     2.142697     2.135054     2.127410     2.119767     2.112124     2.104481     2.096838
      2.089194     2.081551     2.073908     2.066265     2.058621     2.050978     2.043335     2.035692     2.028049     2.020405
      2.012762     2.005119     1.997476     1.989833     1.982190     1.974546     1.966903     1.959260     1.951617     1.943974
      1.936331     1.928688     1.921045     1.913402     1.905759     1.898115     1.890472     1.882829     1.875186     1.867543
      1.859900     1.852257     1.844614     1.836971     1.829327     1.821684     1.814041     1.806398     1.798755     1.791112
      1.783469     1.775826     1.768183     1.760540     1.752896     1.745253     1.737610     1.729967     1.722324     1.714681
      1.707038     1.699395     1.691752     1.684108     1.676465     1.668822     1.661179     1.653536     1.645893     1.638250
      1.630607     1.622964     1.615321     1.607677     1.600034     1.592391     1.584748     1.577105     1.569462     1.561819
      1.554176     1.546533     1.538890     1.531246     1.523603     1.515960     1.508317     1.500674     1.493031     1.485388
      1.477745     1.470102     1.462458     1.454815     1.447172     1.439529     1.431886     1.424243     1.416600     1.408957
      1.401314     1.393671     1.386027     1.378384     1.370741     1.363098     1.355455     1.347812     1.340169     1.332526
      1.324883     1.317240     1.309596     1.301953     1.294310     1.286667     1.279024     1.271381     1.263738     1.256095
      1.248452     1.240808     1.233165     1.225522     1.217879     1.210236     1.202593     1.194950     1.187307     1.179664
      1.172021     1.164377     1.156734     1.149091     1.141448     1.133805     1.126162     1.118519     1.110876     1.103233
      1.095590     1.087946     1.080303     1.072660     1.065017     1.057374     1.049731     1.042088     1.034445     1.026802
      1.019158     1.011515     1.003872     0.996229     0.988586     0.980943     0.973300     0.965657     0.958014     0.950371
      0.942727     0.935084     0.927441     0.919798     0.912155     0.904512     0.896869     0.889226     0.881583     0.873940
      0.866296     0.858653     0.851010     0.843367     0.835724     0.828081     0.820438     0.812795     0.805152     0.797508
      0.789865     0.782222     0.774579     0.766936     0.759293     0.751650     0.744007     0.736364     0.728721     0.721077
      0.713434     0.705791     0.698148     0.690505     0.682862     0.675219     0.667576     0.659933     0.652290     0.644646
      0.637003     0.629360     0.621717     0.614074     0.606431     0.598788     0.591145     0.583502     0.575858     0.568215
      0.560572     0.552929     0.545286     0.537643     0.530000     0.522357     0.514714     0.507071     0.499427     0.491784
      0.484141     0.476498     0.468855     0.461212     0.453569     0.445925     0.438282     0.430639     0.422996     0.415353
      0.407710     0.400067     0.392424     0.384780     0.377137     0.369494     0.361851     0.354208     0.346565     0.338922
      0.331278     0.323635     0.315992     0.308349     0.300706     0.293063     0.285420     0.277777     0.270133     0.262490
      0.254847     0.247204     0.239561     0.231918     0.224275     0.216631     0.208988     0.201345
 NY phased data points follow
   1.10902E+02  1.06975E+02  1.08019E+02  1.09260E+02  1.12427E+02  1.19019E+02  1.18523E+02  1.17387E+02  1.24515E+02  1.21618E+02
   1.20585E+02  1.22498E+02  1.20919E+02  1.16609E+02  1.11984E+02  1.10930E+02  1.01220E+02  1.03301E+02  9.85969E+01  9.31484E+01
   9.36244E+01  9.15254E+01  9.03742E+01  8.78523E+01  8.68038E+01  8.63953E+01  8.24759E+01  8.69512E+01  8.51363E+01  8.26764E+01
   8.36591E+01  8.04229E+01  8.38424E+01  8.11997E+01  7.84788E+01  8.10782E+01  8.38141E+01  7.77561E+01  7.82190E+01  7.27966E+01
   7.38155E+01  7.34891E+01  7.77389E+01  7.42662E+01  7.31815E+01  7.69493E+01  7.76786E+01  7.93604E+01  7.36061E+01  7.19702E+01
   7.10742E+01  6.87146E+01  7.25226E+01  6.87296E+01  6.71864E+01  6.76185E+01  6.81567E+01  6.09428E+01  6.53766E+01  6.76262E+01
   6.07007E+01  5.91191E+01  5.78834E+01  5.82434E+01  5.38033E+01  5.44132E+01  5.81729E+01  5.46184E+01  5.11917E+01  5.14596E+01
   4.94888E+01  4.89769E+01  5.06663E+01  5.40628E+01  5.14462E+01  5.04479E+01  5.00707E+01  5.13818E+01  4.86014E+01  5.03675E+01
   5.18156E+01  4.79066E+01  5.29103E+01  5.06759E+01  5.14859E+01  5.37820E+01  5.06450E+01  5.14581E+01  4.97392E+01  4.95283E+01
   5.45380E+01  5.18919E+01  5.36135E+01  5.00450E+01  5.39467E+01  5.42762E+01  5.43538E+01  6.27259E+01  5.84708E+01  6.19011E+01
   6.42689E+01  7.53948E+01  7.64014E+01  7.89975E+01  8.01306E+01  7.78473E+01  6.73275E+01  6.96292E+01  6.45540E+01  5.83275E+01
   5.41370E+01  5.27302E+01  5.20840E+01  4.99782E+01  4.85306E+01  5.06883E+01  4.98848E+01  4.65811E+01  5.23906E+01  5.08864E+01
   5.00914E+01  5.80756E+01  6.15072E+01  6.40102E+01  6.52555E+01  7.26149E+01  7.62153E+01  7.64026E+01  8.28764E+01  7.83628E+01
   7.28057E+01  6.60426E+01  5.67433E+01  5.90652E+01  5.12140E+01  4.83602E+01  4.98263E+01  4.42283E+01  4.11588E+01  4.50677E+01
   4.34085E+01  3.95640E+01  4.38649E+01  4.44902E+01  4.05594E+01  3.70558E+01  4.06122E+01  4.20941E+01  3.70977E+01  3.47789E+01
   3.86173E+01  3.68069E+01  3.48686E+01  3.84182E+01  3.91842E+01  3.30545E+01  3.72019E+01  3.66207E+01  3.56341E+01  3.30375E+01
   3.39356E+01  3.43457E+01  3.11316E+01  3.25905E+01  2.82476E+01  3.19685E+01  3.28634E+01  2.97304E+01  3.23318E+01  2.65395E+01
   2.88865E+01  2.81858E+01  2.95982E+01  3.19169E+01  3.00405E+01  2.78162E+01  2.61211E+01  2.82817E+01  2.91475E+01  3.24069E+01
   2.96503E+01  2.83693E+01  3.36312E+01  3.01713E+01  3.03749E+01  2.94934E+01  3.33762E+01  3.61105E+01  3.44522E+01  3.30632E+01
   3.78202E+01  4.25792E+01  4.33212E+01  4.29415E+01  3.88588E+01  4.18979E+01  4.21415E+01  3.87705E+01  4.07062E+01  4.07003E+01
   3.63363E+01  3.84912E+01  3.90555E+01  3.87963E+01  3.50511E+01  3.95792E+01  3.49956E+01  3.59474E+01  3.36934E+01  3.32128E+01
   3.41066E+01  3.88480E+01  3.95737E+01  3.85697E+01  4.45918E+01  4.44312E+01  4.49277E+01  4.16431E+01  3.99526E+01  3.78305E+01
   3.68178E+01  3.82435E+01  3.96577E+01  3.77054E+01  3.60784E+01  3.72290E+01  3.98116E+01  4.24820E+01  4.69988E+01  4.26545E+01
   4.37928E+01  4.25235E+01  4.28946E+01  3.93204E+01  4.12879E+01  4.05962E+01  4.74195E+01  4.33453E+01  3.92191E+01  3.98379E+01
   3.70894E+01  4.56993E+01  4.15082E+01  4.32605E+01  4.05836E+01  4.43375E+01  4.61711E+01  4.47665E+01  4.70788E+01  4.68810E+01
   5.13245E+01  5.06531E+01  5.38146E+01  6.05380E+01  6.32862E+01  6.99223E+01  7.67197E+01  7.82809E+01  8.54368E+01  9.23939E+01
   9.80503E+01  1.01559E+02  8.89692E+01  7.75331E+01  7.04202E+01  6.30433E+01  5.83245E+01  5.11144E+01  4.40849E+01  4.28936E+01
   3.66885E+01  3.98614E+01  3.88449E+01  4.10175E+01  3.84059E+01  3.70969E+01  3.51433E+01  3.48236E+01  3.36159E+01  3.20848E+01
   3.49093E+01  3.33449E+01  3.33435E+01  3.26141E+01  3.08608E+01  3.41468E+01  3.23639E+01  3.37065E+01  3.46982E+01  3.07796E+01
   2.77484E+01  3.31317E+01  3.21115E+01  3.07905E+01  2.96937E+01  3.27792E+01  2.97013E+01  3.24152E+01  2.98798E+01  3.27012E+01
   3.24353E+01  3.19630E+01  3.25069E+01  3.62586E+01  3.42183E+01  3.22128E+01  3.56412E+01  2.87710E+01  3.25060E+01  3.42102E+01
   3.32204E+01  3.54264E+01  3.00814E+01  2.68301E+01  2.59940E+01  2.39808E+01  2.76153E+01  2.44750E+01  2.25759E+01  1.96553E+01
   2.19688E+01  2.10987E+01  1.77718E+01  1.27862E+01  1.63113E+01  1.21827E+01  7.24557E+00  7.83703E+00  1.06397E+01  1.34272E+01
   7.72174E+00  8.36488E+00  6.83082E+00  6.57290E+00  4.56267E+00  6.75652E+00  7.23923E+00  8.87781E+00  4.34869E+00  5.61935E+00
   6.89472E+00  1.37667E+00  1.93626E+00 -3.52192E-01  1.72560E-01  3.31200E+00 -1.35547E+00 -2.41608E+00  2.78669E-01  1.94936E+00
   1.34412E+00  3.13842E+00  2.47318E+00 -1.67991E-01  1.57074E-01  2.33748E+00  1.01198E+00  1.75031E+00  2.64969E+00  2.00574E+00
   1.12946E+00  8.95092E-01  1.32364E+00  2.18434E+00  1.23095E+00  2.25566E+00  1.94335E+00  1.19759E+00  3.80026E-01 -1.30765E+00
   7.03346E-01 -3.64493E+00 -2.97507E+00 -6.98416E+00 -6.03811E+00 -4.73327E+00 -4.26542E+00 -1.08894E+00 -6.89200E-01 -1.59896E+00
  -1.84949E+00 -5.65696E+00 -2.13571E+00 -5.39941E+00 -1.79239E+00 -5.61079E+00 -3.58830E+00 -4.24571E+00 -3.30106E+00 -5.16242E+00
  -3.44426E+00 -4.33685E+00 -6.46628E-02 -1.02128E+00 -4.41005E+00 -4.46669E+00 -3.06302E+00  8.11379E-01  2.55009E+00  5.09869E-01
   1.08094E+00 -1.63645E+00 -2.29780E+00  9.46493E-01  7.30665E-01  6.41751E-01  2.39301E-01 -1.78785E-01  1.89210E+00 -4.79916E-02
  -3.66588E-01 -1.62824E-01  1.55467E+00 -3.63097E-01  2.49424E+00 -5.90583E+00  1.40796E+00  3.59414E+00 -1.45205E+00 -1.68669E+00
   1.75899E+00 -2.70514E+00  5.04778E-01 -4.64979E-01 -2.85542E+00  4.17252E-01 -1.16449E+00 -4.28776E-01 -2.01719E+00 -1.46040E+00
  -3.52924E+00 -3.29670E+00 -6.61166E+00  1.78011E+00 -4.09605E+00  1.30991E+00  3.52180E-01 -7.88051E-01  4.29994E-01 -2.22368E+00
   2.96791E+00 -7.42795E-01 -2.05476E+00 -1.52084E+00  8.94783E-01  1.24157E+00 -2.98155E+00 -4.68439E-01 -3.71641E+00  7.05718E-02
   4.06951E-01 -5.39648E-01  6.73792E-01 -2.15751E+00  3.74647E-01  9.63034E-01 -2.30381E+00 -2.68061E+00  2.72456E+00 -1.06014E+00
  -2.05355E+00 -8.71307E-02  1.52224E+00  1.07285E+00 -2.40554E+00  2.97442E+00 -1.45555E+00  1.68908E+00 -2.31798E+00 -7.60213E-01
  -1.17576E+00 -6.44109E-01  3.94535E-01 -2.72463E-01 -2.26322E+00 -1.87383E+00 -5.39381E+00  3.61789E+00  1.32811E+00  1.06178E+00
  -1.02669E+00  1.06286E+00  6.36755E-01 -9.38577E-01 -2.38904E+00  2.70172E+00 -5.40428E-01  1.94931E+00  3.23209E-01  5.80197E+00
   1.60577E+00 -8.40742E-01 -2.21264E+00  1.89038E+00  9.77905E-01  1.90070E+00  1.43024E+00  4.45088E+00
 NY points of the fit to the data follow
   1.05415E+02  1.06533E+02  1.07713E+02  1.09411E+02  1.11336E+02  1.13350E+02  1.15679E+02  1.18388E+02  1.21062E+02  1.22927E+02
   1.23220E+02  1.21725E+02  1.18986E+02  1.15525E+02  1.11611E+02  1.07643E+02  1.04049E+02  1.00923E+02  9.78925E+01  9.48768E+01
   9.25925E+01  9.08366E+01  8.93026E+01  8.82645E+01  8.75048E+01  8.67583E+01  8.58838E+01  8.49088E+01  8.40453E+01  8.34954E+01
   8.33779E+01  8.35590E+01  8.35822E+01  8.31573E+01  8.22381E+01  8.09033E+01  7.93543E+01  7.80166E+01  7.71629E+01  7.66255E+01
   7.62380E+01  7.58770E+01  7.53966E+01  7.48313E+01  7.42242E+01  7.35957E+01  7.29411E+01  7.22580E+01  7.15378E+01  7.07436E+01
   6.99429E+01  6.92342E+01  6.84986E+01  6.76601E+01  6.68051E+01  6.59926E+01  6.51658E+01  6.43360E+01  6.35605E+01  6.28149E+01
   6.20670E+01  6.13493E+01  6.06819E+01  6.00540E+01  5.94556E+01  5.88754E+01  5.83164E+01  5.77795E+01  5.72585E+01  5.67508E+01
   5.62552E+01  5.57718E+01  5.52999E+01  5.48390E+01  5.43899E+01  5.39556E+01  5.35514E+01  5.32481E+01  5.30434E+01  5.28262E+01
   5.26072E+01  5.24097E+01  5.22397E+01  5.21094E+01  5.20390E+01  5.20127E+01  5.19479E+01  5.17281E+01  5.12796E+01  5.06657E+01
   5.00409E+01  4.95147E+01  4.91577E+01  4.92573E+01  5.08764E+01  5.36167E+01  5.60549E+01  5.84458E+01  6.11265E+01  6.41241E+01
   6.76102E+01  7.18257E+01  7.63903E+01  7.99845E+01  8.08835E+01  7.81710E+01  7.29220E+01  6.72057E+01  6.21809E+01  5.79303E+01
   5.42962E+01  5.13347E+01  4.87719E+01  4.61903E+01  4.44117E+01  4.38580E+01  4.38626E+01  4.47692E+01  4.72994E+01  5.05362E+01
   5.36169E+01  5.66900E+01  6.00099E+01  6.37174E+01  6.80640E+01  7.31302E+01  7.81682E+01  8.15740E+01  8.16417E+01  7.79610E+01
   7.20535E+01  6.59127E+01  6.05116E+01  5.58866E+01  5.19281E+01  4.85965E+01  4.55114E+01  4.26745E+01  4.09158E+01  4.01698E+01
   3.98202E+01  3.95709E+01  3.93422E+01  3.91084E+01  3.88772E+01  3.86562E+01  3.84320E+01  3.82050E+01  3.79782E+01  3.77576E+01
   3.75513E+01  3.73107E+01  3.69938E+01  3.66917E+01  3.64294E+01  3.62315E+01  3.61025E+01  3.59280E+01  3.56837E+01  3.53634E+01
   3.49992E+01  3.46808E+01  3.45272E+01  3.45464E+01  3.45866E+01  3.44848E+01  3.41623E+01  3.36625E+01  3.32041E+01  3.28869E+01
   3.26781E+01  3.24953E+01  3.22275E+01  3.19478E+01  3.16605E+01  3.14533E+01  3.14386E+01  3.15626E+01  3.17307E+01  3.19200E+01
   3.20636E+01  3.22052E+01  3.24726E+01  3.28932E+01  3.33446E+01  3.37697E+01  3.42263E+01  3.47354E+01  3.53627E+01  3.60041E+01
   3.65605E+01  3.69678E+01  3.72060E+01  3.73526E+01  3.75111E+01  3.77479E+01  3.80614E+01  3.83770E+01  3.85866E+01  3.88182E+01
   3.90778E+01  3.92362E+01  3.93992E+01  3.94520E+01  3.92062E+01  3.87189E+01  3.80707E+01  3.74933E+01  3.68878E+01  3.63667E+01
   3.62135E+01  3.65817E+01  3.73843E+01  3.83026E+01  3.92601E+01  4.02037E+01  4.07428E+01  4.04517E+01  3.93821E+01  3.80083E+01
   3.66764E+01  3.55165E+01  3.48831E+01  3.50838E+01  3.61199E+01  3.75975E+01  3.89886E+01  4.01996E+01  4.11952E+01  4.19014E+01
   4.23211E+01  4.25540E+01  4.27529E+01  4.28027E+01  4.26176E+01  4.24716E+01  4.24931E+01  4.26177E+01  4.27816E+01  4.28913E+01
   4.28364E+01  4.26234E+01  4.23468E+01  4.21590E+01  4.22371E+01  4.25898E+01  4.31345E+01  4.39112E+01  4.47255E+01  4.55123E+01
   4.70756E+01  5.13376E+01  5.65693E+01  6.13606E+01  6.61681E+01  7.11626E+01  7.61536E+01  8.12688E+01  8.68718E+01  9.24460E+01
   9.61392E+01  9.54742E+01  8.96061E+01  8.08484E+01  7.21830E+01  6.46959E+01  5.81933E+01  5.27491E+01  4.84687E+01  4.44680E+01
   4.03755E+01  3.79612E+01  3.69787E+01  3.63510E+01  3.58364E+01  3.53701E+01  3.48773E+01  3.43397E+01  3.37995E+01  3.32683E+01
   3.27505E+01  3.22569E+01  3.17951E+01  3.13601E+01  3.09492E+01  3.05683E+01  3.02242E+01  2.99232E+01  2.96677E+01  2.94673E+01
   2.93354E+01  2.92800E+01  2.93017E+01  2.94002E+01  2.95736E+01  2.98177E+01  3.01234E+01  3.04806E+01  3.08745E+01  3.12864E+01
   3.16959E+01  3.20778E+01  3.24011E+01  3.26378E+01  3.27615E+01  3.27487E+01  3.25817E+01  3.22494E+01  3.17483E+01  3.10817E+01
   3.02579E+01  2.92937E+01  2.82109E+01  2.70348E+01  2.57927E+01  2.45127E+01  2.32213E+01  2.19428E+01  2.06981E+01  1.95039E+01
   1.83725E+01  1.73120E+01  1.63263E+01  1.54158E+01  1.45781E+01  1.38085E+01  1.31009E+01  1.24483E+01  1.18437E+01  1.12799E+01
   1.07504E+01  1.02493E+01  9.77174E+00  9.31341E+00  8.87102E+00  8.44193E+00  8.02416E+00  7.61629E+00  7.21739E+00  6.82691E+00
   6.44460E+00  6.07036E+00  5.70427E+00  5.34651E+00  4.99739E+00  4.65721E+00  4.32627E+00  4.00480E+00  3.69300E+00  3.39101E+00
   3.09887E+00  2.81653E+00  2.54376E+00  2.28021E+00  2.02540E+00  1.77876E+00  1.53960E+00  1.30714E+00  1.08051E+00  8.58835E-01
   6.41265E-01  4.27044E-01  2.15512E-01  5.98618E-03 -2.02170E-01 -4.09363E-01 -6.15735E-01 -8.21158E-01 -1.02525E+00 -1.22740E+00
  -1.42676E+00 -1.62227E+00 -1.81268E+00 -1.99658E+00 -2.17251E+00 -2.33895E+00 -2.49432E+00 -2.63703E+00 -2.76551E+00 -2.87818E+00
  -2.97355E+00 -3.05015E+00 -3.10655E+00 -3.14133E+00 -3.15314E+00 -3.14071E+00 -3.10288E+00 -3.03861E+00 -2.94706E+00 -2.82762E+00
  -2.68003E+00 -2.50448E+00 -2.30170E+00 -2.07302E+00 -1.82050E+00 -1.54693E+00 -1.25596E+00 -9.52062E-01 -6.40483E-01 -3.27141E-01
  -1.84844E-02  2.78687E-01  5.57453E-01  8.11032E-01  1.03309E+00  1.21803E+00  1.36121E+00  1.45920E+00  1.50990E+00  1.51265E+00
   1.46831E+00  1.37914E+00  1.24872E+00  1.08174E+00  8.83729E-01  6.60848E-01  4.19571E-01  1.66431E-01 -9.22669E-02 -3.50658E-01
  -6.03489E-01 -8.46227E-01 -1.07513E+00 -1.28728E+00 -1.48059E+00 -1.65371E+00 -1.80600E+00 -1.93737E+00 -2.04820E+00 -2.13928E+00
  -2.21165E+00 -2.26657E+00 -2.30539E+00 -2.32951E+00 -2.34032E+00 -2.33918E+00 -2.32741E+00 -2.30620E+00 -2.27670E+00 -2.23990E+00
  -2.19673E+00 -2.14805E+00 -2.09460E+00 -2.03708E+00 -1.97609E+00 -1.91217E+00 -1.84583E+00 -1.77751E+00 -1.70763E+00 -1.63656E+00
  -1.56464E+00 -1.49217E+00 -1.41946E+00 -1.34672E+00 -1.27408E+00 -1.20159E+00 -1.12930E+00 -1.05726E+00 -9.85513E-01 -9.14089E-01
  -8.43011E-01 -7.72287E-01 -7.01918E-01 -6.31906E-01 -5.62257E-01 -4.92969E-01 -4.24030E-01 -3.55421E-01 -2.87124E-01 -2.19123E-01
  -1.51404E-01 -8.39450E-02 -1.67159E-02  5.03169E-02  1.17181E-01  1.83900E-01  2.50500E-01  3.17013E-01  3.83478E-01  4.49934E-01
   5.16410E-01  5.82938E-01  6.49550E-01  7.16291E-01  7.83201E-01  8.50323E-01  9.17688E-01  9.85333E-01  1.05330E+00  1.12163E+00
   1.19038E+00  1.25958E+00  1.32927E+00  1.39949E+00  1.47028E+00  1.54171E+00  1.61382E+00  1.68665E+00
 NY background values follow
     1.017E+02    1.010E+02    1.002E+02    9.947E+01    9.873E+01    9.798E+01    9.723E+01    9.649E+01    9.574E+01    9.499E+01
     9.425E+01    9.350E+01    9.276E+01    9.202E+01    9.127E+01    9.053E+01    8.979E+01    8.905E+01    8.832E+01    8.758E+01
     8.685E+01    8.612E+01    8.539E+01    8.467E+01    8.394E+01    8.322E+01    8.251E+01    8.179E+01    8.108E+01    8.038E+01
     7.967E+01    7.897E+01    7.828E+01    7.759E+01    7.690E+01    7.622E+01    7.554E+01    7.487E+01    7.420E+01    7.353E+01
     7.288E+01    7.222E+01    7.158E+01    7.094E+01    7.030E+01    6.967E+01    6.905E+01    6.843E+01    6.782E+01    6.722E+01
     6.662E+01    6.603E+01    6.544E+01    6.486E+01    6.429E+01    6.372E+01    6.316E+01    6.261E+01    6.206E+01    6.152E+01
     6.099E+01    6.046E+01    5.994E+01    5.943E+01    5.892E+01    5.842E+01    5.792E+01    5.743E+01    5.695E+01    5.648E+01
     5.601E+01    5.555E+01    5.509E+01    5.464E+01    5.420E+01    5.376E+01    5.334E+01    5.291E+01    5.250E+01    5.209E+01
     5.169E+01    5.129E+01    5.090E+01    5.052E+01    5.015E+01    4.978E+01    4.942E+01    4.907E+01    4.872E+01    4.838E+01
     4.804E+01    4.772E+01    4.740E+01    4.709E+01    4.678E+01    4.648E+01    4.619E+01    4.590E+01    4.562E+01    4.534E+01
     4.507E+01    4.481E+01    4.455E+01    4.430E+01    4.405E+01    4.381E+01    4.358E+01    4.334E+01    4.312E+01    4.290E+01
     4.268E+01    4.247E+01    4.226E+01    4.206E+01    4.186E+01    4.167E+01    4.148E+01    4.129E+01    4.111E+01    4.093E+01
     4.076E+01    4.058E+01    4.042E+01    4.025E+01    4.009E+01    3.993E+01    3.978E+01    3.962E+01    3.947E+01    3.933E+01
     3.918E+01    3.904E+01    3.890E+01    3.876E+01    3.862E+01    3.849E+01    3.836E+01    3.823E+01    3.810E+01    3.797E+01
     3.784E+01    3.772E+01    3.760E+01    3.748E+01    3.736E+01    3.725E+01    3.714E+01    3.703E+01    3.692E+01    3.682E+01
     3.671E+01    3.661E+01    3.652E+01    3.642E+01    3.633E+01    3.625E+01    3.616E+01    3.608E+01    3.600E+01    3.592E+01
     3.585E+01    3.578E+01    3.572E+01    3.566E+01    3.560E+01    3.554E+01    3.549E+01    3.545E+01    3.540E+01    3.537E+01
     3.533E+01    3.530E+01    3.527E+01    3.525E+01    3.523E+01    3.522E+01    3.521E+01    3.520E+01    3.520E+01    3.520E+01
     3.521E+01    3.523E+01    3.524E+01    3.527E+01    3.529E+01    3.532E+01    3.536E+01    3.540E+01    3.544E+01    3.548E+01
     3.553E+01    3.558E+01    3.564E+01    3.569E+01    3.575E+01    3.581E+01    3.587E+01    3.593E+01    3.600E+01    3.606E+01
     3.613E+01    3.620E+01    3.626E+01    3.633E+01    3.640E+01    3.647E+01    3.653E+01    3.660E+01    3.666E+01    3.673E+01
     3.679E+01    3.685E+01    3.691E+01    3.697E+01    3.702E+01    3.708E+01    3.713E+01    3.718E+01    3.722E+01    3.726E+01
     3.730E+01    3.733E+01    3.736E+01    3.739E+01    3.741E+01    3.743E+01    3.744E+01    3.745E+01    3.745E+01    3.745E+01
     3.744E+01    3.743E+01    3.741E+01    3.739E+01    3.736E+01    3.733E+01    3.729E+01    3.724E+01    3.719E+01    3.714E+01
     3.708E+01    3.701E+01    3.694E+01    3.686E+01    3.678E+01    3.669E+01    3.660E+01    3.650E+01    3.639E+01    3.628E+01
     3.616E+01    3.603E+01    3.590E+01    3.577E+01    3.562E+01    3.548E+01    3.532E+01    3.516E+01    3.499E+01    3.482E+01
     3.464E+01    3.445E+01    3.426E+01    3.406E+01    3.385E+01    3.364E+01    3.342E+01    3.319E+01    3.296E+01    3.272E+01
     3.247E+01    3.222E+01    3.196E+01    3.169E+01    3.142E+01    3.114E+01    3.085E+01    3.056E+01    3.026E+01    2.995E+01
     2.964E+01    2.933E+01    2.900E+01    2.867E+01    2.834E+01    2.800E+01    2.766E+01    2.731E+01    2.696E+01    2.660E+01
     2.624E+01    2.587E+01    2.550E+01    2.513E+01    2.475E+01    2.436E+01    2.398E+01    2.359E+01    2.319E+01    2.280E+01
     2.240E+01    2.199E+01    2.159E+01    2.118E+01    2.077E+01    2.035E+01    1.994E+01    1.952E+01    1.910E+01    1.867E+01
     1.825E+01    1.782E+01    1.740E+01    1.697E+01    1.654E+01    1.611E+01    1.567E+01    1.524E+01    1.481E+01    1.437E+01
     1.394E+01    1.350E+01    1.307E+01    1.263E+01    1.220E+01    1.177E+01    1.133E+01    1.090E+01    1.047E+01    1.005E+01
     9.620E+00    9.196E+00    8.775E+00    8.356E+00    7.939E+00    7.526E+00    7.115E+00    6.708E+00    6.304E+00    5.904E+00
     5.508E+00    5.116E+00    4.729E+00    4.346E+00    3.968E+00    3.595E+00    3.227E+00    2.864E+00    2.507E+00    2.156E+00
     1.811E+00    1.472E+00    1.140E+00    8.145E-01    4.957E-01    1.841E-01   -1.202E-01   -4.171E-01   -7.061E-01   -9.873E-01
    -1.260E+00   -1.525E+00   -1.781E+00   -2.028E+00   -2.267E+00   -2.498E+00   -2.720E+00   -2.934E+00   -3.140E+00   -3.338E+00
    -3.528E+00   -3.710E+00   -3.884E+00   -4.051E+00   -4.211E+00   -4.362E+00   -4.507E+00   -4.644E+00   -4.775E+00   -4.898E+00
    -5.014E+00   -5.124E+00   -5.226E+00   -5.323E+00   -5.412E+00   -5.495E+00   -5.572E+00   -5.643E+00   -5.708E+00   -5.766E+00
    -5.819E+00   -5.866E+00   -5.907E+00   -5.942E+00   -5.972E+00   -5.997E+00   -6.016E+00   -6.030E+00   -6.039E+00   -6.043E+00
    -6.042E+00   -6.036E+00   -6.026E+00   -6.010E+00   -5.991E+00   -5.967E+00   -5.938E+00   -5.906E+00   -5.869E+00   -5.828E+00
    -5.783E+00   -5.735E+00   -5.683E+00   -5.628E+00   -5.569E+00   -5.507E+00   -5.442E+00   -5.374E+00   -5.302E+00   -5.229E+00
    -5.152E+00   -5.073E+00   -4.992E+00   -4.909E+00   -4.823E+00   -4.735E+00   -4.646E+00   -4.554E+00   -4.462E+00   -4.367E+00
    -4.271E+00   -4.174E+00   -4.076E+00   -3.977E+00   -3.877E+00   -3.776E+00   -3.674E+00   -3.572E+00   -3.470E+00   -3.367E+00
    -3.264E+00   -3.161E+00   -3.059E+00   -2.956E+00   -2.854E+00   -2.752E+00   -2.651E+00   -2.551E+00   -2.451E+00   -2.353E+00
    -2.255E+00   -2.159E+00   -2.064E+00   -1.971E+00   -1.878E+00   -1.788E+00   -1.698E+00   -1.610E+00   -1.523E+00   -1.437E+00
    -1.352E+00   -1.269E+00   -1.186E+00   -1.104E+00   -1.024E+00   -9.437E-01   -8.646E-01   -7.864E-01   -7.088E-01   -6.320E-01
    -5.558E-01   -4.802E-01   -4.052E-01   -3.307E-01   -2.566E-01   -1.830E-01   -1.097E-01   -3.679E-02    3.588E-02    1.083E-01
     1.806E-01    2.527E-01    3.247E-01    3.967E-01    4.687E-01    5.407E-01    6.128E-01    6.850E-01    7.575E-01    8.302E-01
     9.031E-01    9.764E-01    1.050E+00    1.124E+00    1.199E+00    1.274E+00    1.349E+00    1.425E+00
 Asp      Conc. = 8.98E+01
