 LCModel (Version 6.3-1L) Copyright: S.W. Provencher.          Ref.: Magn. Reson. Med. 30:672-679 (1993).                
 Slice#3 Row#8 Col#5  PD_24_press_1_raw_act
 36 lines in following concentration table = NCONC+1
    Conc.  %SD /Cr+PCr  Metabolite                                         
  153.860  71% 7.9E-02 Ala                                                 
    0.000 999%   0.000 Asp                                                 
  863.428  26%   0.441 Cr                                                  
 1.10E+03  21%   0.559 PCr                                                 
    0.000 999%   0.000 GABA                                                
    0.000 999%   0.000 Glc                                                 
  552.336  40%   0.282 Gln                                                 
 1.79E+03  14%   0.911 Glu                                                 
  740.494   3%   0.378 GPC                                                 
    0.000 999%   0.000 PCh                                                 
  421.858  17%   0.215 GSH                                                 
  122.627 211% 6.3E-02 Ins                                                 
    0.000 999%   0.000 Lac                                                 
 2.35E+03   5%   1.200 NAA                                                 
  391.418  31%   0.200 NAAG                                                
   21.279 136% 1.1E-02 Scyllo                                              
    0.000 999%   0.000 Tau                                                 
    0.000 999%   0.000 -CrCH2                                              
  740.494   3%   0.378 GPC+PCh                                             
 2.74E+03   3%   1.400 NAA+NAAG                                            
 1.96E+03   3%   1.000 Cr+PCr                                              
 2.34E+03  15%   1.193 Glu+Gln                                             
 1.49E+03  29%   0.760 Lip13a                                              
    0.000 999%   0.000 Lip13b                                              
    0.000 999%   0.000 Lip09                                               
  721.027  28%   0.368 MM09                                                
  166.268 104% 8.5E-02 Lip20                                               
 1.09E+03  31%   0.557 MM20                                                
  216.616  42%   0.111 MM12                                                
 1.75E+03  15%   0.892+MM14                                                
  916.063  20%   0.467 MM17                                                
 1.49E+03  29%   0.760 Lip13a+Lip13b                                       
 3.46E+03  16%   1.763 MM14+Lip13a+Lip13b+MM12                             
  721.027  28%   0.368 MM09+Lip09                                          
 1.26E+03  29%   0.642 MM20+Lip20                                          
   6 lines in following misc. output table
  FWHM = 0.046 ppm    S/N =  12                                            
  Data shift = 0.023 ppm                                                   
  Ph: -22 deg      -6.0 deg/ppm                                            
  alphaB,S = 5.0E-01,   9.5E+01                                            
   14 spline knots.   Ns = 6(1)                                            
  ( 9) 2 infls.   ( 3) 1 extrs.                                            
  498 points on ppm-axis = NY
      4.000000     3.992357     3.984714     3.977070     3.969427     3.961784     3.954141     3.946497     3.938854     3.931211
      3.923568     3.915925     3.908281     3.900638     3.892995     3.885352     3.877708     3.870065     3.862422     3.854779
      3.847136     3.839492     3.831849     3.824206     3.816563     3.808919     3.801276     3.793633     3.785990     3.778347
      3.770703     3.763060     3.755417     3.747774     3.740130     3.732487     3.724844     3.717201     3.709558     3.701914
      3.694271     3.686628     3.678985     3.671341     3.663698     3.656055     3.648412     3.640769     3.633125     3.625482
      3.617839     3.610196     3.602552     3.594909     3.587266     3.579623     3.571980     3.564336     3.556693     3.549050
      3.541407     3.533763     3.526120     3.518477     3.510834     3.503191     3.495547     3.487904     3.480261     3.472618
      3.464974     3.457331     3.449688     3.442045     3.434402     3.426758     3.419115     3.411472     3.403829     3.396185
      3.388542     3.380899     3.373256     3.365613     3.357969     3.350326     3.342683     3.335040     3.327396     3.319753
      3.312110     3.304467     3.296824     3.289180     3.281537     3.273894     3.266251     3.258607     3.250964     3.243321
      3.235678     3.228034     3.220391     3.212748     3.205105     3.197462     3.189818     3.182175     3.174532     3.166889
      3.159245     3.151602     3.143959     3.136316     3.128673     3.121029     3.113386     3.105743     3.098100     3.090456
      3.082813     3.075170     3.067527     3.059884     3.052240     3.044597     3.036954     3.029311     3.021667     3.014024
      3.006381     2.998738     2.991095     2.983451     2.975808     2.968165     2.960522     2.952878     2.945235     2.937592
      2.929949     2.922306     2.914662     2.907019     2.899376     2.891733     2.884089     2.876446     2.868803     2.861160
      2.853517     2.845873     2.838230     2.830587     2.822944     2.815300     2.807657     2.800014     2.792371     2.784728
      2.777084     2.769441     2.761798     2.754155     2.746511     2.738868     2.731225     2.723582     2.715939     2.708295
      2.700652     2.693009     2.685366     2.677722     2.670079     2.662436     2.654793     2.647150     2.639506     2.631863
      2.624220     2.616577     2.608933     2.601290     2.593647     2.586004     2.578361     2.570717     2.563074     2.555431
      2.547788     2.540144     2.532501     2.524858     2.517215     2.509572     2.501928     2.494285     2.486642     2.478999
      2.471355     2.463712     2.456069     2.448426     2.440783     2.433139     2.425496     2.417853     2.410210     2.402566
      2.394923     2.387280     2.379637     2.371994     2.364350     2.356707     2.349064     2.341421     2.333777     2.326134
      2.318491     2.310848     2.303205     2.295561     2.287918     2.280275     2.272632     2.264988     2.257345     2.249702
      2.242059     2.234416     2.226772     2.219129     2.211486     2.203843     2.196199     2.188556     2.180913     2.173270
      2.165627     2.157983     2.150340     2.142697     2.135054     2.127410     2.119767     2.112124     2.104481     2.096838
      2.089194     2.081551     2.073908     2.066265     2.058621     2.050978     2.043335     2.035692     2.028049     2.020405
      2.012762     2.005119     1.997476     1.989833     1.982190     1.974546     1.966903     1.959260     1.951617     1.943974
      1.936331     1.928688     1.921045     1.913402     1.905759     1.898115     1.890472     1.882829     1.875186     1.867543
      1.859900     1.852257     1.844614     1.836971     1.829327     1.821684     1.814041     1.806398     1.798755     1.791112
      1.783469     1.775826     1.768183     1.760540     1.752896     1.745253     1.737610     1.729967     1.722324     1.714681
      1.707038     1.699395     1.691752     1.684108     1.676465     1.668822     1.661179     1.653536     1.645893     1.638250
      1.630607     1.622964     1.615321     1.607677     1.600034     1.592391     1.584748     1.577105     1.569462     1.561819
      1.554176     1.546533     1.538890     1.531246     1.523603     1.515960     1.508317     1.500674     1.493031     1.485388
      1.477745     1.470102     1.462458     1.454815     1.447172     1.439529     1.431886     1.424243     1.416600     1.408957
      1.401314     1.393671     1.386027     1.378384     1.370741     1.363098     1.355455     1.347812     1.340169     1.332526
      1.324883     1.317240     1.309596     1.301953     1.294310     1.286667     1.279024     1.271381     1.263738     1.256095
      1.248452     1.240808     1.233165     1.225522     1.217879     1.210236     1.202593     1.194950     1.187307     1.179664
      1.172021     1.164377     1.156734     1.149091     1.141448     1.133805     1.126162     1.118519     1.110876     1.103233
      1.095590     1.087946     1.080303     1.072660     1.065017     1.057374     1.049731     1.042088     1.034445     1.026802
      1.019158     1.011515     1.003872     0.996229     0.988586     0.980943     0.973300     0.965657     0.958014     0.950371
      0.942727     0.935084     0.927441     0.919798     0.912155     0.904512     0.896869     0.889226     0.881583     0.873940
      0.866296     0.858653     0.851010     0.843367     0.835724     0.828081     0.820438     0.812795     0.805152     0.797508
      0.789865     0.782222     0.774579     0.766936     0.759293     0.751650     0.744007     0.736364     0.728721     0.721077
      0.713434     0.705791     0.698148     0.690505     0.682862     0.675219     0.667576     0.659933     0.652290     0.644646
      0.637003     0.629360     0.621717     0.614074     0.606431     0.598788     0.591145     0.583502     0.575858     0.568215
      0.560572     0.552929     0.545286     0.537643     0.530000     0.522357     0.514714     0.507071     0.499427     0.491784
      0.484141     0.476498     0.468855     0.461212     0.453569     0.445925     0.438282     0.430639     0.422996     0.415353
      0.407710     0.400067     0.392424     0.384780     0.377137     0.369494     0.361851     0.354208     0.346565     0.338922
      0.331278     0.323635     0.315992     0.308349     0.300706     0.293063     0.285420     0.277777     0.270133     0.262490
      0.254847     0.247204     0.239561     0.231918     0.224275     0.216631     0.208988     0.201345
 NY phased data points follow
   5.69686E+01  4.95347E+01  5.80211E+01  5.49684E+01  5.99221E+01  6.27684E+01  7.20915E+01  7.26276E+01  8.52618E+01  9.19932E+01
   9.82029E+01  9.38388E+01  9.56178E+01  8.85881E+01  8.17547E+01  7.04188E+01  6.72228E+01  5.43066E+01  5.80255E+01  4.68451E+01
   5.31084E+01  4.56726E+01  5.13481E+01  4.23112E+01  4.95414E+01  4.26587E+01  4.51767E+01  4.59733E+01  5.42331E+01  4.89733E+01
   5.50514E+01  5.30776E+01  5.33735E+01  5.35030E+01  5.27036E+01  4.78915E+01  4.56998E+01  4.15874E+01  4.25731E+01  4.39017E+01
   4.52350E+01  4.57781E+01  4.45336E+01  4.02051E+01  4.92146E+01  4.21076E+01  4.49040E+01  4.51424E+01  4.72558E+01  4.47685E+01
   4.08921E+01  3.64989E+01  4.40302E+01  3.30169E+01  3.47189E+01  3.11530E+01  3.68690E+01  3.25319E+01  3.67747E+01  2.68535E+01
   3.54875E+01  3.06531E+01  2.95643E+01  2.45990E+01  3.19430E+01  2.11490E+01  2.26022E+01  1.97058E+01  2.49187E+01  1.86967E+01
   2.71760E+01  2.40010E+01  2.21975E+01  2.47935E+01  2.51682E+01  1.93151E+01  2.66886E+01  2.21484E+01  2.30448E+01  2.11405E+01
   2.31750E+01  2.26681E+01  2.50299E+01  2.18192E+01  2.62325E+01  2.07082E+01  2.72018E+01  2.22925E+01  2.27789E+01  2.60614E+01
   2.22476E+01  2.41774E+01  2.37139E+01  2.11441E+01  2.73230E+01  1.99058E+01  2.68690E+01  2.52441E+01  3.75176E+01  4.44972E+01
   6.54728E+01  7.84371E+01  9.38755E+01  9.04518E+01  8.63133E+01  7.93944E+01  6.78015E+01  5.36227E+01  4.74541E+01  3.40120E+01
   3.14619E+01  2.70657E+01  2.60192E+01  1.95444E+01  2.02865E+01  2.28507E+01  2.44088E+01  2.29127E+01  2.47405E+01  2.40368E+01
   2.01372E+01  2.72809E+01  2.50814E+01  3.88233E+01  4.42143E+01  6.00894E+01  7.97529E+01  8.57476E+01  7.84222E+01  7.33394E+01
   6.51561E+01  5.03362E+01  3.72548E+01  3.89027E+01  2.76715E+01  2.33061E+01  2.29282E+01  1.92221E+01  2.31828E+01  1.49705E+01
   2.15530E+01  1.73690E+01  1.73366E+01  1.64746E+01  1.68894E+01  9.86448E+00  9.00772E+00  1.74514E+01  1.91003E+01  1.21082E+01
   1.73110E+01  1.48459E+01  1.30962E+01  1.01398E+01  1.16488E+01  1.12300E+01  1.41304E+01  1.68230E+01  1.12870E+01  1.06723E+01
   1.00318E+01  7.68131E+00  1.03365E+01  7.00089E+00  1.12398E+01  1.07732E+01  1.19717E+01  1.43045E+01  9.43481E+00  3.79370E+00
   1.74554E+00  1.90786E+00  4.44109E+00 -2.33093E+00  3.56175E-01 -3.86863E+00  7.91631E-01  1.76460E+00  2.96881E+00  2.94055E+00
   3.46197E+00 -1.59854E+00  1.95986E+00 -1.32998E+00 -8.81884E-01  1.21547E+00  5.48579E+00  4.73154E+00  6.96963E+00  1.36047E+01
   1.72817E+01  1.53986E+01  1.76765E+01  1.39017E+01  2.05432E+01  2.06998E+01  2.23637E+01  1.37771E+01  8.38647E+00  9.66296E+00
   1.25837E+01  7.81307E+00  1.13370E+01  1.37677E+01  1.47802E+01  1.83849E+01  8.08385E+00  6.23352E+00  1.06691E+01  2.41597E+00
   4.99359E+00  2.54100E+00  1.19632E+01  1.64175E+01  1.56637E+01  2.35495E+01  2.50354E+01  2.45938E+01  2.11249E+01  1.31476E+01
   6.07383E+00  3.52983E+00  8.85839E+00  3.52269E+00  1.22872E+01  1.55657E+01  1.23764E+01  2.13633E+01  1.81863E+01  1.98173E+01
   2.14926E+01  1.89024E+01  1.74286E+01  1.81458E+01  1.67853E+01  1.03848E+01  1.86938E+01  1.81345E+01  1.90428E+01  1.25391E+01
   1.39963E+01  7.58809E+00  1.31074E+01  1.36544E+01  1.53775E+01  1.40199E+01  1.60917E+01  1.92613E+01  2.13872E+01  2.26639E+01
   2.10749E+01  2.36165E+01  3.27792E+01  3.50496E+01  4.22150E+01  4.50514E+01  5.47709E+01  7.41397E+01  9.52016E+01  1.08621E+02
   1.11395E+02  1.01198E+02  8.55778E+01  6.47946E+01  4.96505E+01  3.96900E+01  3.17766E+01  2.64808E+01  2.28140E+01  2.50062E+01
   2.08822E+01  1.70123E+01  1.73001E+01  1.27266E+01  1.56503E+01  1.93140E+01  1.51515E+01  1.52893E+01  2.07756E+01  2.03619E+01
   2.29474E+01  1.77059E+01  1.55128E+01  1.91185E+01  1.25276E+01  1.62610E+01  2.02828E+01  1.65434E+01  1.67895E+01  1.55232E+01
   1.95207E+01  1.42540E+01  2.18573E+01  1.70427E+01  1.93547E+01  1.75166E+01  1.96053E+01  2.53647E+01  2.52771E+01  2.51581E+01
   2.43910E+01  2.67321E+01  1.90056E+01  2.71342E+01  2.82756E+01  2.52073E+01  2.66508E+01  2.42077E+01  2.81138E+01  2.63783E+01
   2.70505E+01  2.47251E+01  2.33569E+01  2.79200E+01  2.52226E+01  2.34786E+01  2.67031E+01  3.03114E+01  3.27854E+01  2.92933E+01
   2.40597E+01  2.63129E+01  3.24238E+01  2.56952E+01  2.97618E+01  2.91471E+01  3.47694E+01  2.88621E+01  2.90573E+01  2.49097E+01
   2.34224E+01  2.71455E+01  3.23286E+01  2.43665E+01  3.35539E+01  2.42888E+01  2.82747E+01  2.38226E+01  2.89523E+01  2.45928E+01
   2.48343E+01  1.93931E+01  2.79310E+01  1.74682E+01  2.42437E+01  2.38618E+01  2.30380E+01  2.36137E+01  2.09904E+01  1.75146E+01
   1.96594E+01  1.94173E+01  2.48386E+01  2.22486E+01  1.68026E+01  2.00710E+01  1.74365E+01  2.00560E+01  1.72965E+01  1.69493E+01
   1.32123E+01  1.47952E+01  1.61869E+01  1.65714E+01  1.31299E+01  1.63198E+01  1.48277E+01  1.35187E+01  9.05254E+00  1.24319E+01
   1.43896E+01  1.55958E+01  1.35873E+01  1.26808E+01  1.30352E+01  1.59886E+01  1.44767E+01  1.31813E+01  1.11372E+01  1.27366E+01
   1.46572E+01  1.28254E+01  9.44386E+00  9.67830E+00  1.03498E+01  1.33162E+01  9.06136E+00  7.79455E+00  9.76671E+00  5.34961E+00
   7.68909E+00  8.20754E+00  6.56950E+00  6.75564E+00  5.64120E+00  1.16020E+01  9.35342E+00  1.07831E+01  9.74279E+00  6.54991E+00
   9.41186E+00  8.66037E+00  7.36110E+00  9.29641E+00  5.52840E+00  9.68812E+00  1.22552E+01  9.00243E+00  1.14755E+01  7.38321E+00
   1.14281E+01  7.78191E+00  8.52175E+00  1.20361E+01  5.75684E+00  3.10917E+00  4.53624E+00  4.27792E+00  5.04657E+00  3.56697E+00
   3.11378E+00  4.89765E+00  1.78650E+00  3.60604E+00  6.78853E+00  3.55978E+00 -3.32860E-01  4.12020E+00  2.10556E+00  9.56154E-01
   5.63943E+00  4.99465E+00  1.81213E+00 -1.84242E+00  3.65881E+00  5.19898E+00 -1.51250E+00  6.70582E+00  3.03564E+00 -2.39041E+00
  -9.82703E-01  2.70486E+00  2.45982E+00  6.78998E-01  7.05826E+00  5.19747E+00  6.82962E+00  3.30444E+00  5.57303E+00  2.64649E+00
   2.96561E+00  5.35585E+00  1.52039E+00 -8.55290E-01  3.19445E+00 -1.51881E+00  5.29907E+00  3.51973E+00  2.66650E+00  5.13048E+00
   2.11828E+00 -3.65181E+00  2.96919E-01  2.64320E+00  1.88787E+00  4.41209E+00  3.86849E+00  1.80355E+00  2.77989E+00  6.28014E+00
   4.92788E+00 -1.37142E+00  4.15018E+00  1.38783E+00  1.25019E+00  3.02480E+00  7.04776E+00  1.21400E+00  6.83079E-01  5.51828E+00
  -1.77057E+00  9.90982E-01  1.07047E+00  1.33846E+00  2.58780E+00 -2.94243E-02  1.25699E+00  1.96714E+00  5.83879E-01  2.56169E+00
   3.20501E+00  1.71989E+00  2.88048E+00  2.36974E+00  3.81425E+00  3.71783E+00  5.57636E+00  1.74872E+00
 NY points of the fit to the data follow
   5.23615E+01  5.23442E+01  5.26342E+01  5.36236E+01  5.59675E+01  5.99720E+01  6.63572E+01  7.47357E+01  8.37374E+01  9.12638E+01
   9.53334E+01  9.50460E+01  9.08634E+01  8.43694E+01  7.73012E+01  7.06192E+01  6.45928E+01  5.95643E+01  5.58962E+01  5.32009E+01
   5.16736E+01  5.07063E+01  4.97178E+01  4.85372E+01  4.73339E+01  4.63685E+01  4.58888E+01  4.65347E+01  4.85564E+01  5.13752E+01
   5.39189E+01  5.54323E+01  5.54878E+01  5.39514E+01  5.12777E+01  4.82668E+01  4.54313E+01  4.31245E+01  4.17757E+01  4.14537E+01
   4.16650E+01  4.20727E+01  4.23878E+01  4.25446E+01  4.25254E+01  4.22906E+01  4.17902E+01  4.11577E+01  4.06345E+01  4.01250E+01
   3.94932E+01  3.88322E+01  3.81288E+01  3.72719E+01  3.63886E+01  3.56114E+01  3.48743E+01  3.41227E+01  3.34388E+01  3.28349E+01
   3.22665E+01  3.17005E+01  3.11260E+01  3.05786E+01  3.00844E+01  2.96445E+01  2.92527E+01  2.89013E+01  2.85855E+01  2.82935E+01
   2.80122E+01  2.77227E+01  2.74157E+01  2.70935E+01  2.67624E+01  2.64314E+01  2.61090E+01  2.57995E+01  2.55019E+01  2.52221E+01
   2.50019E+01  2.48546E+01  2.47808E+01  2.47864E+01  2.48124E+01  2.47449E+01  2.45082E+01  2.41249E+01  2.36728E+01  2.32254E+01
   2.28442E+01  2.25579E+01  2.23457E+01  2.22000E+01  2.22050E+01  2.24988E+01  2.36630E+01  2.75959E+01  3.51145E+01  4.67406E+01
   6.26845E+01  7.96654E+01  9.18574E+01  9.52001E+01  8.99945E+01  7.91564E+01  6.59771E+01  5.35269E+01  4.33503E+01  3.46834E+01
   2.70046E+01  2.24572E+01  2.08221E+01  2.00602E+01  1.95845E+01  1.92504E+01  1.90062E+01  1.88293E+01  1.87339E+01  1.88052E+01
   1.93445E+01  2.16477E+01  2.72215E+01  3.61581E+01  4.92056E+01  6.48366E+01  7.82881E+01  8.47393E+01  8.29548E+01  7.50420E+01
   6.39536E+01  5.25267E+01  4.27103E+01  3.43099E+01  2.62527E+01  1.98297E+01  1.68751E+01  1.56339E+01  1.52530E+01  1.54474E+01
   1.58722E+01  1.62445E+01  1.64672E+01  1.64777E+01  1.62538E+01  1.58862E+01  1.54548E+01  1.49974E+01  1.45511E+01  1.40907E+01
   1.36694E+01  1.32887E+01  1.29492E+01  1.27019E+01  1.25600E+01  1.24342E+01  1.22533E+01  1.19037E+01  1.13396E+01  1.07313E+01
   1.03026E+01  1.02408E+01  1.04756E+01  1.07088E+01  1.06485E+01  1.02106E+01  9.53680E+00  8.86807E+00  8.33773E+00  7.87915E+00
   7.41507E+00  6.87274E+00  6.27515E+00  5.73106E+00  5.32367E+00  5.17762E+00  5.35281E+00  5.63040E+00  5.76217E+00  5.73371E+00
   5.66195E+00  5.64347E+00  5.77065E+00  5.95718E+00  6.09326E+00  6.41961E+00  7.31241E+00  8.79882E+00  1.06031E+01  1.22916E+01
   1.35391E+01  1.41650E+01  1.41248E+01  1.36390E+01  1.28706E+01  1.18679E+01  1.09707E+01  1.05894E+01  1.09292E+01  1.19331E+01
   1.34412E+01  1.51376E+01  1.65147E+01  1.71673E+01  1.67981E+01  1.55012E+01  1.33131E+01  1.05621E+01  8.03623E+00  6.40299E+00
   6.14690E+00  7.43922E+00  1.01509E+01  1.38872E+01  1.76544E+01  2.01878E+01  2.06148E+01  1.88558E+01  1.53217E+01  1.09695E+01
   6.83195E+00  3.92216E+00  3.04573E+00  4.22125E+00  7.03329E+00  1.06127E+01  1.38326E+01  1.61387E+01  1.74208E+01  1.78859E+01
   1.77155E+01  1.71622E+01  1.67223E+01  1.67748E+01  1.72761E+01  1.80678E+01  1.88161E+01  1.90676E+01  1.87025E+01  1.77559E+01
   1.64176E+01  1.51668E+01  1.45914E+01  1.48892E+01  1.57701E+01  1.69188E+01  1.80770E+01  1.90117E+01  1.96363E+01  2.03083E+01
   2.16748E+01  2.38336E+01  2.70610E+01  3.16708E+01  3.90017E+01  4.88710E+01  6.12340E+01  7.73260E+01  9.44370E+01  1.06240E+02
   1.08052E+02  1.00303E+02  8.62879E+01  6.98408E+01  5.49913E+01  4.34217E+01  3.38013E+01  2.49490E+01  1.96655E+01  1.81815E+01
   1.76513E+01  1.74415E+01  1.74688E+01  1.76206E+01  1.77104E+01  1.77159E+01  1.76474E+01  1.75219E+01  1.73702E+01  1.72367E+01
   1.71359E+01  1.70716E+01  1.70570E+01  1.70897E+01  1.71403E+01  1.71844E+01  1.72288E+01  1.72963E+01  1.74061E+01  1.75627E+01
   1.77765E+01  1.80535E+01  1.83828E+01  1.87480E+01  1.91423E+01  1.95605E+01  2.00015E+01  2.04681E+01  2.09594E+01  2.14711E+01
   2.19980E+01  2.25251E+01  2.30340E+01  2.35063E+01  2.39283E+01  2.42916E+01  2.45900E+01  2.48181E+01  2.49815E+01  2.50878E+01
   2.51464E+01  2.51701E+01  2.51738E+01  2.51734E+01  2.51854E+01  2.52251E+01  2.53059E+01  2.54393E+01  2.56351E+01  2.59039E+01
   2.62645E+01  2.67437E+01  2.72885E+01  2.78406E+01  2.83142E+01  2.85320E+01  2.83558E+01  2.78149E+01  2.70737E+01  2.63474E+01
   2.57859E+01  2.54725E+01  2.54788E+01  2.57615E+01  2.61777E+01  2.65659E+01  2.67094E+01  2.65142E+01  2.60427E+01  2.54066E+01
   2.47235E+01  2.40285E+01  2.32946E+01  2.26045E+01  2.20401E+01  2.15629E+01  2.11495E+01  2.07887E+01  2.04721E+01  2.01915E+01
   1.99389E+01  1.97061E+01  1.94856E+01  1.92700E+01  1.90525E+01  1.88272E+01  1.85890E+01  1.83345E+01  1.80612E+01  1.77679E+01
   1.74545E+01  1.71215E+01  1.67705E+01  1.64040E+01  1.60252E+01  1.56371E+01  1.52433E+01  1.48470E+01  1.44518E+01  1.40611E+01
   1.36782E+01  1.33058E+01  1.29462E+01  1.26016E+01  1.22739E+01  1.19648E+01  1.16758E+01  1.14077E+01  1.11614E+01  1.09375E+01
   1.07369E+01  1.05602E+01  1.04076E+01  1.02794E+01  1.01757E+01  1.00965E+01  1.00419E+01  1.00113E+01  1.00040E+01  1.00185E+01
   1.00533E+01  1.01060E+01  1.01741E+01  1.02540E+01  1.03415E+01  1.04320E+01  1.05203E+01  1.06011E+01  1.06691E+01  1.07184E+01
   1.07438E+01  1.07406E+01  1.07047E+01  1.06333E+01  1.05244E+01  1.03772E+01  1.01920E+01  9.97054E+00  9.71583E+00  9.43163E+00
   9.12244E+00  8.79325E+00  8.44945E+00  8.09663E+00  7.74025E+00  7.38534E+00  7.03630E+00  6.69693E+00  6.37041E+00  6.05931E+00
   5.76545E+00  5.48987E+00  5.23296E+00  4.99468E+00  4.77463E+00  4.57217E+00  4.38634E+00  4.21593E+00  4.05964E+00  3.91623E+00
   3.78458E+00  3.66361E+00  3.55222E+00  3.44930E+00  3.35390E+00  3.26525E+00  3.18274E+00  3.10578E+00  3.03376E+00  2.96609E+00
   2.90237E+00  2.84230E+00  2.78564E+00  2.73212E+00  2.68141E+00  2.63322E+00  2.58739E+00  2.54387E+00  2.50254E+00  2.46323E+00
   2.42571E+00  2.38988E+00  2.35570E+00  2.32316E+00  2.29219E+00  2.26265E+00  2.23438E+00  2.20735E+00  2.18157E+00  2.15704E+00
   2.13368E+00  2.11134E+00  2.08995E+00  2.06952E+00  2.05008E+00  2.03161E+00  2.01400E+00  1.99714E+00  1.98099E+00  1.96561E+00
   1.95101E+00  1.93713E+00  1.92388E+00  1.91116E+00  1.89900E+00  1.88745E+00  1.87650E+00  1.86606E+00  1.85603E+00  1.84637E+00
   1.83714E+00  1.82836E+00  1.82001E+00  1.81197E+00  1.80418E+00  1.79665E+00  1.78944E+00  1.78255E+00  1.77593E+00  1.76946E+00
   1.76313E+00  1.75699E+00  1.75107E+00  1.74538E+00  1.73983E+00  1.73436E+00  1.72899E+00  1.72380E+00
 NY background values follow
     5.211E+01    5.173E+01    5.135E+01    5.097E+01    5.059E+01    5.021E+01    4.983E+01    4.945E+01    4.907E+01    4.868E+01
     4.830E+01    4.792E+01    4.754E+01    4.716E+01    4.678E+01    4.640E+01    4.602E+01    4.564E+01    4.527E+01    4.489E+01
     4.451E+01    4.413E+01    4.376E+01    4.338E+01    4.301E+01    4.264E+01    4.227E+01    4.190E+01    4.153E+01    4.116E+01
     4.079E+01    4.042E+01    4.006E+01    3.969E+01    3.933E+01    3.897E+01    3.861E+01    3.826E+01    3.790E+01    3.755E+01
     3.719E+01    3.684E+01    3.649E+01    3.615E+01    3.580E+01    3.546E+01    3.512E+01    3.478E+01    3.444E+01    3.411E+01
     3.378E+01    3.344E+01    3.312E+01    3.279E+01    3.247E+01    3.215E+01    3.183E+01    3.151E+01    3.119E+01    3.088E+01
     3.057E+01    3.026E+01    2.996E+01    2.965E+01    2.935E+01    2.906E+01    2.876E+01    2.847E+01    2.817E+01    2.788E+01
     2.760E+01    2.731E+01    2.703E+01    2.675E+01    2.648E+01    2.620E+01    2.593E+01    2.566E+01    2.539E+01    2.513E+01
     2.487E+01    2.461E+01    2.435E+01    2.410E+01    2.385E+01    2.360E+01    2.335E+01    2.311E+01    2.287E+01    2.263E+01
     2.240E+01    2.216E+01    2.194E+01    2.171E+01    2.148E+01    2.126E+01    2.104E+01    2.083E+01    2.061E+01    2.040E+01
     2.019E+01    1.999E+01    1.978E+01    1.958E+01    1.938E+01    1.919E+01    1.899E+01    1.880E+01    1.861E+01    1.842E+01
     1.824E+01    1.805E+01    1.787E+01    1.769E+01    1.751E+01    1.734E+01    1.717E+01    1.700E+01    1.683E+01    1.666E+01
     1.649E+01    1.633E+01    1.617E+01    1.601E+01    1.585E+01    1.570E+01    1.554E+01    1.539E+01    1.524E+01    1.509E+01
     1.494E+01    1.480E+01    1.465E+01    1.451E+01    1.437E+01    1.423E+01    1.409E+01    1.395E+01    1.382E+01    1.368E+01
     1.355E+01    1.342E+01    1.329E+01    1.317E+01    1.304E+01    1.292E+01    1.280E+01    1.268E+01    1.256E+01    1.244E+01
     1.233E+01    1.222E+01    1.211E+01    1.200E+01    1.189E+01    1.179E+01    1.169E+01    1.159E+01    1.150E+01    1.140E+01
     1.131E+01    1.123E+01    1.114E+01    1.106E+01    1.098E+01    1.090E+01    1.083E+01    1.075E+01    1.068E+01    1.062E+01
     1.056E+01    1.050E+01    1.044E+01    1.039E+01    1.033E+01    1.029E+01    1.024E+01    1.020E+01    1.016E+01    1.013E+01
     1.010E+01    1.007E+01    1.005E+01    1.003E+01    1.001E+01    9.997E+00    9.987E+00    9.979E+00    9.975E+00    9.974E+00
     9.975E+00    9.980E+00    9.987E+00    9.998E+00    1.001E+01    1.003E+01    1.004E+01    1.006E+01    1.009E+01    1.011E+01
     1.014E+01    1.017E+01    1.020E+01    1.024E+01    1.027E+01    1.031E+01    1.035E+01    1.039E+01    1.044E+01    1.048E+01
     1.053E+01    1.058E+01    1.063E+01    1.068E+01    1.074E+01    1.079E+01    1.085E+01    1.090E+01    1.096E+01    1.102E+01
     1.108E+01    1.114E+01    1.120E+01    1.126E+01    1.133E+01    1.139E+01    1.146E+01    1.152E+01    1.159E+01    1.165E+01
     1.172E+01    1.179E+01    1.185E+01    1.192E+01    1.199E+01    1.206E+01    1.213E+01    1.219E+01    1.226E+01    1.233E+01
     1.240E+01    1.247E+01    1.254E+01    1.261E+01    1.268E+01    1.274E+01    1.281E+01    1.288E+01    1.295E+01    1.301E+01
     1.308E+01    1.315E+01    1.322E+01    1.328E+01    1.335E+01    1.341E+01    1.348E+01    1.354E+01    1.360E+01    1.367E+01
     1.373E+01    1.379E+01    1.385E+01    1.391E+01    1.397E+01    1.402E+01    1.408E+01    1.414E+01    1.419E+01    1.425E+01
     1.430E+01    1.435E+01    1.440E+01    1.445E+01    1.450E+01    1.454E+01    1.459E+01    1.463E+01    1.468E+01    1.472E+01
     1.476E+01    1.480E+01    1.483E+01    1.487E+01    1.490E+01    1.493E+01    1.496E+01    1.499E+01    1.502E+01    1.504E+01
     1.506E+01    1.508E+01    1.510E+01    1.512E+01    1.513E+01    1.515E+01    1.516E+01    1.516E+01    1.517E+01    1.517E+01
     1.517E+01    1.517E+01    1.517E+01    1.516E+01    1.515E+01    1.514E+01    1.513E+01    1.511E+01    1.509E+01    1.507E+01
     1.505E+01    1.502E+01    1.499E+01    1.496E+01    1.492E+01    1.488E+01    1.484E+01    1.479E+01    1.474E+01    1.469E+01
     1.464E+01    1.458E+01    1.452E+01    1.446E+01    1.439E+01    1.432E+01    1.425E+01    1.418E+01    1.410E+01    1.403E+01
     1.395E+01    1.386E+01    1.378E+01    1.369E+01    1.360E+01    1.351E+01    1.342E+01    1.332E+01    1.322E+01    1.312E+01
     1.302E+01    1.292E+01    1.281E+01    1.271E+01    1.260E+01    1.249E+01    1.238E+01    1.227E+01    1.215E+01    1.204E+01
     1.192E+01    1.180E+01    1.168E+01    1.156E+01    1.144E+01    1.132E+01    1.120E+01    1.107E+01    1.095E+01    1.082E+01
     1.070E+01    1.057E+01    1.044E+01    1.032E+01    1.019E+01    1.006E+01    9.928E+00    9.798E+00    9.668E+00    9.538E+00
     9.408E+00    9.277E+00    9.147E+00    9.016E+00    8.886E+00    8.756E+00    8.626E+00    8.496E+00    8.367E+00    8.238E+00
     8.109E+00    7.981E+00    7.854E+00    7.727E+00    7.601E+00    7.475E+00    7.351E+00    7.227E+00    7.104E+00    6.983E+00
     6.862E+00    6.742E+00    6.624E+00    6.507E+00    6.391E+00    6.276E+00    6.163E+00    6.051E+00    5.941E+00    5.832E+00
     5.726E+00    5.620E+00    5.517E+00    5.415E+00    5.315E+00    5.217E+00    5.122E+00    5.028E+00    4.936E+00    4.847E+00
     4.759E+00    4.673E+00    4.590E+00    4.508E+00    4.428E+00    4.351E+00    4.275E+00    4.201E+00    4.128E+00    4.058E+00
     3.989E+00    3.922E+00    3.857E+00    3.794E+00    3.732E+00    3.672E+00    3.613E+00    3.557E+00    3.501E+00    3.447E+00
     3.395E+00    3.344E+00    3.295E+00    3.247E+00    3.201E+00    3.156E+00    3.112E+00    3.070E+00    3.029E+00    2.989E+00
     2.951E+00    2.914E+00    2.878E+00    2.843E+00    2.810E+00    2.777E+00    2.746E+00    2.716E+00    2.687E+00    2.658E+00
     2.631E+00    2.605E+00    2.580E+00    2.556E+00    2.533E+00    2.510E+00    2.489E+00    2.468E+00    2.448E+00    2.429E+00
     2.411E+00    2.393E+00    2.376E+00    2.360E+00    2.345E+00    2.330E+00    2.316E+00    2.302E+00    2.289E+00    2.276E+00
     2.264E+00    2.253E+00    2.242E+00    2.231E+00    2.221E+00    2.211E+00    2.202E+00    2.193E+00    2.184E+00    2.176E+00
     2.168E+00    2.160E+00    2.152E+00    2.145E+00    2.137E+00    2.130E+00    2.123E+00    2.116E+00    2.110E+00    2.103E+00
     2.096E+00    2.089E+00    2.083E+00    2.076E+00    2.069E+00    2.062E+00    2.055E+00    2.048E+00
 Ala      Conc. = 1.54E+02
