 LCModel (Version 6.3-1L) Copyright: S.W. Provencher.          Ref.: Magn. Reson. Med. 30:672-679 (1993).                
 Slice#1 Row#12 Col#11  PD_24_press_1_raw_act
 36 lines in following concentration table = NCONC+1
    Conc.  %SD /Cr+PCr  Metabolite                                         
  106.588  68%   0.429 Ala                                                 
   54.093 120%   0.218 Asp                                                 
  184.180  47%   0.742 Cr                                                  
   64.058 140%   0.258 PCr                                                 
   39.336 105%   0.158 GABA                                                
   41.001  99%   0.165 Glc                                                 
  156.135 101%   0.629 Gln                                                 
  319.871  55%   1.289 Glu                                                 
  102.327  10%   0.412 GPC                                                 
    0.000 999%   0.000 PCh                                                 
   72.029  54%   0.290 GSH                                                 
  412.916  29%   1.663 Ins                                                 
   90.360  91%   0.364 Lac                                                 
  434.965  12%   1.752 NAA                                                 
   96.392  61%   0.388 NAAG                                                
   23.045  44% 9.3E-02 Scyllo                                              
   27.491 224%   0.111 Tau                                                 
   42.223 107%   0.170 -CrCH2                                              
  102.327  10%   0.412 GPC+PCh                                             
  531.357   7%   2.141 NAA+NAAG                                            
  248.238  11%   1.000 Cr+PCr                                              
  476.006  58%   1.918 Glu+Gln                                             
 1.22E+03  22%   4.917 Lip13a                                              
    0.000 999%   0.000 Lip13b                                              
  210.471  61%   0.848 Lip09                                               
  289.436  44%   1.166 MM09                                                
  166.313  55%   0.670 Lip20                                               
  538.660  31%   2.170 MM20                                                
  141.376  56%   0.570 MM12                                                
  282.174  56%   1.137 MM14                                                
  384.484  25%   1.549 MM17                                                
 1.22E+03  22%   4.917 Lip13a+Lip13b                                       
 1.64E+03  12%   6.624 MM14+Lip13a+Lip13b+MM12                             
  499.907  15%   2.014 MM09+Lip09                                          
  704.972  22%   2.840 MM20+Lip20                                          
   6 lines in following misc. output table
  FWHM = 0.076 ppm    S/N =   5                                            
  Data shift =-0.038 ppm                                                   
  Ph: -41 deg      -2.5 deg/ppm                                            
  alphaB,S = 8.5E+01,   3.1E+02                                            
   14 spline knots.   Ns = 8(1)                                            
   4 inflections.     1 extrema                                            
  498 points on ppm-axis = NY
      4.000000     3.992357     3.984714     3.977070     3.969427     3.961784     3.954141     3.946497     3.938854     3.931211
      3.923568     3.915925     3.908281     3.900638     3.892995     3.885352     3.877708     3.870065     3.862422     3.854779
      3.847136     3.839492     3.831849     3.824206     3.816563     3.808919     3.801276     3.793633     3.785990     3.778347
      3.770703     3.763060     3.755417     3.747774     3.740130     3.732487     3.724844     3.717201     3.709558     3.701914
      3.694271     3.686628     3.678985     3.671341     3.663698     3.656055     3.648412     3.640769     3.633125     3.625482
      3.617839     3.610196     3.602552     3.594909     3.587266     3.579623     3.571980     3.564336     3.556693     3.549050
      3.541407     3.533763     3.526120     3.518477     3.510834     3.503191     3.495547     3.487904     3.480261     3.472618
      3.464974     3.457331     3.449688     3.442045     3.434402     3.426758     3.419115     3.411472     3.403829     3.396185
      3.388542     3.380899     3.373256     3.365613     3.357969     3.350326     3.342683     3.335040     3.327396     3.319753
      3.312110     3.304467     3.296824     3.289180     3.281537     3.273894     3.266251     3.258607     3.250964     3.243321
      3.235678     3.228034     3.220391     3.212748     3.205105     3.197462     3.189818     3.182175     3.174532     3.166889
      3.159245     3.151602     3.143959     3.136316     3.128673     3.121029     3.113386     3.105743     3.098100     3.090456
      3.082813     3.075170     3.067527     3.059884     3.052240     3.044597     3.036954     3.029311     3.021667     3.014024
      3.006381     2.998738     2.991095     2.983451     2.975808     2.968165     2.960522     2.952878     2.945235     2.937592
      2.929949     2.922306     2.914662     2.907019     2.899376     2.891733     2.884089     2.876446     2.868803     2.861160
      2.853517     2.845873     2.838230     2.830587     2.822944     2.815300     2.807657     2.800014     2.792371     2.784728
      2.777084     2.769441     2.761798     2.754155     2.746511     2.738868     2.731225     2.723582     2.715939     2.708295
      2.700652     2.693009     2.685366     2.677722     2.670079     2.662436     2.654793     2.647150     2.639506     2.631863
      2.624220     2.616577     2.608933     2.601290     2.593647     2.586004     2.578361     2.570717     2.563074     2.555431
      2.547788     2.540144     2.532501     2.524858     2.517215     2.509572     2.501928     2.494285     2.486642     2.478999
      2.471355     2.463712     2.456069     2.448426     2.440783     2.433139     2.425496     2.417853     2.410210     2.402566
      2.394923     2.387280     2.379637     2.371994     2.364350     2.356707     2.349064     2.341421     2.333777     2.326134
      2.318491     2.310848     2.303205     2.295561     2.287918     2.280275     2.272632     2.264988     2.257345     2.249702
      2.242059     2.234416     2.226772     2.219129     2.211486     2.203843     2.196199     2.188556     2.180913     2.173270
      2.165627     2.157983     2.150340     2.142697     2.135054     2.127410     2.119767     2.112124     2.104481     2.096838
      2.089194     2.081551     2.073908     2.066265     2.058621     2.050978     2.043335     2.035692     2.028049     2.020405
      2.012762     2.005119     1.997476     1.989833     1.982190     1.974546     1.966903     1.959260     1.951617     1.943974
      1.936331     1.928688     1.921045     1.913402     1.905759     1.898115     1.890472     1.882829     1.875186     1.867543
      1.859900     1.852257     1.844614     1.836971     1.829327     1.821684     1.814041     1.806398     1.798755     1.791112
      1.783469     1.775826     1.768183     1.760540     1.752896     1.745253     1.737610     1.729967     1.722324     1.714681
      1.707038     1.699395     1.691752     1.684108     1.676465     1.668822     1.661179     1.653536     1.645893     1.638250
      1.630607     1.622964     1.615321     1.607677     1.600034     1.592391     1.584748     1.577105     1.569462     1.561819
      1.554176     1.546533     1.538890     1.531246     1.523603     1.515960     1.508317     1.500674     1.493031     1.485388
      1.477745     1.470102     1.462458     1.454815     1.447172     1.439529     1.431886     1.424243     1.416600     1.408957
      1.401314     1.393671     1.386027     1.378384     1.370741     1.363098     1.355455     1.347812     1.340169     1.332526
      1.324883     1.317240     1.309596     1.301953     1.294310     1.286667     1.279024     1.271381     1.263738     1.256095
      1.248452     1.240808     1.233165     1.225522     1.217879     1.210236     1.202593     1.194950     1.187307     1.179664
      1.172021     1.164377     1.156734     1.149091     1.141448     1.133805     1.126162     1.118519     1.110876     1.103233
      1.095590     1.087946     1.080303     1.072660     1.065017     1.057374     1.049731     1.042088     1.034445     1.026802
      1.019158     1.011515     1.003872     0.996229     0.988586     0.980943     0.973300     0.965657     0.958014     0.950371
      0.942727     0.935084     0.927441     0.919798     0.912155     0.904512     0.896869     0.889226     0.881583     0.873940
      0.866296     0.858653     0.851010     0.843367     0.835724     0.828081     0.820438     0.812795     0.805152     0.797508
      0.789865     0.782222     0.774579     0.766936     0.759293     0.751650     0.744007     0.736364     0.728721     0.721077
      0.713434     0.705791     0.698148     0.690505     0.682862     0.675219     0.667576     0.659933     0.652290     0.644646
      0.637003     0.629360     0.621717     0.614074     0.606431     0.598788     0.591145     0.583502     0.575858     0.568215
      0.560572     0.552929     0.545286     0.537643     0.530000     0.522357     0.514714     0.507071     0.499427     0.491784
      0.484141     0.476498     0.468855     0.461212     0.453569     0.445925     0.438282     0.430639     0.422996     0.415353
      0.407710     0.400067     0.392424     0.384780     0.377137     0.369494     0.361851     0.354208     0.346565     0.338922
      0.331278     0.323635     0.315992     0.308349     0.300706     0.293063     0.285420     0.277777     0.270133     0.262490
      0.254847     0.247204     0.239561     0.231918     0.224275     0.216631     0.208988     0.201345
 NY phased data points follow
   5.72141E+00  3.41237E+00  6.44924E+00  7.25028E+00  3.48796E+00  5.85877E+00  6.71823E+00  5.82350E+00  6.64267E+00  3.46402E+00
   5.43395E+00  4.86703E+00  5.89959E+00  5.87347E+00  5.60837E+00  4.23414E+00  9.68802E+00  5.47376E+00  7.68474E+00  4.74633E+00
   5.38495E+00  3.83751E+00  4.91061E+00  4.41077E+00  4.28873E+00  4.23018E+00  7.19221E+00  2.46984E+00  6.50236E+00  4.29978E+00
   3.06421E+00  2.88801E+00  3.96194E+00  4.02196E+00  3.68587E+00  3.42385E+00  3.95313E+00  3.96502E+00  5.62529E+00  3.79541E+00
   4.49356E+00  2.58405E+00  5.58406E+00  3.63660E+00  5.12361E+00  2.30055E+00  6.31707E+00  4.34917E+00  5.13910E+00  5.23323E+00
   3.57747E+00  3.09909E+00  4.95010E+00  3.95341E+00  6.51200E+00  5.79993E+00  5.34558E+00  3.18009E+00  3.93521E+00  2.97473E+00
   4.45638E+00  5.14002E+00  3.93321E+00  1.65430E+00  2.58358E+00  4.09716E+00  1.73883E+00  1.68902E+00  2.85740E+00  1.70419E+00
   2.18267E+00  1.39806E+00  4.54274E+00  2.51627E+00  2.91701E+00  4.40502E+00  2.14596E+00  4.14283E+00  2.41525E+00  2.87868E+00
   3.07283E+00  4.12310E+00  3.45123E+00  4.59025E+00  1.21911E-01  5.90889E+00  3.50234E+00  3.03846E+00  2.48235E-01  3.11506E+00
   4.58612E+00  3.63988E+00  4.41135E+00  8.46432E-01  3.70835E+00  3.45928E+00  2.42252E+00  3.64964E+00  3.60815E+00  5.31340E+00
   6.40285E+00  6.67629E+00  9.43914E+00  1.00116E+01  1.20538E+01  9.18994E+00  7.16932E+00  6.01928E+00  5.48592E+00  3.42243E+00
   6.88375E+00  5.63277E+00  6.55505E+00  1.72614E+00  2.87297E+00 -5.49258E-01  3.87271E+00  2.58431E+00  4.31632E+00  1.31119E+00
   4.82226E-01  1.42234E+00  3.54996E+00  4.47860E+00  6.39996E+00  7.75551E+00  1.00051E+01  1.06532E+01  1.09303E+01  6.80174E+00
   7.52550E+00  4.15779E+00  4.57877E+00  5.81820E+00  6.94971E+00  5.12678E+00  6.28964E+00  2.11875E+00  2.84259E+00  1.49658E+00
   9.34079E-01  1.86449E+00  5.93810E-01  2.71036E+00  6.77318E-01  1.58257E+00  3.99662E+00  1.91608E+00  2.01817E+00  1.96712E+00
   2.68207E+00  2.28180E+00  1.43709E+00  1.67845E+00  1.00949E+00  2.11042E+00  2.16294E-01  1.87997E+00  3.59929E+00  1.74575E+00
   8.79145E-01 -6.53105E-01  4.55911E+00  1.41911E+00  8.40018E-01 -9.01545E-01  1.16106E+00  2.56139E+00  1.11362E+00  6.37113E-01
  -4.21270E-01  1.13501E+00  1.96459E+00  3.04986E+00  3.61064E-01 -1.13925E+00  8.61638E-01 -1.56583E+00 -2.08814E-01 -1.55392E+00
   1.50142E+00 -1.66628E+00 -2.00170E+00 -1.17191E+00  1.17014E+00  7.07195E-01  1.14591E+00  1.56998E+00  1.39150E+00  5.11805E-01
   2.48624E+00  3.82586E-02  2.73353E+00 -2.92762E-01 -7.23623E-01  2.29807E+00 -3.78540E-01  5.95335E-01  6.56516E-01  1.31877E-01
   9.65460E-01  6.14888E-01  1.21792E+00  2.92630E+00  2.08782E+00  7.65917E-01  1.55191E+00 -4.15655E-01  1.27099E+00  1.88728E+00
   3.74838E+00  2.14231E+00  3.24500E+00  2.78144E+00  3.13533E+00  3.31437E+00  2.09392E+00  1.52064E+00  2.28147E+00  2.18347E+00
   1.11580E+00  3.02513E+00  2.39866E+00  1.87512E+00  2.41231E+00  2.65951E+00  2.95532E+00  2.44214E+00  1.36440E+00  1.24013E+00
   2.16125E+00  4.56296E+00  4.33370E+00  1.17469E+00  3.67097E+00  1.20342E+00  2.79104E+00  5.88016E+00  6.64046E+00  2.46361E+00
   1.83666E+00  2.80997E+00  3.62332E-01  3.33946E+00  2.15377E+00  4.15416E+00  5.67136E+00  5.37483E+00  3.42508E+00  4.03337E+00
   5.87516E+00  7.47409E+00  6.39179E+00  5.74241E+00  8.16509E+00  8.76318E+00  1.33493E+01  1.36327E+01  1.80560E+01  1.71668E+01
   1.86888E+01  1.77919E+01  1.47699E+01  1.08222E+01  7.77501E+00  6.15806E+00  6.12744E+00  6.32935E+00  7.99936E+00  4.48582E+00
   4.25429E-01  1.18446E+00  2.37174E+00  2.00631E+00  1.54242E+00  1.70747E+00  3.68663E+00  1.04532E+00  2.40894E+00  3.63839E+00
   5.92486E+00  1.87586E+00  3.13257E+00  2.21378E+00  3.77670E+00  4.48051E+00  1.07892E+00  3.70397E+00  3.44707E+00  4.14254E+00
   2.89713E+00  2.87647E+00  2.07022E+00  1.52815E+00  3.38442E+00  2.97504E+00  1.90436E+00  3.96178E+00  9.86116E-01  1.97284E+00
   3.13598E+00  1.90722E+00  2.08930E+00  7.36778E-02  2.79890E+00  1.95433E+00  3.39208E+00  5.40880E+00  5.95591E+00  3.32171E+00
   5.24374E+00  6.43527E+00  5.31076E+00  4.49645E+00  3.96063E+00  1.93404E+00  5.10926E+00  3.67783E+00  4.04690E+00  5.81158E+00
   5.61262E+00  3.82169E+00  3.75315E+00  1.35103E+00  2.15999E+00  3.55060E+00  1.11044E+00  1.30333E+00  3.82789E+00  1.84413E+00
   1.70238E+00  3.09814E+00  4.08802E+00  4.47868E+00  6.87572E+00  4.84529E+00  4.74052E+00  4.68417E+00  5.61451E+00  4.97723E+00
   6.49563E+00  4.81035E+00  5.40351E+00  5.67493E+00  6.12508E+00  5.15708E+00  3.89664E+00  4.52728E+00  5.71009E+00  2.69174E+00
   6.19898E+00  1.92169E+00  6.26060E+00  6.53894E+00  2.73465E+00  4.67243E+00  5.17516E+00  3.39066E+00  3.34698E+00  5.84501E+00
   4.88072E+00  4.53103E+00  6.32945E+00  7.72553E+00  5.00079E+00  6.32828E+00  4.36362E+00  7.07662E+00  8.24712E+00  4.62212E+00
   4.74266E+00  6.09542E+00  5.89727E+00  5.10981E+00  6.50172E+00  5.47748E+00  3.91924E+00  4.34089E+00  4.66182E+00  4.32216E+00
   2.30594E+00  2.56174E+00  3.57606E+00  2.31467E+00  3.11178E+00  3.69885E+00  2.04212E+00  2.48317E+00  5.22017E+00  2.79507E+00
   4.46412E+00  7.07431E-01  3.09109E+00  1.76969E+00  2.89420E+00  3.14153E+00  2.51869E+00  5.24549E+00  4.30056E+00  3.71794E+00
   3.71038E+00  1.98878E+00  4.10977E+00  3.53977E+00  3.02420E+00  3.20581E+00  5.37534E+00  4.56561E+00  2.53283E+00  5.63333E+00
   4.60345E+00  7.27276E-01  3.40227E+00  2.35331E+00  1.98030E+00  3.02477E+00  3.52305E+00  1.53231E+00  2.07974E+00  3.32593E+00
   3.29737E+00 -2.29693E-01 -3.97192E-01 -2.78681E-01  3.53839E+00  7.20521E-01  1.54915E+00 -1.34297E+00  2.50863E+00  1.90143E+00
   1.04072E-01 -5.57864E-01  5.41433E-01 -2.30608E-01  1.34946E+00 -8.51298E-01  8.17920E-01  1.36870E+00  2.34461E-02 -4.51790E-01
   7.60676E-01 -1.06757E-01  1.78557E-01  9.69304E-01 -5.34582E-02  1.54412E+00 -6.03316E-01 -4.46997E-01 -3.68044E-01  2.32880E+00
  -1.11551E+00  1.91046E+00  1.93366E+00  2.17340E+00 -3.33599E-01  6.51499E-01 -1.26704E+00  1.62347E+00  2.01707E+00 -1.21415E+00
  -9.06896E-01  1.83760E-01  5.21872E-01  4.22759E-01  1.36413E+00 -1.38408E+00  1.57148E+00 -1.38135E+00  6.94680E-01  3.39816E-01
  -3.48650E-01 -4.30062E+00 -2.84817E+00  2.52566E-02 -1.91080E+00 -5.60927E-01 -2.94297E-01  2.09878E+00 -1.99250E+00  7.43552E-01
   1.55600E+00 -2.54769E+00  1.64187E+00 -7.41498E-01  3.50480E+00 -9.21223E-01  1.71325E-01  1.34934E+00  6.74497E-01 -1.27453E+00
  -7.08881E-01  6.58689E-01 -3.25460E+00 -2.04575E-01 -1.41576E-01  1.32289E+00  3.25238E-01 -9.24121E-01
 NY points of the fit to the data follow
   3.82299E+00  3.67342E+00  3.59684E+00  3.62704E+00  3.81447E+00  4.17503E+00  4.67754E+00  5.24930E+00  5.81081E+00  6.29664E+00
   6.64860E+00  6.82040E+00  6.79059E+00  6.57738E+00  6.23745E+00  5.84243E+00  5.45125E+00  5.09295E+00  4.75806E+00  4.42402E+00
   4.07508E+00  3.76662E+00  3.60893E+00  3.56680E+00  3.58686E+00  3.68008E+00  3.85715E+00  4.10034E+00  4.36603E+00  4.60334E+00
   4.76621E+00  4.82959E+00  4.79301E+00  4.67494E+00  4.50350E+00  4.30981E+00  4.10565E+00  3.89031E+00  3.67260E+00  3.52581E+00
   3.53308E+00  3.68979E+00  3.97182E+00  4.33839E+00  4.71838E+00  5.03305E+00  5.22049E+00  5.25231E+00  5.13149E+00  4.89020E+00
   4.57887E+00  4.25469E+00  3.96968E+00  3.75393E+00  3.60409E+00  3.48905E+00  3.40585E+00  3.39050E+00  3.44438E+00  3.50490E+00
   3.51659E+00  3.47454E+00  3.39410E+00  3.29621E+00  3.21129E+00  3.16166E+00  3.15072E+00  3.16587E+00  3.19308E+00  3.23512E+00
   3.29628E+00  3.36447E+00  3.42464E+00  3.45670E+00  3.45206E+00  3.41313E+00  3.34957E+00  3.28047E+00  3.23980E+00  3.24144E+00
   3.26387E+00  3.28173E+00  3.28483E+00  3.25662E+00  3.18556E+00  3.07400E+00  2.93241E+00  2.77654E+00  2.63115E+00  2.52166E+00
   2.45409E+00  2.41820E+00  2.39357E+00  2.36524E+00  2.34776E+00  2.45053E+00  2.90924E+00  3.74390E+00  4.83197E+00  6.04612E+00
   7.25536E+00  8.31881E+00  9.09581E+00  9.47173E+00  9.39981E+00  8.92737E+00  8.18757E+00  7.33740E+00  6.48305E+00  5.65629E+00
   4.82667E+00  3.97053E+00  3.15047E+00  2.55149E+00  2.31503E+00  2.24955E+00  2.22525E+00  2.22515E+00  2.27184E+00  2.45427E+00
   2.91179E+00  3.66640E+00  4.63934E+00  5.72173E+00  6.79102E+00  7.72465E+00  8.40667E+00  8.74106E+00  8.68845E+00  8.28470E+00
   7.62975E+00  6.85129E+00  6.04409E+00  5.24347E+00  4.44701E+00  3.66244E+00  2.96711E+00  2.50387E+00  2.33131E+00  2.30425E+00
   2.30819E+00  2.31557E+00  2.32126E+00  2.32827E+00  2.33217E+00  2.32071E+00  2.28925E+00  2.23493E+00  2.16252E+00  2.08706E+00
   2.02023E+00  1.96884E+00  1.92817E+00  1.88233E+00  1.82539E+00  1.75965E+00  1.69112E+00  1.62833E+00  1.57306E+00  1.52676E+00
   1.49163E+00  1.46805E+00  1.45112E+00  1.43219E+00  1.40215E+00  1.35764E+00  1.30425E+00  1.24827E+00  1.18997E+00  1.12667E+00
   1.05644E+00  9.75864E-01  8.93603E-01  8.16274E-01  7.50866E-01  7.07091E-01  6.82524E-01  6.74033E-01  6.74983E-01  6.72416E-01
   6.67852E-01  6.81557E-01  7.32756E-01  8.29708E-01  9.67482E-01  1.12572E+00  1.28215E+00  1.43423E+00  1.58269E+00  1.70799E+00
   1.78131E+00  1.78926E+00  1.75008E+00  1.69894E+00  1.66758E+00  1.67156E+00  1.71579E+00  1.79955E+00  1.92679E+00  2.08487E+00
   2.24413E+00  2.36528E+00  2.39636E+00  2.31431E+00  2.13194E+00  1.87805E+00  1.59818E+00  1.35388E+00  1.21401E+00  1.21435E+00
   1.34586E+00  1.57107E+00  1.83423E+00  2.07171E+00  2.21885E+00  2.23515E+00  2.13248E+00  1.95539E+00  1.75736E+00  1.58053E+00
   1.45536E+00  1.42588E+00  1.49325E+00  1.61438E+00  1.76563E+00  1.94366E+00  2.14447E+00  2.32834E+00  2.48114E+00  2.62241E+00
   2.76350E+00  2.88789E+00  2.97131E+00  3.02797E+00  3.08417E+00  3.12882E+00  3.14811E+00  3.15118E+00  3.14729E+00  3.14296E+00
   3.14279E+00  3.14646E+00  3.16482E+00  3.21080E+00  3.28152E+00  3.36785E+00  3.46659E+00  3.61301E+00  3.87632E+00  4.27461E+00
   4.78184E+00  5.39646E+00  6.28461E+00  7.62355E+00  9.32261E+00  1.11938E+01  1.30275E+01  1.46214E+01  1.57997E+01  1.64090E+01
   1.63464E+01  1.56095E+01  1.43212E+01  1.27031E+01  1.09921E+01  9.36970E+00  7.89703E+00  6.47137E+00  5.04941E+00  3.80647E+00
   3.05741E+00  2.78439E+00  2.65274E+00  2.56143E+00  2.48739E+00  2.41556E+00  2.34219E+00  2.27171E+00  2.20579E+00  2.14472E+00
   2.08813E+00  2.03722E+00  1.99346E+00  1.96021E+00  1.94104E+00  1.93654E+00  1.94576E+00  1.96721E+00  1.99992E+00  2.04349E+00
   2.09677E+00  2.15799E+00  2.22702E+00  2.30409E+00  2.38892E+00  2.48152E+00  2.58241E+00  2.69061E+00  2.80431E+00  2.92157E+00
   3.03983E+00  3.15640E+00  3.26943E+00  3.37634E+00  3.47404E+00  3.56028E+00  3.63336E+00  3.69200E+00  3.73518E+00  3.76245E+00
   3.77483E+00  3.77405E+00  3.76237E+00  3.74283E+00  3.71905E+00  3.69552E+00  3.67809E+00  3.67568E+00  3.70543E+00  3.78047E+00
   3.87240E+00  3.94726E+00  3.97935E+00  3.94962E+00  3.84521E+00  3.65894E+00  3.40113E+00  3.13157E+00  2.91568E+00  2.79893E+00
   2.80290E+00  2.92263E+00  3.13267E+00  3.39901E+00  3.69193E+00  3.99557E+00  4.30480E+00  4.60039E+00  4.84866E+00  5.07550E+00
   5.29807E+00  5.48821E+00  5.60935E+00  5.63570E+00  5.57594E+00  5.46948E+00  5.31438E+00  5.12907E+00  4.96147E+00  4.85142E+00
   4.82495E+00  4.88757E+00  5.02354E+00  5.20321E+00  5.39443E+00  5.57508E+00  5.73898E+00  5.88553E+00  5.98872E+00  6.02669E+00
   6.01378E+00  5.95773E+00  5.85446E+00  5.69928E+00  5.50595E+00  5.31665E+00  5.14631E+00  4.98115E+00  4.81560E+00  4.64858E+00
   4.48058E+00  4.31284E+00  4.14690E+00  3.98448E+00  3.82731E+00  3.67709E+00  3.53544E+00  3.40385E+00  3.28369E+00  3.17620E+00
   3.08243E+00  3.00332E+00  2.93964E+00  2.89202E+00  2.86089E+00  2.84652E+00  2.84896E+00  2.86804E+00  2.90330E+00  2.95399E+00
   3.01898E+00  3.09684E+00  3.18568E+00  3.28327E+00  3.38698E+00  3.49385E+00  3.60063E+00  3.70390E+00  3.80015E+00  3.88591E+00
   3.95786E+00  4.01303E+00  4.04883E+00  4.06327E+00  4.05497E+00  4.02323E+00  3.96809E+00  3.89028E+00  3.79119E+00  3.67279E+00
   3.53750E+00  3.38810E+00  3.22757E+00  3.05900E+00  2.88539E+00  2.70965E+00  2.53439E+00  2.36196E+00  2.19430E+00  2.03304E+00
   1.87939E+00  1.73422E+00  1.59806E+00  1.47117E+00  1.35354E+00  1.24499E+00  1.14516E+00  1.05360E+00  9.69762E-01  8.93087E-01
   8.22973E-01  7.58844E-01  7.00124E-01  6.46284E-01  5.96814E-01  5.51265E-01  5.09211E-01  4.70287E-01  4.34147E-01  4.00500E-01
   3.69071E-01  3.39635E-01  3.11977E-01  2.85925E-01  2.61308E-01  2.37992E-01  2.15843E-01  1.94760E-01  1.74638E-01  1.55400E-01
   1.36959E-01  1.19254E-01  1.02215E-01  8.57987E-02  6.99480E-02  5.46268E-02  3.97855E-02  2.53962E-02  1.14184E-02 -2.16693E-03
  -1.53945E-02 -2.82812E-02 -4.08593E-02 -5.31406E-02 -6.51512E-02 -7.68985E-02 -8.84069E-02 -9.96835E-02 -1.10751E-01 -1.21613E-01
  -1.32287E-01 -1.42775E-01 -1.53095E-01 -1.63250E-01 -1.73257E-01 -1.83114E-01 -1.92835E-01 -2.02419E-01 -2.11881E-01 -2.21221E-01
  -2.30453E-01 -2.39571E-01 -2.48587E-01 -2.57498E-01 -2.66318E-01 -2.75043E-01 -2.83685E-01 -2.92236E-01 -3.00707E-01 -3.09093E-01
  -3.17408E-01 -3.25645E-01 -3.33812E-01 -3.41901E-01 -3.49922E-01 -3.57869E-01 -3.65752E-01 -3.73563E-01
 NY background values follow
     2.403E+00    2.397E+00    2.391E+00    2.385E+00    2.380E+00    2.374E+00    2.368E+00    2.362E+00    2.356E+00    2.350E+00
     2.344E+00    2.339E+00    2.333E+00    2.327E+00    2.321E+00    2.315E+00    2.309E+00    2.303E+00    2.298E+00    2.292E+00
     2.286E+00    2.280E+00    2.274E+00    2.268E+00    2.262E+00    2.257E+00    2.251E+00    2.245E+00    2.239E+00    2.233E+00
     2.227E+00    2.221E+00    2.216E+00    2.210E+00    2.204E+00    2.198E+00    2.192E+00    2.186E+00    2.180E+00    2.175E+00
     2.169E+00    2.163E+00    2.157E+00    2.151E+00    2.145E+00    2.139E+00    2.134E+00    2.128E+00    2.122E+00    2.116E+00
     2.110E+00    2.104E+00    2.099E+00    2.093E+00    2.087E+00    2.081E+00    2.075E+00    2.069E+00    2.063E+00    2.058E+00
     2.052E+00    2.046E+00    2.040E+00    2.034E+00    2.028E+00    2.022E+00    2.017E+00    2.011E+00    2.005E+00    1.999E+00
     1.993E+00    1.987E+00    1.981E+00    1.976E+00    1.970E+00    1.964E+00    1.958E+00    1.952E+00    1.946E+00    1.940E+00
     1.935E+00    1.929E+00    1.923E+00    1.917E+00    1.911E+00    1.905E+00    1.899E+00    1.894E+00    1.888E+00    1.882E+00
     1.876E+00    1.870E+00    1.864E+00    1.858E+00    1.853E+00    1.847E+00    1.841E+00    1.835E+00    1.829E+00    1.823E+00
     1.817E+00    1.812E+00    1.806E+00    1.800E+00    1.794E+00    1.788E+00    1.782E+00    1.776E+00    1.771E+00    1.765E+00
     1.759E+00    1.753E+00    1.747E+00    1.741E+00    1.735E+00    1.730E+00    1.724E+00    1.718E+00    1.712E+00    1.706E+00
     1.700E+00    1.694E+00    1.689E+00    1.683E+00    1.677E+00    1.671E+00    1.665E+00    1.659E+00    1.653E+00    1.648E+00
     1.642E+00    1.636E+00    1.630E+00    1.624E+00    1.618E+00    1.612E+00    1.607E+00    1.601E+00    1.595E+00    1.589E+00
     1.583E+00    1.577E+00    1.571E+00    1.566E+00    1.560E+00    1.554E+00    1.548E+00    1.542E+00    1.536E+00    1.530E+00
     1.525E+00    1.519E+00    1.513E+00    1.507E+00    1.501E+00    1.495E+00    1.489E+00    1.484E+00    1.478E+00    1.472E+00
     1.466E+00    1.460E+00    1.454E+00    1.448E+00    1.443E+00    1.437E+00    1.431E+00    1.425E+00    1.419E+00    1.413E+00
     1.407E+00    1.402E+00    1.396E+00    1.390E+00    1.384E+00    1.378E+00    1.372E+00    1.366E+00    1.361E+00    1.355E+00
     1.349E+00    1.343E+00    1.337E+00    1.331E+00    1.326E+00    1.320E+00    1.314E+00    1.308E+00    1.302E+00    1.296E+00
     1.290E+00    1.285E+00    1.279E+00    1.273E+00    1.267E+00    1.261E+00    1.255E+00    1.249E+00    1.244E+00    1.238E+00
     1.232E+00    1.226E+00    1.220E+00    1.214E+00    1.208E+00    1.203E+00    1.197E+00    1.191E+00    1.185E+00    1.179E+00
     1.173E+00    1.167E+00    1.162E+00    1.156E+00    1.150E+00    1.144E+00    1.138E+00    1.132E+00    1.126E+00    1.121E+00
     1.115E+00    1.109E+00    1.103E+00    1.097E+00    1.091E+00    1.085E+00    1.080E+00    1.074E+00    1.068E+00    1.062E+00
     1.056E+00    1.050E+00    1.044E+00    1.039E+00    1.033E+00    1.027E+00    1.021E+00    1.015E+00    1.009E+00    1.003E+00
     9.976E-01    9.918E-01    9.859E-01    9.801E-01    9.742E-01    9.683E-01    9.625E-01    9.566E-01    9.508E-01    9.449E-01
     9.391E-01    9.332E-01    9.274E-01    9.215E-01    9.157E-01    9.098E-01    9.039E-01    8.981E-01    8.922E-01    8.864E-01
     8.805E-01    8.747E-01    8.688E-01    8.630E-01    8.571E-01    8.513E-01    8.454E-01    8.395E-01    8.337E-01    8.278E-01
     8.220E-01    8.161E-01    8.103E-01    8.044E-01    7.986E-01    7.927E-01    7.869E-01    7.810E-01    7.751E-01    7.693E-01
     7.634E-01    7.576E-01    7.517E-01    7.459E-01    7.400E-01    7.342E-01    7.283E-01    7.224E-01    7.166E-01    7.107E-01
     7.049E-01    6.990E-01    6.932E-01    6.873E-01    6.815E-01    6.756E-01    6.698E-01    6.639E-01    6.580E-01    6.522E-01
     6.463E-01    6.405E-01    6.346E-01    6.288E-01    6.229E-01    6.171E-01    6.112E-01    6.054E-01    5.995E-01    5.936E-01
     5.878E-01    5.819E-01    5.761E-01    5.702E-01    5.644E-01    5.585E-01    5.527E-01    5.468E-01    5.410E-01    5.351E-01
     5.293E-01    5.234E-01    5.175E-01    5.117E-01    5.058E-01    5.000E-01    4.941E-01    4.883E-01    4.824E-01    4.766E-01
     4.707E-01    4.649E-01    4.590E-01    4.531E-01    4.473E-01    4.414E-01    4.356E-01    4.297E-01    4.239E-01    4.180E-01
     4.122E-01    4.063E-01    4.005E-01    3.946E-01    3.887E-01    3.829E-01    3.770E-01    3.712E-01    3.653E-01    3.595E-01
     3.536E-01    3.478E-01    3.419E-01    3.361E-01    3.302E-01    3.243E-01    3.185E-01    3.126E-01    3.068E-01    3.009E-01
     2.951E-01    2.892E-01    2.834E-01    2.775E-01    2.717E-01    2.658E-01    2.599E-01    2.541E-01    2.482E-01    2.424E-01
     2.365E-01    2.307E-01    2.248E-01    2.190E-01    2.131E-01    2.073E-01    2.014E-01    1.956E-01    1.897E-01    1.838E-01
     1.780E-01    1.721E-01    1.663E-01    1.604E-01    1.546E-01    1.487E-01    1.429E-01    1.370E-01    1.312E-01    1.253E-01
     1.194E-01    1.136E-01    1.077E-01    1.019E-01    9.603E-02    9.017E-02    8.432E-02    7.846E-02    7.261E-02    6.676E-02
     6.090E-02    5.505E-02    4.919E-02    4.334E-02    3.748E-02    3.163E-02    2.578E-02    1.992E-02    1.407E-02    8.213E-03
     2.359E-03   -3.495E-03   -9.349E-03   -1.520E-02   -2.106E-02   -2.691E-02   -3.277E-02   -3.862E-02   -4.447E-02   -5.033E-02
    -5.618E-02   -6.204E-02   -6.789E-02   -7.375E-02   -7.960E-02   -8.545E-02   -9.131E-02   -9.716E-02   -1.030E-01   -1.089E-01
    -1.147E-01   -1.206E-01   -1.264E-01   -1.323E-01   -1.381E-01   -1.440E-01   -1.499E-01   -1.557E-01   -1.616E-01   -1.674E-01
    -1.733E-01   -1.791E-01   -1.850E-01   -1.908E-01   -1.967E-01   -2.025E-01   -2.084E-01   -2.142E-01   -2.201E-01   -2.260E-01
    -2.318E-01   -2.377E-01   -2.435E-01   -2.494E-01   -2.552E-01   -2.611E-01   -2.669E-01   -2.728E-01   -2.786E-01   -2.845E-01
    -2.904E-01   -2.962E-01   -3.021E-01   -3.079E-01   -3.138E-01   -3.196E-01   -3.255E-01   -3.313E-01   -3.372E-01   -3.430E-01
    -3.489E-01   -3.547E-01   -3.606E-01   -3.665E-01   -3.723E-01   -3.782E-01   -3.840E-01   -3.899E-01   -3.957E-01   -4.016E-01
    -4.074E-01   -4.133E-01   -4.191E-01   -4.250E-01   -4.309E-01   -4.367E-01   -4.426E-01   -4.484E-01   -4.543E-01   -4.601E-01
    -4.660E-01   -4.718E-01   -4.777E-01   -4.835E-01   -4.894E-01   -4.952E-01   -5.011E-01   -5.070E-01
 Ala      Conc. = 1.07E+02
