 LCModel (Version 6.3-1L) Copyright: S.W. Provencher.          Ref.: Magn. Reson. Med. 30:672-679 (1993).                
 Slice#1 Row#8 Col#13  PD_24_press_1_raw_act
 36 lines in following concentration table = NCONC+1
    Conc.  %SD /Cr+PCr  Metabolite                                         
    0.000 999%   0.000 Ala                                                 
    2.701 284%   0.000 Asp                                                 
    0.000 999%   0.000 Cr                                                  
    0.000 999%   0.000 PCr                                                 
    2.367 181%   0.000 GABA                                                
    0.000 999%   0.000 Glc                                                 
    0.000 999%   0.000 Gln                                                 
   21.298  92%   0.000 Glu                                                 
    0.000 999%   0.000 GPC                                                 
    0.000 999%   0.000 PCh                                                 
    0.000 999%   0.000 GSH                                                 
    8.886 149%   0.000 Ins                                                 
    0.000 999%   0.000 Lac                                                 
   20.267  82%   0.000 NAA                                                 
   16.368  87%   0.000 NAAG                                                
    0.319 384%   0.000 Scyllo                                              
    0.000 999%   0.000 Tau                                                 
    1.995 151%   0.000 -CrCH2                                              
    0.000 999%   0.000 GPC+PCh                                             
   36.635  82%   0.000 NAA+NAAG                                            
    0.000 999%   0.000 Cr+PCr                                              
   21.298  92%   0.000 Glu+Gln                                             
 1.19E+04  18%   0.000 Lip13a                                              
    0.000 999%   0.000 Lip13b                                              
 5.71E+03  14%   0.000 Lip09                                               
 5.01E+03  16%   0.000 MM09                                                
  717.117  49%   0.000 Lip20                                               
  501.634  55%   0.000 MM20                                                
 4.52E+03  24%   0.000 MM12                                                
 1.72E+03  34%   0.000 MM14                                                
 1.44E+03  29%   0.000 MM17                                                
 1.19E+04  18%   0.000 Lip13a+Lip13b                                       
 1.81E+04   9%   0.000 MM14+Lip13a+Lip13b+MM12                             
 1.07E+04   8%   0.000 MM09+Lip09                                          
 1.22E+03  21%   0.000 MM20+Lip20                                          
   6 lines in following misc. output table
  FWHM = 0.038 ppm    S/N =  16                                            
  Data shift =-0.031 ppm                                                   
  Ph:-142 deg     -33.9 deg/ppm                                            
  alphaB,S = 1.5E+00,   7.8E-01                                            
   14 spline knots.   Ns = 5(1)                                            
  ( 6) 2 infls.   ( 2) 2 extrs.                                            
  498 points on ppm-axis = NY
      4.000000     3.992357     3.984714     3.977070     3.969427     3.961784     3.954141     3.946497     3.938854     3.931211
      3.923568     3.915925     3.908281     3.900638     3.892995     3.885352     3.877708     3.870065     3.862422     3.854779
      3.847136     3.839492     3.831849     3.824206     3.816563     3.808919     3.801276     3.793633     3.785990     3.778347
      3.770703     3.763060     3.755417     3.747774     3.740130     3.732487     3.724844     3.717201     3.709558     3.701914
      3.694271     3.686628     3.678985     3.671341     3.663698     3.656055     3.648412     3.640769     3.633125     3.625482
      3.617839     3.610196     3.602552     3.594909     3.587266     3.579623     3.571980     3.564336     3.556693     3.549050
      3.541407     3.533763     3.526120     3.518477     3.510834     3.503191     3.495547     3.487904     3.480261     3.472618
      3.464974     3.457331     3.449688     3.442045     3.434402     3.426758     3.419115     3.411472     3.403829     3.396185
      3.388542     3.380899     3.373256     3.365613     3.357969     3.350326     3.342683     3.335040     3.327396     3.319753
      3.312110     3.304467     3.296824     3.289180     3.281537     3.273894     3.266251     3.258607     3.250964     3.243321
      3.235678     3.228034     3.220391     3.212748     3.205105     3.197462     3.189818     3.182175     3.174532     3.166889
      3.159245     3.151602     3.143959     3.136316     3.128673     3.121029     3.113386     3.105743     3.098100     3.090456
      3.082813     3.075170     3.067527     3.059884     3.052240     3.044597     3.036954     3.029311     3.021667     3.014024
      3.006381     2.998738     2.991095     2.983451     2.975808     2.968165     2.960522     2.952878     2.945235     2.937592
      2.929949     2.922306     2.914662     2.907019     2.899376     2.891733     2.884089     2.876446     2.868803     2.861160
      2.853517     2.845873     2.838230     2.830587     2.822944     2.815300     2.807657     2.800014     2.792371     2.784728
      2.777084     2.769441     2.761798     2.754155     2.746511     2.738868     2.731225     2.723582     2.715939     2.708295
      2.700652     2.693009     2.685366     2.677722     2.670079     2.662436     2.654793     2.647150     2.639506     2.631863
      2.624220     2.616577     2.608933     2.601290     2.593647     2.586004     2.578361     2.570717     2.563074     2.555431
      2.547788     2.540144     2.532501     2.524858     2.517215     2.509572     2.501928     2.494285     2.486642     2.478999
      2.471355     2.463712     2.456069     2.448426     2.440783     2.433139     2.425496     2.417853     2.410210     2.402566
      2.394923     2.387280     2.379637     2.371994     2.364350     2.356707     2.349064     2.341421     2.333777     2.326134
      2.318491     2.310848     2.303205     2.295561     2.287918     2.280275     2.272632     2.264988     2.257345     2.249702
      2.242059     2.234416     2.226772     2.219129     2.211486     2.203843     2.196199     2.188556     2.180913     2.173270
      2.165627     2.157983     2.150340     2.142697     2.135054     2.127410     2.119767     2.112124     2.104481     2.096838
      2.089194     2.081551     2.073908     2.066265     2.058621     2.050978     2.043335     2.035692     2.028049     2.020405
      2.012762     2.005119     1.997476     1.989833     1.982190     1.974546     1.966903     1.959260     1.951617     1.943974
      1.936331     1.928688     1.921045     1.913402     1.905759     1.898115     1.890472     1.882829     1.875186     1.867543
      1.859900     1.852257     1.844614     1.836971     1.829327     1.821684     1.814041     1.806398     1.798755     1.791112
      1.783469     1.775826     1.768183     1.760540     1.752896     1.745253     1.737610     1.729967     1.722324     1.714681
      1.707038     1.699395     1.691752     1.684108     1.676465     1.668822     1.661179     1.653536     1.645893     1.638250
      1.630607     1.622964     1.615321     1.607677     1.600034     1.592391     1.584748     1.577105     1.569462     1.561819
      1.554176     1.546533     1.538890     1.531246     1.523603     1.515960     1.508317     1.500674     1.493031     1.485388
      1.477745     1.470102     1.462458     1.454815     1.447172     1.439529     1.431886     1.424243     1.416600     1.408957
      1.401314     1.393671     1.386027     1.378384     1.370741     1.363098     1.355455     1.347812     1.340169     1.332526
      1.324883     1.317240     1.309596     1.301953     1.294310     1.286667     1.279024     1.271381     1.263738     1.256095
      1.248452     1.240808     1.233165     1.225522     1.217879     1.210236     1.202593     1.194950     1.187307     1.179664
      1.172021     1.164377     1.156734     1.149091     1.141448     1.133805     1.126162     1.118519     1.110876     1.103233
      1.095590     1.087946     1.080303     1.072660     1.065017     1.057374     1.049731     1.042088     1.034445     1.026802
      1.019158     1.011515     1.003872     0.996229     0.988586     0.980943     0.973300     0.965657     0.958014     0.950371
      0.942727     0.935084     0.927441     0.919798     0.912155     0.904512     0.896869     0.889226     0.881583     0.873940
      0.866296     0.858653     0.851010     0.843367     0.835724     0.828081     0.820438     0.812795     0.805152     0.797508
      0.789865     0.782222     0.774579     0.766936     0.759293     0.751650     0.744007     0.736364     0.728721     0.721077
      0.713434     0.705791     0.698148     0.690505     0.682862     0.675219     0.667576     0.659933     0.652290     0.644646
      0.637003     0.629360     0.621717     0.614074     0.606431     0.598788     0.591145     0.583502     0.575858     0.568215
      0.560572     0.552929     0.545286     0.537643     0.530000     0.522357     0.514714     0.507071     0.499427     0.491784
      0.484141     0.476498     0.468855     0.461212     0.453569     0.445925     0.438282     0.430639     0.422996     0.415353
      0.407710     0.400067     0.392424     0.384780     0.377137     0.369494     0.361851     0.354208     0.346565     0.338922
      0.331278     0.323635     0.315992     0.308349     0.300706     0.293063     0.285420     0.277777     0.270133     0.262490
      0.254847     0.247204     0.239561     0.231918     0.224275     0.216631     0.208988     0.201345
 NY phased data points follow
   3.00846E+00 -1.36999E+00  1.33153E+00  1.69911E+00  4.85980E+00 -3.01640E-01  1.71451E+00  6.20164E-01  1.04266E+00  6.84536E-01
   2.59973E+00  2.11311E+00  7.35701E-01  3.54093E+00  4.66276E+00  3.05550E+00  4.82318E+00  3.09688E+00  3.45911E+00  1.34172E+00
   1.68775E+00  1.67422E+00 -1.93602E-02 -1.52992E+00  1.63273E+00  2.73370E+00  1.29375E+00  1.87161E+00  2.84481E+00  1.86973E+00
   3.21749E+00  1.05232E+00  4.01786E+00  4.63314E+00  4.62088E+00  3.21176E+00  4.11029E+00 -2.06947E-01  3.65991E+00  1.38088E+00
   1.88604E+00  4.00091E+00  2.28874E+00  3.55511E+00  2.64508E+00  3.39044E+00  4.42670E+00  3.20779E+00  6.05219E+00  1.55707E+00
   4.07306E+00  2.50902E+00  5.53718E+00  2.31718E+00  2.14332E+00  2.49738E+00  5.05092E+00  3.60010E+00  4.25737E+00  3.60106E+00
   5.56077E+00  2.53690E+00  3.53295E+00  3.03471E+00  4.24199E+00  2.92920E+00  5.80486E+00  5.46617E+00  1.60664E+00  8.48393E-01
   5.46334E+00  2.26137E+00  4.04429E+00  2.25355E+00  3.49824E+00  3.62926E+00  3.21765E+00  5.95819E+00  4.45562E+00  5.99314E+00
   6.89663E+00  4.24177E+00  3.26211E+00  4.63639E+00  4.69622E+00  2.77336E+00  5.37351E+00  6.45868E+00  3.18567E+00  4.57961E+00
   4.78517E+00  4.70621E+00  5.52110E+00  4.23208E+00  6.09001E+00  3.24889E+00  6.64085E+00  2.82940E+00  3.47264E+00  5.00808E+00
   5.58436E+00  2.51260E+00  7.32506E+00  4.71362E+00  6.49269E+00  4.17879E+00  7.13008E+00  6.63089E+00  6.00285E+00  7.48129E+00
   8.18304E+00  8.35096E+00  5.76202E+00  5.09389E+00  4.68916E+00  5.33707E+00  6.33917E+00  4.43728E+00  6.06739E+00  3.82063E+00
   5.80628E+00  3.54646E+00  5.62059E+00  5.87576E+00  5.92263E+00  2.72497E+00  5.73410E+00  5.16556E+00  4.97588E+00  7.08894E+00
   5.84987E+00  8.59992E+00  7.80424E+00  6.27002E+00  8.28879E+00  6.77067E+00  8.88363E+00  8.28688E+00  9.68972E+00  6.98584E+00
   5.68765E+00  7.30544E+00  5.55870E+00  5.70910E+00  8.39050E+00  5.95261E+00  7.51397E+00  8.36756E+00  7.77397E+00  6.57430E+00
   6.05108E+00  1.06971E+01  6.73974E+00  5.94122E+00  8.24723E+00  6.71887E+00  9.18024E+00  6.69170E+00  9.66144E+00  6.65773E+00
   7.04622E+00  8.01566E+00  8.75359E+00  8.93166E+00  9.89281E+00  8.08870E+00  7.80119E+00  8.07386E+00  8.99782E+00  1.20720E+01
   7.51820E+00  7.49958E+00  1.03012E+01  1.00967E+01  9.28379E+00  8.30575E+00  7.23620E+00  8.52893E+00  6.84965E+00  5.88821E+00
   9.47699E+00  9.96988E+00  7.48482E+00  8.28479E+00  7.71450E+00  8.83318E+00  9.57026E+00  7.90518E+00  1.05624E+01  1.06641E+01
   6.72107E+00  7.04369E+00  8.55888E+00  9.61390E+00  8.54365E+00  9.79016E+00  1.09872E+01  1.01011E+01  1.26384E+01  1.18343E+01
   1.04207E+01  1.21407E+01  1.14714E+01  1.03434E+01  1.43108E+01  8.80469E+00  1.51497E+01  9.08572E+00  1.17299E+01  9.85196E+00
   1.24905E+01  1.12352E+01  1.02293E+01  1.30142E+01  1.31588E+01  9.72998E+00  1.26566E+01  9.77273E+00  9.67883E+00  9.66002E+00
   1.07867E+01  1.12013E+01  1.18721E+01  1.20771E+01  1.63183E+01  1.38646E+01  1.22866E+01  1.20355E+01  1.18175E+01  1.09949E+01
   1.18824E+01  1.18435E+01  1.22602E+01  1.46212E+01  1.15681E+01  1.34843E+01  1.47673E+01  1.31685E+01  1.01016E+01  1.55094E+01
   1.54406E+01  1.50579E+01  1.57238E+01  1.64308E+01  1.30405E+01  1.51026E+01  1.52219E+01  1.31584E+01  1.62810E+01  1.73822E+01
   1.44919E+01  1.56041E+01  1.65019E+01  1.79123E+01  1.88286E+01  2.01634E+01  2.03317E+01  1.96796E+01  1.91067E+01  1.53926E+01
   1.45376E+01  1.59235E+01  1.27491E+01  1.27795E+01  8.70132E+00  1.21445E+01  1.38678E+01  1.37469E+01  1.49073E+01  1.65186E+01
   1.67389E+01  1.56984E+01  1.69551E+01  1.49173E+01  1.60923E+01  1.72182E+01  1.33064E+01  1.38772E+01  1.39161E+01  1.33790E+01
   1.53684E+01  1.36630E+01  1.43635E+01  1.59751E+01  1.82393E+01  1.79929E+01  1.57429E+01  1.70584E+01  1.90695E+01  1.69106E+01
   1.67892E+01  1.92014E+01  1.69828E+01  1.83947E+01  1.90673E+01  1.97348E+01  1.93248E+01  1.88989E+01  1.89892E+01  2.11825E+01
   2.05839E+01  1.88176E+01  2.24236E+01  2.12712E+01  2.18525E+01  2.17351E+01  2.20153E+01  2.30183E+01  2.77759E+01  2.30604E+01
   2.46454E+01  2.75635E+01  2.64046E+01  2.57379E+01  2.54975E+01  2.55015E+01  2.63496E+01  2.72870E+01  2.68252E+01  2.80678E+01
   2.90242E+01  2.70136E+01  2.91175E+01  3.07363E+01  2.99774E+01  2.87503E+01  3.15794E+01  2.97508E+01  3.28444E+01  3.48456E+01
   3.46825E+01  3.69858E+01  3.27764E+01  3.59266E+01  3.86964E+01  3.69048E+01  4.02254E+01  3.96845E+01  4.00468E+01  4.05610E+01
   4.37476E+01  4.22127E+01  4.17179E+01  4.33119E+01  4.23554E+01  4.55985E+01  4.54983E+01  4.55294E+01  4.74429E+01  4.68252E+01
   4.93442E+01  4.98859E+01  4.87750E+01  4.93069E+01  5.38246E+01  5.21919E+01  5.22032E+01  5.29787E+01  5.41471E+01  5.54545E+01
   5.68191E+01  5.88212E+01  5.72605E+01  5.79318E+01  6.01798E+01  6.06795E+01  5.82041E+01  6.09840E+01  6.10396E+01  5.85348E+01
   5.96444E+01  6.07399E+01  5.93359E+01  5.80792E+01  5.75332E+01  5.98489E+01  5.85684E+01  6.10873E+01  6.08250E+01  5.92747E+01
   5.98220E+01  5.75731E+01  6.14712E+01  5.99734E+01  5.75251E+01  5.78155E+01  5.76029E+01  5.85180E+01  5.83646E+01  5.93982E+01
   5.84643E+01  5.87721E+01  5.82245E+01  5.72520E+01  5.70823E+01  5.32972E+01  5.61622E+01  5.46795E+01  5.43034E+01  5.42364E+01
   5.41760E+01  5.62352E+01  5.17226E+01  4.98390E+01  5.10817E+01  5.05323E+01  4.77808E+01  4.63513E+01  4.77734E+01  4.86845E+01
   4.36291E+01  4.33822E+01  4.15900E+01  4.24234E+01  4.13102E+01  3.75071E+01  3.82340E+01  3.64006E+01  3.41803E+01  3.45933E+01
   3.31499E+01  3.15940E+01  3.32440E+01  3.12741E+01  3.02675E+01  2.96493E+01  2.65619E+01  2.74866E+01  2.71824E+01  2.60330E+01
   2.29411E+01  2.33225E+01  2.23306E+01  2.08047E+01  2.19289E+01  2.06861E+01  1.97272E+01  1.97882E+01  1.98135E+01  1.72632E+01
   1.61262E+01  1.65260E+01  1.53309E+01  1.42038E+01  1.38513E+01  1.56944E+01  1.39398E+01  1.23352E+01  1.09842E+01  1.00341E+01
   9.89390E+00  9.36814E+00  8.54751E+00  1.28184E+01  9.72094E+00  8.44825E+00  8.56531E+00  7.65565E+00  8.23528E+00  5.99555E+00
   6.74761E+00  5.55181E+00  4.58161E+00  3.21584E+00  5.27902E+00  5.24288E+00  3.35507E+00  3.21005E+00  3.38385E+00  2.06833E+00
   3.12448E+00  6.03649E-01  1.89369E+00  2.12502E+00  1.62246E+00  1.85914E+00  1.49667E+00  1.30584E+00 -3.41217E-01  8.74613E-01
  -8.68396E-01 -4.95538E-01  1.16349E-01 -1.60816E+00 -3.11688E+00 -3.17108E+00 -7.70373E-01 -1.71571E+00 -2.37039E+00 -3.48651E+00
  -2.52310E+00 -1.64931E+00 -2.28503E+00 -4.67631E+00 -1.71095E+00 -3.55078E+00 -2.46457E+00 -1.02551E+00
 NY points of the fit to the data follow
   1.40315E+00  1.48241E+00  1.55735E+00  1.59025E+00  1.56412E+00  1.51848E+00  1.48660E+00  1.49096E+00  1.53765E+00  1.62764E+00
   1.80737E+00  2.06265E+00  2.27454E+00  2.30792E+00  2.19793E+00  2.09621E+00  2.08427E+00  2.11888E+00  2.15231E+00  2.18910E+00
   2.25449E+00  2.36095E+00  2.44714E+00  2.44950E+00  2.37649E+00  2.26577E+00  2.18615E+00  2.17068E+00  2.24346E+00  2.48032E+00
   2.84087E+00  3.15961E+00  3.24749E+00  3.06825E+00  2.73830E+00  2.38681E+00  2.16557E+00  2.20451E+00  2.47419E+00  2.81211E+00
   3.07937E+00  3.21356E+00  3.24645E+00  3.24435E+00  3.28377E+00  3.36679E+00  3.42305E+00  3.40654E+00  3.29587E+00  3.07128E+00
   2.80612E+00  2.68522E+00  2.82238E+00  3.10995E+00  3.36071E+00  3.50602E+00  3.59029E+00  3.65417E+00  3.68952E+00  3.70011E+00
   3.68632E+00  3.63755E+00  3.56258E+00  3.50198E+00  3.51421E+00  3.60357E+00  3.73367E+00  3.86760E+00  3.96683E+00  4.02072E+00
   4.03513E+00  4.02978E+00  4.02940E+00  4.03081E+00  4.02851E+00  4.03137E+00  4.06432E+00  4.12648E+00  4.18987E+00  4.23908E+00
   4.28267E+00  4.33788E+00  4.39046E+00  4.42589E+00  4.44052E+00  4.44067E+00  4.43861E+00  4.42487E+00  4.41009E+00  4.44292E+00
   4.56529E+00  4.73772E+00  4.86362E+00  4.90118E+00  4.88993E+00  4.86684E+00  4.84821E+00  4.83924E+00  4.84664E+00  4.88162E+00
   4.95235E+00  5.05111E+00  5.14568E+00  5.21712E+00  5.27300E+00  5.32802E+00  5.38367E+00  5.43235E+00  5.47353E+00  5.51489E+00
   5.56535E+00  5.62302E+00  5.68198E+00  5.73949E+00  5.79557E+00  5.84772E+00  5.90014E+00  5.95553E+00  6.01105E+00  6.06851E+00
   6.12896E+00  6.20235E+00  6.29251E+00  6.38708E+00  6.47491E+00  6.56228E+00  6.65477E+00  6.73490E+00  6.78474E+00  6.80857E+00
   6.82882E+00  6.86344E+00  6.90585E+00  6.95224E+00  7.01598E+00  7.10717E+00  7.21929E+00  7.31983E+00  7.39428E+00  7.45394E+00
   7.51484E+00  7.58053E+00  7.63768E+00  7.69517E+00  7.76949E+00  7.85017E+00  7.91616E+00  7.95713E+00  7.98591E+00  8.01725E+00
   8.05844E+00  8.11324E+00  8.16808E+00  8.22795E+00  8.30208E+00  8.37708E+00  8.44797E+00  8.50534E+00  8.51812E+00  8.47742E+00
   8.42157E+00  8.39505E+00  8.45961E+00  8.61352E+00  8.75431E+00  8.76376E+00  8.64898E+00  8.53665E+00  8.51041E+00  8.58432E+00
   8.68332E+00  8.74030E+00  8.76805E+00  8.76761E+00  8.71761E+00  8.65517E+00  8.64652E+00  8.73863E+00  8.88162E+00  8.98184E+00
   8.96669E+00  8.88575E+00  8.88576E+00  9.02466E+00  9.22932E+00  9.36689E+00  9.38089E+00  9.32341E+00  9.31781E+00  9.39770E+00
   9.46660E+00  9.43573E+00  9.36097E+00  9.31676E+00  9.32455E+00  9.38379E+00  9.48785E+00  9.60992E+00  9.68619E+00  9.73902E+00
   9.82588E+00  9.95304E+00  1.00403E+01  1.00679E+01  1.00493E+01  9.98248E+00  9.86898E+00  9.75669E+00  9.77299E+00  9.96532E+00
   1.03290E+01  1.08425E+01  1.13333E+01  1.16745E+01  1.17827E+01  1.16712E+01  1.13494E+01  1.07210E+01  1.00633E+01  9.83115E+00
   1.02305E+01  1.09716E+01  1.17097E+01  1.24031E+01  1.30839E+01  1.34993E+01  1.33783E+01  1.28864E+01  1.24558E+01  1.23293E+01
   1.24293E+01  1.26255E+01  1.28919E+01  1.31888E+01  1.34405E+01  1.35565E+01  1.35377E+01  1.34426E+01  1.33558E+01  1.33989E+01
   1.36049E+01  1.39259E+01  1.42670E+01  1.46133E+01  1.49512E+01  1.51857E+01  1.52112E+01  1.50740E+01  1.49862E+01  1.50875E+01
   1.54577E+01  1.63721E+01  1.75437E+01  1.85769E+01  1.92355E+01  1.97451E+01  2.02287E+01  1.97753E+01  1.81744E+01  1.62483E+01
   1.55085E+01  1.54564E+01  1.41008E+01  1.17132E+01  1.06014E+01  1.17683E+01  1.35660E+01  1.45177E+01  1.47669E+01  1.48480E+01
   1.48897E+01  1.49415E+01  1.50003E+01  1.50262E+01  1.49951E+01  1.49158E+01  1.48231E+01  1.47600E+01  1.47696E+01  1.48651E+01
   1.50158E+01  1.51790E+01  1.53324E+01  1.54873E+01  1.56521E+01  1.58157E+01  1.59851E+01  1.61873E+01  1.64368E+01  1.67272E+01
   1.70509E+01  1.74031E+01  1.77807E+01  1.81700E+01  1.85553E+01  1.89345E+01  1.93263E+01  1.97477E+01  2.01923E+01  2.06428E+01
   2.10960E+01  2.15502E+01  2.19936E+01  2.24105E+01  2.27957E+01  2.31569E+01  2.35000E+01  2.38247E+01  2.41311E+01  2.44207E+01
   2.46961E+01  2.49615E+01  2.52222E+01  2.54844E+01  2.57545E+01  2.60391E+01  2.63448E+01  2.66778E+01  2.70431E+01  2.74445E+01
   2.78853E+01  2.83674E+01  2.88914E+01  2.94567E+01  3.00612E+01  3.07019E+01  3.13746E+01  3.20744E+01  3.27957E+01  3.35329E+01
   3.42800E+01  3.50316E+01  3.57825E+01  3.65282E+01  3.72652E+01  3.79907E+01  3.87033E+01  3.94024E+01  4.00887E+01  4.07637E+01
   4.14298E+01  4.20902E+01  4.27486E+01  4.34089E+01  4.40753E+01  4.47518E+01  4.54422E+01  4.61498E+01  4.68770E+01  4.76258E+01
   4.83967E+01  4.91895E+01  5.00025E+01  5.08329E+01  5.16763E+01  5.25274E+01  5.33792E+01  5.42236E+01  5.50514E+01  5.58528E+01
   5.66172E+01  5.73339E+01  5.79922E+01  5.85824E+01  5.90957E+01  5.95250E+01  5.98650E+01  6.01130E+01  6.02690E+01  6.03359E+01
   6.03194E+01  6.02281E+01  6.00730E+01  5.98672E+01  5.96255E+01  5.93634E+01  5.90965E+01  5.88396E+01  5.86063E+01  5.84077E+01
   5.82523E+01  5.81450E+01  5.80874E+01  5.80771E+01  5.81082E+01  5.81714E+01  5.82543E+01  5.83426E+01  5.84201E+01  5.84703E+01
   5.84767E+01  5.84239E+01  5.82983E+01  5.80888E+01  5.77875E+01  5.73894E+01  5.68932E+01  5.63008E+01  5.56172E+01  5.48500E+01
   5.40089E+01  5.31051E+01  5.21507E+01  5.11579E+01  5.01384E+01  4.91031E+01  4.80616E+01  4.70216E+01  4.59893E+01  4.49689E+01
   4.39629E+01  4.29720E+01  4.19957E+01  4.10323E+01  4.00794E+01  3.91339E+01  3.81926E+01  3.72526E+01  3.63108E+01  3.53651E+01
   3.44136E+01  3.34553E+01  3.24898E+01  3.15175E+01  3.05395E+01  2.95572E+01  2.85728E+01  2.75887E+01  2.66076E+01  2.56324E+01
   2.46660E+01  2.37114E+01  2.27711E+01  2.18478E+01  2.09438E+01  2.00611E+01  1.92014E+01  1.83660E+01  1.75561E+01  1.67724E+01
   1.60153E+01  1.52851E+01  1.45816E+01  1.39047E+01  1.32540E+01  1.26287E+01  1.20282E+01  1.14518E+01  1.08984E+01  1.03673E+01
   9.85735E+00  9.36767E+00  8.89723E+00  8.44509E+00  8.01029E+00  7.59192E+00  7.18907E+00  6.80087E+00  6.42650E+00  6.06520E+00
   5.71622E+00  5.37885E+00  5.05241E+00  4.73628E+00  4.42985E+00  4.13261E+00  3.84401E+00  3.56356E+00  3.29079E+00  3.02528E+00
   2.76663E+00  2.51448E+00  2.26846E+00  2.02823E+00  1.79349E+00  1.56395E+00  1.33934E+00  1.11942E+00  9.03946E-01  6.92686E-01
   4.85427E-01  2.81990E-01  8.21948E-02 -1.14124E-01 -3.07143E-01 -4.97014E-01 -6.83880E-01 -8.67857E-01 -1.04907E+00 -1.22763E+00
  -1.40368E+00 -1.57730E+00 -1.74859E+00 -1.91763E+00 -2.08451E+00 -2.24931E+00 -2.41212E+00 -2.57300E+00
 NY background values follow
     1.247E+00    1.279E+00    1.310E+00    1.342E+00    1.373E+00    1.405E+00    1.436E+00    1.468E+00    1.499E+00    1.531E+00
     1.563E+00    1.594E+00    1.626E+00    1.657E+00    1.689E+00    1.720E+00    1.752E+00    1.784E+00    1.815E+00    1.847E+00
     1.878E+00    1.910E+00    1.941E+00    1.973E+00    2.005E+00    2.036E+00    2.068E+00    2.099E+00    2.131E+00    2.163E+00
     2.194E+00    2.226E+00    2.257E+00    2.289E+00    2.321E+00    2.352E+00    2.384E+00    2.415E+00    2.447E+00    2.479E+00
     2.510E+00    2.542E+00    2.573E+00    2.605E+00    2.637E+00    2.668E+00    2.700E+00    2.731E+00    2.763E+00    2.795E+00
     2.826E+00    2.858E+00    2.889E+00    2.921E+00    2.953E+00    2.984E+00    3.016E+00    3.048E+00    3.079E+00    3.111E+00
     3.143E+00    3.174E+00    3.206E+00    3.238E+00    3.269E+00    3.301E+00    3.333E+00    3.365E+00    3.396E+00    3.428E+00
     3.460E+00    3.492E+00    3.524E+00    3.556E+00    3.588E+00    3.620E+00    3.652E+00    3.684E+00    3.716E+00    3.748E+00
     3.780E+00    3.812E+00    3.844E+00    3.876E+00    3.908E+00    3.940E+00    3.973E+00    4.005E+00    4.037E+00    4.070E+00
     4.102E+00    4.134E+00    4.167E+00    4.199E+00    4.232E+00    4.264E+00    4.297E+00    4.330E+00    4.362E+00    4.395E+00
     4.428E+00    4.461E+00    4.494E+00    4.527E+00    4.560E+00    4.593E+00    4.627E+00    4.660E+00    4.694E+00    4.727E+00
     4.761E+00    4.795E+00    4.828E+00    4.862E+00    4.896E+00    4.931E+00    4.965E+00    4.999E+00    5.034E+00    5.068E+00
     5.103E+00    5.138E+00    5.173E+00    5.208E+00    5.243E+00    5.279E+00    5.314E+00    5.350E+00    5.386E+00    5.422E+00
     5.458E+00    5.494E+00    5.531E+00    5.567E+00    5.604E+00    5.641E+00    5.678E+00    5.715E+00    5.753E+00    5.790E+00
     5.828E+00    5.866E+00    5.904E+00    5.942E+00    5.980E+00    6.019E+00    6.057E+00    6.095E+00    6.134E+00    6.173E+00
     6.211E+00    6.250E+00    6.289E+00    6.328E+00    6.367E+00    6.406E+00    6.445E+00    6.484E+00    6.522E+00    6.561E+00
     6.600E+00    6.639E+00    6.678E+00    6.717E+00    6.755E+00    6.794E+00    6.833E+00    6.871E+00    6.910E+00    6.948E+00
     6.986E+00    7.024E+00    7.062E+00    7.100E+00    7.138E+00    7.176E+00    7.213E+00    7.250E+00    7.287E+00    7.324E+00
     7.361E+00    7.398E+00    7.434E+00    7.470E+00    7.506E+00    7.542E+00    7.577E+00    7.613E+00    7.648E+00    7.682E+00
     7.717E+00    7.751E+00    7.785E+00    7.818E+00    7.852E+00    7.885E+00    7.917E+00    7.950E+00    7.982E+00    8.014E+00
     8.045E+00    8.076E+00    8.107E+00    8.137E+00    8.167E+00    8.196E+00    8.225E+00    8.254E+00    8.282E+00    8.310E+00
     8.338E+00    8.365E+00    8.391E+00    8.417E+00    8.443E+00    8.468E+00    8.493E+00    8.517E+00    8.541E+00    8.564E+00
     8.587E+00    8.609E+00    8.630E+00    8.652E+00    8.672E+00    8.692E+00    8.712E+00    8.731E+00    8.749E+00    8.767E+00
     8.784E+00    8.800E+00    8.817E+00    8.832E+00    8.847E+00    8.861E+00    8.875E+00    8.888E+00    8.901E+00    8.913E+00
     8.924E+00    8.935E+00    8.946E+00    8.955E+00    8.964E+00    8.973E+00    8.981E+00    8.988E+00    8.995E+00    9.001E+00
     9.007E+00    9.012E+00    9.017E+00    9.020E+00    9.024E+00    9.026E+00    9.028E+00    9.030E+00    9.031E+00    9.031E+00
     9.031E+00    9.030E+00    9.028E+00    9.026E+00    9.024E+00    9.020E+00    9.016E+00    9.012E+00    9.007E+00    9.001E+00
     8.995E+00    8.988E+00    8.980E+00    8.972E+00    8.964E+00    8.954E+00    8.944E+00    8.934E+00    8.922E+00    8.911E+00
     8.898E+00    8.885E+00    8.872E+00    8.858E+00    8.843E+00    8.828E+00    8.812E+00    8.795E+00    8.778E+00    8.760E+00
     8.742E+00    8.723E+00    8.704E+00    8.684E+00    8.663E+00    8.642E+00    8.620E+00    8.598E+00    8.575E+00    8.551E+00
     8.527E+00    8.503E+00    8.477E+00    8.452E+00    8.425E+00    8.398E+00    8.371E+00    8.343E+00    8.314E+00    8.285E+00
     8.255E+00    8.224E+00    8.194E+00    8.162E+00    8.130E+00    8.097E+00    8.064E+00    8.031E+00    7.996E+00    7.961E+00
     7.926E+00    7.890E+00    7.854E+00    7.817E+00    7.779E+00    7.741E+00    7.702E+00    7.663E+00    7.623E+00    7.583E+00
     7.542E+00    7.501E+00    7.459E+00    7.417E+00    7.374E+00    7.330E+00    7.286E+00    7.242E+00    7.197E+00    7.151E+00
     7.105E+00    7.059E+00    7.012E+00    6.964E+00    6.916E+00    6.867E+00    6.818E+00    6.769E+00    6.719E+00    6.668E+00
     6.617E+00    6.565E+00    6.513E+00    6.461E+00    6.407E+00    6.354E+00    6.300E+00    6.245E+00    6.190E+00    6.135E+00
     6.079E+00    6.022E+00    5.965E+00    5.908E+00    5.850E+00    5.792E+00    5.733E+00    5.674E+00    5.614E+00    5.554E+00
     5.493E+00    5.432E+00    5.370E+00    5.308E+00    5.245E+00    5.182E+00    5.119E+00    5.055E+00    4.991E+00    4.926E+00
     4.860E+00    4.795E+00    4.728E+00    4.662E+00    4.594E+00    4.527E+00    4.459E+00    4.390E+00    4.321E+00    4.252E+00
     4.182E+00    4.112E+00    4.041E+00    3.970E+00    3.898E+00    3.826E+00    3.754E+00    3.681E+00    3.607E+00    3.533E+00
     3.459E+00    3.384E+00    3.309E+00    3.234E+00    3.158E+00    3.081E+00    3.004E+00    2.927E+00    2.849E+00    2.771E+00
     2.692E+00    2.613E+00    2.534E+00    2.454E+00    2.374E+00    2.293E+00    2.212E+00    2.130E+00    2.048E+00    1.966E+00
     1.883E+00    1.800E+00    1.716E+00    1.632E+00    1.548E+00    1.463E+00    1.378E+00    1.292E+00    1.206E+00    1.120E+00
     1.033E+00    9.454E-01    8.577E-01    7.696E-01    6.811E-01    5.922E-01    5.029E-01    4.133E-01    3.232E-01    2.328E-01
     1.419E-01    5.068E-02   -4.094E-02   -1.329E-01   -2.253E-01   -3.181E-01   -4.113E-01   -5.048E-01   -5.987E-01   -6.930E-01
    -7.877E-01   -8.828E-01   -9.782E-01   -1.074E+00   -1.170E+00   -1.267E+00   -1.364E+00   -1.461E+00   -1.558E+00   -1.656E+00
    -1.754E+00   -1.853E+00   -1.951E+00   -2.050E+00   -2.150E+00   -2.249E+00   -2.349E+00   -2.449E+00   -2.549E+00   -2.649E+00
    -2.750E+00   -2.851E+00   -2.952E+00   -3.053E+00   -3.154E+00   -3.256E+00   -3.357E+00   -3.459E+00   -3.561E+00   -3.663E+00
    -3.765E+00   -3.867E+00   -3.969E+00   -4.072E+00   -4.174E+00   -4.276E+00   -4.379E+00   -4.481E+00   -4.584E+00   -4.687E+00
    -4.789E+00   -4.892E+00   -4.994E+00   -5.097E+00   -5.199E+00   -5.301E+00   -5.404E+00   -5.506E+00
 Asp      Conc. = 2.70E+00
