 LCModel (Version 6.3-1L) Copyright: S.W. Provencher.          Ref.: Magn. Reson. Med. 30:672-679 (1993).                
 Slice#2 Row#4 Col#5  PD_24_press_1_raw_act
 36 lines in following concentration table = NCONC+1
    Conc.  %SD /Cr+PCr  Metabolite                                         
  737.718  31%   0.425 Ala                                                 
    0.000 999%   0.000 Asp                                                 
 1.74E+03   4%   1.000 Cr                                                  
    0.000 999%   0.000 PCr                                                 
  179.285 119%   0.103 GABA                                                
    0.000 999%   0.000 Glc                                                 
 1.72E+03  27%   0.990 Gln                                                 
 2.21E+03  25%   1.272 Glu                                                 
  711.314   4%   0.409 GPC                                                 
    0.000 999%   0.000 PCh                                                 
  600.016  17%   0.345 GSH                                                 
 1.20E+03  28%   0.689 Ins                                                 
  237.124 114%   0.136 Lac                                                 
 2.56E+03   7%   1.473 NAA                                                 
   13.073 999% 7.5E-03 NAAG                                                
   55.916  60% 3.2E-02 Scyllo                                              
    0.000 999%   0.000 Tau                                                 
    0.000 999%   0.000 -CrCH2                                              
  711.314   4%   0.409 GPC+PCh                                             
 2.57E+03   4%   1.480 NAA+NAAG                                            
 1.74E+03   4%   1.000 Cr+PCr                                              
 3.93E+03  23%   2.261 Glu+Gln                                             
    0.000 999%   0.000 Lip13a                                              
    0.000 999%   0.000 Lip13b                                              
    0.000 999%   0.000 Lip09                                               
 2.26E+03  11%   1.301 MM09                                                
   36.475 452% 2.1E-02 Lip20                                               
 4.63E+03  11%   2.664 MM20                                                
 1.13E+03  15%   0.648 MM12                                                
 3.25E+03  14%   1.871 MM14                                                
 2.35E+03  16%   1.354 MM17                                                
    0.000 999%   0.000 Lip13a+Lip13b                                       
 4.38E+03  11%   2.519 MM14+Lip13a+Lip13b+MM12                             
 2.26E+03  11%   1.301 MM09+Lip09                                          
 4.67E+03  10%   2.685 MM20+Lip20                                          
   6 lines in following misc. output table
  FWHM = 0.084 ppm    S/N =  11                                            
  Data shift = 0.015 ppm                                                   
  Ph:  -7 deg      -3.4 deg/ppm                                            
  alphaB,S = 1.2E+00,   2.0E+02                                            
   14 spline knots.   Ns =11(1)                                            
  (20) 7 infls.   (15) 1 extrs.                                            
  498 points on ppm-axis = NY
      4.000000     3.992357     3.984714     3.977070     3.969427     3.961784     3.954141     3.946497     3.938854     3.931211
      3.923568     3.915925     3.908281     3.900638     3.892995     3.885352     3.877708     3.870065     3.862422     3.854779
      3.847136     3.839492     3.831849     3.824206     3.816563     3.808919     3.801276     3.793633     3.785990     3.778347
      3.770703     3.763060     3.755417     3.747774     3.740130     3.732487     3.724844     3.717201     3.709558     3.701914
      3.694271     3.686628     3.678985     3.671341     3.663698     3.656055     3.648412     3.640769     3.633125     3.625482
      3.617839     3.610196     3.602552     3.594909     3.587266     3.579623     3.571980     3.564336     3.556693     3.549050
      3.541407     3.533763     3.526120     3.518477     3.510834     3.503191     3.495547     3.487904     3.480261     3.472618
      3.464974     3.457331     3.449688     3.442045     3.434402     3.426758     3.419115     3.411472     3.403829     3.396185
      3.388542     3.380899     3.373256     3.365613     3.357969     3.350326     3.342683     3.335040     3.327396     3.319753
      3.312110     3.304467     3.296824     3.289180     3.281537     3.273894     3.266251     3.258607     3.250964     3.243321
      3.235678     3.228034     3.220391     3.212748     3.205105     3.197462     3.189818     3.182175     3.174532     3.166889
      3.159245     3.151602     3.143959     3.136316     3.128673     3.121029     3.113386     3.105743     3.098100     3.090456
      3.082813     3.075170     3.067527     3.059884     3.052240     3.044597     3.036954     3.029311     3.021667     3.014024
      3.006381     2.998738     2.991095     2.983451     2.975808     2.968165     2.960522     2.952878     2.945235     2.937592
      2.929949     2.922306     2.914662     2.907019     2.899376     2.891733     2.884089     2.876446     2.868803     2.861160
      2.853517     2.845873     2.838230     2.830587     2.822944     2.815300     2.807657     2.800014     2.792371     2.784728
      2.777084     2.769441     2.761798     2.754155     2.746511     2.738868     2.731225     2.723582     2.715939     2.708295
      2.700652     2.693009     2.685366     2.677722     2.670079     2.662436     2.654793     2.647150     2.639506     2.631863
      2.624220     2.616577     2.608933     2.601290     2.593647     2.586004     2.578361     2.570717     2.563074     2.555431
      2.547788     2.540144     2.532501     2.524858     2.517215     2.509572     2.501928     2.494285     2.486642     2.478999
      2.471355     2.463712     2.456069     2.448426     2.440783     2.433139     2.425496     2.417853     2.410210     2.402566
      2.394923     2.387280     2.379637     2.371994     2.364350     2.356707     2.349064     2.341421     2.333777     2.326134
      2.318491     2.310848     2.303205     2.295561     2.287918     2.280275     2.272632     2.264988     2.257345     2.249702
      2.242059     2.234416     2.226772     2.219129     2.211486     2.203843     2.196199     2.188556     2.180913     2.173270
      2.165627     2.157983     2.150340     2.142697     2.135054     2.127410     2.119767     2.112124     2.104481     2.096838
      2.089194     2.081551     2.073908     2.066265     2.058621     2.050978     2.043335     2.035692     2.028049     2.020405
      2.012762     2.005119     1.997476     1.989833     1.982190     1.974546     1.966903     1.959260     1.951617     1.943974
      1.936331     1.928688     1.921045     1.913402     1.905759     1.898115     1.890472     1.882829     1.875186     1.867543
      1.859900     1.852257     1.844614     1.836971     1.829327     1.821684     1.814041     1.806398     1.798755     1.791112
      1.783469     1.775826     1.768183     1.760540     1.752896     1.745253     1.737610     1.729967     1.722324     1.714681
      1.707038     1.699395     1.691752     1.684108     1.676465     1.668822     1.661179     1.653536     1.645893     1.638250
      1.630607     1.622964     1.615321     1.607677     1.600034     1.592391     1.584748     1.577105     1.569462     1.561819
      1.554176     1.546533     1.538890     1.531246     1.523603     1.515960     1.508317     1.500674     1.493031     1.485388
      1.477745     1.470102     1.462458     1.454815     1.447172     1.439529     1.431886     1.424243     1.416600     1.408957
      1.401314     1.393671     1.386027     1.378384     1.370741     1.363098     1.355455     1.347812     1.340169     1.332526
      1.324883     1.317240     1.309596     1.301953     1.294310     1.286667     1.279024     1.271381     1.263738     1.256095
      1.248452     1.240808     1.233165     1.225522     1.217879     1.210236     1.202593     1.194950     1.187307     1.179664
      1.172021     1.164377     1.156734     1.149091     1.141448     1.133805     1.126162     1.118519     1.110876     1.103233
      1.095590     1.087946     1.080303     1.072660     1.065017     1.057374     1.049731     1.042088     1.034445     1.026802
      1.019158     1.011515     1.003872     0.996229     0.988586     0.980943     0.973300     0.965657     0.958014     0.950371
      0.942727     0.935084     0.927441     0.919798     0.912155     0.904512     0.896869     0.889226     0.881583     0.873940
      0.866296     0.858653     0.851010     0.843367     0.835724     0.828081     0.820438     0.812795     0.805152     0.797508
      0.789865     0.782222     0.774579     0.766936     0.759293     0.751650     0.744007     0.736364     0.728721     0.721077
      0.713434     0.705791     0.698148     0.690505     0.682862     0.675219     0.667576     0.659933     0.652290     0.644646
      0.637003     0.629360     0.621717     0.614074     0.606431     0.598788     0.591145     0.583502     0.575858     0.568215
      0.560572     0.552929     0.545286     0.537643     0.530000     0.522357     0.514714     0.507071     0.499427     0.491784
      0.484141     0.476498     0.468855     0.461212     0.453569     0.445925     0.438282     0.430639     0.422996     0.415353
      0.407710     0.400067     0.392424     0.384780     0.377137     0.369494     0.361851     0.354208     0.346565     0.338922
      0.331278     0.323635     0.315992     0.308349     0.300706     0.293063     0.285420     0.277777     0.270133     0.262490
      0.254847     0.247204     0.239561     0.231918     0.224275     0.216631     0.208988     0.201345
 NY phased data points follow
   3.28946E+01  3.26920E+01  3.74443E+01  3.51302E+01  3.76055E+01  4.45213E+01  4.83031E+01  5.36913E+01  5.79315E+01  5.87804E+01
   5.85533E+01  6.00697E+01  5.59794E+01  5.68104E+01  4.90779E+01  4.79399E+01  5.06264E+01  4.30492E+01  4.56792E+01  4.25204E+01
   4.18624E+01  3.44455E+01  3.83861E+01  3.60167E+01  3.20381E+01  3.68154E+01  3.61373E+01  3.55955E+01  3.69905E+01  3.30503E+01
   3.50714E+01  3.75533E+01  3.59422E+01  3.78415E+01  3.62787E+01  3.87393E+01  3.67430E+01  3.50438E+01  3.30990E+01  3.54458E+01
   3.66386E+01  2.88356E+01  3.72932E+01  3.51248E+01  3.29324E+01  3.42641E+01  3.73233E+01  3.63124E+01  3.24061E+01  3.72892E+01
   3.56960E+01  3.35119E+01  3.38296E+01  2.86119E+01  3.03660E+01  2.80489E+01  2.85046E+01  2.90619E+01  2.60861E+01  2.09875E+01
   2.58781E+01  2.33128E+01  2.23329E+01  2.07435E+01  1.75169E+01  1.81280E+01  1.89124E+01  1.71511E+01  1.98080E+01  2.20369E+01
   1.92839E+01  2.17725E+01  1.84618E+01  1.79304E+01  1.92934E+01  1.51109E+01  1.66025E+01  1.54934E+01  2.06525E+01  1.49814E+01
   1.76690E+01  1.90854E+01  1.75043E+01  2.18377E+01  1.63770E+01  1.62177E+01  1.80734E+01  2.03716E+01  2.12495E+01  2.02200E+01
   2.18852E+01  1.87609E+01  2.35239E+01  2.32344E+01  2.09589E+01  2.28270E+01  2.32366E+01  2.78002E+01  3.92991E+01  4.69399E+01
   5.55636E+01  5.71470E+01  5.78015E+01  5.42582E+01  5.33792E+01  5.33460E+01  5.29343E+01  4.72873E+01  4.57323E+01  3.82059E+01
   3.54397E+01  3.32544E+01  2.76663E+01  2.96708E+01  2.70896E+01  2.80568E+01  2.78147E+01  2.43883E+01  2.70014E+01  2.69037E+01
   2.58232E+01  3.00205E+01  3.70031E+01  4.60203E+01  5.14085E+01  5.23511E+01  5.58705E+01  4.84214E+01  5.29892E+01  4.12728E+01
   4.38283E+01  4.16229E+01  4.02921E+01  3.40875E+01  3.32330E+01  3.08769E+01  2.20215E+01  2.73406E+01  2.29760E+01  2.19196E+01
   1.66596E+01  2.18393E+01  1.80878E+01  1.53912E+01  1.68732E+01  1.88717E+01  1.74054E+01  1.26984E+01  1.25959E+01  1.55843E+01
   1.51723E+01  1.38347E+01  1.14778E+01  1.38617E+01  1.11355E+01  1.51091E+01  1.39082E+01  1.17756E+01  1.32696E+01  1.30488E+01
   1.22639E+01  9.10384E+00  9.84390E+00  1.30720E+01  1.10806E+01  9.29484E+00  1.14753E+01  1.26545E+01  1.05490E+01  8.75909E+00
   1.14641E+01  1.11686E+01  4.64417E+00  4.00906E+00  2.75906E+00  3.99474E+00  2.91696E+00 -1.20610E+00  3.31701E+00  1.68115E+00
   6.56607E-01  5.64152E+00  2.01123E+00  4.09021E+00  2.26943E-01  2.87037E+00  6.64586E+00  1.00105E+01  9.79157E+00  1.48394E+01
   1.13176E+01  1.06009E+01  9.65943E+00  1.13212E+01  1.43802E+01  9.93267E+00  1.17601E+01  1.28921E+01  1.48433E+01  1.31526E+01
   1.58684E+01  1.20106E+01  8.79527E+00  1.23036E+01  1.28457E+01  1.09845E+01  1.25989E+01  1.08316E+01  1.11151E+01  1.11099E+01
   1.36224E+01  1.39139E+01  1.34180E+01  1.31215E+01  1.90310E+01  1.53573E+01  1.54758E+01  1.10809E+01  1.35353E+01  1.37245E+01
   1.59925E+01  1.31877E+01  1.33631E+01  1.83349E+01  1.57241E+01  1.79983E+01  1.69701E+01  1.45752E+01  1.40200E+01  1.50196E+01
   1.76641E+01  1.57048E+01  1.73247E+01  1.71877E+01  1.87534E+01  2.09203E+01  1.99667E+01  2.12798E+01  2.00952E+01  1.72870E+01
   1.66199E+01  1.72356E+01  2.05198E+01  2.56857E+01  2.47207E+01  2.50057E+01  2.07986E+01  2.65065E+01  2.47434E+01  2.52182E+01
   2.81917E+01  3.24174E+01  3.60491E+01  4.20036E+01  4.56415E+01  5.08498E+01  5.94901E+01  7.28726E+01  8.20350E+01  7.75249E+01
   7.69995E+01  7.34196E+01  6.60693E+01  6.75108E+01  6.06017E+01  5.56871E+01  4.89939E+01  4.41360E+01  3.99402E+01  3.46899E+01
   3.42679E+01  3.07887E+01  2.59593E+01  2.21396E+01  2.38384E+01  2.65407E+01  1.76684E+01  2.22538E+01  2.43051E+01  1.87606E+01
   2.02970E+01  2.08085E+01  1.88624E+01  1.70605E+01  1.43539E+01  1.59497E+01  1.48463E+01  1.82090E+01  1.50053E+01  1.78077E+01
   1.43111E+01  1.72176E+01  2.32403E+01  1.88284E+01  1.99321E+01  1.96049E+01  1.92365E+01  1.73212E+01  2.15243E+01  2.09329E+01
   2.08746E+01  1.91871E+01  2.19338E+01  2.09738E+01  1.68123E+01  2.09739E+01  2.31492E+01  2.31266E+01  2.17324E+01  2.25294E+01
   2.12206E+01  2.12401E+01  2.03720E+01  1.85051E+01  2.39954E+01  1.92074E+01  1.77855E+01  2.14513E+01  1.99328E+01  1.96702E+01
   2.23555E+01  3.00987E+01  2.22909E+01  2.64465E+01  2.08441E+01  2.38882E+01  2.02704E+01  2.29772E+01  2.24965E+01  2.30593E+01
   2.11816E+01  1.93847E+01  2.33681E+01  2.55684E+01  2.08026E+01  2.24912E+01  2.12361E+01  2.03213E+01  2.71555E+01  2.29806E+01
   1.80830E+01  2.42565E+01  2.65246E+01  2.17288E+01  2.65189E+01  2.16504E+01  2.00411E+01  1.81655E+01  1.55295E+01  1.70976E+01
   1.18086E+01  1.40599E+01  1.43607E+01  1.33974E+01  9.72815E+00  1.14870E+01  1.34272E+01  1.58561E+01  1.17101E+01  1.26422E+01
   8.36865E+00  8.84404E+00  1.17388E+01  1.36506E+01  1.27651E+01  1.03489E+01  1.77073E+01  1.80331E+01  1.73638E+01  1.69594E+01
   1.75220E+01  1.67873E+01  1.56633E+01  1.74454E+01  1.74228E+01  1.93783E+01  1.55679E+01  1.16941E+01  1.65492E+01  1.78519E+01
   1.26989E+01  1.23596E+01  1.21965E+01  1.32856E+01  1.14941E+01  1.08494E+01  1.15890E+01  1.17343E+01  9.41398E+00  1.06947E+01
   1.43383E+01  1.21769E+01  1.64101E+01  1.39526E+01  1.52742E+01  1.71560E+01  1.52618E+01  1.45390E+01  1.82704E+01  1.92371E+01
   2.30033E+01  1.61245E+01  1.95871E+01  1.44398E+01  1.55902E+01  1.93165E+01  1.80982E+01  1.82432E+01  1.64961E+01  1.66015E+01
   1.30319E+01  1.04106E+01  1.33294E+01  1.13398E+01  9.72997E+00  1.09053E+01  1.24502E+01  7.56439E+00  6.25946E+00  8.55344E+00
   1.14487E+01  3.56474E+00  1.85177E+00  2.23565E+00  6.07445E+00  2.06648E+00  5.05030E+00  5.65471E+00  4.39098E+00  5.96138E-01
  -1.25038E+00  7.02201E-01  4.90901E-01  1.15504E+00  1.69293E+00  1.79852E-01  1.70917E-01  4.52050E+00  4.44039E+00  4.10368E+00
   4.24833E+00  4.96188E+00  3.19566E-01  2.87204E+00 -1.86531E+00 -3.11091E+00  2.54856E+00  2.88428E+00 -4.43150E-02  5.04957E+00
   2.49806E+00  3.81356E+00  7.79974E-01  2.73803E-01 -4.22273E-01 -4.27894E+00  2.62914E+00 -2.55633E+00 -5.54625E-01  6.40802E-01
   2.13260E+00  4.14070E-02 -1.24517E+00  2.17888E+00  3.61612E+00 -1.50440E+00 -2.09717E+00 -5.95020E-01 -3.70336E+00 -2.08828E+00
   1.89034E+00  2.39421E+00  1.45038E+00  3.95858E+00  4.79372E+00 -5.59868E-02 -1.52136E+00 -8.18926E-01 -1.28225E+00  1.07826E+00
   8.14208E-01 -5.35179E-01 -4.47107E+00 -2.65215E-01 -6.52111E-03  1.93114E+00  3.55100E+00  3.95554E+00  1.29295E+00 -1.37915E+00
  -8.53334E-01  5.02064E-01  4.46132E+00 -1.42210E-01  2.17044E+00  8.03931E-01 -5.62664E-01  2.42557E-01
 NY points of the fit to the data follow
   3.36493E+01  3.48213E+01  3.59428E+01  3.72078E+01  3.91112E+01  4.21798E+01  4.63805E+01  5.07716E+01  5.41290E+01  5.57536E+01
   5.57931E+01  5.49355E+01  5.38057E+01  5.26049E+01  5.12329E+01  4.95041E+01  4.74380E+01  4.51920E+01  4.31072E+01  4.15413E+01
   4.03137E+01  3.88650E+01  3.67334E+01  3.44373E+01  3.34371E+01  3.37895E+01  3.50084E+01  3.66163E+01  3.80317E+01  3.89094E+01
   3.91007E+01  3.86320E+01  3.77308E+01  3.66762E+01  3.56226E+01  3.46883E+01  3.39994E+01  3.35371E+01  3.32238E+01  3.30080E+01
   3.29280E+01  3.28379E+01  3.27578E+01  3.29405E+01  3.31775E+01  3.31442E+01  3.27571E+01  3.22355E+01  3.17517E+01  3.12557E+01
   3.06797E+01  3.00085E+01  2.92573E+01  2.85616E+01  2.79544E+01  2.74391E+01  2.70637E+01  2.67280E+01  2.61705E+01  2.53664E+01
   2.46118E+01  2.40804E+01  2.36824E+01  2.33559E+01  2.31154E+01  2.29348E+01  2.27944E+01  2.26720E+01  2.25644E+01  2.24573E+01
   2.22920E+01  2.20361E+01  2.17458E+01  2.14826E+01  2.12710E+01  2.11401E+01  2.10371E+01  2.08747E+01  2.06494E+01  2.04211E+01
   2.02523E+01  2.01421E+01  2.00203E+01  1.97816E+01  1.93878E+01  1.89407E+01  1.85332E+01  1.82156E+01  1.79993E+01  1.78692E+01
   1.78143E+01  1.79344E+01  1.89349E+01  2.11363E+01  2.32768E+01  2.51700E+01  2.76351E+01  3.17716E+01  3.81154E+01  4.59334E+01
   5.32195E+01  5.78154E+01  5.90331E+01  5.78240E+01  5.55776E+01  5.31350E+01  5.05726E+01  4.76397E+01  4.42136E+01  4.04472E+01
   3.67310E+01  3.34435E+01  3.06943E+01  2.82557E+01  2.54938E+01  2.24728E+01  2.12934E+01  2.23297E+01  2.38213E+01  2.57177E+01
   2.88262E+01  3.37894E+01  4.03203E+01  4.69937E+01  5.18788E+01  5.39407E+01  5.36457E+01  5.21585E+01  5.03804E+01  4.84931E+01
   4.61867E+01  4.32367E+01  3.96905E+01  3.59376E+01  3.25388E+01  2.98058E+01  2.76541E+01  2.55034E+01  2.27312E+01  1.98882E+01
   1.84889E+01  1.79337E+01  1.75526E+01  1.72258E+01  1.68920E+01  1.65202E+01  1.61676E+01  1.58897E+01  1.56256E+01  1.53425E+01
   1.49966E+01  1.45731E+01  1.41450E+01  1.37626E+01  1.34281E+01  1.30997E+01  1.26821E+01  1.22151E+01  1.18151E+01  1.15748E+01
   1.14809E+01  1.14234E+01  1.12812E+01  1.09941E+01  1.05952E+01  1.01513E+01  9.72352E+00  9.37711E+00  9.05819E+00  8.68311E+00
   8.18734E+00  7.61987E+00  7.15269E+00  6.89041E+00  6.74674E+00  6.58943E+00  6.32686E+00  6.00859E+00  5.83036E+00  5.83163E+00
   5.92861E+00  6.04842E+00  6.15642E+00  6.31385E+00  6.66521E+00  7.26353E+00  8.06487E+00  8.87051E+00  9.50752E+00  9.85289E+00
   9.92636E+00  9.89583E+00  9.86331E+00  9.95574E+00  1.02225E+01  1.06970E+01  1.14374E+01  1.23891E+01  1.33615E+01  1.41118E+01
   1.46557E+01  1.48782E+01  1.45451E+01  1.35631E+01  1.21310E+01  1.07244E+01  9.67464E+00  9.12521E+00  9.21810E+00  9.90646E+00
   1.10870E+01  1.24241E+01  1.36059E+01  1.44583E+01  1.48573E+01  1.46322E+01  1.37896E+01  1.26162E+01  1.15190E+01  1.08819E+01
   1.09550E+01  1.17036E+01  1.27458E+01  1.35925E+01  1.42549E+01  1.47279E+01  1.50173E+01  1.51711E+01  1.53043E+01  1.56942E+01
   1.63262E+01  1.69732E+01  1.77111E+01  1.87661E+01  2.00963E+01  2.12414E+01  2.17412E+01  2.16255E+01  2.11571E+01  2.05634E+01
   2.01417E+01  2.00871E+01  2.04344E+01  2.10481E+01  2.16925E+01  2.22551E+01  2.28838E+01  2.36557E+01  2.46042E+01  2.65383E+01
   3.00184E+01  3.34558E+01  3.64204E+01  3.99026E+01  4.53419E+01  5.33245E+01  6.28634E+01  7.15935E+01  7.70067E+01  7.82496E+01
   7.63958E+01  7.31445E+01  6.95695E+01  6.58212E+01  6.15837E+01  5.66647E+01  5.12669E+01  4.59095E+01  4.11382E+01  3.71602E+01
   3.37099E+01  2.98461E+01  2.50855E+01  2.11099E+01  1.94649E+01  1.86753E+01  1.80923E+01  1.76451E+01  1.72981E+01  1.69962E+01
   1.67666E+01  1.66187E+01  1.65449E+01  1.65327E+01  1.65741E+01  1.66481E+01  1.67565E+01  1.69187E+01  1.71355E+01  1.74014E+01
   1.77116E+01  1.80556E+01  1.84248E+01  1.88089E+01  1.91885E+01  1.95544E+01  1.98975E+01  2.02058E+01  2.04731E+01  2.06974E+01
   2.08738E+01  2.09960E+01  2.10622E+01  2.10752E+01  2.10377E+01  2.09555E+01  2.08379E+01  2.06937E+01  2.05343E+01  2.03730E+01
   2.02245E+01  2.01044E+01  2.00292E+01  2.00177E+01  2.00947E+01  2.03037E+01  2.07201E+01  2.12215E+01  2.16269E+01  2.20462E+01
   2.26187E+01  2.33574E+01  2.40716E+01  2.44147E+01  2.42192E+01  2.36210E+01  2.27253E+01  2.17364E+01  2.08638E+01  2.02932E+01
   2.01918E+01  2.06351E+01  2.14941E+01  2.24477E+01  2.32077E+01  2.36821E+01  2.39367E+01  2.40075E+01  2.38272E+01  2.35129E+01
   2.33300E+01  2.31933E+01  2.28088E+01  2.21619E+01  2.13174E+01  2.03372E+01  1.91515E+01  1.76808E+01  1.61630E+01  1.50145E+01
   1.42422E+01  1.37904E+01  1.35764E+01  1.34847E+01  1.34337E+01  1.34074E+01  1.34216E+01  1.34837E+01  1.35726E+01  1.36896E+01
   1.38926E+01  1.41672E+01  1.44055E+01  1.46067E+01  1.47882E+01  1.49446E+01  1.50250E+01  1.49725E+01  1.48488E+01  1.47325E+01
   1.45954E+01  1.44217E+01  1.42096E+01  1.39636E+01  1.36917E+01  1.34048E+01  1.31152E+01  1.28358E+01  1.25799E+01  1.23600E+01
   1.21877E+01  1.20729E+01  1.20239E+01  1.20466E+01  1.21448E+01  1.23197E+01  1.25700E+01  1.28923E+01  1.32803E+01  1.37257E+01
   1.42180E+01  1.47444E+01  1.52909E+01  1.58419E+01  1.63809E+01  1.68910E+01  1.73556E+01  1.77587E+01  1.80857E+01  1.83241E+01
   1.84637E+01  1.84973E+01  1.84208E+01  1.82335E+01  1.79380E+01  1.75403E+01  1.70487E+01  1.64742E+01  1.58295E+01  1.51285E+01
   1.43856E+01  1.36152E+01  1.28312E+01  1.20463E+01  1.12718E+01  1.05176E+01  9.79157E+00  9.09994E+00  8.44708E+00  7.83576E+00
   7.26734E+00  6.74202E+00  6.25895E+00  5.81647E+00  5.41237E+00  5.04407E+00  4.70881E+00  4.40377E+00  4.12613E+00  3.87314E+00
   3.64219E+00  3.43092E+00  3.23717E+00  3.05903E+00  2.89472E+00  2.74265E+00  2.60143E+00  2.46988E+00  2.34698E+00  2.23181E+00
   2.12353E+00  2.02141E+00  1.92484E+00  1.83329E+00  1.74632E+00  1.66351E+00  1.58445E+00  1.50880E+00  1.43629E+00  1.36670E+00
   1.29980E+00  1.23539E+00  1.17324E+00  1.11320E+00  1.05513E+00  9.98914E-01  9.44434E-01  8.91543E-01  8.40116E-01  7.90071E-01
   7.41353E-01  6.93895E-01  6.47606E-01  6.02388E-01  5.58168E-01  5.14912E-01  4.72591E-01  4.31156E-01  3.90534E-01  3.50658E-01
   3.11496E-01  2.73038E-01  2.35268E-01  1.98137E-01  1.61585E-01  1.25570E-01  9.00809E-02  5.51200E-02  2.06680E-02 -1.33216E-02
  -4.68956E-02 -8.00730E-02 -1.12847E-01 -1.45216E-01 -1.77204E-01 -2.08856E-01 -2.40203E-01 -2.71245E-01 -3.01965E-01 -3.32365E-01
  -3.62474E-01 -3.92326E-01 -4.21931E-01 -4.51270E-01 -4.80322E-01 -5.09088E-01 -5.37589E-01 -5.65837E-01
 NY background values follow
     2.810E+01    2.797E+01    2.784E+01    2.770E+01    2.756E+01    2.743E+01    2.729E+01    2.716E+01    2.702E+01    2.689E+01
     2.675E+01    2.662E+01    2.648E+01    2.635E+01    2.621E+01    2.608E+01    2.594E+01    2.581E+01    2.567E+01    2.554E+01
     2.540E+01    2.527E+01    2.513E+01    2.500E+01    2.487E+01    2.473E+01    2.460E+01    2.446E+01    2.433E+01    2.419E+01
     2.406E+01    2.393E+01    2.379E+01    2.366E+01    2.353E+01    2.340E+01    2.326E+01    2.313E+01    2.300E+01    2.287E+01
     2.273E+01    2.260E+01    2.247E+01    2.234E+01    2.221E+01    2.208E+01    2.195E+01    2.182E+01    2.169E+01    2.156E+01
     2.143E+01    2.130E+01    2.118E+01    2.105E+01    2.092E+01    2.079E+01    2.067E+01    2.054E+01    2.041E+01    2.029E+01
     2.016E+01    2.004E+01    1.991E+01    1.979E+01    1.967E+01    1.955E+01    1.942E+01    1.930E+01    1.918E+01    1.906E+01
     1.894E+01    1.882E+01    1.870E+01    1.858E+01    1.846E+01    1.835E+01    1.823E+01    1.812E+01    1.800E+01    1.789E+01
     1.777E+01    1.766E+01    1.755E+01    1.743E+01    1.732E+01    1.721E+01    1.710E+01    1.699E+01    1.688E+01    1.678E+01
     1.667E+01    1.656E+01    1.646E+01    1.635E+01    1.625E+01    1.615E+01    1.605E+01    1.595E+01    1.584E+01    1.575E+01
     1.565E+01    1.555E+01    1.545E+01    1.535E+01    1.526E+01    1.516E+01    1.507E+01    1.498E+01    1.488E+01    1.479E+01
     1.470E+01    1.461E+01    1.452E+01    1.443E+01    1.434E+01    1.426E+01    1.417E+01    1.408E+01    1.400E+01    1.391E+01
     1.383E+01    1.375E+01    1.366E+01    1.358E+01    1.350E+01    1.342E+01    1.334E+01    1.327E+01    1.319E+01    1.311E+01
     1.303E+01    1.296E+01    1.288E+01    1.281E+01    1.274E+01    1.267E+01    1.259E+01    1.252E+01    1.245E+01    1.238E+01
     1.231E+01    1.225E+01    1.218E+01    1.211E+01    1.205E+01    1.198E+01    1.192E+01    1.185E+01    1.179E+01    1.173E+01
     1.166E+01    1.160E+01    1.154E+01    1.148E+01    1.142E+01    1.137E+01    1.131E+01    1.125E+01    1.119E+01    1.114E+01
     1.108E+01    1.103E+01    1.097E+01    1.092E+01    1.087E+01    1.082E+01    1.076E+01    1.071E+01    1.066E+01    1.061E+01
     1.057E+01    1.052E+01    1.047E+01    1.042E+01    1.038E+01    1.033E+01    1.028E+01    1.024E+01    1.019E+01    1.015E+01
     1.011E+01    1.007E+01    1.002E+01    9.982E+00    9.941E+00    9.901E+00    9.861E+00    9.821E+00    9.783E+00    9.744E+00
     9.706E+00    9.669E+00    9.632E+00    9.595E+00    9.559E+00    9.523E+00    9.488E+00    9.453E+00    9.419E+00    9.384E+00
     9.351E+00    9.317E+00    9.284E+00    9.251E+00    9.219E+00    9.186E+00    9.154E+00    9.123E+00    9.091E+00    9.060E+00
     9.029E+00    8.998E+00    8.968E+00    8.938E+00    8.907E+00    8.877E+00    8.848E+00    8.818E+00    8.789E+00    8.759E+00
     8.730E+00    8.701E+00    8.672E+00    8.643E+00    8.614E+00    8.585E+00    8.557E+00    8.528E+00    8.499E+00    8.471E+00
     8.442E+00    8.414E+00    8.385E+00    8.357E+00    8.328E+00    8.300E+00    8.271E+00    8.243E+00    8.214E+00    8.185E+00
     8.157E+00    8.128E+00    8.099E+00    8.071E+00    8.042E+00    8.013E+00    7.984E+00    7.955E+00    7.926E+00    7.897E+00
     7.868E+00    7.839E+00    7.809E+00    7.780E+00    7.750E+00    7.721E+00    7.691E+00    7.661E+00    7.631E+00    7.601E+00
     7.571E+00    7.540E+00    7.510E+00    7.479E+00    7.448E+00    7.417E+00    7.386E+00    7.355E+00    7.323E+00    7.292E+00
     7.260E+00    7.228E+00    7.195E+00    7.163E+00    7.130E+00    7.097E+00    7.064E+00    7.031E+00    6.998E+00    6.964E+00
     6.930E+00    6.896E+00    6.862E+00    6.828E+00    6.793E+00    6.758E+00    6.723E+00    6.688E+00    6.653E+00    6.618E+00
     6.582E+00    6.546E+00    6.510E+00    6.474E+00    6.437E+00    6.401E+00    6.364E+00    6.327E+00    6.290E+00    6.253E+00
     6.215E+00    6.178E+00    6.140E+00    6.102E+00    6.064E+00    6.025E+00    5.987E+00    5.948E+00    5.909E+00    5.870E+00
     5.831E+00    5.792E+00    5.752E+00    5.713E+00    5.673E+00    5.633E+00    5.593E+00    5.552E+00    5.512E+00    5.471E+00
     5.430E+00    5.390E+00    5.348E+00    5.307E+00    5.266E+00    5.224E+00    5.183E+00    5.141E+00    5.099E+00    5.057E+00
     5.015E+00    4.973E+00    4.930E+00    4.888E+00    4.845E+00    4.802E+00    4.760E+00    4.717E+00    4.674E+00    4.631E+00
     4.587E+00    4.544E+00    4.501E+00    4.457E+00    4.414E+00    4.370E+00    4.326E+00    4.283E+00    4.239E+00    4.195E+00
     4.151E+00    4.107E+00    4.063E+00    4.019E+00    3.975E+00    3.931E+00    3.887E+00    3.842E+00    3.798E+00    3.754E+00
     3.709E+00    3.665E+00    3.621E+00    3.576E+00    3.532E+00    3.487E+00    3.443E+00    3.399E+00    3.354E+00    3.310E+00
     3.266E+00    3.221E+00    3.177E+00    3.133E+00    3.089E+00    3.044E+00    3.000E+00    2.956E+00    2.913E+00    2.869E+00
     2.825E+00    2.781E+00    2.738E+00    2.694E+00    2.651E+00    2.608E+00    2.565E+00    2.522E+00    2.479E+00    2.436E+00
     2.393E+00    2.351E+00    2.309E+00    2.267E+00    2.225E+00    2.183E+00    2.141E+00    2.100E+00    2.059E+00    2.018E+00
     1.977E+00    1.937E+00    1.896E+00    1.856E+00    1.816E+00    1.777E+00    1.737E+00    1.698E+00    1.659E+00    1.620E+00
     1.582E+00    1.544E+00    1.506E+00    1.468E+00    1.431E+00    1.394E+00    1.357E+00    1.320E+00    1.284E+00    1.248E+00
     1.212E+00    1.176E+00    1.141E+00    1.106E+00    1.071E+00    1.036E+00    1.002E+00    9.675E-01    9.336E-01    9.000E-01
     8.666E-01    8.335E-01    8.006E-01    7.680E-01    7.356E-01    7.035E-01    6.716E-01    6.400E-01    6.087E-01    5.775E-01
     5.467E-01    5.161E-01    4.857E-01    4.556E-01    4.258E-01    3.962E-01    3.669E-01    3.378E-01    3.090E-01    2.804E-01
     2.520E-01    2.240E-01    1.962E-01    1.686E-01    1.413E-01    1.142E-01    8.732E-02    6.069E-02    3.428E-02    8.082E-03
    -1.791E-02   -4.370E-02   -6.930E-02   -9.471E-02   -1.199E-01   -1.450E-01   -1.699E-01   -1.946E-01   -2.192E-01   -2.436E-01
    -2.679E-01   -2.920E-01   -3.161E-01   -3.400E-01   -3.637E-01   -3.874E-01   -4.110E-01   -4.345E-01   -4.578E-01   -4.811E-01
    -5.044E-01   -5.275E-01   -5.506E-01   -5.737E-01   -5.966E-01   -6.196E-01   -6.425E-01   -6.654E-01   -6.882E-01   -7.110E-01
    -7.339E-01   -7.567E-01   -7.795E-01   -8.023E-01   -8.251E-01   -8.480E-01   -8.709E-01   -8.938E-01
 Ala      Conc. = 7.38E+02
