 LCModel (Version 6.3-1L) Copyright: S.W. Provencher.          Ref.: Magn. Reson. Med. 30:672-679 (1993).                
 Slice#3 Row#7 Col#7  PD_24_press_1_raw_act
 36 lines in following concentration table = NCONC+1
    Conc.  %SD /Cr+PCr  Metabolite                                         
    0.000 999%   0.000 Ala                                                 
   81.739 296% 4.7E-02 Asp                                                 
  171.612 167% 9.8E-02 Cr                                                  
 1.58E+03  19%   0.902 PCr                                                 
    0.000 999%   0.000 GABA                                                
    6.393 999% 3.7E-03 Glc                                                 
  603.838  46%   0.346 Gln                                                 
 1.31E+03  23%   0.751 Glu                                                 
  686.749   4%   0.393 GPC                                                 
    0.000 999%   0.000 PCh                                                 
  465.134  19%   0.266 GSH                                                 
  588.638  51%   0.337 Ins                                                 
  230.954 122%   0.132 Lac                                                 
 1.92E+03   6%   1.098 NAA                                                 
  177.965  80%   0.102 NAAG                                                
   33.863  89% 1.9E-02 Scyllo                                              
    0.000 999%   0.000 Tau                                                 
    0.000 999%   0.000 -CrCH2                                              
  686.749   4%   0.393 GPC+PCh                                             
 2.10E+03   4%   1.199 NAA+NAAG                                            
 1.75E+03   4%   1.000 Cr+PCr                                              
 1.92E+03  24%   1.097 Glu+Gln                                             
    0.000 999%   0.000 Lip13a                                              
  929.348  35%   0.532 Lip13b                                              
    0.000 999%   0.000 Lip09                                               
 1.14E+03  19%   0.653 MM09                                                
  163.987  84% 9.4E-02 Lip20                                               
 2.71E+03  16%   1.549 MM20                                                
  314.372  51%   0.180 MM12                                                
 2.60E+03  17%   1.486 MM14                                                
 2.13E+03  15%   1.221+MM17                                                
  929.348  35%   0.532 Lip13a+Lip13b                                       
 3.84E+03  14%   2.198 MM14+Lip13a+Lip13b+MM12                             
 1.14E+03  19%   0.653 MM09+Lip09                                          
 2.87E+03  15%   1.643 MM20+Lip20                                          
   6 lines in following misc. output table
  FWHM = 0.061 ppm    S/N =   9                                            
  Data shift = 0.015 ppm                                                   
  Ph: -25 deg      -4.2 deg/ppm                                            
  alphaB,S = 7.0E-01,   1.0E+02                                            
   14 spline knots.   Ns = 7(1)                                            
  (10) 4 infls.   ( 7) 1 extrs.                                            
  498 points on ppm-axis = NY
      4.000000     3.992357     3.984714     3.977070     3.969427     3.961784     3.954141     3.946497     3.938854     3.931211
      3.923568     3.915925     3.908281     3.900638     3.892995     3.885352     3.877708     3.870065     3.862422     3.854779
      3.847136     3.839492     3.831849     3.824206     3.816563     3.808919     3.801276     3.793633     3.785990     3.778347
      3.770703     3.763060     3.755417     3.747774     3.740130     3.732487     3.724844     3.717201     3.709558     3.701914
      3.694271     3.686628     3.678985     3.671341     3.663698     3.656055     3.648412     3.640769     3.633125     3.625482
      3.617839     3.610196     3.602552     3.594909     3.587266     3.579623     3.571980     3.564336     3.556693     3.549050
      3.541407     3.533763     3.526120     3.518477     3.510834     3.503191     3.495547     3.487904     3.480261     3.472618
      3.464974     3.457331     3.449688     3.442045     3.434402     3.426758     3.419115     3.411472     3.403829     3.396185
      3.388542     3.380899     3.373256     3.365613     3.357969     3.350326     3.342683     3.335040     3.327396     3.319753
      3.312110     3.304467     3.296824     3.289180     3.281537     3.273894     3.266251     3.258607     3.250964     3.243321
      3.235678     3.228034     3.220391     3.212748     3.205105     3.197462     3.189818     3.182175     3.174532     3.166889
      3.159245     3.151602     3.143959     3.136316     3.128673     3.121029     3.113386     3.105743     3.098100     3.090456
      3.082813     3.075170     3.067527     3.059884     3.052240     3.044597     3.036954     3.029311     3.021667     3.014024
      3.006381     2.998738     2.991095     2.983451     2.975808     2.968165     2.960522     2.952878     2.945235     2.937592
      2.929949     2.922306     2.914662     2.907019     2.899376     2.891733     2.884089     2.876446     2.868803     2.861160
      2.853517     2.845873     2.838230     2.830587     2.822944     2.815300     2.807657     2.800014     2.792371     2.784728
      2.777084     2.769441     2.761798     2.754155     2.746511     2.738868     2.731225     2.723582     2.715939     2.708295
      2.700652     2.693009     2.685366     2.677722     2.670079     2.662436     2.654793     2.647150     2.639506     2.631863
      2.624220     2.616577     2.608933     2.601290     2.593647     2.586004     2.578361     2.570717     2.563074     2.555431
      2.547788     2.540144     2.532501     2.524858     2.517215     2.509572     2.501928     2.494285     2.486642     2.478999
      2.471355     2.463712     2.456069     2.448426     2.440783     2.433139     2.425496     2.417853     2.410210     2.402566
      2.394923     2.387280     2.379637     2.371994     2.364350     2.356707     2.349064     2.341421     2.333777     2.326134
      2.318491     2.310848     2.303205     2.295561     2.287918     2.280275     2.272632     2.264988     2.257345     2.249702
      2.242059     2.234416     2.226772     2.219129     2.211486     2.203843     2.196199     2.188556     2.180913     2.173270
      2.165627     2.157983     2.150340     2.142697     2.135054     2.127410     2.119767     2.112124     2.104481     2.096838
      2.089194     2.081551     2.073908     2.066265     2.058621     2.050978     2.043335     2.035692     2.028049     2.020405
      2.012762     2.005119     1.997476     1.989833     1.982190     1.974546     1.966903     1.959260     1.951617     1.943974
      1.936331     1.928688     1.921045     1.913402     1.905759     1.898115     1.890472     1.882829     1.875186     1.867543
      1.859900     1.852257     1.844614     1.836971     1.829327     1.821684     1.814041     1.806398     1.798755     1.791112
      1.783469     1.775826     1.768183     1.760540     1.752896     1.745253     1.737610     1.729967     1.722324     1.714681
      1.707038     1.699395     1.691752     1.684108     1.676465     1.668822     1.661179     1.653536     1.645893     1.638250
      1.630607     1.622964     1.615321     1.607677     1.600034     1.592391     1.584748     1.577105     1.569462     1.561819
      1.554176     1.546533     1.538890     1.531246     1.523603     1.515960     1.508317     1.500674     1.493031     1.485388
      1.477745     1.470102     1.462458     1.454815     1.447172     1.439529     1.431886     1.424243     1.416600     1.408957
      1.401314     1.393671     1.386027     1.378384     1.370741     1.363098     1.355455     1.347812     1.340169     1.332526
      1.324883     1.317240     1.309596     1.301953     1.294310     1.286667     1.279024     1.271381     1.263738     1.256095
      1.248452     1.240808     1.233165     1.225522     1.217879     1.210236     1.202593     1.194950     1.187307     1.179664
      1.172021     1.164377     1.156734     1.149091     1.141448     1.133805     1.126162     1.118519     1.110876     1.103233
      1.095590     1.087946     1.080303     1.072660     1.065017     1.057374     1.049731     1.042088     1.034445     1.026802
      1.019158     1.011515     1.003872     0.996229     0.988586     0.980943     0.973300     0.965657     0.958014     0.950371
      0.942727     0.935084     0.927441     0.919798     0.912155     0.904512     0.896869     0.889226     0.881583     0.873940
      0.866296     0.858653     0.851010     0.843367     0.835724     0.828081     0.820438     0.812795     0.805152     0.797508
      0.789865     0.782222     0.774579     0.766936     0.759293     0.751650     0.744007     0.736364     0.728721     0.721077
      0.713434     0.705791     0.698148     0.690505     0.682862     0.675219     0.667576     0.659933     0.652290     0.644646
      0.637003     0.629360     0.621717     0.614074     0.606431     0.598788     0.591145     0.583502     0.575858     0.568215
      0.560572     0.552929     0.545286     0.537643     0.530000     0.522357     0.514714     0.507071     0.499427     0.491784
      0.484141     0.476498     0.468855     0.461212     0.453569     0.445925     0.438282     0.430639     0.422996     0.415353
      0.407710     0.400067     0.392424     0.384780     0.377137     0.369494     0.361851     0.354208     0.346565     0.338922
      0.331278     0.323635     0.315992     0.308349     0.300706     0.293063     0.285420     0.277777     0.270133     0.262490
      0.254847     0.247204     0.239561     0.231918     0.224275     0.216631     0.208988     0.201345
 NY phased data points follow
   4.74848E+01  4.66497E+01  5.01002E+01  5.60435E+01  5.76251E+01  6.00453E+01  7.14493E+01  7.60339E+01  8.13747E+01  8.58889E+01
   8.00805E+01  8.54925E+01  8.28741E+01  7.22210E+01  6.71669E+01  6.05289E+01  5.20787E+01  4.82291E+01  4.39131E+01  4.56177E+01
   4.08942E+01  3.96990E+01  4.68919E+01  4.41650E+01  4.55756E+01  4.52701E+01  4.42521E+01  4.85609E+01  5.16352E+01  4.75600E+01
   4.26065E+01  4.56361E+01  4.35858E+01  4.72679E+01  4.18577E+01  3.98897E+01  4.59163E+01  3.97992E+01  4.11134E+01  4.17644E+01
   4.13407E+01  3.93933E+01  3.84581E+01  3.91498E+01  3.78800E+01  3.47358E+01  3.85460E+01  4.42331E+01  4.17000E+01  4.29278E+01
   3.53075E+01  3.40531E+01  3.47862E+01  3.14401E+01  2.80988E+01  2.62692E+01  3.32615E+01  3.08080E+01  2.97794E+01  3.26672E+01
   2.95830E+01  2.31621E+01  1.96225E+01  2.05863E+01  1.98445E+01  1.86696E+01  2.02309E+01  1.60867E+01  1.47648E+01  2.08616E+01
   1.77942E+01  2.34183E+01  1.63195E+01  2.12034E+01  2.43855E+01  2.10105E+01  1.75840E+01  1.98680E+01  1.86987E+01  2.41407E+01
   1.85351E+01  2.11071E+01  1.67364E+01  1.80267E+01  2.00274E+01  1.94900E+01  1.66363E+01  1.91966E+01  1.50795E+01  2.13981E+01
   1.45164E+01  2.24654E+01  1.81821E+01  1.73562E+01  1.52699E+01  1.19611E+01  1.76745E+01  2.45332E+01  3.11206E+01  4.39814E+01
   6.00132E+01  6.61119E+01  6.95989E+01  7.13813E+01  7.04027E+01  6.40846E+01  5.75499E+01  4.17433E+01  3.76608E+01  3.21673E+01
   2.06729E+01  2.31335E+01  1.69960E+01  1.86252E+01  1.41312E+01  1.59658E+01  1.65060E+01  1.37344E+01  1.07631E+01  8.86822E+00
   1.11500E+01  1.87685E+01  3.11822E+01  3.33714E+01  4.13717E+01  5.53392E+01  5.77107E+01  5.91005E+01  5.55880E+01  5.65302E+01
   5.48137E+01  3.95283E+01  2.58535E+01  2.66602E+01  2.15561E+01  2.28046E+01  2.33780E+01  1.80594E+01  1.44291E+01  1.07653E+01
   1.03377E+01  1.05788E+01  7.17819E+00  8.14565E+00  9.20829E+00  7.54725E+00  1.12235E+01  9.88112E+00  1.89151E+00  7.07827E+00
   3.83964E+00  5.23754E+00  7.93108E+00  7.69818E+00  4.27068E+00  3.13644E+00  3.38464E+00  8.18944E+00  4.67737E+00  5.83413E+00
   3.47008E+00  2.38636E+00  1.59631E+00  1.05593E+01  6.26206E+00  2.16758E+00  3.01115E+00  5.21429E+00  5.29517E+00  2.00801E+00
   3.08960E-01 -1.48275E+00 -2.13052E+00 -6.38426E+00 -2.17090E+00 -2.11332E+00  1.34581E+00 -7.02849E-01 -1.37961E+00 -2.09847E+00
  -5.60058E+00 -2.57974E+00 -5.48008E+00 -6.78672E+00 -5.10346E+00 -9.48081E-01 -9.71107E-01  4.66267E+00  1.67391E+00  4.40058E+00
   8.12118E+00  1.47925E+00  5.92249E+00  1.03991E+01  1.04915E+01  1.58754E+01  4.78587E+00  5.32183E+00  7.72099E+00  3.46669E+00
  -6.38292E-01  6.87544E+00  1.30284E+00  6.69213E+00  7.35016E+00  8.55682E+00  1.75892E+00  3.60950E-01  2.08442E+00  3.44834E+00
   3.21641E+00  3.10047E+00  4.42847E+00  9.65112E+00  1.76465E+01  1.30280E+01  1.68808E+01  1.42203E+01  1.22025E+01  1.18516E+01
   3.80165E+00  8.85369E+00  5.96141E+00  9.62426E+00  7.46441E+00  8.13356E+00  1.06300E+01  1.09239E+01  1.13830E+01  1.26865E+01
   1.15198E+01  1.29253E+01  1.20281E+01  1.76468E+01  1.11866E+01  1.18355E+01  1.31295E+01  8.34668E+00  6.77802E+00  1.07936E+01
   1.06775E+01  4.93887E+00  1.48076E+01  1.49421E+01  1.35066E+01  1.37739E+01  1.06039E+01  1.34414E+01  1.62942E+01  1.91368E+01
   1.83999E+01  2.31537E+01  2.33451E+01  1.96559E+01  2.77011E+01  3.85220E+01  4.53676E+01  6.05996E+01  6.81565E+01  7.73635E+01
   7.80476E+01  6.62139E+01  6.36375E+01  5.42075E+01  4.65945E+01  3.96569E+01  2.86055E+01  2.70639E+01  1.89255E+01  2.03893E+01
   2.07189E+01  1.74479E+01  1.19186E+01  1.88286E+01  9.02718E+00  1.28689E+01  1.58020E+01  9.62463E+00  1.47683E+01  1.16657E+01
   8.66850E+00  1.43395E+01  1.04120E+01  9.95542E+00  1.25285E+01  1.24754E+01  1.57574E+01  1.60333E+01  1.63323E+01  8.27167E+00
   1.84591E+01  1.79434E+01  1.06179E+01  1.64897E+01  1.50117E+01  1.56671E+01  1.68589E+01  1.90025E+01  1.62397E+01  2.10048E+01
   1.94530E+01  1.68842E+01  2.00530E+01  1.86672E+01  1.89550E+01  2.09043E+01  2.24873E+01  2.19315E+01  2.27025E+01  2.52342E+01
   1.69167E+01  1.95953E+01  2.36122E+01  2.90370E+01  2.04533E+01  2.13756E+01  1.90011E+01  1.77682E+01  1.85925E+01  1.72518E+01
   1.85402E+01  2.26987E+01  1.34947E+01  1.82746E+01  1.71760E+01  2.16007E+01  1.96962E+01  2.06576E+01  2.01447E+01  2.05493E+01
   2.10946E+01  1.66698E+01  1.91350E+01  1.94517E+01  1.99914E+01  1.92247E+01  1.26858E+01  1.33454E+01  1.31950E+01  1.65112E+01
   1.77641E+01  1.56035E+01  1.70635E+01  2.12420E+01  2.00328E+01  2.38917E+01  2.03306E+01  1.74864E+01  1.91325E+01  2.12075E+01
   2.16902E+01  2.43896E+01  1.91229E+01  2.33127E+01  1.53943E+01  2.04954E+01  2.17045E+01  1.53750E+01  1.24193E+01  1.08236E+01
   1.24778E+01  1.37343E+01  9.94258E+00  1.03943E+01  9.50092E+00  4.75915E+00  8.15034E+00  5.65194E+00  7.30323E+00  8.53038E+00
   7.03447E+00  4.57432E+00  1.15836E+01  2.71120E+00  4.89857E+00  7.66264E+00  6.67986E+00  5.63661E+00 -1.89748E+00  1.85023E+00
   5.85432E+00  4.67522E-01  5.90507E+00  4.16419E+00  6.63615E+00  4.36518E+00  4.08520E+00  5.32313E+00  1.72917E+00  3.00453E+00
   3.68301E+00  2.99148E-01  5.53978E+00  6.24072E+00  6.81655E+00  6.67272E+00  5.43730E+00  4.64517E+00  4.69552E+00  2.45695E+00
   5.28953E+00  6.71169E+00  7.00268E+00  9.77224E+00  8.05047E+00  1.34636E+01  1.26252E+01  1.15623E+01  8.68342E+00  1.28657E+01
   7.25666E+00  4.96786E+00 -4.48004E-01  5.94674E+00  5.87803E+00  7.52400E+00  6.01950E+00  5.68160E+00  7.92509E-01  4.88283E+00
   4.91660E+00  5.81284E+00  4.94071E+00  8.84289E+00  4.51080E+00 -1.41346E+00  4.92119E+00  7.90324E+00  1.77406E+00 -2.86129E+00
   2.03183E+00  3.06650E-01  4.13265E+00  7.78262E-01  2.54148E+00  1.44985E-01  3.31342E-02  2.82677E+00 -1.86981E+00 -4.00963E+00
   5.26235E+00  5.42934E+00 -1.28638E+00  1.49011E+00  1.90247E+00 -1.63222E-01 -3.60272E+00 -8.25284E-01 -1.68974E+00 -1.01325E+01
   1.87091E+00  2.05055E+00 -2.29451E-01 -1.84302E+00 -5.38061E+00 -7.74082E-01 -4.91731E+00  6.70952E+00 -2.29219E+00  1.79766E+00
  -5.95015E+00 -3.69093E+00 -2.73775E+00 -5.49877E-02 -2.75733E+00 -3.08388E+00 -3.88266E+00 -1.03806E-01  3.95620E-01  5.58334E-01
  -3.03660E-01  1.46073E+00 -4.05176E+00 -3.36789E+00 -3.60637E+00 -4.82937E-02 -6.31433E+00 -3.06249E+00 -4.83357E+00 -3.36954E+00
  -2.28365E+00  5.95825E-01 -3.16669E+00 -1.03250E-01 -3.30643E+00  1.91231E+00 -4.69940E-01  8.49872E-01 -3.41277E+00  1.81687E+00
  -4.52051E+00 -2.04016E+00 -5.35428E-01 -2.80936E+00 -4.12992E+00 -1.79615E+00  4.24542E-01 -4.91378E+00
 NY points of the fit to the data follow
   4.79129E+01  4.79057E+01  4.86983E+01  5.11705E+01  5.55679E+01  6.15246E+01  6.83360E+01  7.46546E+01  7.90064E+01  8.07135E+01
   8.01050E+01  7.78412E+01  7.40388E+01  6.88790E+01  6.33961E+01  5.86139E+01  5.46037E+01  5.08776E+01  4.75212E+01  4.54556E+01
   4.41711E+01  4.31335E+01  4.23516E+01  4.20712E+01  4.23039E+01  4.30501E+01  4.43292E+01  4.58228E+01  4.70859E+01  4.78264E+01
   4.79993E+01  4.76058E+01  4.64669E+01  4.46696E+01  4.27059E+01  4.08972E+01  3.93502E+01  3.79784E+01  3.69011E+01  3.64321E+01
   3.63534E+01  3.65746E+01  3.69737E+01  3.74501E+01  3.79628E+01  3.82796E+01  3.82098E+01  3.77479E+01  3.70423E+01  3.61870E+01
   3.50971E+01  3.38368E+01  3.26995E+01  3.17910E+01  3.09444E+01  3.01795E+01  2.96511E+01  2.92972E+01  2.89135E+01  2.84207E+01
   2.78516E+01  2.72311E+01  2.65811E+01  2.59200E+01  2.53073E+01  2.48114E+01  2.44399E+01  2.41508E+01  2.39234E+01  2.37404E+01
   2.35498E+01  2.33236E+01  2.30432E+01  2.27204E+01  2.23609E+01  2.19616E+01  2.15462E+01  2.11472E+01  2.07878E+01  2.05053E+01
   2.03105E+01  2.01845E+01  2.00700E+01  1.98966E+01  1.95950E+01  1.91526E+01  1.86343E+01  1.81289E+01  1.76701E+01  1.72539E+01
   1.69196E+01  1.67098E+01  1.65970E+01  1.65177E+01  1.64936E+01  1.69101E+01  1.92813E+01  2.51471E+01  3.41991E+01  4.54744E+01
   5.72813E+01  6.68005E+01  7.18699E+01  7.23537E+01  6.95430E+01  6.41956E+01  5.60959E+01  4.63720E+01  3.75031E+01  3.05747E+01
   2.47327E+01  1.91246E+01  1.52590E+01  1.39833E+01  1.34675E+01  1.31472E+01  1.29237E+01  1.27968E+01  1.28199E+01  1.31841E+01
   1.47876E+01  1.91442E+01  2.63792E+01  3.57248E+01  4.59910E+01  5.50118E+01  6.07331E+01  6.25647E+01  6.12686E+01  5.76440E+01
   5.15120E+01  4.32713E+01  3.48866E+01  2.78970E+01  2.21624E+01  1.69417E+01  1.28492E+01  1.12668E+01  1.09172E+01  1.09001E+01
   1.09243E+01  1.08848E+01  1.08085E+01  1.06713E+01  1.03940E+01  1.00089E+01  9.56660E+00  9.07126E+00  8.56456E+00  8.06489E+00
   7.63893E+00  7.30262E+00  7.04088E+00  6.83948E+00  6.62815E+00  6.34516E+00  5.97727E+00  5.55704E+00  5.18056E+00  4.91598E+00
   4.77627E+00  4.72769E+00  4.68118E+00  4.56512E+00  4.38514E+00  4.16840E+00  3.90437E+00  3.58131E+00  3.22137E+00  2.84011E+00
   2.38364E+00  1.87940E+00  1.39319E+00  9.99106E-01  7.83718E-01  6.87078E-01  6.21216E-01  5.47831E-01  4.79326E-01  4.66797E-01
   4.68557E-01  4.15011E-01  3.70823E-01  5.05705E-01  9.74594E-01  1.77238E+00  2.76211E+00  3.83863E+00  4.85238E+00  5.66249E+00
   6.11857E+00  6.14261E+00  5.81399E+00  5.29937E+00  4.78759E+00  4.46642E+00  4.42418E+00  4.74216E+00  5.44379E+00  6.42591E+00
   7.55516E+00  8.61097E+00  9.29470E+00  9.32484E+00  8.67460E+00  7.50240E+00  5.96848E+00  4.32189E+00  3.00543E+00  2.39106E+00
   2.70445E+00  3.85917E+00  5.63862E+00  7.72088E+00  9.50651E+00  1.04684E+01  1.04316E+01  9.50570E+00  7.95781E+00  5.95499E+00
   4.08688E+00  3.04793E+00  2.95659E+00  3.55684E+00  4.54963E+00  5.84483E+00  7.38954E+00  8.73564E+00  9.64356E+00  1.02118E+01
   1.07293E+01  1.12661E+01  1.16599E+01  1.19764E+01  1.24050E+01  1.28361E+01  1.30083E+01  1.28513E+01  1.25195E+01  1.21628E+01
   1.18046E+01  1.15842E+01  1.17113E+01  1.21688E+01  1.27570E+01  1.33381E+01  1.40078E+01  1.47203E+01  1.53677E+01  1.61565E+01
   1.73090E+01  1.88204E+01  2.06593E+01  2.38887E+01  2.99540E+01  3.86367E+01  4.90919E+01  5.99778E+01  6.87830E+01  7.33612E+01
   7.35313E+01  7.05869E+01  6.53225E+01  5.74284E+01  4.77891E+01  3.88907E+01  3.18740E+01  2.59444E+01  2.02222E+01  1.59986E+01
   1.43396E+01  1.35846E+01  1.30958E+01  1.27420E+01  1.24739E+01  1.22219E+01  1.19839E+01  1.17547E+01  1.15302E+01  1.13332E+01
   1.11879E+01  1.10878E+01  1.10220E+01  1.10057E+01  1.10565E+01  1.11711E+01  1.13401E+01  1.15665E+01  1.18610E+01  1.22281E+01
   1.26583E+01  1.31471E+01  1.36926E+01  1.42893E+01  1.49258E+01  1.55899E+01  1.62700E+01  1.69558E+01  1.76336E+01  1.82876E+01
   1.89004E+01  1.94587E+01  1.99495E+01  2.03596E+01  2.06788E+01  2.09017E+01  2.10273E+01  2.10581E+01  2.09993E+01  2.08614E+01
   2.06581E+01  2.04042E+01  2.01161E+01  1.98107E+01  1.95044E+01  1.92119E+01  1.89461E+01  1.87173E+01  1.85326E+01  1.83962E+01
   1.83090E+01  1.82688E+01  1.82708E+01  1.83074E+01  1.83694E+01  1.84462E+01  1.85266E+01  1.85992E+01  1.86529E+01  1.86776E+01
   1.86647E+01  1.86073E+01  1.85011E+01  1.83445E+01  1.81391E+01  1.78913E+01  1.76129E+01  1.73238E+01  1.70560E+01  1.68624E+01
   1.68356E+01  1.70283E+01  1.73805E+01  1.78285E+01  1.82985E+01  1.86936E+01  1.89794E+01  1.91941E+01  1.94396E+01  1.97658E+01
   2.01082E+01  2.04621E+01  2.08195E+01  2.09910E+01  2.07304E+01  1.99716E+01  1.88960E+01  1.76258E+01  1.60980E+01  1.44169E+01
   1.27872E+01  1.13585E+01  1.01427E+01  9.07129E+00  8.19808E+00  7.57261E+00  7.11377E+00  6.76324E+00  6.48414E+00  6.25179E+00
   6.05001E+00  5.86870E+00  5.70196E+00  5.54667E+00  5.40151E+00  5.26628E+00  5.14153E+00  5.02816E+00  4.92736E+00  4.84042E+00
   4.76879E+00  4.71402E+00  4.67775E+00  4.66162E+00  4.66729E+00  4.69639E+00  4.75052E+00  4.83118E+00  4.93964E+00  5.07686E+00
   5.24332E+00  5.43899E+00  5.66315E+00  5.91425E+00  6.18979E+00  6.48621E+00  6.79883E+00  7.12195E+00  7.44886E+00  7.77197E+00
   8.08300E+00  8.37324E+00  8.63393E+00  8.85661E+00  9.03351E+00  9.15787E+00  9.22427E+00  9.22892E+00  9.16987E+00  9.04709E+00
   8.86250E+00  8.61976E+00  8.32413E+00  7.98218E+00  7.60150E+00  7.19031E+00  6.75704E+00  6.30999E+00  5.85702E+00  5.40533E+00
   4.96124E+00  4.53010E+00  4.11614E+00  3.72253E+00  3.35142E+00  3.00408E+00  2.68099E+00  2.38196E+00  2.10626E+00  1.85275E+00
   1.62001E+00  1.40651E+00  1.21064E+00  1.03075E+00  8.65241E-01  7.12565E-01  5.71328E-01  4.40267E-01  3.18242E-01  2.04212E-01
   9.72409E-02 -3.48561E-03 -9.86588E-02 -1.88872E-01 -2.74652E-01 -3.56485E-01 -4.34799E-01 -5.09948E-01 -5.82221E-01 -6.51871E-01
  -7.19138E-01 -7.84254E-01 -8.47412E-01 -9.08764E-01 -9.68434E-01 -1.02654E+00 -1.08322E+00 -1.13860E+00 -1.19277E+00 -1.24580E+00
  -1.29775E+00 -1.34869E+00 -1.39871E+00 -1.44788E+00 -1.49624E+00 -1.54382E+00 -1.59067E+00 -1.63683E+00 -1.68236E+00 -1.72731E+00
  -1.77170E+00 -1.81552E+00 -1.85883E+00 -1.90165E+00 -1.94403E+00 -1.98599E+00 -2.02754E+00 -2.06869E+00 -2.10946E+00 -2.14990E+00
  -2.19003E+00 -2.22987E+00 -2.26940E+00 -2.30864E+00 -2.34762E+00 -2.38638E+00 -2.42493E+00 -2.46326E+00 -2.50138E+00 -2.53930E+00
  -2.57706E+00 -2.61467E+00 -2.65215E+00 -2.68948E+00 -2.72666E+00 -2.76373E+00 -2.80071E+00 -2.83761E+00
 NY background values follow
     4.514E+01    4.479E+01    4.444E+01    4.409E+01    4.374E+01    4.339E+01    4.304E+01    4.269E+01    4.233E+01    4.198E+01
     4.163E+01    4.128E+01    4.093E+01    4.058E+01    4.022E+01    3.987E+01    3.952E+01    3.917E+01    3.882E+01    3.847E+01
     3.812E+01    3.777E+01    3.742E+01    3.707E+01    3.672E+01    3.638E+01    3.603E+01    3.568E+01    3.533E+01    3.499E+01
     3.464E+01    3.430E+01    3.395E+01    3.361E+01    3.327E+01    3.293E+01    3.258E+01    3.224E+01    3.190E+01    3.157E+01
     3.123E+01    3.089E+01    3.055E+01    3.022E+01    2.989E+01    2.955E+01    2.922E+01    2.889E+01    2.856E+01    2.823E+01
     2.790E+01    2.758E+01    2.725E+01    2.693E+01    2.661E+01    2.629E+01    2.597E+01    2.565E+01    2.533E+01    2.502E+01
     2.470E+01    2.439E+01    2.408E+01    2.377E+01    2.347E+01    2.316E+01    2.286E+01    2.255E+01    2.225E+01    2.196E+01
     2.166E+01    2.136E+01    2.107E+01    2.078E+01    2.049E+01    2.020E+01    1.992E+01    1.964E+01    1.936E+01    1.908E+01
     1.880E+01    1.853E+01    1.825E+01    1.798E+01    1.772E+01    1.745E+01    1.719E+01    1.693E+01    1.667E+01    1.641E+01
     1.616E+01    1.591E+01    1.566E+01    1.542E+01    1.517E+01    1.493E+01    1.470E+01    1.446E+01    1.423E+01    1.400E+01
     1.377E+01    1.354E+01    1.332E+01    1.310E+01    1.288E+01    1.267E+01    1.246E+01    1.225E+01    1.204E+01    1.183E+01
     1.163E+01    1.143E+01    1.124E+01    1.104E+01    1.085E+01    1.066E+01    1.047E+01    1.029E+01    1.011E+01    9.929E+00
     9.753E+00    9.579E+00    9.408E+00    9.239E+00    9.073E+00    8.910E+00    8.749E+00    8.591E+00    8.436E+00    8.283E+00
     8.132E+00    7.985E+00    7.840E+00    7.697E+00    7.557E+00    7.420E+00    7.286E+00    7.154E+00    7.024E+00    6.898E+00
     6.774E+00    6.652E+00    6.533E+00    6.417E+00    6.303E+00    6.192E+00    6.083E+00    5.977E+00    5.873E+00    5.772E+00
     5.673E+00    5.577E+00    5.484E+00    5.393E+00    5.304E+00    5.218E+00    5.134E+00    5.053E+00    4.974E+00    4.897E+00
     4.823E+00    4.752E+00    4.683E+00    4.616E+00    4.552E+00    4.490E+00    4.430E+00    4.373E+00    4.318E+00    4.265E+00
     4.215E+00    4.167E+00    4.121E+00    4.078E+00    4.037E+00    3.998E+00    3.962E+00    3.928E+00    3.896E+00    3.866E+00
     3.839E+00    3.814E+00    3.791E+00    3.770E+00    3.752E+00    3.735E+00    3.720E+00    3.708E+00    3.697E+00    3.689E+00
     3.682E+00    3.677E+00    3.673E+00    3.672E+00    3.672E+00    3.673E+00    3.676E+00    3.681E+00    3.687E+00    3.695E+00
     3.704E+00    3.714E+00    3.725E+00    3.738E+00    3.752E+00    3.767E+00    3.783E+00    3.800E+00    3.818E+00    3.837E+00
     3.857E+00    3.878E+00    3.899E+00    3.922E+00    3.945E+00    3.968E+00    3.993E+00    4.018E+00    4.043E+00    4.069E+00
     4.095E+00    4.121E+00    4.148E+00    4.176E+00    4.203E+00    4.231E+00    4.258E+00    4.286E+00    4.314E+00    4.342E+00
     4.370E+00    4.398E+00    4.425E+00    4.453E+00    4.481E+00    4.509E+00    4.537E+00    4.564E+00    4.591E+00    4.619E+00
     4.646E+00    4.672E+00    4.699E+00    4.725E+00    4.751E+00    4.777E+00    4.803E+00    4.828E+00    4.853E+00    4.877E+00
     4.901E+00    4.925E+00    4.948E+00    4.971E+00    4.993E+00    5.015E+00    5.036E+00    5.057E+00    5.077E+00    5.097E+00
     5.116E+00    5.134E+00    5.152E+00    5.169E+00    5.185E+00    5.201E+00    5.216E+00    5.230E+00    5.244E+00    5.257E+00
     5.269E+00    5.280E+00    5.290E+00    5.299E+00    5.308E+00    5.316E+00    5.323E+00    5.329E+00    5.334E+00    5.338E+00
     5.341E+00    5.344E+00    5.345E+00    5.346E+00    5.346E+00    5.345E+00    5.343E+00    5.340E+00    5.336E+00    5.331E+00
     5.326E+00    5.319E+00    5.312E+00    5.303E+00    5.294E+00    5.283E+00    5.272E+00    5.260E+00    5.247E+00    5.233E+00
     5.218E+00    5.201E+00    5.184E+00    5.166E+00    5.147E+00    5.127E+00    5.106E+00    5.084E+00    5.061E+00    5.038E+00
     5.013E+00    4.987E+00    4.960E+00    4.932E+00    4.902E+00    4.872E+00    4.841E+00    4.809E+00    4.776E+00    4.742E+00
     4.707E+00    4.671E+00    4.633E+00    4.595E+00    4.557E+00    4.517E+00    4.476E+00    4.435E+00    4.392E+00    4.349E+00
     4.305E+00    4.261E+00    4.215E+00    4.169E+00    4.122E+00    4.075E+00    4.026E+00    3.978E+00    3.928E+00    3.878E+00
     3.827E+00    3.776E+00    3.724E+00    3.672E+00    3.619E+00    3.566E+00    3.512E+00    3.458E+00    3.403E+00    3.348E+00
     3.292E+00    3.236E+00    3.180E+00    3.124E+00    3.067E+00    3.010E+00    2.952E+00    2.895E+00    2.837E+00    2.778E+00
     2.720E+00    2.662E+00    2.603E+00    2.544E+00    2.485E+00    2.426E+00    2.367E+00    2.308E+00    2.249E+00    2.189E+00
     2.130E+00    2.070E+00    2.011E+00    1.952E+00    1.892E+00    1.833E+00    1.773E+00    1.714E+00    1.655E+00    1.596E+00
     1.537E+00    1.478E+00    1.419E+00    1.360E+00    1.301E+00    1.243E+00    1.185E+00    1.127E+00    1.069E+00    1.011E+00
     9.536E-01    8.964E-01    8.395E-01    7.828E-01    7.264E-01    6.703E-01    6.144E-01    5.589E-01    5.038E-01    4.489E-01
     3.945E-01    3.404E-01    2.867E-01    2.334E-01    1.805E-01    1.280E-01    7.600E-02    2.443E-02   -2.669E-02   -7.735E-02
    -1.276E-01   -1.773E-01   -2.267E-01   -2.756E-01   -3.240E-01   -3.721E-01   -4.197E-01   -4.669E-01   -5.137E-01   -5.601E-01
    -6.061E-01   -6.517E-01   -6.969E-01   -7.417E-01   -7.862E-01   -8.303E-01   -8.740E-01   -9.173E-01   -9.603E-01   -1.003E+00
    -1.045E+00   -1.087E+00   -1.129E+00   -1.170E+00   -1.211E+00   -1.252E+00   -1.292E+00   -1.332E+00   -1.372E+00   -1.411E+00
    -1.450E+00   -1.489E+00   -1.528E+00   -1.566E+00   -1.604E+00   -1.641E+00   -1.679E+00   -1.716E+00   -1.753E+00   -1.790E+00
    -1.826E+00   -1.862E+00   -1.898E+00   -1.934E+00   -1.969E+00   -2.005E+00   -2.040E+00   -2.074E+00   -2.109E+00   -2.144E+00
    -2.178E+00   -2.212E+00   -2.246E+00   -2.279E+00   -2.313E+00   -2.346E+00   -2.380E+00   -2.413E+00   -2.445E+00   -2.478E+00
    -2.511E+00   -2.543E+00   -2.576E+00   -2.608E+00   -2.640E+00   -2.672E+00   -2.704E+00   -2.736E+00   -2.768E+00   -2.799E+00
    -2.831E+00   -2.862E+00   -2.894E+00   -2.925E+00   -2.956E+00   -2.988E+00   -3.019E+00   -3.050E+00   -3.081E+00   -3.112E+00
    -3.143E+00   -3.174E+00   -3.205E+00   -3.236E+00   -3.267E+00   -3.298E+00   -3.329E+00   -3.360E+00
 Asp      Conc. = 8.17E+01
