 LCModel (Version 6.3-1L) Copyright: S.W. Provencher.          Ref.: Magn. Reson. Med. 30:672-679 (1993).                
 Slice#3 Row#8 Col#9  PD_24_press_1_raw_act
 36 lines in following concentration table = NCONC+1
    Conc.  %SD /Cr+PCr  Metabolite                                         
    0.000 999%   0.000 Ala                                                 
  164.168 146% 8.7E-02 Asp                                                 
  715.580  31%   0.379 Cr                                                  
 1.17E+03  19%   0.621 PCr                                                 
    0.000 999%   0.000 GABA                                                
    0.000 999%   0.000 Glc                                                 
  653.018  33%   0.346 Gln                                                 
 1.73E+03  14%   0.918 Glu                                                 
  760.833   3%   0.403 GPC                                                 
    0.000 999%   0.000 PCh                                                 
  321.047  22%   0.170 GSH                                                 
  794.845  31%   0.421 Ins                                                 
    3.066 999% 1.6E-03 Lac                                                 
 2.29E+03   4%   1.213 NAA                                                 
   62.111 178% 3.3E-02 NAAG                                                
   73.562  37% 3.9E-02 Scyllo                                              
    0.000 999%   0.000 Tau                                                 
    0.000 999%   0.000 -CrCH2                                              
  760.833   3%   0.403 GPC+PCh                                             
 2.35E+03   4%   1.246 NAA+NAAG                                            
 1.89E+03   3%   1.000 Cr+PCr                                              
 2.39E+03  14%   1.264 Glu+Gln                                             
  217.705 162%   0.115 Lip13a                                              
    0.000 999%   0.000 Lip13b                                              
   22.376 630% 1.2E-02 Lip09                                               
 1.24E+03  19%   0.656 MM09                                                
   47.373 191% 2.5E-02 Lip20                                               
 2.57E+03  15%   1.363 MM20                                                
  415.632  41%   0.220 MM12                                                
  321.519  94%   0.170 MM14                                                
  891.634  27%   0.472 MM17                                                
  217.705 162%   0.115 Lip13a+Lip13b                                       
  954.856  41%   0.506 MM14+Lip13a+Lip13b+MM12                             
 1.26E+03  17%   0.668 MM09+Lip09                                          
 2.62E+03  15%   1.389 MM20+Lip20                                          
   6 lines in following misc. output table
  FWHM = 0.054 ppm    S/N =  12                                            
  Data shift = 0.015 ppm                                                   
  Ph: -37 deg     -10.3 deg/ppm                                            
  alphaB,S = 7.0E-01,   1.8E+02                                            
   14 spline knots.   Ns = 6(1)                                            
  ( 4) 2 infls.   ( 3) 1 extrs.                                            
  498 points on ppm-axis = NY
      4.000000     3.992357     3.984714     3.977070     3.969427     3.961784     3.954141     3.946497     3.938854     3.931211
      3.923568     3.915925     3.908281     3.900638     3.892995     3.885352     3.877708     3.870065     3.862422     3.854779
      3.847136     3.839492     3.831849     3.824206     3.816563     3.808919     3.801276     3.793633     3.785990     3.778347
      3.770703     3.763060     3.755417     3.747774     3.740130     3.732487     3.724844     3.717201     3.709558     3.701914
      3.694271     3.686628     3.678985     3.671341     3.663698     3.656055     3.648412     3.640769     3.633125     3.625482
      3.617839     3.610196     3.602552     3.594909     3.587266     3.579623     3.571980     3.564336     3.556693     3.549050
      3.541407     3.533763     3.526120     3.518477     3.510834     3.503191     3.495547     3.487904     3.480261     3.472618
      3.464974     3.457331     3.449688     3.442045     3.434402     3.426758     3.419115     3.411472     3.403829     3.396185
      3.388542     3.380899     3.373256     3.365613     3.357969     3.350326     3.342683     3.335040     3.327396     3.319753
      3.312110     3.304467     3.296824     3.289180     3.281537     3.273894     3.266251     3.258607     3.250964     3.243321
      3.235678     3.228034     3.220391     3.212748     3.205105     3.197462     3.189818     3.182175     3.174532     3.166889
      3.159245     3.151602     3.143959     3.136316     3.128673     3.121029     3.113386     3.105743     3.098100     3.090456
      3.082813     3.075170     3.067527     3.059884     3.052240     3.044597     3.036954     3.029311     3.021667     3.014024
      3.006381     2.998738     2.991095     2.983451     2.975808     2.968165     2.960522     2.952878     2.945235     2.937592
      2.929949     2.922306     2.914662     2.907019     2.899376     2.891733     2.884089     2.876446     2.868803     2.861160
      2.853517     2.845873     2.838230     2.830587     2.822944     2.815300     2.807657     2.800014     2.792371     2.784728
      2.777084     2.769441     2.761798     2.754155     2.746511     2.738868     2.731225     2.723582     2.715939     2.708295
      2.700652     2.693009     2.685366     2.677722     2.670079     2.662436     2.654793     2.647150     2.639506     2.631863
      2.624220     2.616577     2.608933     2.601290     2.593647     2.586004     2.578361     2.570717     2.563074     2.555431
      2.547788     2.540144     2.532501     2.524858     2.517215     2.509572     2.501928     2.494285     2.486642     2.478999
      2.471355     2.463712     2.456069     2.448426     2.440783     2.433139     2.425496     2.417853     2.410210     2.402566
      2.394923     2.387280     2.379637     2.371994     2.364350     2.356707     2.349064     2.341421     2.333777     2.326134
      2.318491     2.310848     2.303205     2.295561     2.287918     2.280275     2.272632     2.264988     2.257345     2.249702
      2.242059     2.234416     2.226772     2.219129     2.211486     2.203843     2.196199     2.188556     2.180913     2.173270
      2.165627     2.157983     2.150340     2.142697     2.135054     2.127410     2.119767     2.112124     2.104481     2.096838
      2.089194     2.081551     2.073908     2.066265     2.058621     2.050978     2.043335     2.035692     2.028049     2.020405
      2.012762     2.005119     1.997476     1.989833     1.982190     1.974546     1.966903     1.959260     1.951617     1.943974
      1.936331     1.928688     1.921045     1.913402     1.905759     1.898115     1.890472     1.882829     1.875186     1.867543
      1.859900     1.852257     1.844614     1.836971     1.829327     1.821684     1.814041     1.806398     1.798755     1.791112
      1.783469     1.775826     1.768183     1.760540     1.752896     1.745253     1.737610     1.729967     1.722324     1.714681
      1.707038     1.699395     1.691752     1.684108     1.676465     1.668822     1.661179     1.653536     1.645893     1.638250
      1.630607     1.622964     1.615321     1.607677     1.600034     1.592391     1.584748     1.577105     1.569462     1.561819
      1.554176     1.546533     1.538890     1.531246     1.523603     1.515960     1.508317     1.500674     1.493031     1.485388
      1.477745     1.470102     1.462458     1.454815     1.447172     1.439529     1.431886     1.424243     1.416600     1.408957
      1.401314     1.393671     1.386027     1.378384     1.370741     1.363098     1.355455     1.347812     1.340169     1.332526
      1.324883     1.317240     1.309596     1.301953     1.294310     1.286667     1.279024     1.271381     1.263738     1.256095
      1.248452     1.240808     1.233165     1.225522     1.217879     1.210236     1.202593     1.194950     1.187307     1.179664
      1.172021     1.164377     1.156734     1.149091     1.141448     1.133805     1.126162     1.118519     1.110876     1.103233
      1.095590     1.087946     1.080303     1.072660     1.065017     1.057374     1.049731     1.042088     1.034445     1.026802
      1.019158     1.011515     1.003872     0.996229     0.988586     0.980943     0.973300     0.965657     0.958014     0.950371
      0.942727     0.935084     0.927441     0.919798     0.912155     0.904512     0.896869     0.889226     0.881583     0.873940
      0.866296     0.858653     0.851010     0.843367     0.835724     0.828081     0.820438     0.812795     0.805152     0.797508
      0.789865     0.782222     0.774579     0.766936     0.759293     0.751650     0.744007     0.736364     0.728721     0.721077
      0.713434     0.705791     0.698148     0.690505     0.682862     0.675219     0.667576     0.659933     0.652290     0.644646
      0.637003     0.629360     0.621717     0.614074     0.606431     0.598788     0.591145     0.583502     0.575858     0.568215
      0.560572     0.552929     0.545286     0.537643     0.530000     0.522357     0.514714     0.507071     0.499427     0.491784
      0.484141     0.476498     0.468855     0.461212     0.453569     0.445925     0.438282     0.430639     0.422996     0.415353
      0.407710     0.400067     0.392424     0.384780     0.377137     0.369494     0.361851     0.354208     0.346565     0.338922
      0.331278     0.323635     0.315992     0.308349     0.300706     0.293063     0.285420     0.277777     0.270133     0.262490
      0.254847     0.247204     0.239561     0.231918     0.224275     0.216631     0.208988     0.201345
 NY phased data points follow
   2.88069E+01  2.48159E+01  3.38684E+01  3.44570E+01  3.15887E+01  3.99926E+01  4.36830E+01  4.97639E+01  6.34417E+01  7.26345E+01
   7.07242E+01  7.38346E+01  6.99082E+01  6.52667E+01  5.62761E+01  4.87987E+01  4.08848E+01  3.46412E+01  3.26501E+01  2.41698E+01
   2.80415E+01  2.67795E+01  2.62329E+01  2.36334E+01  2.91067E+01  2.47278E+01  2.60578E+01  2.72419E+01  2.83606E+01  2.54971E+01
   2.93622E+01  2.85080E+01  2.89276E+01  2.96574E+01  3.07647E+01  2.74878E+01  2.51573E+01  1.85527E+01  2.36382E+01  2.46536E+01
   2.16368E+01  2.00335E+01  2.06697E+01  2.49286E+01  2.20123E+01  2.92669E+01  2.95741E+01  2.92026E+01  3.18736E+01  3.19750E+01
   2.78449E+01  2.29732E+01  1.65186E+01  2.21264E+01  1.97518E+01  2.17558E+01  2.19410E+01  2.02623E+01  1.67691E+01  1.66520E+01
   1.70396E+01  1.58209E+01  1.14730E+01  8.88606E+00  8.64277E+00  3.94987E+00  3.70643E+00  6.06811E+00  3.76986E+00  5.22870E-01
   9.12362E+00  8.17827E+00  5.51081E+00  4.69844E+00  6.51979E+00  1.02127E+01  6.03981E+00  6.07731E+00  4.13726E+00  6.65056E+00
   9.58237E+00  1.10653E+01  1.23414E+01  8.63481E+00  6.98444E+00  1.31206E+01  1.13468E+01  1.12616E+01  1.08486E+01  9.77878E+00
   6.29757E+00  1.29376E+01  1.00569E+01  8.79326E+00  5.44463E+00  7.64289E+00  5.03878E+00  7.46542E+00  1.76351E+01  2.78023E+01
   4.65535E+01  6.03860E+01  7.25060E+01  7.55007E+01  7.95535E+01  7.14654E+01  5.87187E+01  4.36811E+01  3.34400E+01  2.86148E+01
   1.64243E+01  1.62709E+01  1.40926E+01  8.80615E+00  5.88229E+00  4.64539E+00  5.66225E+00  1.56912E+00  5.02289E+00  3.24239E+00
   5.82114E-01  2.73513E+00  8.55143E+00  1.79284E+01  3.82439E+01  5.04831E+01  5.73097E+01  6.69165E+01  6.74541E+01  5.81515E+01
   5.00192E+01  3.68770E+01  2.88075E+01  2.20130E+01  1.96677E+01  1.19643E+01  1.05921E+01  3.19182E+00  3.68912E+00  1.43790E+01
   7.65460E+00  4.03484E+00  6.32451E+00  5.82193E+00  6.58727E-01  8.74754E-01  2.13686E+00  5.41132E+00  4.22207E+00  7.47940E-01
   2.76253E+00 -3.76664E+00  5.46422E+00  2.50027E+00  6.68715E-01 -1.62190E+00  4.07390E+00  6.21297E-01 -1.31857E-01  2.09408E+00
  -2.73512E+00 -2.52965E-01 -3.94183E+00 -5.77669E+00 -7.99643E-01  1.01770E+00  4.18339E+00 -1.10885E-02  8.45648E+00  1.48412E+00
  -1.61017E+00  4.68210E-01 -8.04902E-01 -7.29874E+00 -7.98736E+00 -8.64954E+00 -1.10925E+01 -3.51850E+00 -4.73836E+00 -6.09445E-01
  -1.51994E+00 -7.28092E+00 -9.83599E+00 -1.01881E+01 -9.52955E+00 -4.97020E+00 -7.14289E+00 -4.45003E+00 -4.18186E+00  2.19541E+00
   4.89601E+00  4.52876E+00  7.47437E+00  1.02807E+01  7.67498E+00  1.43932E+01  5.75622E+00  4.58379E+00  3.40406E+00  1.96538E+00
   7.67622E+00  5.10041E+00  6.96960E+00  8.31386E+00  8.81484E+00  6.21743E+00 -2.08166E+00  3.08229E+00  5.81494E-01 -4.15581E+00
   1.47538E-01 -9.08753E-01  1.21756E+00  2.84824E+00  1.83193E+01  1.53353E+01  1.66177E+01  1.13565E+01  1.52396E+01  1.02677E+01
  -6.13704E-01  3.35029E+00 -1.54003E+00  1.26273E+00  3.94629E+00  5.30627E+00  8.93325E+00  1.13850E+01  1.10321E+01  1.02041E+01
   1.03779E+01  1.28914E+01  8.52056E+00  1.15957E+01  8.85991E+00  1.26421E+01  1.20545E+01  1.10099E+01  9.68715E+00  8.88700E+00
   2.26125E+00  8.93126E+00  5.28505E+00  7.28832E+00  9.38099E+00  1.25714E+01  1.24449E+01  1.13171E+01  1.88620E+01  1.18946E+01
   5.88715E+00  1.58790E+01  1.33402E+01  1.90968E+01  2.37886E+01  2.47398E+01  3.91503E+01  4.94375E+01  6.71247E+01  8.16866E+01
   9.61905E+01  9.76296E+01  7.79401E+01  6.09911E+01  4.88650E+01  3.60974E+01  2.81138E+01  2.26339E+01  1.76817E+01  1.53435E+01
   8.29928E+00  1.04060E+01  7.45052E+00  1.25272E+01  7.66026E+00  7.82614E+00  1.05533E+01  1.26654E+01  7.02195E+00  7.18086E+00
   2.55980E+00  8.46424E+00  9.75342E+00  9.35358E+00  6.99806E+00  7.56878E+00  5.28790E+00  8.83348E+00  7.70952E+00  7.41665E+00
   8.97169E+00  4.12095E+00  4.84410E+00  7.72036E+00  5.80335E+00  6.18244E+00  7.95086E+00  8.70272E+00  3.61191E+00  8.37515E+00
   8.05369E+00  1.00321E+01  6.74913E+00  9.54822E+00  1.04050E+01  1.12048E+01  1.05546E+01  1.15968E+01  9.88892E+00  9.09530E+00
   6.80560E+00  9.47274E+00  1.20668E+01  8.25878E+00  8.02796E+00  8.32074E+00  1.03377E+01  9.10756E+00  9.52188E+00  1.09324E+01
   1.25779E+01  1.15297E+01  6.26463E+00  7.52635E+00  8.84458E+00  3.95501E+00  4.76113E+00  4.33105E+00  5.29674E+00  6.70222E+00
   1.87045E+00  7.63841E+00  8.68761E+00  4.27298E+00  6.73508E+00  4.97459E+00  3.60719E+00  7.22044E+00  6.31092E+00  2.46025E+00
   1.23004E+00  1.59792E+00  6.10956E+00  9.59736E+00  9.57403E+00  8.32011E+00  1.08304E+01  8.67006E+00  1.37041E+01  9.05717E+00
   3.57632E+00  1.02354E+01  6.46216E+00  5.54588E+00  4.09557E+00  6.80296E+00  7.31270E+00  6.48416E+00  5.15136E+00  9.57125E+00
   7.12338E+00  7.87980E+00 -3.31279E+00  2.80690E+00  4.03506E+00  3.58053E+00  6.27446E+00  7.90709E+00  4.29067E+00  1.37028E+01
   1.08414E+01  7.84635E+00  5.18686E+00  1.34182E+01  6.85356E+00  7.40517E+00  1.05380E+01  8.59705E+00  5.71415E+00  9.18618E+00
   2.49710E+00  9.46031E+00  1.67082E+00  1.16450E+01  7.95000E+00  1.07901E+01  3.46740E+00  7.12210E+00  1.22096E+01  5.47739E+00
   1.21762E+01  9.19806E+00  4.40536E+00  2.25279E+00  9.21229E+00  8.90137E+00  5.55269E+00  9.56289E+00  1.11844E+01  1.03854E+01
   1.59618E+01  1.26933E+01  1.06696E+01  9.54917E+00  1.29585E+01  1.03552E+01  1.44926E+01  1.36860E+01  7.80728E+00  1.03872E+01
   6.93056E+00  1.16466E+01  1.29716E+01  7.78713E+00  1.05325E+01  1.03399E+01  1.18706E+01  9.89334E+00  8.38664E+00  1.07707E+01
   3.05167E+00  5.63396E+00  9.30348E+00  3.70166E+00  4.40488E+00  5.94054E+00  5.41409E+00  5.96307E+00  5.05311E+00  1.00885E+01
  -1.13146E+00  2.28730E-01  3.70543E+00  5.62991E+00  4.59414E+00  8.03754E-01  3.32625E+00  1.39594E+00  6.09899E-01  2.48506E+00
   1.92274E+00  2.18213E+00  3.28987E+00  3.58565E+00  2.10790E+00  4.97329E+00  2.95497E+00 -1.19943E+00  2.86928E+00  5.74914E+00
   2.83510E+00  6.58031E+00  1.29497E+00  2.77243E+00  3.02663E+00  4.31208E+00  1.42739E+00  1.73119E+00 -9.99217E-01  6.55983E+00
   1.44539E+00  3.04796E+00  9.15170E-02  1.28971E-01  5.54366E+00  6.04244E+00  2.97687E+00  5.32413E+00  2.17929E+00  3.22785E+00
  -3.00127E+00  1.24580E+00 -3.34888E-02  8.67350E-01  3.13589E+00 -2.79418E-01  3.21136E+00 -7.69722E-02  3.19920E+00 -3.05090E+00
   1.89739E+00 -4.22835E-02  5.32618E+00  2.71569E+00  3.39388E+00 -1.00037E-01  2.69427E+00  1.73182E+00  4.53734E+00  1.34259E+00
   1.32579E+00  3.63121E+00  1.36227E+00  2.98968E+00  3.54670E+00  1.15973E+00  1.96124E+00  1.20272E+00
 NY points of the fit to the data follow
   2.73696E+01  2.71481E+01  2.72860E+01  2.80271E+01  3.02843E+01  3.48000E+01  4.17215E+01  5.02482E+01  5.89072E+01  6.59318E+01
   6.97131E+01  6.93809E+01  6.52913E+01  5.88677E+01  5.18171E+01  4.52407E+01  3.93857E+01  3.43902E+01  3.08636E+01  2.87082E+01
   2.75388E+01  2.67384E+01  2.59546E+01  2.50522E+01  2.42669E+01  2.38711E+01  2.40556E+01  2.48989E+01  2.63446E+01  2.81894E+01
   2.99384E+01  3.10094E+01  3.10322E+01  3.00065E+01  2.82348E+01  2.61368E+01  2.39440E+01  2.20693E+01  2.10508E+01  2.07293E+01
   2.08455E+01  2.13410E+01  2.22096E+01  2.33772E+01  2.45536E+01  2.55381E+01  2.61381E+01  2.61674E+01  2.55858E+01  2.44257E+01
   2.28700E+01  2.13028E+01  1.99254E+01  1.86506E+01  1.75613E+01  1.69089E+01  1.66938E+01  1.66632E+01  1.66390E+01  1.65418E+01
   1.62468E+01  1.56946E+01  1.49203E+01  1.40701E+01  1.33150E+01  1.27376E+01  1.23625E+01  1.22000E+01  1.22178E+01  1.23195E+01
   1.24233E+01  1.24444E+01  1.23381E+01  1.20944E+01  1.17397E+01  1.13396E+01  1.09539E+01  1.06084E+01  1.03004E+01  1.00426E+01
   9.97158E+00  1.01893E+01  1.06331E+01  1.11471E+01  1.15480E+01  1.16715E+01  1.14017E+01  1.07286E+01  9.80650E+00  8.89978E+00
   8.22785E+00  7.84182E+00  7.62887E+00  7.48320E+00  7.47451E+00  7.66215E+00  8.20913E+00  1.06666E+01  1.75159E+01  2.91893E+01
   4.42551E+01  5.99711E+01  7.30279E+01  8.02493E+01  7.96156E+01  7.15808E+01  5.91614E+01  4.60388E+01  3.44209E+01  2.44659E+01
   1.58135E+01  9.91535E+00  7.75372E+00  6.96959E+00  6.54537E+00  6.26612E+00  6.06875E+00  5.93746E+00  5.89037E+00  5.99433E+00
   6.48975E+00  8.53012E+00  1.41683E+01  2.39220E+01  3.66727E+01  5.01846E+01  6.17116E+01  6.85969E+01  6.90252E+01  6.30854E+01
   5.30624E+01  4.19958E+01  3.18482E+01  2.28870E+01  1.48175E+01  8.81295E+00  6.18440E+00  5.25956E+00  4.97885E+00  5.01920E+00
   5.17837E+00  5.34559E+00  5.44673E+00  5.39757E+00  5.20120E+00  4.90294E+00  4.52610E+00  4.11338E+00  3.70810E+00  3.33781E+00
   3.02818E+00  2.76276E+00  2.54829E+00  2.39499E+00  2.29317E+00  2.15001E+00  1.86900E+00  1.43526E+00  9.02905E-01  4.21405E-01
   1.28365E-01  8.59785E-02  2.73178E-01  5.66436E-01  7.90226E-01  7.97830E-01  5.64333E-01  2.01861E-01 -1.72764E-01 -5.76184E-01
  -1.05790E+00 -1.64484E+00 -2.25517E+00 -2.72057E+00 -2.99651E+00 -3.12473E+00 -3.12118E+00 -3.00244E+00 -2.82651E+00 -2.68143E+00
  -2.61752E+00 -2.62727E+00 -2.62860E+00 -2.52664E+00 -2.32324E+00 -1.95882E+00 -1.22522E+00 -9.09491E-02  1.27904E+00  2.54623E+00
   3.42651E+00  3.85404E+00  3.84920E+00  3.52807E+00  3.04008E+00  2.50836E+00  2.13486E+00  2.13648E+00  2.62154E+00  3.62112E+00
   5.01629E+00  6.50999E+00  7.71791E+00  8.32963E+00  8.02627E+00  6.74296E+00  4.63852E+00  2.11104E+00 -2.87539E-01 -1.95696E+00
  -2.33807E+00 -1.10448E+00  1.54151E+00  4.95552E+00  8.32163E+00  1.08274E+01  1.17250E+01  1.05543E+01  7.40328E+00  3.34259E+00
  -4.31239E-01 -3.18204E+00 -4.41640E+00 -3.88877E+00 -1.66772E+00  1.57352E+00  4.68360E+00  7.05922E+00  8.60343E+00  9.44201E+00
   9.60976E+00  9.23512E+00  8.80348E+00  8.76074E+00  9.11381E+00  9.70398E+00  1.03613E+01  1.08219E+01  1.08785E+01  1.04544E+01
   9.69847E+00  8.96187E+00  8.56150E+00  8.62549E+00  9.10494E+00  9.91029E+00  1.07870E+01  1.14829E+01  1.19796E+01  1.24167E+01
   1.29621E+01  1.36388E+01  1.45352E+01  1.58988E+01  1.92441E+01  2.69500E+01  3.92878E+01  5.47688E+01  7.06604E+01  8.36863E+01
   9.06095E+01  8.93331E+01  8.03404E+01  6.68724E+01  5.28642E+01  4.05320E+01  2.98489E+01  2.03551E+01  1.37950E+01  1.12760E+01
   1.01806E+01  9.52710E+00  9.15734E+00  8.98426E+00  8.86113E+00  8.72884E+00  8.54672E+00  8.30197E+00  8.01843E+00  7.72563E+00
   7.43222E+00  7.15868E+00  6.94092E+00  6.78857E+00  6.68251E+00  6.60483E+00  6.55069E+00  6.52327E+00  6.52319E+00  6.54459E+00
   6.59302E+00  6.67474E+00  6.78950E+00  6.93338E+00  7.10319E+00  7.29645E+00  7.50985E+00  7.73895E+00  7.98066E+00  8.23092E+00
   8.48470E+00  8.73545E+00  8.97547E+00  9.19650E+00  9.39066E+00  9.55122E+00  9.67286E+00  9.75161E+00  9.78566E+00  9.77452E+00
   9.71872E+00  9.62074E+00  9.48479E+00  9.31563E+00  9.11899E+00  8.90118E+00  8.66893E+00  8.42904E+00  8.18811E+00  7.95211E+00
   7.72621E+00  7.51460E+00  7.32056E+00  7.14639E+00  6.99347E+00  6.86221E+00  6.75215E+00  6.66218E+00  6.59075E+00  6.53600E+00
   6.49583E+00  6.46800E+00  6.45024E+00  6.44048E+00  6.43687E+00  6.43791E+00  6.44233E+00  6.44911E+00  6.45762E+00  6.46762E+00
   6.47943E+00  6.49408E+00  6.51171E+00  6.53080E+00  6.54952E+00  6.56638E+00  6.58062E+00  6.59232E+00  6.60286E+00  6.61624E+00
   6.63712E+00  6.66783E+00  6.70773E+00  6.75411E+00  6.80384E+00  6.85381E+00  6.89892E+00  6.93480E+00  6.96092E+00  6.97797E+00
   6.98630E+00  6.98520E+00  6.97403E+00  6.95425E+00  6.92645E+00  6.88997E+00  6.84490E+00  6.79191E+00  6.73208E+00  6.66681E+00
   6.59772E+00  6.52664E+00  6.45565E+00  6.38697E+00  6.32299E+00  6.26611E+00  6.21874E+00  6.18332E+00  6.16231E+00  6.15819E+00
   6.17337E+00  6.21019E+00  6.27087E+00  6.35753E+00  6.47215E+00  6.61650E+00  6.79199E+00  6.99956E+00  7.23959E+00  7.51180E+00
   7.81509E+00  8.14742E+00  8.50561E+00  8.88528E+00  9.28089E+00  9.68574E+00  1.00921E+01  1.04912E+01  1.08737E+01  1.12299E+01
   1.15500E+01  1.18249E+01  1.20462E+01  1.22066E+01  1.23008E+01  1.23248E+01  1.22773E+01  1.21587E+01  1.19719E+01  1.17213E+01
   1.14134E+01  1.10559E+01  1.06576E+01  1.02278E+01  9.77595E+00  9.31131E+00  8.84253E+00  8.37745E+00  7.92290E+00  7.48452E+00
   7.06673E+00  6.67272E+00  6.30460E+00  5.96351E+00  5.64971E+00  5.36275E+00  5.10159E+00  4.86480E+00  4.65069E+00  4.45746E+00
   4.28322E+00  4.12608E+00  3.98422E+00  3.85593E+00  3.73964E+00  3.63397E+00  3.53763E+00  3.44950E+00  3.36854E+00  3.29389E+00
   3.22481E+00  3.16067E+00  3.10089E+00  3.04495E+00  2.99241E+00  2.94291E+00  2.89615E+00  2.85186E+00  2.80978E+00  2.76967E+00
   2.73134E+00  2.69465E+00  2.65948E+00  2.62570E+00  2.59317E+00  2.56178E+00  2.53143E+00  2.50207E+00  2.47363E+00  2.44603E+00
   2.41919E+00  2.39305E+00  2.36757E+00  2.34273E+00  2.31849E+00  2.29479E+00  2.27158E+00  2.24884E+00  2.22654E+00  2.20469E+00
   2.18323E+00  2.16215E+00  2.14140E+00  2.12098E+00  2.10089E+00  2.08113E+00  2.06165E+00  2.04242E+00  2.02344E+00  2.00470E+00
   1.98621E+00  1.96796E+00  1.94991E+00  1.93204E+00  1.91437E+00  1.89689E+00  1.87961E+00  1.86251E+00  1.84557E+00  1.82877E+00
   1.81214E+00  1.79568E+00  1.77938E+00  1.76324E+00  1.74723E+00  1.73137E+00  1.71567E+00  1.70015E+00
 NY background values follow
     2.497E+01    2.474E+01    2.451E+01    2.429E+01    2.406E+01    2.383E+01    2.361E+01    2.338E+01    2.315E+01    2.292E+01
     2.270E+01    2.247E+01    2.224E+01    2.201E+01    2.179E+01    2.156E+01    2.133E+01    2.111E+01    2.088E+01    2.065E+01
     2.043E+01    2.020E+01    1.998E+01    1.975E+01    1.953E+01    1.930E+01    1.908E+01    1.886E+01    1.864E+01    1.841E+01
     1.819E+01    1.797E+01    1.775E+01    1.753E+01    1.731E+01    1.709E+01    1.687E+01    1.666E+01    1.644E+01    1.622E+01
     1.601E+01    1.579E+01    1.558E+01    1.537E+01    1.516E+01    1.495E+01    1.473E+01    1.453E+01    1.432E+01    1.411E+01
     1.390E+01    1.370E+01    1.349E+01    1.329E+01    1.309E+01    1.289E+01    1.269E+01    1.249E+01    1.229E+01    1.210E+01
     1.190E+01    1.171E+01    1.152E+01    1.132E+01    1.113E+01    1.095E+01    1.076E+01    1.057E+01    1.039E+01    1.021E+01
     1.003E+01    9.846E+00    9.667E+00    9.491E+00    9.315E+00    9.142E+00    8.970E+00    8.800E+00    8.631E+00    8.464E+00
     8.299E+00    8.135E+00    7.973E+00    7.813E+00    7.655E+00    7.499E+00    7.344E+00    7.192E+00    7.041E+00    6.892E+00
     6.746E+00    6.601E+00    6.458E+00    6.317E+00    6.178E+00    6.041E+00    5.906E+00    5.773E+00    5.642E+00    5.513E+00
     5.385E+00    5.260E+00    5.137E+00    5.016E+00    4.896E+00    4.779E+00    4.663E+00    4.549E+00    4.438E+00    4.328E+00
     4.220E+00    4.114E+00    4.010E+00    3.908E+00    3.807E+00    3.709E+00    3.612E+00    3.518E+00    3.425E+00    3.334E+00
     3.245E+00    3.158E+00    3.073E+00    2.990E+00    2.908E+00    2.828E+00    2.751E+00    2.675E+00    2.601E+00    2.528E+00
     2.458E+00    2.389E+00    2.323E+00    2.258E+00    2.195E+00    2.133E+00    2.074E+00    2.016E+00    1.960E+00    1.906E+00
     1.854E+00    1.803E+00    1.755E+00    1.707E+00    1.662E+00    1.618E+00    1.576E+00    1.536E+00    1.497E+00    1.459E+00
     1.424E+00    1.390E+00    1.357E+00    1.326E+00    1.297E+00    1.269E+00    1.242E+00    1.217E+00    1.194E+00    1.172E+00
     1.151E+00    1.132E+00    1.114E+00    1.097E+00    1.082E+00    1.068E+00    1.056E+00    1.044E+00    1.034E+00    1.026E+00
     1.018E+00    1.012E+00    1.007E+00    1.004E+00    1.001E+00    9.997E-01    9.994E-01    1.000E+00    1.002E+00    1.006E+00
     1.010E+00    1.015E+00    1.021E+00    1.029E+00    1.037E+00    1.046E+00    1.057E+00    1.068E+00    1.080E+00    1.093E+00
     1.106E+00    1.121E+00    1.136E+00    1.152E+00    1.169E+00    1.186E+00    1.204E+00    1.223E+00    1.242E+00    1.262E+00
     1.282E+00    1.303E+00    1.324E+00    1.346E+00    1.368E+00    1.391E+00    1.414E+00    1.437E+00    1.461E+00    1.485E+00
     1.509E+00    1.533E+00    1.558E+00    1.583E+00    1.608E+00    1.633E+00    1.658E+00    1.683E+00    1.708E+00    1.733E+00
     1.758E+00    1.783E+00    1.808E+00    1.833E+00    1.858E+00    1.883E+00    1.907E+00    1.931E+00    1.955E+00    1.979E+00
     2.002E+00    2.025E+00    2.048E+00    2.071E+00    2.093E+00    2.116E+00    2.138E+00    2.160E+00    2.181E+00    2.203E+00
     2.224E+00    2.245E+00    2.266E+00    2.286E+00    2.306E+00    2.326E+00    2.346E+00    2.366E+00    2.385E+00    2.404E+00
     2.423E+00    2.442E+00    2.460E+00    2.479E+00    2.497E+00    2.514E+00    2.532E+00    2.549E+00    2.566E+00    2.583E+00
     2.600E+00    2.616E+00    2.633E+00    2.649E+00    2.664E+00    2.680E+00    2.695E+00    2.710E+00    2.725E+00    2.740E+00
     2.754E+00    2.768E+00    2.782E+00    2.796E+00    2.810E+00    2.823E+00    2.836E+00    2.849E+00    2.862E+00    2.874E+00
     2.886E+00    2.898E+00    2.910E+00    2.921E+00    2.932E+00    2.944E+00    2.954E+00    2.965E+00    2.975E+00    2.985E+00
     2.995E+00    3.005E+00    3.014E+00    3.023E+00    3.032E+00    3.041E+00    3.050E+00    3.058E+00    3.066E+00    3.074E+00
     3.081E+00    3.089E+00    3.096E+00    3.103E+00    3.109E+00    3.116E+00    3.122E+00    3.128E+00    3.133E+00    3.139E+00
     3.144E+00    3.149E+00    3.154E+00    3.158E+00    3.163E+00    3.167E+00    3.170E+00    3.174E+00    3.177E+00    3.180E+00
     3.183E+00    3.186E+00    3.188E+00    3.190E+00    3.192E+00    3.194E+00    3.195E+00    3.196E+00    3.197E+00    3.198E+00
     3.199E+00    3.199E+00    3.199E+00    3.199E+00    3.198E+00    3.198E+00    3.197E+00    3.196E+00    3.194E+00    3.193E+00
     3.191E+00    3.189E+00    3.187E+00    3.184E+00    3.181E+00    3.178E+00    3.175E+00    3.172E+00    3.168E+00    3.165E+00
     3.161E+00    3.156E+00    3.152E+00    3.147E+00    3.142E+00    3.137E+00    3.132E+00    3.126E+00    3.120E+00    3.114E+00
     3.108E+00    3.102E+00    3.095E+00    3.088E+00    3.081E+00    3.074E+00    3.067E+00    3.059E+00    3.051E+00    3.043E+00
     3.035E+00    3.026E+00    3.018E+00    3.009E+00    3.000E+00    2.991E+00    2.982E+00    2.972E+00    2.963E+00    2.953E+00
     2.943E+00    2.933E+00    2.923E+00    2.912E+00    2.902E+00    2.891E+00    2.880E+00    2.870E+00    2.859E+00    2.847E+00
     2.836E+00    2.825E+00    2.813E+00    2.802E+00    2.790E+00    2.778E+00    2.766E+00    2.754E+00    2.742E+00    2.730E+00
     2.718E+00    2.705E+00    2.693E+00    2.681E+00    2.668E+00    2.655E+00    2.643E+00    2.630E+00    2.617E+00    2.604E+00
     2.591E+00    2.578E+00    2.565E+00    2.552E+00    2.539E+00    2.526E+00    2.513E+00    2.500E+00    2.487E+00    2.473E+00
     2.460E+00    2.447E+00    2.433E+00    2.420E+00    2.406E+00    2.393E+00    2.380E+00    2.366E+00    2.353E+00    2.339E+00
     2.326E+00    2.312E+00    2.299E+00    2.285E+00    2.272E+00    2.258E+00    2.245E+00    2.231E+00    2.218E+00    2.204E+00
     2.191E+00    2.177E+00    2.164E+00    2.150E+00    2.137E+00    2.124E+00    2.110E+00    2.097E+00    2.084E+00    2.070E+00
     2.057E+00    2.044E+00    2.031E+00    2.018E+00    2.005E+00    1.992E+00    1.979E+00    1.966E+00    1.953E+00    1.940E+00
     1.927E+00    1.914E+00    1.902E+00    1.889E+00    1.876E+00    1.864E+00    1.851E+00    1.838E+00    1.826E+00    1.813E+00
     1.801E+00    1.788E+00    1.776E+00    1.763E+00    1.751E+00    1.738E+00    1.726E+00    1.714E+00    1.701E+00    1.689E+00
     1.677E+00    1.664E+00    1.652E+00    1.640E+00    1.627E+00    1.615E+00    1.603E+00    1.591E+00    1.579E+00    1.566E+00
     1.554E+00    1.542E+00    1.530E+00    1.518E+00    1.505E+00    1.493E+00    1.481E+00    1.469E+00
 Asp      Conc. = 1.64E+02
