 LCModel (Version 6.3-1L) Copyright: S.W. Provencher.          Ref.: Magn. Reson. Med. 30:672-679 (1993).                
 Slice#1 Row#14 Col#1  PD_24_press_1_raw_act
 36 lines in following concentration table = NCONC+1
    Conc.  %SD /Cr+PCr  Metabolite                                         
   20.017 162%   1.003 Ala                                                 
    2.172  98%   0.109 Asp                                                 
    0.000 999%   0.000 Cr                                                  
   19.956  74%   1.000 PCr                                                 
    1.321  96% 6.6E-02 GABA                                                
    1.278 100% 6.4E-02 Glc                                                 
    0.000 999%   0.000 Gln                                                 
   55.838 129%   2.798 Glu                                                 
    5.037 110%   0.252 GPC                                                 
    0.000 999%   0.000 PCh                                                 
   22.651  96%   1.135 GSH                                                 
    0.000 999%   0.000 Ins                                                 
    0.000 999%   0.000 Lac                                                 
    8.280 210%   0.415 NAA                                                 
    0.000 999%   0.000 NAAG                                                
    0.423 101% 2.1E-02 Scyllo                                              
    2.042 104%   0.102 Tau                                                 
    1.723 129% 8.6E-02 -CrCH2                                              
    5.037 110%   0.252 GPC+PCh                                             
    8.280 210%   0.415 NAA+NAAG                                            
   19.956  74%   1.000 Cr+PCr                                              
   55.838 129%   2.798 Glu+Gln                                             
   18.122 811%   0.908 Lip13a                                              
   35.495 229%   1.779 Lip13b                                              
    0.000 999%   0.000 Lip09                                               
    0.493 999% 2.5E-02 MM09                                                
   24.554 116%   1.230 Lip20                                               
   51.586 130%   2.585 MM20                                                
    0.000 999%   0.000 MM12                                                
   91.434  64%   4.582 MM14                                                
    9.174 451%   0.460 MM17                                                
   53.617 162%   2.687 Lip13a+Lip13b                                       
  145.051  62%   7.269 MM14+Lip13a+Lip13b+MM12                             
    0.493 999% 2.5E-02 MM09+Lip09                                          
   76.140  94%   3.815 MM20+Lip20                                          
   6 lines in following misc. output table
  FWHM = 0.054 ppm    S/N =   0                                            
  Data shift =-0.099 ppm                                                   
  Ph: 165 deg     -11.1 deg/ppm                                            
  alphaB,S = 7.6E+01,   2.4E+01                                            
   14 spline knots.   Ns = 5(1)                                            
  ( 7) 2 infls.   ( 7) 1 extrs.                                            
  498 points on ppm-axis = NY
      4.000000     3.992357     3.984714     3.977070     3.969427     3.961784     3.954141     3.946497     3.938854     3.931211
      3.923568     3.915925     3.908281     3.900638     3.892995     3.885352     3.877708     3.870065     3.862422     3.854779
      3.847136     3.839492     3.831849     3.824206     3.816563     3.808919     3.801276     3.793633     3.785990     3.778347
      3.770703     3.763060     3.755417     3.747774     3.740130     3.732487     3.724844     3.717201     3.709558     3.701914
      3.694271     3.686628     3.678985     3.671341     3.663698     3.656055     3.648412     3.640769     3.633125     3.625482
      3.617839     3.610196     3.602552     3.594909     3.587266     3.579623     3.571980     3.564336     3.556693     3.549050
      3.541407     3.533763     3.526120     3.518477     3.510834     3.503191     3.495547     3.487904     3.480261     3.472618
      3.464974     3.457331     3.449688     3.442045     3.434402     3.426758     3.419115     3.411472     3.403829     3.396185
      3.388542     3.380899     3.373256     3.365613     3.357969     3.350326     3.342683     3.335040     3.327396     3.319753
      3.312110     3.304467     3.296824     3.289180     3.281537     3.273894     3.266251     3.258607     3.250964     3.243321
      3.235678     3.228034     3.220391     3.212748     3.205105     3.197462     3.189818     3.182175     3.174532     3.166889
      3.159245     3.151602     3.143959     3.136316     3.128673     3.121029     3.113386     3.105743     3.098100     3.090456
      3.082813     3.075170     3.067527     3.059884     3.052240     3.044597     3.036954     3.029311     3.021667     3.014024
      3.006381     2.998738     2.991095     2.983451     2.975808     2.968165     2.960522     2.952878     2.945235     2.937592
      2.929949     2.922306     2.914662     2.907019     2.899376     2.891733     2.884089     2.876446     2.868803     2.861160
      2.853517     2.845873     2.838230     2.830587     2.822944     2.815300     2.807657     2.800014     2.792371     2.784728
      2.777084     2.769441     2.761798     2.754155     2.746511     2.738868     2.731225     2.723582     2.715939     2.708295
      2.700652     2.693009     2.685366     2.677722     2.670079     2.662436     2.654793     2.647150     2.639506     2.631863
      2.624220     2.616577     2.608933     2.601290     2.593647     2.586004     2.578361     2.570717     2.563074     2.555431
      2.547788     2.540144     2.532501     2.524858     2.517215     2.509572     2.501928     2.494285     2.486642     2.478999
      2.471355     2.463712     2.456069     2.448426     2.440783     2.433139     2.425496     2.417853     2.410210     2.402566
      2.394923     2.387280     2.379637     2.371994     2.364350     2.356707     2.349064     2.341421     2.333777     2.326134
      2.318491     2.310848     2.303205     2.295561     2.287918     2.280275     2.272632     2.264988     2.257345     2.249702
      2.242059     2.234416     2.226772     2.219129     2.211486     2.203843     2.196199     2.188556     2.180913     2.173270
      2.165627     2.157983     2.150340     2.142697     2.135054     2.127410     2.119767     2.112124     2.104481     2.096838
      2.089194     2.081551     2.073908     2.066265     2.058621     2.050978     2.043335     2.035692     2.028049     2.020405
      2.012762     2.005119     1.997476     1.989833     1.982190     1.974546     1.966903     1.959260     1.951617     1.943974
      1.936331     1.928688     1.921045     1.913402     1.905759     1.898115     1.890472     1.882829     1.875186     1.867543
      1.859900     1.852257     1.844614     1.836971     1.829327     1.821684     1.814041     1.806398     1.798755     1.791112
      1.783469     1.775826     1.768183     1.760540     1.752896     1.745253     1.737610     1.729967     1.722324     1.714681
      1.707038     1.699395     1.691752     1.684108     1.676465     1.668822     1.661179     1.653536     1.645893     1.638250
      1.630607     1.622964     1.615321     1.607677     1.600034     1.592391     1.584748     1.577105     1.569462     1.561819
      1.554176     1.546533     1.538890     1.531246     1.523603     1.515960     1.508317     1.500674     1.493031     1.485388
      1.477745     1.470102     1.462458     1.454815     1.447172     1.439529     1.431886     1.424243     1.416600     1.408957
      1.401314     1.393671     1.386027     1.378384     1.370741     1.363098     1.355455     1.347812     1.340169     1.332526
      1.324883     1.317240     1.309596     1.301953     1.294310     1.286667     1.279024     1.271381     1.263738     1.256095
      1.248452     1.240808     1.233165     1.225522     1.217879     1.210236     1.202593     1.194950     1.187307     1.179664
      1.172021     1.164377     1.156734     1.149091     1.141448     1.133805     1.126162     1.118519     1.110876     1.103233
      1.095590     1.087946     1.080303     1.072660     1.065017     1.057374     1.049731     1.042088     1.034445     1.026802
      1.019158     1.011515     1.003872     0.996229     0.988586     0.980943     0.973300     0.965657     0.958014     0.950371
      0.942727     0.935084     0.927441     0.919798     0.912155     0.904512     0.896869     0.889226     0.881583     0.873940
      0.866296     0.858653     0.851010     0.843367     0.835724     0.828081     0.820438     0.812795     0.805152     0.797508
      0.789865     0.782222     0.774579     0.766936     0.759293     0.751650     0.744007     0.736364     0.728721     0.721077
      0.713434     0.705791     0.698148     0.690505     0.682862     0.675219     0.667576     0.659933     0.652290     0.644646
      0.637003     0.629360     0.621717     0.614074     0.606431     0.598788     0.591145     0.583502     0.575858     0.568215
      0.560572     0.552929     0.545286     0.537643     0.530000     0.522357     0.514714     0.507071     0.499427     0.491784
      0.484141     0.476498     0.468855     0.461212     0.453569     0.445925     0.438282     0.430639     0.422996     0.415353
      0.407710     0.400067     0.392424     0.384780     0.377137     0.369494     0.361851     0.354208     0.346565     0.338922
      0.331278     0.323635     0.315992     0.308349     0.300706     0.293063     0.285420     0.277777     0.270133     0.262490
      0.254847     0.247204     0.239561     0.231918     0.224275     0.216631     0.208988     0.201345
 NY phased data points follow
   6.12230E+00  6.34386E+00  7.32231E+00  7.79613E+00  7.11114E+00  8.15561E+00  5.22625E+00  5.48615E+00  6.79742E+00  6.90893E+00
   5.48228E+00  5.11578E+00  7.77909E+00  5.98203E+00  4.83021E+00  6.04846E+00  5.25028E+00  5.64898E+00  3.99389E+00  6.63409E+00
   4.54348E+00  6.41669E+00  4.74634E+00  4.67766E+00  4.39555E+00  5.25188E+00  3.79509E+00  3.92264E+00  2.69729E+00  4.85778E+00
   5.41328E+00  5.65537E+00  4.20107E+00  5.43969E+00  4.66736E+00  3.94408E+00  4.91785E+00  3.15643E+00  5.19897E+00  5.55729E+00
   2.94725E+00  4.75644E+00  4.64730E+00  4.76103E+00  3.00541E+00  3.87516E+00  5.26003E+00  4.23756E+00  3.18406E+00  4.55533E+00
   2.97966E+00  4.64869E+00  4.70308E+00  2.82309E+00  2.39240E+00  2.81686E+00  4.13375E+00  4.73878E+00  3.47566E+00  3.23922E+00
   3.66223E+00  3.10376E+00  2.01023E+00  3.21726E+00  3.12029E+00  4.11495E+00  3.67521E+00  2.48057E+00  1.05179E+00  3.36817E+00
   2.75657E+00  3.82294E+00  4.41118E+00  2.51697E+00  2.78451E+00  1.77172E+00  2.42429E+00  7.75707E-01  5.41450E+00  2.92412E+00
   1.01906E+00  1.50160E+00  4.83290E+00  2.51696E+00  1.67233E+00  2.57156E+00  1.75574E+00  2.20447E+00  3.01833E+00  4.21181E+00
   2.20145E+00  4.72566E+00  1.72953E+00  8.76026E-01  1.02852E+00  3.86928E+00  3.11923E+00  1.13951E+00  3.24302E-01  2.44298E+00
   2.54176E+00  3.26385E+00  3.36177E+00  3.27316E+00  2.23784E+00  2.84414E+00  2.84418E+00  4.79518E+00  2.61201E+00  1.44378E+00
   3.21149E-01 -7.80058E-01  1.86593E+00  3.51553E+00 -1.17861E-01  1.48280E+00  4.12004E+00  6.64741E-01  2.94178E+00  1.50486E+00
   1.35630E+00  2.66289E+00  8.28869E-01  1.91431E+00  1.96171E+00  2.18938E+00  1.63798E+00  1.83545E+00  5.34448E-01  2.04387E+00
   3.22276E+00  2.13742E+00  2.64406E+00  1.54296E+00  1.78012E+00  2.08509E+00  1.09031E+00  2.49710E+00 -6.39432E-02  8.27206E-01
   3.19172E+00  1.24088E+00  1.88264E+00  2.84913E+00  1.91359E-01  1.45549E+00  4.07366E+00  2.42480E+00  7.30879E-01  1.31329E+00
   3.00637E+00  1.58894E+00  2.24983E+00 -3.34696E-01  2.32105E+00  1.91437E+00  2.79238E-01  1.65012E+00  8.51253E-01 -2.90983E-02
  -7.75232E-02  3.51612E+00 -1.49155E+00  1.33401E+00  3.21628E+00 -3.70144E-01  1.35620E+00  2.76711E+00  2.88365E+00  2.41580E+00
   9.76627E-01  1.53312E+00  1.03888E+00  1.40976E+00  1.90153E+00  1.03050E+00  2.31130E+00  3.10229E-01  1.35724E-01  9.61358E-01
   8.59180E-01  9.11757E-01  2.39487E+00  2.64731E+00  5.11556E-01 -4.37052E-01  1.64242E+00 -4.66256E-01 -3.45236E-01 -4.65413E-03
   2.55390E+00  2.81035E+00  4.22911E-01  1.65436E+00  2.27642E+00  1.34692E+00 -1.86871E-01  1.83152E+00  8.78784E-01  1.47171E-01
   3.12339E+00  4.82497E+00  2.48405E+00  1.61123E+00  2.69840E+00  2.73514E+00  9.77192E-01  6.96939E-01  1.25987E+00  1.32658E+00
   2.49199E+00  1.54906E+00  1.50386E+00  2.53915E+00  1.32961E+00  4.87818E-01  4.92673E-01  1.52338E+00 -1.06164E+00 -9.70963E-01
   6.41404E-01  1.33723E+00 -9.92961E-02 -7.51281E-01  3.07888E-01  1.98513E+00  2.67616E+00  2.12573E+00 -5.37668E-01 -1.40695E+00
   9.41139E-01  7.87420E-01  1.68710E+00  1.18226E+00  1.11800E+00 -4.10001E-01  1.79007E+00  1.48413E+00 -5.22436E-02  2.88403E+00
  -1.32790E+00 -2.85886E-01  3.41121E-01 -1.25479E+00  1.02553E+00  1.72359E+00  9.01342E-02  2.23446E+00  1.39792E+00  4.61130E-01
   4.06644E-01  7.62031E-01  8.26599E-01  2.08052E+00  1.88547E+00  4.84303E-01 -1.49845E+00 -1.01128E+00  4.56083E-01 -2.37426E+00
   4.83359E-01  1.25162E+00 -6.32945E-01  3.18739E+00 -3.36007E-02 -2.16049E-01  5.07513E-01  2.09464E+00  1.65596E+00  3.98148E-01
   1.42721E+00 -9.54381E-01 -1.68327E-01  1.46880E+00  4.28439E-01  7.32339E-01  5.82012E-01  3.06138E+00  5.50277E-01 -1.24810E+00
  -1.36522E+00  5.89427E-01 -1.12483E+00  8.21631E-01 -1.96751E+00 -7.61103E-01 -1.02791E+00  2.15386E+00 -4.79891E-03  3.21225E-01
  -1.07729E+00  1.50044E+00  4.87801E-01 -4.96032E-01 -6.84207E-01 -4.19424E-02 -4.03549E-01  1.03008E-01 -5.93536E-01 -1.39860E+00
  -1.34067E+00  9.81844E-02 -2.23592E+00 -1.98057E+00 -4.77315E-01 -1.41251E+00 -7.60256E-01 -4.79128E-01  9.33457E-02  1.42926E-01
   8.12871E-01  6.82431E-01 -1.35376E+00 -2.86346E-01 -1.24529E+00  1.28591E+00  4.52850E-01 -1.42493E+00 -8.43044E-02 -6.33188E-01
  -1.13448E+00 -1.85710E-01  1.05958E+00 -6.33688E-01 -7.59848E-01 -1.80690E+00 -2.54502E-01  3.93754E-01 -2.39043E-01  7.50091E-01
  -1.61461E+00 -2.68896E+00  1.07197E+00  5.20495E-01 -5.85062E-01  1.40387E+00 -2.16267E+00 -3.12910E+00  8.29431E-01 -8.36285E-01
  -2.89734E-01  2.43111E+00 -6.64883E-02 -1.17669E+00  1.08005E+00  1.20992E+00  2.83632E-01 -3.91538E-01 -3.41673E-01 -1.32853E+00
   5.82643E-01  1.62662E+00  1.38235E+00 -1.02659E-01  1.02008E+00 -4.36597E-01  8.77276E-01 -8.57553E-03 -1.66212E+00  1.49594E+00
   1.86515E-01 -9.48293E-01  1.18554E-01  1.00178E+00  1.23707E+00  7.34790E-01 -3.05886E-01 -5.06598E-01  3.67161E-01  2.19837E+00
   3.26926E-01  5.14374E-01 -3.07763E-01 -7.20594E-01  3.85068E-01  2.61957E-01 -1.12349E+00 -2.72610E-01 -1.32350E+00 -1.63652E+00
   8.28331E-02  1.78876E+00 -2.09506E-01 -1.47446E+00 -1.67017E+00 -1.10012E+00 -3.21604E-01 -1.00596E+00 -1.02909E+00  8.84305E-02
  -1.92417E+00 -8.38383E-01 -7.95765E-01 -1.48177E+00 -4.75024E-01 -8.07081E-01  8.47331E-01 -6.93471E-01 -1.76321E+00 -1.33295E+00
  -9.30745E-01 -3.16959E-01  4.76895E-01 -1.36284E+00 -8.46102E-01 -1.37912E+00 -2.78005E+00 -6.55053E-01 -1.87927E+00 -2.20666E+00
  -1.38778E+00 -6.60227E-01  5.94329E-02 -6.07167E-01 -2.88680E+00 -1.43018E+00 -3.39042E+00 -1.59538E+00 -1.96045E+00 -1.41388E+00
  -2.09061E+00  1.28603E+00 -1.08147E+00  1.65058E+00 -7.03217E-01 -1.57586E+00 -2.14116E+00 -9.37110E-02  1.56511E+00 -5.23342E-01
   1.24807E-01  2.76891E-01 -7.57410E-01  7.22249E-01  5.68637E-01  3.85461E-01  5.02492E-01  1.26268E+00  4.61370E-01  6.65316E-01
  -2.40555E-01 -4.72184E-01 -1.80254E-01 -1.67931E-01  2.10996E-01  1.04660E+00  1.85568E+00 -3.43205E+00  3.49967E-01 -9.54104E-01
  -2.32201E-01 -8.85661E-01 -1.41801E+00  5.04382E-01 -6.66690E-01 -2.04961E+00 -8.84184E-02 -9.59957E-01 -2.35507E+00  4.75525E-01
   1.75888E+00  2.99392E-01 -1.17217E+00  1.63802E-01  7.47602E-01 -1.22154E+00  3.97754E-01  1.39182E-01  1.06883E-01 -5.87672E-01
  -1.44443E+00 -7.21663E-01 -4.06321E-02  1.46160E-01 -1.32884E+00 -7.91671E-01  4.79270E-01 -2.63557E+00 -9.86102E-01 -1.35866E+00
  -1.48255E+00 -1.03633E+00  8.10189E-01 -2.24490E+00 -1.23743E+00 -2.41937E+00  1.25906E+00  8.73979E-01 -1.15817E+00 -1.11632E+00
   1.37721E+00  9.36837E-02 -1.59027E+00 -1.34659E+00 -1.72189E+00 -1.67203E+00 -9.66293E-01  1.24375E+00
 NY points of the fit to the data follow
   4.87020E+00  4.84615E+00  4.82414E+00  4.81488E+00  4.85756E+00  4.94971E+00  5.04935E+00  5.12467E+00  5.15918E+00  5.14619E+00
   5.09291E+00  5.01668E+00  4.93227E+00  4.84423E+00  4.75596E+00  4.67719E+00  4.62284E+00  4.58976E+00  4.57011E+00  4.55715E+00
   4.54816E+00  4.54085E+00  4.52206E+00  4.47320E+00  4.40270E+00  4.37617E+00  4.43190E+00  4.53311E+00  4.64712E+00  4.75757E+00
   4.83389E+00  4.84706E+00  4.79951E+00  4.70630E+00  4.57976E+00  4.44193E+00  4.31504E+00  4.22462E+00  4.17253E+00  4.13986E+00
   4.11796E+00  4.10459E+00  4.09335E+00  4.07639E+00  4.05175E+00  4.02225E+00  3.99146E+00  3.96316E+00  3.93589E+00  3.90910E+00
   3.88307E+00  3.85701E+00  3.83008E+00  3.80270E+00  3.77504E+00  3.74664E+00  3.71784E+00  3.68967E+00  3.66238E+00  3.63585E+00
   3.60992E+00  3.58468E+00  3.56045E+00  3.53665E+00  3.51300E+00  3.48911E+00  3.46444E+00  3.43908E+00  3.41349E+00  3.38777E+00
   3.36294E+00  3.34063E+00  3.32033E+00  3.30041E+00  3.27953E+00  3.25655E+00  3.23119E+00  3.20432E+00  3.17719E+00  3.15046E+00
   3.12445E+00  3.10119E+00  3.08259E+00  3.06658E+00  3.05009E+00  3.03120E+00  3.00906E+00  2.98388E+00  2.95630E+00  2.92659E+00
   2.89473E+00  2.86086E+00  2.82547E+00  2.79027E+00  2.75696E+00  2.72401E+00  2.68907E+00  2.66024E+00  2.68827E+00  2.78930E+00
   2.91947E+00  3.03553E+00  3.11058E+00  3.13093E+00  3.09850E+00  3.02984E+00  2.94323E+00  2.84915E+00  2.75246E+00  2.66139E+00
   2.59341E+00  2.54658E+00  2.50801E+00  2.47347E+00  2.44143E+00  2.40940E+00  2.37508E+00  2.33777E+00  2.29691E+00  2.25182E+00
   2.20380E+00  2.17194E+00  2.22874E+00  2.38047E+00  2.56632E+00  2.73182E+00  2.84352E+00  2.88475E+00  2.86574E+00  2.81995E+00
   2.76284E+00  2.68544E+00  2.58029E+00  2.45433E+00  2.33345E+00  2.22911E+00  2.14384E+00  2.08974E+00  2.06681E+00  2.06479E+00
   2.07356E+00  2.08639E+00  2.09395E+00  2.08935E+00  2.07377E+00  2.04958E+00  2.01877E+00  1.98528E+00  1.95085E+00  1.91843E+00
   1.88666E+00  1.85472E+00  1.82452E+00  1.79734E+00  1.77318E+00  1.75117E+00  1.73005E+00  1.70841E+00  1.68586E+00  1.66292E+00
   1.64067E+00  1.61932E+00  1.59794E+00  1.57655E+00  1.55557E+00  1.53491E+00  1.51448E+00  1.49424E+00  1.47434E+00  1.45523E+00
   1.43664E+00  1.41692E+00  1.39466E+00  1.37046E+00  1.34556E+00  1.32089E+00  1.29617E+00  1.27083E+00  1.24490E+00  1.21982E+00
   1.19521E+00  1.16751E+00  1.13528E+00  1.09867E+00  1.06020E+00  1.02702E+00  1.00853E+00  1.01036E+00  1.02999E+00  1.05652E+00
   1.07885E+00  1.08924E+00  1.08066E+00  1.04229E+00  9.78850E-01  9.10090E-01  8.51037E-01  8.08951E-01  7.86590E-01  7.82937E-01
   7.92986E-01  8.11540E-01  8.30244E-01  8.42848E-01  8.46974E-01  8.31473E-01  7.94620E-01  7.43268E-01  6.84243E-01  6.29048E-01
   5.92963E-01  6.10844E-01  6.83846E-01  7.80865E-01  8.69987E-01  9.29703E-01  9.42860E-01  8.84964E-01  7.50261E-01  5.72374E-01
   4.01226E-01  2.67873E-01  1.91171E-01  1.81960E-01  2.24272E-01  2.93318E-01  3.65337E-01  4.16553E-01  4.36677E-01  4.26138E-01
   3.94593E-01  3.61898E-01  3.48197E-01  3.65906E-01  4.10697E-01  4.57294E-01  4.81845E-01  4.75770E-01  4.31657E-01  3.54640E-01
   2.66434E-01  1.95282E-01  1.55022E-01  1.49322E-01  1.75084E-01  2.19005E-01  2.59911E-01  2.80418E-01  2.79208E-01  2.63460E-01
   2.39565E-01  2.14584E-01  1.93497E-01  1.70678E-01  1.37952E-01  1.08626E-01  1.21888E-01  1.79494E-01  2.58999E-01  3.42287E-01
   4.13079E-01  4.54761E-01  4.65591E-01  4.53026E-01  4.23943E-01  3.79981E-01  3.23809E-01  2.63394E-01  2.11117E-01  1.67412E-01
   1.31680E-01  1.04626E-01  8.46030E-02  6.86846E-02  5.54654E-02  4.27253E-02  2.82433E-02  1.12173E-02 -8.31472E-03 -3.02671E-02
  -5.35835E-02 -7.65729E-02 -9.83330E-02 -1.18856E-01 -1.38341E-01 -1.56860E-01 -1.74507E-01 -1.91655E-01 -2.08633E-01 -2.25370E-01
  -2.41775E-01 -2.57833E-01 -2.73502E-01 -2.88697E-01 -3.03369E-01 -3.17570E-01 -3.31357E-01 -3.44751E-01 -3.57756E-01 -3.70398E-01
  -3.82706E-01 -3.94756E-01 -4.06637E-01 -4.18448E-01 -4.30272E-01 -4.42171E-01 -4.54184E-01 -4.66335E-01 -4.78631E-01 -4.91060E-01
  -5.03571E-01 -5.16086E-01 -5.28515E-01 -5.40739E-01 -5.52604E-01 -5.63926E-01 -5.74473E-01 -5.83964E-01 -5.92011E-01 -5.97984E-01
  -6.00519E-01 -5.94542E-01 -5.58140E-01 -4.78344E-01 -3.90350E-01 -3.27188E-01 -3.03440E-01 -3.22841E-01 -3.82869E-01 -4.82240E-01
  -6.11142E-01 -7.20475E-01 -7.78452E-01 -7.80040E-01 -7.28155E-01 -6.38800E-01 -5.43784E-01 -4.61715E-01 -3.98114E-01 -3.52658E-01
  -3.25246E-01 -3.18562E-01 -3.29128E-01 -3.41752E-01 -3.52372E-01 -3.61054E-01 -3.67267E-01 -3.69966E-01 -3.67857E-01 -3.59667E-01
  -3.44423E-01 -3.21732E-01 -2.91995E-01 -2.56523E-01 -2.17491E-01 -1.77737E-01 -1.40413E-01 -1.08561E-01 -8.46915E-02 -7.04644E-02
  -6.65127E-02 -7.24609E-02 -8.70898E-02 -1.08618E-01 -1.35009E-01 -1.64268E-01 -1.94649E-01 -2.24791E-01 -2.53741E-01 -2.80934E-01
  -3.06105E-01 -3.29217E-01 -3.50367E-01 -3.69727E-01 -3.87494E-01 -4.03863E-01 -4.19004E-01 -4.33067E-01 -4.46172E-01 -4.58425E-01
  -4.69908E-01 -4.80693E-01 -4.90835E-01 -5.00384E-01 -5.09383E-01 -5.17870E-01 -5.25877E-01 -5.33434E-01 -5.40563E-01 -5.47288E-01
  -5.53628E-01 -5.59604E-01 -5.65231E-01 -5.70524E-01 -5.75495E-01 -5.80159E-01 -5.84527E-01 -5.88614E-01 -5.92430E-01 -5.95989E-01
  -5.99299E-01 -6.02376E-01 -6.05231E-01 -6.07878E-01 -6.10327E-01 -6.12588E-01 -6.14673E-01 -6.16592E-01 -6.18353E-01 -6.19966E-01
  -6.21435E-01 -6.22765E-01 -6.23961E-01 -6.25026E-01 -6.25961E-01 -6.26769E-01 -6.27446E-01 -6.27995E-01 -6.28413E-01 -6.28701E-01
  -6.28858E-01 -6.28884E-01 -6.28775E-01 -6.28532E-01 -6.28155E-01 -6.27646E-01 -6.27004E-01 -6.26228E-01 -6.25319E-01 -6.24279E-01
  -6.23109E-01 -6.21810E-01 -6.20382E-01 -6.18827E-01 -6.17145E-01 -6.15338E-01 -6.13408E-01 -6.11356E-01 -6.09181E-01 -6.06886E-01
  -6.04470E-01 -6.01936E-01 -5.99284E-01 -5.96515E-01 -5.93629E-01 -5.90627E-01 -5.87510E-01 -5.84279E-01 -5.80935E-01 -5.77478E-01
  -5.73907E-01 -5.70226E-01 -5.66433E-01 -5.62530E-01 -5.58517E-01 -5.54394E-01 -5.50161E-01 -5.45819E-01 -5.41369E-01 -5.36812E-01
  -5.32147E-01 -5.27375E-01 -5.22495E-01 -5.17510E-01 -5.12419E-01 -5.07224E-01 -5.01923E-01 -4.96518E-01 -4.91008E-01 -4.85395E-01
  -4.79679E-01 -4.73861E-01 -4.67940E-01 -4.61916E-01 -4.55791E-01 -4.49565E-01 -4.43238E-01 -4.36812E-01 -4.30284E-01 -4.23657E-01
  -4.16931E-01 -4.10109E-01 -4.03188E-01 -3.96171E-01 -3.89056E-01 -3.81845E-01 -3.74540E-01 -3.67142E-01 -3.59651E-01 -3.52067E-01
  -3.44391E-01 -3.36626E-01 -3.28773E-01 -3.20834E-01 -3.12809E-01 -3.04700E-01 -2.96510E-01 -2.88242E-01
 NY background values follow
     4.947E+00    4.925E+00    4.902E+00    4.880E+00    4.857E+00    4.835E+00    4.813E+00    4.790E+00    4.768E+00    4.745E+00
     4.723E+00    4.701E+00    4.678E+00    4.656E+00    4.634E+00    4.611E+00    4.589E+00    4.567E+00    4.544E+00    4.522E+00
     4.500E+00    4.477E+00    4.455E+00    4.433E+00    4.410E+00    4.388E+00    4.366E+00    4.344E+00    4.321E+00    4.299E+00
     4.277E+00    4.255E+00    4.232E+00    4.210E+00    4.188E+00    4.166E+00    4.144E+00    4.121E+00    4.099E+00    4.077E+00
     4.055E+00    4.033E+00    4.011E+00    3.989E+00    3.967E+00    3.945E+00    3.923E+00    3.901E+00    3.879E+00    3.857E+00
     3.835E+00    3.813E+00    3.791E+00    3.769E+00    3.747E+00    3.725E+00    3.703E+00    3.681E+00    3.659E+00    3.638E+00
     3.616E+00    3.594E+00    3.572E+00    3.551E+00    3.529E+00    3.507E+00    3.486E+00    3.464E+00    3.442E+00    3.421E+00
     3.399E+00    3.378E+00    3.356E+00    3.335E+00    3.313E+00    3.292E+00    3.270E+00    3.249E+00    3.227E+00    3.206E+00
     3.185E+00    3.163E+00    3.142E+00    3.121E+00    3.100E+00    3.078E+00    3.057E+00    3.036E+00    3.015E+00    2.994E+00
     2.973E+00    2.952E+00    2.931E+00    2.910E+00    2.889E+00    2.868E+00    2.847E+00    2.826E+00    2.806E+00    2.785E+00
     2.764E+00    2.743E+00    2.723E+00    2.702E+00    2.682E+00    2.661E+00    2.640E+00    2.620E+00    2.600E+00    2.579E+00
     2.559E+00    2.538E+00    2.518E+00    2.498E+00    2.477E+00    2.457E+00    2.437E+00    2.417E+00    2.397E+00    2.377E+00
     2.357E+00    2.337E+00    2.317E+00    2.297E+00    2.277E+00    2.257E+00    2.237E+00    2.218E+00    2.198E+00    2.178E+00
     2.159E+00    2.139E+00    2.120E+00    2.100E+00    2.081E+00    2.061E+00    2.042E+00    2.023E+00    2.003E+00    1.984E+00
     1.965E+00    1.946E+00    1.927E+00    1.907E+00    1.888E+00    1.870E+00    1.851E+00    1.832E+00    1.813E+00    1.794E+00
     1.775E+00    1.757E+00    1.738E+00    1.719E+00    1.701E+00    1.682E+00    1.664E+00    1.646E+00    1.627E+00    1.609E+00
     1.591E+00    1.572E+00    1.554E+00    1.536E+00    1.518E+00    1.500E+00    1.482E+00    1.464E+00    1.447E+00    1.429E+00
     1.411E+00    1.393E+00    1.376E+00    1.358E+00    1.341E+00    1.323E+00    1.306E+00    1.288E+00    1.271E+00    1.254E+00
     1.237E+00    1.219E+00    1.202E+00    1.185E+00    1.168E+00    1.151E+00    1.135E+00    1.118E+00    1.101E+00    1.084E+00
     1.068E+00    1.051E+00    1.035E+00    1.018E+00    1.002E+00    9.855E-01    9.692E-01    9.530E-01    9.369E-01    9.208E-01
     9.047E-01    8.888E-01    8.728E-01    8.570E-01    8.412E-01    8.255E-01    8.098E-01    7.942E-01    7.787E-01    7.632E-01
     7.478E-01    7.324E-01    7.171E-01    7.019E-01    6.867E-01    6.716E-01    6.566E-01    6.416E-01    6.267E-01    6.119E-01
     5.971E-01    5.824E-01    5.677E-01    5.532E-01    5.386E-01    5.242E-01    5.098E-01    4.955E-01    4.812E-01    4.671E-01
     4.530E-01    4.389E-01    4.249E-01    4.110E-01    3.972E-01    3.834E-01    3.697E-01    3.561E-01    3.425E-01    3.290E-01
     3.156E-01    3.022E-01    2.890E-01    2.757E-01    2.626E-01    2.495E-01    2.365E-01    2.236E-01    2.107E-01    1.979E-01
     1.852E-01    1.726E-01    1.600E-01    1.475E-01    1.351E-01    1.227E-01    1.104E-01    9.823E-02    8.610E-02    7.404E-02
     6.205E-02    5.014E-02    3.830E-02    2.653E-02    1.484E-02    3.229E-03   -8.310E-03   -1.977E-02   -3.116E-02   -4.248E-02
    -5.371E-02   -6.488E-02   -7.596E-02   -8.697E-02   -9.790E-02   -1.088E-01   -1.195E-01   -1.302E-01   -1.409E-01   -1.514E-01
    -1.619E-01   -1.723E-01   -1.826E-01   -1.928E-01   -2.030E-01   -2.130E-01   -2.230E-01   -2.330E-01   -2.428E-01   -2.526E-01
    -2.622E-01   -2.719E-01   -2.814E-01   -2.908E-01   -3.002E-01   -3.095E-01   -3.187E-01   -3.278E-01   -3.368E-01   -3.458E-01
    -3.547E-01   -3.634E-01   -3.722E-01   -3.808E-01   -3.893E-01   -3.978E-01   -4.062E-01   -4.145E-01   -4.227E-01   -4.309E-01
    -4.389E-01   -4.469E-01   -4.548E-01   -4.626E-01   -4.703E-01   -4.779E-01   -4.855E-01   -4.930E-01   -5.004E-01   -5.077E-01
    -5.149E-01   -5.220E-01   -5.291E-01   -5.360E-01   -5.429E-01   -5.497E-01   -5.564E-01   -5.630E-01   -5.696E-01   -5.760E-01
    -5.824E-01   -5.887E-01   -5.949E-01   -6.010E-01   -6.070E-01   -6.129E-01   -6.188E-01   -6.245E-01   -6.302E-01   -6.358E-01
    -6.413E-01   -6.467E-01   -6.521E-01   -6.573E-01   -6.624E-01   -6.675E-01   -6.725E-01   -6.774E-01   -6.822E-01   -6.869E-01
    -6.915E-01   -6.960E-01   -7.005E-01   -7.048E-01   -7.091E-01   -7.133E-01   -7.174E-01   -7.214E-01   -7.253E-01   -7.291E-01
    -7.328E-01   -7.365E-01   -7.400E-01   -7.435E-01   -7.469E-01   -7.502E-01   -7.534E-01   -7.565E-01   -7.595E-01   -7.624E-01
    -7.652E-01   -7.680E-01   -7.706E-01   -7.732E-01   -7.756E-01   -7.780E-01   -7.803E-01   -7.825E-01   -7.846E-01   -7.866E-01
    -7.885E-01   -7.904E-01   -7.921E-01   -7.937E-01   -7.953E-01   -7.968E-01   -7.981E-01   -7.994E-01   -8.006E-01   -8.017E-01
    -8.027E-01   -8.036E-01   -8.044E-01   -8.051E-01   -8.058E-01   -8.063E-01   -8.067E-01   -8.071E-01   -8.074E-01   -8.075E-01
    -8.076E-01   -8.076E-01   -8.075E-01   -8.073E-01   -8.070E-01   -8.066E-01   -8.061E-01   -8.055E-01   -8.048E-01   -8.040E-01
    -8.032E-01   -8.022E-01   -8.012E-01   -8.000E-01   -7.988E-01   -7.975E-01   -7.960E-01   -7.945E-01   -7.929E-01   -7.912E-01
    -7.894E-01   -7.875E-01   -7.855E-01   -7.834E-01   -7.812E-01   -7.790E-01   -7.766E-01   -7.741E-01   -7.716E-01   -7.689E-01
    -7.662E-01   -7.633E-01   -7.604E-01   -7.574E-01   -7.542E-01   -7.510E-01   -7.477E-01   -7.443E-01   -7.408E-01   -7.372E-01
    -7.335E-01   -7.297E-01   -7.258E-01   -7.218E-01   -7.178E-01   -7.136E-01   -7.093E-01   -7.050E-01   -7.005E-01   -6.959E-01
    -6.913E-01   -6.866E-01   -6.817E-01   -6.768E-01   -6.718E-01   -6.666E-01   -6.614E-01   -6.561E-01   -6.507E-01   -6.452E-01
    -6.396E-01   -6.339E-01   -6.281E-01   -6.222E-01   -6.162E-01   -6.101E-01   -6.040E-01   -5.977E-01   -5.913E-01   -5.849E-01
    -5.783E-01   -5.717E-01   -5.649E-01   -5.581E-01   -5.511E-01   -5.441E-01   -5.370E-01   -5.298E-01   -5.224E-01   -5.150E-01
    -5.075E-01   -4.999E-01   -4.922E-01   -4.844E-01   -4.765E-01   -4.686E-01   -4.605E-01   -4.523E-01   -4.440E-01   -4.357E-01
    -4.272E-01   -4.186E-01   -4.100E-01   -4.013E-01   -3.924E-01   -3.835E-01   -3.744E-01   -3.653E-01
 Ala      Conc. = 2.00E+01
