 LCModel (Version 6.3-1L) Copyright: S.W. Provencher.          Ref.: Magn. Reson. Med. 30:672-679 (1993).                
 Slice#1 Row#4 Col#12  PD_24_press_1_raw_act
 36 lines in following concentration table = NCONC+1
    Conc.  %SD /Cr+PCr  Metabolite                                         
    0.000 999%   0.000 Ala                                                 
   43.086 143%   0.181 Asp                                                 
    0.000 999%   0.000 Cr                                                  
  237.438  19%   1.000 PCr                                                 
   30.850 121%   0.130 GABA                                                
   26.289 141%   0.111 Glc                                                 
    0.000 999%   0.000 Gln                                                 
    0.000 999%   0.000 Glu                                                 
    0.000 999%   0.000 GPC                                                 
   85.342  18%   0.359 PCh                                                 
    0.000 999%   0.000 GSH                                                 
    0.000 999%   0.000 Ins                                                 
    0.000 999%   0.000 Lac                                                 
  572.549  12%   2.411 NAA                                                 
    0.000 999%   0.000 NAAG                                                
   20.853  53% 8.8E-02 Scyllo                                              
   73.547  81%   0.310 Tau                                                 
  219.674  25%   0.925 -CrCH2                                              
   85.342  18%   0.359 GPC+PCh                                             
  572.549  12%   2.411 NAA+NAAG                                            
  237.438  19%   1.000 Cr+PCr                                              
    0.000 999%   0.000 Glu+Gln                                             
 2.00E+04   8%  84.410 Lip13a                                              
    0.000 999%   0.000 Lip13b                                              
 8.08E+03   7%  34.018 Lip09                                               
    0.000 999%   0.000 MM09                                                
 2.11E+03  21%   8.902 Lip20                                               
  937.571  40%   3.949 MM20                                                
 2.15E+03  25%   9.050 MM12                                                
 2.71E+03  15%  11.431 MM14                                                
  947.149  25%   3.989 MM17                                                
 2.00E+04   8%  84.410 Lip13a+Lip13b                                       
 2.49E+04   5% 104.891 MM14+Lip13a+Lip13b+MM12                             
 8.08E+03   7%  34.018 MM09+Lip09                                          
 3.05E+03  12%  12.851 MM20+Lip20                                          
   6 lines in following misc. output table
  FWHM = 0.107 ppm    S/N =  14                                            
  Data shift = 0.107 ppm                                                   
  Ph:   0 deg      -1.6 deg/ppm                                            
  alphaB,S = 8.5E+01,   8.8E+01                                            
   14 spline knots.   Ns = 6(2)                                            
   2 inflections.     1 extrema                                            
  498 points on ppm-axis = NY
      4.000000     3.992357     3.984714     3.977070     3.969427     3.961784     3.954141     3.946497     3.938854     3.931211
      3.923568     3.915925     3.908281     3.900638     3.892995     3.885352     3.877708     3.870065     3.862422     3.854779
      3.847136     3.839492     3.831849     3.824206     3.816563     3.808919     3.801276     3.793633     3.785990     3.778347
      3.770703     3.763060     3.755417     3.747774     3.740130     3.732487     3.724844     3.717201     3.709558     3.701914
      3.694271     3.686628     3.678985     3.671341     3.663698     3.656055     3.648412     3.640769     3.633125     3.625482
      3.617839     3.610196     3.602552     3.594909     3.587266     3.579623     3.571980     3.564336     3.556693     3.549050
      3.541407     3.533763     3.526120     3.518477     3.510834     3.503191     3.495547     3.487904     3.480261     3.472618
      3.464974     3.457331     3.449688     3.442045     3.434402     3.426758     3.419115     3.411472     3.403829     3.396185
      3.388542     3.380899     3.373256     3.365613     3.357969     3.350326     3.342683     3.335040     3.327396     3.319753
      3.312110     3.304467     3.296824     3.289180     3.281537     3.273894     3.266251     3.258607     3.250964     3.243321
      3.235678     3.228034     3.220391     3.212748     3.205105     3.197462     3.189818     3.182175     3.174532     3.166889
      3.159245     3.151602     3.143959     3.136316     3.128673     3.121029     3.113386     3.105743     3.098100     3.090456
      3.082813     3.075170     3.067527     3.059884     3.052240     3.044597     3.036954     3.029311     3.021667     3.014024
      3.006381     2.998738     2.991095     2.983451     2.975808     2.968165     2.960522     2.952878     2.945235     2.937592
      2.929949     2.922306     2.914662     2.907019     2.899376     2.891733     2.884089     2.876446     2.868803     2.861160
      2.853517     2.845873     2.838230     2.830587     2.822944     2.815300     2.807657     2.800014     2.792371     2.784728
      2.777084     2.769441     2.761798     2.754155     2.746511     2.738868     2.731225     2.723582     2.715939     2.708295
      2.700652     2.693009     2.685366     2.677722     2.670079     2.662436     2.654793     2.647150     2.639506     2.631863
      2.624220     2.616577     2.608933     2.601290     2.593647     2.586004     2.578361     2.570717     2.563074     2.555431
      2.547788     2.540144     2.532501     2.524858     2.517215     2.509572     2.501928     2.494285     2.486642     2.478999
      2.471355     2.463712     2.456069     2.448426     2.440783     2.433139     2.425496     2.417853     2.410210     2.402566
      2.394923     2.387280     2.379637     2.371994     2.364350     2.356707     2.349064     2.341421     2.333777     2.326134
      2.318491     2.310848     2.303205     2.295561     2.287918     2.280275     2.272632     2.264988     2.257345     2.249702
      2.242059     2.234416     2.226772     2.219129     2.211486     2.203843     2.196199     2.188556     2.180913     2.173270
      2.165627     2.157983     2.150340     2.142697     2.135054     2.127410     2.119767     2.112124     2.104481     2.096838
      2.089194     2.081551     2.073908     2.066265     2.058621     2.050978     2.043335     2.035692     2.028049     2.020405
      2.012762     2.005119     1.997476     1.989833     1.982190     1.974546     1.966903     1.959260     1.951617     1.943974
      1.936331     1.928688     1.921045     1.913402     1.905759     1.898115     1.890472     1.882829     1.875186     1.867543
      1.859900     1.852257     1.844614     1.836971     1.829327     1.821684     1.814041     1.806398     1.798755     1.791112
      1.783469     1.775826     1.768183     1.760540     1.752896     1.745253     1.737610     1.729967     1.722324     1.714681
      1.707038     1.699395     1.691752     1.684108     1.676465     1.668822     1.661179     1.653536     1.645893     1.638250
      1.630607     1.622964     1.615321     1.607677     1.600034     1.592391     1.584748     1.577105     1.569462     1.561819
      1.554176     1.546533     1.538890     1.531246     1.523603     1.515960     1.508317     1.500674     1.493031     1.485388
      1.477745     1.470102     1.462458     1.454815     1.447172     1.439529     1.431886     1.424243     1.416600     1.408957
      1.401314     1.393671     1.386027     1.378384     1.370741     1.363098     1.355455     1.347812     1.340169     1.332526
      1.324883     1.317240     1.309596     1.301953     1.294310     1.286667     1.279024     1.271381     1.263738     1.256095
      1.248452     1.240808     1.233165     1.225522     1.217879     1.210236     1.202593     1.194950     1.187307     1.179664
      1.172021     1.164377     1.156734     1.149091     1.141448     1.133805     1.126162     1.118519     1.110876     1.103233
      1.095590     1.087946     1.080303     1.072660     1.065017     1.057374     1.049731     1.042088     1.034445     1.026802
      1.019158     1.011515     1.003872     0.996229     0.988586     0.980943     0.973300     0.965657     0.958014     0.950371
      0.942727     0.935084     0.927441     0.919798     0.912155     0.904512     0.896869     0.889226     0.881583     0.873940
      0.866296     0.858653     0.851010     0.843367     0.835724     0.828081     0.820438     0.812795     0.805152     0.797508
      0.789865     0.782222     0.774579     0.766936     0.759293     0.751650     0.744007     0.736364     0.728721     0.721077
      0.713434     0.705791     0.698148     0.690505     0.682862     0.675219     0.667576     0.659933     0.652290     0.644646
      0.637003     0.629360     0.621717     0.614074     0.606431     0.598788     0.591145     0.583502     0.575858     0.568215
      0.560572     0.552929     0.545286     0.537643     0.530000     0.522357     0.514714     0.507071     0.499427     0.491784
      0.484141     0.476498     0.468855     0.461212     0.453569     0.445925     0.438282     0.430639     0.422996     0.415353
      0.407710     0.400067     0.392424     0.384780     0.377137     0.369494     0.361851     0.354208     0.346565     0.338922
      0.331278     0.323635     0.315992     0.308349     0.300706     0.293063     0.285420     0.277777     0.270133     0.262490
      0.254847     0.247204     0.239561     0.231918     0.224275     0.216631     0.208988     0.201345
 NY phased data points follow
   6.10265E+00  5.35205E-01  7.75053E+00  3.19289E+00  6.21052E+00  4.01891E+00  4.95245E+00  4.29445E+00  1.64385E+00 -3.54701E-01
   3.33705E+00  2.52370E+00  5.81393E+00  3.75718E+00  4.05510E+00  1.44428E+00  4.43690E+00  3.67417E+00  5.58889E-01  3.71857E+00
   1.87218E+00  2.76492E+00  1.35410E+00  4.60053E+00  1.97810E+00  3.08828E+00  4.09427E+00  3.85704E+00  5.15656E+00  4.20107E+00
   2.25892E+00  3.16974E+00  5.74155E+00  3.74422E+00  2.40349E+00  2.27931E+00  2.65045E+00  5.68869E+00  4.78560E+00  4.15007E+00
   2.86733E+00  3.98254E-01  6.73967E+00  2.98839E+00  5.14969E+00  4.05478E+00  4.81738E+00  5.29392E+00  2.08179E+00  6.42911E+00
   4.35662E+00  4.40833E+00  5.27517E+00  5.66794E+00  8.40374E+00  7.59548E-02  3.39399E+00  5.21495E+00  3.06857E+00  4.02147E+00
   6.99462E+00  8.32161E-02  3.98031E+00  2.46053E+00  7.12255E+00  1.69752E+00  3.56298E+00  3.92582E+00  6.28113E+00  5.02563E+00
   3.59326E+00  2.83461E-01  4.70952E+00  1.34827E+00  9.57659E-01  5.02222E+00  3.38967E+00  2.58725E+00  2.72084E+00  2.72028E+00
   7.79024E+00  3.66095E+00  8.04701E+00  2.87156E+00  2.74826E+00  5.49576E+00  4.27675E+00  6.79772E+00  5.72549E+00  2.68645E+00
   6.44456E+00  3.24909E+00  5.78751E+00  4.76017E+00  5.65770E+00  6.32237E+00  1.21244E+01  6.02086E+00  3.60046E+00  5.17310E+00
   7.81767E+00  5.94924E+00  9.71888E+00  6.14844E+00  1.04138E+01  2.20723E+00  5.51070E+00  3.01741E+00  5.63653E+00  2.35790E+00
   6.30661E+00  5.81020E+00  6.20212E+00  9.41761E+00  6.79079E+00  2.72795E+00  7.71718E+00  5.67956E+00  7.55098E+00  6.62125E+00
   9.08886E+00  5.35829E+00  4.60683E+00  7.54033E+00  7.65323E+00  8.79236E+00  8.75867E+00  6.89997E+00  9.72101E+00  6.11574E+00
   6.63845E+00  6.33310E+00  6.46104E+00  5.36832E+00  6.06224E+00  1.40825E+00  4.97460E+00  8.32474E-01  7.38539E+00  6.68866E+00
   5.35353E+00  2.60902E+00  3.54073E+00  5.63891E+00  8.33924E+00  4.86984E+00  6.59030E+00  3.82926E+00  4.19512E+00  4.66248E+00
   2.01558E+00  7.21703E+00  5.13071E+00  2.19813E+00  7.46290E+00  2.00663E+00  5.61662E+00  5.30801E+00  3.61805E+00  9.04367E-01
   6.12602E+00 -2.01576E-01  3.78994E+00  2.43639E+00  6.41373E+00  1.48903E+00  8.84063E-01  2.88197E+00  1.59629E+00  6.24485E-01
   3.51212E+00  2.70757E+00  1.17519E+00 -4.73935E-01  1.61700E+00 -1.43731E+00  2.58056E+00 -7.56357E-01  1.10040E+00  2.69911E+00
   4.71503E-01  3.18278E+00  1.27720E+00  1.94707E-01  2.06775E+00  4.25649E+00  1.93977E+00  2.38126E-01  5.08572E+00  2.73718E+00
   1.98404E+00  5.02498E+00  9.00864E-02  3.81892E+00  3.47128E+00  1.94948E+00  1.22928E+00  3.12872E-02 -1.95198E+00 -4.56587E-01
   3.03693E+00  2.23566E+00  4.04261E-01  1.83436E+00 -5.72944E-01  1.35740E+00  4.38339E+00  3.61796E+00  3.69780E-01  3.85434E+00
   4.58174E+00  2.18875E+00  2.65894E+00  3.28866E+00  4.89466E+00  1.58500E+00  3.57827E+00  8.73844E-01  3.25834E+00  3.69445E+00
   5.31379E+00  2.67028E+00  1.83830E+00  4.89901E+00  5.12865E+00  2.20090E+00  5.59333E+00  4.95410E+00  2.24815E+00  6.24298E+00
   6.85717E+00  3.77541E+00  6.26950E+00  2.15461E+00  4.70730E+00  5.61870E+00  6.89741E+00  5.00500E+00  6.91983E+00  1.03578E+01
   7.50731E+00  7.61163E+00  6.70808E+00  8.21206E+00  1.14126E+01  1.16548E+01  9.35633E+00  6.68920E+00  6.89522E+00  7.70681E+00
   1.34491E+01  1.15852E+01  1.28812E+01  1.34371E+01  1.69632E+01  1.86246E+01  2.06191E+01  1.81865E+01  2.06650E+01  1.96706E+01
   1.64632E+01  1.73082E+01  1.84227E+01  1.75107E+01  1.32314E+01  1.31864E+01  1.19641E+01  1.22448E+01  9.67020E+00  1.08432E+01
   9.11704E+00  8.19604E+00  5.12045E+00  8.66702E+00  7.76253E+00  3.55076E+00  2.50321E+00  6.33274E+00  9.48964E+00  4.84312E+00
   6.12025E+00  5.91569E+00  2.71713E+00  7.63965E+00  7.36822E+00  3.39148E+00  3.90986E+00  7.47325E+00  8.44606E+00  4.54437E+00
   4.74726E+00  5.92843E+00  6.48600E+00  6.41165E+00  6.87166E+00  6.38854E+00  8.13781E+00  1.02171E+01  1.18616E+01  1.07536E+01
   8.18815E+00  5.26378E+00  7.06386E+00  8.94058E+00  8.08656E+00  9.65065E+00  1.11942E+01  1.03661E+01  1.42196E+01  1.15024E+01
   1.38566E+01  1.17752E+01  1.24130E+01  1.42671E+01  1.65864E+01  1.54882E+01  1.01541E+01  1.67447E+01  1.22816E+01  1.63337E+01
   1.68248E+01  1.67339E+01  2.09402E+01  2.11154E+01  2.38093E+01  2.50393E+01  2.54080E+01  2.85905E+01  2.81645E+01  2.91310E+01
   3.28950E+01  3.57696E+01  3.40541E+01  3.49631E+01  3.61997E+01  3.32866E+01  3.88184E+01  3.77486E+01  3.84019E+01  4.06294E+01
   4.32412E+01  4.15764E+01  4.17645E+01  4.27770E+01  3.98416E+01  4.19357E+01  4.18970E+01  4.26594E+01  4.60172E+01  4.83815E+01
   4.56519E+01  4.65883E+01  4.65491E+01  4.81822E+01  4.52199E+01  4.87752E+01  4.92573E+01  4.95079E+01  4.99469E+01  5.31812E+01
   5.27836E+01  5.19963E+01  5.45659E+01  5.27964E+01  5.21893E+01  5.33420E+01  5.45958E+01  5.35041E+01  5.47509E+01  5.38774E+01
   5.66066E+01  5.76536E+01  5.84204E+01  5.50305E+01  5.51720E+01  5.15873E+01  5.42252E+01  5.40124E+01  5.49495E+01  5.30498E+01
   5.37870E+01  5.32330E+01  5.31433E+01  5.10561E+01  4.98386E+01  4.92441E+01  4.90389E+01  4.96850E+01  4.93512E+01  4.74114E+01
   4.79721E+01  4.82922E+01  4.84429E+01  4.56734E+01  4.51262E+01  4.60439E+01  4.26333E+01  4.46866E+01  4.34075E+01  4.04165E+01
   3.78926E+01  4.06074E+01  3.70467E+01  3.78836E+01  3.72738E+01  3.78128E+01  3.55889E+01  3.52406E+01  3.82786E+01  3.34850E+01
   3.09936E+01  2.87190E+01  2.87943E+01  2.86311E+01  2.45347E+01  2.51153E+01  2.95806E+01  2.63216E+01  2.46772E+01  2.00948E+01
   2.27382E+01  1.95380E+01  2.11782E+01  1.67426E+01  1.88687E+01  1.68910E+01  1.60173E+01  1.63984E+01  1.61946E+01  1.45928E+01
   1.51680E+01  1.43731E+01  1.25487E+01  1.03611E+01  1.13398E+01  8.04519E+00  7.60829E+00  5.89580E+00  9.87984E+00  5.01184E+00
   9.17505E+00  6.73944E+00  9.39314E+00  6.77095E+00  4.83000E+00  7.37301E+00  9.04235E+00  6.55950E+00  6.43573E+00  5.29275E+00
   6.04906E+00  4.01437E+00  2.44407E+00  6.20919E+00  3.02733E+00  1.13578E+00  2.19062E+00 -3.70606E-01  1.99468E+00  1.06854E+00
   2.23268E+00  2.43759E-01  2.47449E+00  6.32753E-01  1.68976E+00 -6.32629E-01  2.33659E+00 -4.14329E-01  4.92702E-01 -1.81419E+00
  -2.42143E+00 -1.97422E+00  1.30886E+00 -2.97379E+00 -2.61960E+00  2.06996E+00 -1.37486E+00 -2.98339E+00 -9.60459E-01 -2.29181E+00
  -1.79419E+00 -6.15450E+00 -1.52430E+00 -1.68355E+00 -2.17257E+00 -2.43229E+00 -2.03965E-01 -2.06966E+00 -2.13635E+00 -3.72087E+00
  -2.30073E+00 -2.47653E+00 -3.87301E+00  3.01062E-01 -3.94582E+00 -1.12208E+00  5.56652E-02 -2.29084E+00
 NY points of the fit to the data follow
   4.87074E+00  4.47146E+00  4.96381E+00  4.40850E+00  5.04308E+00  4.36735E+00  5.09192E+00  4.35118E+00  5.07908E+00  4.35120E+00
   4.99674E+00  4.35231E+00  4.86875E+00  4.34879E+00  4.72011E+00  4.33597E+00  4.58837E+00  4.32851E+00  4.48008E+00  4.32759E+00
   4.38915E+00  4.32899E+00  4.29713E+00  4.31068E+00  4.19548E+00  4.24797E+00  4.16758E+00  4.21453E+00  4.14302E+00  4.18194E+00
   4.11853E+00  4.14417E+00  4.09115E+00  4.09726E+00  4.04918E+00  4.03942E+00  3.99526E+00  3.97698E+00  3.94001E+00  3.91128E+00
   3.88131E+00  3.85314E+00  3.82889E+00  3.81137E+00  3.78959E+00  3.78350E+00  3.76011E+00  3.76347E+00  3.73563E+00  3.74711E+00
   3.71324E+00  3.73090E+00  3.69158E+00  3.71453E+00  3.67565E+00  3.70323E+00  3.66350E+00  3.69853E+00  3.64974E+00  3.68609E+00
   3.62734E+00  3.66762E+00  3.59943E+00  3.66065E+00  3.59342E+00  3.66337E+00  3.59820E+00  3.65886E+00  3.59326E+00  3.64281E+00
   3.58568E+00  3.62348E+00  3.58316E+00  3.62261E+00  3.64400E+00  3.67818E+00  3.75536E+00  3.76994E+00  3.87956E+00  3.86807E+00
   3.99068E+00  3.94763E+00  4.06030E+00  3.97835E+00  4.04932E+00  3.93953E+00  3.97053E+00  3.86422E+00  3.87193E+00  3.80898E+00
   3.84328E+00  4.02410E+00  4.35903E+00  4.62654E+00  5.28544E+00  5.41432E+00  6.30311E+00  6.15119E+00  7.16063E+00  6.68848E+00
   7.72039E+00  6.92260E+00  7.86409E+00  6.80380E+00  7.52514E+00  6.36709E+00  6.86190E+00  5.76070E+00  6.06726E+00  5.13882E+00
   5.32601E+00  4.58219E+00  4.68429E+00  4.13125E+00  4.23068E+00  4.11192E+00  4.27230E+00  4.54027E+00  4.80067E+00  5.35052E+00
   5.79644E+00  6.23992E+00  6.66444E+00  6.90475E+00  7.25215E+00  7.20350E+00  7.42400E+00  7.09181E+00  7.18183E+00  6.67473E+00
   6.66650E+00  6.10475E+00  6.04823E+00  5.55094E+00  5.48502E+00  5.06453E+00  4.99129E+00  4.63537E+00  4.54966E+00  4.23808E+00
   4.15055E+00  3.94328E+00  3.91286E+00  3.95799E+00  3.99357E+00  4.04786E+00  4.08318E+00  4.13330E+00  4.15060E+00  4.16873E+00
   4.16785E+00  4.14993E+00  4.15015E+00  4.11543E+00  4.10449E+00  4.06164E+00  4.02422E+00  3.97164E+00  3.89993E+00  3.84157E+00
   3.73757E+00  3.67581E+00  3.53617E+00  3.45698E+00  3.26808E+00  3.17234E+00  2.96626E+00  2.85749E+00  2.65966E+00  2.52502E+00
   2.35866E+00  2.20750E+00  2.08534E+00  1.93198E+00  1.84864E+00  1.68287E+00  1.64376E+00  1.46689E+00  1.48591E+00  1.33672E+00
   1.40866E+00  1.30498E+00  1.39615E+00  1.33089E+00  1.44729E+00  1.43145E+00  1.54611E+00  1.56710E+00  1.65067E+00  1.69014E+00
   1.72400E+00  1.78418E+00  1.78026E+00  1.85835E+00  1.85510E+00  1.93015E+00  1.92627E+00  1.97329E+00  1.98247E+00  2.01266E+00
   2.02760E+00  2.01429E+00  2.03401E+00  1.97510E+00  2.02280E+00  1.95626E+00  2.03099E+00  1.97324E+00  2.07607E+00  2.04371E+00
   2.18845E+00  2.20517E+00  2.39657E+00  2.47470E+00  2.68154E+00  2.80265E+00  3.00894E+00  3.16176E+00  3.35482E+00  3.53154E+00
   3.72303E+00  3.90478E+00  4.08511E+00  4.26731E+00  4.43511E+00  4.61697E+00  4.77024E+00  4.94694E+00  5.08429E+00  5.24549E+00
   5.38430E+00  5.54830E+00  5.69253E+00  5.86210E+00  6.01582E+00  6.19642E+00  6.36526E+00  6.56297E+00  6.75432E+00  6.97635E+00
   7.19400E+00  7.43864E+00  7.67603E+00  7.93630E+00  8.18642E+00  8.45900E+00  8.73629E+00  9.15314E+00  1.00706E+01  1.08330E+01
   1.22133E+01  1.32301E+01  1.46177E+01  1.56970E+01  1.67343E+01  1.77113E+01  1.82125E+01  1.89469E+01  1.87096E+01  1.90782E+01
   1.80982E+01  1.80846E+01  1.66153E+01  1.63087E+01  1.46451E+01  1.41768E+01  1.26179E+01  1.20993E+01  1.06981E+01  1.01593E+01
   8.90466E+00  8.34878E+00  7.20912E+00  6.66631E+00  5.79143E+00  5.40873E+00  5.18760E+00  5.03575E+00  4.90916E+00  4.83013E+00
   4.77170E+00  4.75918E+00  4.76697E+00  4.82059E+00  4.89394E+00  5.01181E+00  5.14737E+00  5.32782E+00  5.52245E+00  5.76003E+00
   6.00722E+00  6.29279E+00  6.58211E+00  6.90245E+00  7.21725E+00  7.55405E+00  7.87655E+00  8.21083E+00  8.52287E+00  8.83843E+00
   9.12607E+00  9.41300E+00  9.67070E+00  9.92748E+00  1.01587E+01  1.03949E+01  1.06150E+01  1.08512E+01  1.10859E+01  1.13529E+01
   1.16365E+01  1.19715E+01  1.23431E+01  1.27855E+01  1.32832E+01  1.38690E+01  1.45251E+01  1.52812E+01  1.61159E+01  1.70547E+01
   1.80719E+01  1.91878E+01  2.03716E+01  2.16385E+01  2.29528E+01  2.43249E+01  2.57155E+01  2.71320E+01  2.85330E+01  2.99252E+01
   3.12679E+01  3.25696E+01  3.37930E+01  3.49509E+01  3.60116E+01  3.69941E+01  3.78733E+01  3.86751E+01  3.93811E+01  4.00231E+01
   4.05882E+01  4.11122E+01  4.15852E+01  4.20446E+01  4.24809E+01  4.29304E+01  4.33815E+01  4.38673E+01  4.43724E+01  4.49253E+01
   4.55058E+01  4.61375E+01  4.67953E+01  4.74983E+01  4.82172E+01  4.89672E+01  4.97160E+01  5.04762E+01  5.12138E+01  5.19399E+01
   5.26202E+01  5.32658E+01  5.38433E+01  5.43652E+01  5.48005E+01  5.51645E+01  5.54292E+01  5.56137E+01  5.56944E+01  5.56945E+01
   5.55947E+01  5.54224E+01  5.51624E+01  5.48456E+01  5.44596E+01  5.40374E+01  5.35680E+01  5.30847E+01  5.25762E+01  5.20745E+01
   5.15663E+01  5.10806E+01  5.06009E+01  5.01526E+01  4.97155E+01  4.93108E+01  4.89147E+01  4.85450E+01  4.81746E+01  4.78188E+01
   4.74487E+01  4.70781E+01  4.66775E+01  4.62606E+01  4.57984E+01  4.53059E+01  4.47557E+01  4.41647E+01  4.35081E+01  4.28051E+01
   4.20338E+01  4.12159E+01  4.03322E+01  3.94068E+01  3.84226E+01  3.74057E+01  3.63406E+01  3.52545E+01  3.41328E+01  3.30030E+01
   3.18509E+01  3.07037E+01  2.95468E+01  2.84065E+01  2.72675E+01  2.61551E+01  2.50529E+01  2.39849E+01  2.29336E+01  2.19218E+01
   2.09311E+01  1.99830E+01  1.90582E+01  1.81775E+01  1.73206E+01  1.65078E+01  1.57182E+01  1.49715E+01  1.42467E+01  1.35629E+01
   1.28989E+01  1.22738E+01  1.16663E+01  1.10953E+01  1.05395E+01  1.00177E+01  9.50874E+00  9.03152E+00  8.56496E+00  8.12787E+00
   7.69939E+00  7.29836E+00  6.90404E+00  6.53533E+00  6.17165E+00  5.83190E+00  5.49568E+00  5.18189E+00  4.87028E+00  4.57979E+00
   4.29030E+00  4.02074E+00  3.75112E+00  3.50039E+00  3.24868E+00  3.01492E+00  2.77938E+00  2.56096E+00  2.34003E+00  2.13550E+00
   1.92781E+00  1.73587E+00  1.54022E+00  1.35972E+00  1.17501E+00  1.00493E+00  8.30219E-01  6.69653E-01  5.04065E-01  3.52197E-01
   1.94962E-01  5.10665E-02 -9.84971E-02 -2.35074E-01 -3.77593E-01 -5.07441E-01 -6.43473E-01 -7.67118E-01 -8.97161E-01 -1.01509E+00
  -1.13960E+00 -1.25224E+00 -1.37164E+00 -1.47937E+00 -1.59403E+00 -1.69723E+00 -1.80749E+00 -1.90648E+00 -2.01265E+00 -2.10772E+00
  -2.21009E+00 -2.30153E+00 -2.40036E+00 -2.48842E+00 -2.58395E+00 -2.66886E+00 -2.76133E+00 -2.84331E+00
 NY background values follow
     2.246E+00    2.224E+00    2.202E+00    2.180E+00    2.158E+00    2.136E+00    2.115E+00    2.093E+00    2.071E+00    2.049E+00
     2.027E+00    2.005E+00    1.983E+00    1.962E+00    1.940E+00    1.918E+00    1.896E+00    1.874E+00    1.852E+00    1.830E+00
     1.808E+00    1.786E+00    1.764E+00    1.742E+00    1.720E+00    1.698E+00    1.676E+00    1.654E+00    1.632E+00    1.610E+00
     1.588E+00    1.566E+00    1.544E+00    1.522E+00    1.500E+00    1.478E+00    1.456E+00    1.434E+00    1.411E+00    1.389E+00
     1.367E+00    1.345E+00    1.323E+00    1.301E+00    1.279E+00    1.257E+00    1.234E+00    1.212E+00    1.190E+00    1.168E+00
     1.146E+00    1.124E+00    1.101E+00    1.079E+00    1.057E+00    1.035E+00    1.013E+00    9.904E-01    9.682E-01    9.460E-01
     9.237E-01    9.015E-01    8.792E-01    8.570E-01    8.347E-01    8.124E-01    7.901E-01    7.679E-01    7.456E-01    7.233E-01
     7.010E-01    6.787E-01    6.564E-01    6.340E-01    6.117E-01    5.894E-01    5.671E-01    5.447E-01    5.224E-01    5.000E-01
     4.777E-01    4.553E-01    4.329E-01    4.105E-01    3.882E-01    3.658E-01    3.434E-01    3.210E-01    2.986E-01    2.762E-01
     2.538E-01    2.314E-01    2.089E-01    1.865E-01    1.641E-01    1.417E-01    1.192E-01    9.677E-02    7.432E-02    5.187E-02
     2.941E-02    6.948E-03   -1.552E-02   -3.799E-02   -6.047E-02   -8.295E-02   -1.054E-01   -1.279E-01   -1.504E-01   -1.729E-01
    -1.954E-01   -2.179E-01   -2.404E-01   -2.629E-01   -2.855E-01   -3.080E-01   -3.305E-01   -3.530E-01   -3.756E-01   -3.981E-01
    -4.207E-01   -4.432E-01   -4.657E-01   -4.883E-01   -5.109E-01   -5.334E-01   -5.560E-01   -5.785E-01   -6.011E-01   -6.237E-01
    -6.463E-01   -6.688E-01   -6.914E-01   -7.140E-01   -7.366E-01   -7.592E-01   -7.818E-01   -8.044E-01   -8.270E-01   -8.496E-01
    -8.722E-01   -8.948E-01   -9.174E-01   -9.400E-01   -9.626E-01   -9.853E-01   -1.008E+00   -1.031E+00   -1.053E+00   -1.076E+00
    -1.098E+00   -1.121E+00   -1.144E+00   -1.166E+00   -1.189E+00   -1.212E+00   -1.234E+00   -1.257E+00   -1.280E+00   -1.302E+00
    -1.325E+00   -1.347E+00   -1.370E+00   -1.393E+00   -1.415E+00   -1.438E+00   -1.461E+00   -1.483E+00   -1.506E+00   -1.529E+00
    -1.551E+00   -1.574E+00   -1.597E+00   -1.619E+00   -1.642E+00   -1.665E+00   -1.688E+00   -1.710E+00   -1.733E+00   -1.756E+00
    -1.778E+00   -1.801E+00   -1.824E+00   -1.846E+00   -1.869E+00   -1.892E+00   -1.914E+00   -1.937E+00   -1.960E+00   -1.982E+00
    -2.005E+00   -2.028E+00   -2.050E+00   -2.073E+00   -2.096E+00   -2.119E+00   -2.141E+00   -2.164E+00   -2.187E+00   -2.209E+00
    -2.232E+00   -2.255E+00   -2.277E+00   -2.300E+00   -2.323E+00   -2.345E+00   -2.368E+00   -2.391E+00   -2.414E+00   -2.436E+00
    -2.459E+00   -2.482E+00   -2.504E+00   -2.527E+00   -2.550E+00   -2.572E+00   -2.595E+00   -2.618E+00   -2.640E+00   -2.663E+00
    -2.686E+00   -2.708E+00   -2.731E+00   -2.754E+00   -2.777E+00   -2.799E+00   -2.822E+00   -2.845E+00   -2.867E+00   -2.890E+00
    -2.913E+00   -2.935E+00   -2.958E+00   -2.981E+00   -3.003E+00   -3.026E+00   -3.049E+00   -3.071E+00   -3.094E+00   -3.117E+00
    -3.139E+00   -3.162E+00   -3.185E+00   -3.207E+00   -3.230E+00   -3.252E+00   -3.275E+00   -3.298E+00   -3.320E+00   -3.343E+00
    -3.366E+00   -3.388E+00   -3.411E+00   -3.434E+00   -3.456E+00   -3.479E+00   -3.501E+00   -3.524E+00   -3.547E+00   -3.569E+00
    -3.592E+00   -3.615E+00   -3.637E+00   -3.660E+00   -3.682E+00   -3.705E+00   -3.728E+00   -3.750E+00   -3.773E+00   -3.795E+00
    -3.818E+00   -3.841E+00   -3.863E+00   -3.886E+00   -3.908E+00   -3.931E+00   -3.953E+00   -3.976E+00   -3.998E+00   -4.021E+00
    -4.044E+00   -4.066E+00   -4.089E+00   -4.111E+00   -4.134E+00   -4.156E+00   -4.179E+00   -4.201E+00   -4.224E+00   -4.246E+00
    -4.269E+00   -4.291E+00   -4.314E+00   -4.336E+00   -4.359E+00   -4.381E+00   -4.404E+00   -4.426E+00   -4.449E+00   -4.471E+00
    -4.494E+00   -4.516E+00   -4.539E+00   -4.561E+00   -4.584E+00   -4.606E+00   -4.629E+00   -4.651E+00   -4.673E+00   -4.696E+00
    -4.718E+00   -4.741E+00   -4.763E+00   -4.785E+00   -4.808E+00   -4.830E+00   -4.853E+00   -4.875E+00   -4.897E+00   -4.920E+00
    -4.942E+00   -4.965E+00   -4.987E+00   -5.009E+00   -5.032E+00   -5.054E+00   -5.076E+00   -5.099E+00   -5.121E+00   -5.143E+00
    -5.166E+00   -5.188E+00   -5.210E+00   -5.233E+00   -5.255E+00   -5.277E+00   -5.299E+00   -5.322E+00   -5.344E+00   -5.366E+00
    -5.388E+00   -5.411E+00   -5.433E+00   -5.455E+00   -5.477E+00   -5.500E+00   -5.522E+00   -5.544E+00   -5.566E+00   -5.588E+00
    -5.611E+00   -5.633E+00   -5.655E+00   -5.677E+00   -5.699E+00   -5.721E+00   -5.744E+00   -5.766E+00   -5.788E+00   -5.810E+00
    -5.832E+00   -5.854E+00   -5.876E+00   -5.898E+00   -5.921E+00   -5.943E+00   -5.965E+00   -5.987E+00   -6.009E+00   -6.031E+00
    -6.053E+00   -6.075E+00   -6.097E+00   -6.119E+00   -6.141E+00   -6.163E+00   -6.185E+00   -6.207E+00   -6.229E+00   -6.251E+00
    -6.273E+00   -6.295E+00   -6.317E+00   -6.339E+00   -6.361E+00   -6.383E+00   -6.405E+00   -6.426E+00   -6.448E+00   -6.470E+00
    -6.492E+00   -6.514E+00   -6.536E+00   -6.558E+00   -6.580E+00   -6.601E+00   -6.623E+00   -6.645E+00   -6.667E+00   -6.689E+00
    -6.711E+00   -6.732E+00   -6.754E+00   -6.776E+00   -6.798E+00   -6.819E+00   -6.841E+00   -6.863E+00   -6.885E+00   -6.906E+00
    -6.928E+00   -6.950E+00   -6.971E+00   -6.993E+00   -7.015E+00   -7.036E+00   -7.058E+00   -7.080E+00   -7.101E+00   -7.123E+00
    -7.144E+00   -7.166E+00   -7.188E+00   -7.209E+00   -7.231E+00   -7.252E+00   -7.274E+00   -7.295E+00   -7.317E+00   -7.338E+00
    -7.360E+00   -7.381E+00   -7.403E+00   -7.424E+00   -7.446E+00   -7.467E+00   -7.489E+00   -7.510E+00   -7.532E+00   -7.553E+00
    -7.574E+00   -7.596E+00   -7.617E+00   -7.639E+00   -7.660E+00   -7.681E+00   -7.703E+00   -7.724E+00   -7.745E+00   -7.767E+00
    -7.788E+00   -7.809E+00   -7.830E+00   -7.852E+00   -7.873E+00   -7.894E+00   -7.915E+00   -7.937E+00   -7.958E+00   -7.979E+00
    -8.000E+00   -8.021E+00   -8.042E+00   -8.064E+00   -8.085E+00   -8.106E+00   -8.127E+00   -8.148E+00   -8.169E+00   -8.190E+00
    -8.211E+00   -8.232E+00   -8.253E+00   -8.274E+00   -8.295E+00   -8.316E+00   -8.337E+00   -8.358E+00   -8.379E+00   -8.400E+00
    -8.421E+00   -8.442E+00   -8.463E+00   -8.484E+00   -8.505E+00   -8.526E+00   -8.546E+00   -8.567E+00   -8.588E+00   -8.609E+00
    -8.630E+00   -8.651E+00   -8.671E+00   -8.692E+00   -8.713E+00   -8.734E+00   -8.754E+00   -8.775E+00
 Asp      Conc. = 4.31E+01
