 LCModel (Version 6.3-1L) Copyright: S.W. Provencher.          Ref.: Magn. Reson. Med. 30:672-679 (1993).                
 Slice#3 Row#9 Col#9  PD_24_press_1_raw_act
 36 lines in following concentration table = NCONC+1
    Conc.  %SD /Cr+PCr  Metabolite                                         
   42.337 219% 2.2E-02 Ala                                                 
  164.214 142% 8.6E-02 Asp                                                 
  902.471  21%   0.473 Cr                                                  
 1.01E+03  19%   0.527 PCr                                                 
    0.000 999%   0.000 GABA                                                
    0.000 999%   0.000 Glc                                                 
  323.455  59%   0.169 Gln                                                 
 1.79E+03  12%   0.937 Glu                                                 
  747.301   3%   0.391 GPC                                                 
    0.000 999%   0.000 PCh                                                 
  482.077  14%   0.253 GSH                                                 
  994.337  23%   0.521 Ins                                                 
  101.981  97% 5.3E-02 Lac                                                 
 2.18E+03   5%   1.144 NAA                                                 
  343.619  29%   0.180 NAAG                                                
   62.022  42% 3.2E-02 Scyllo                                              
    0.000 999%   0.000 Tau                                                 
    0.000 999%   0.000 -CrCH2                                              
  747.301   3%   0.391 GPC+PCh                                             
 2.53E+03   3%   1.324 NAA+NAAG                                            
 1.91E+03   3%   1.000 Cr+PCr                                              
 2.11E+03  14%   1.106 Glu+Gln                                             
    0.000 999%   0.000 Lip13a                                              
    0.000 999%   0.000 Lip13b                                              
    0.000 999%   0.000 Lip09                                               
 1.65E+03  13%   0.862 MM09                                                
    3.336 999% 1.7E-03 Lip20                                               
 3.52E+03  11%   1.845 MM20                                                
  519.445  34%   0.272 MM12                                                
    0.000 999%   0.000 MM14                                                
 1.18E+03  22%   0.619 MM17                                                
    0.000 999%   0.000 Lip13a+Lip13b                                       
  519.445  34%   0.272 MM14+Lip13a+Lip13b+MM12                             
 1.65E+03  13%   0.862 MM09+Lip09                                          
 3.53E+03  11%   1.847 MM20+Lip20                                          
   6 lines in following misc. output table
  FWHM = 0.038 ppm    S/N =  13                                            
  Data shift = 0.015 ppm                                                   
  Ph: -14 deg      -7.2 deg/ppm                                            
  alphaB,S = 1.2E+00,   8.8E+01                                            
   14 spline knots.   Ns = 6(1)                                            
  (11) 4 infls.   ( 5) 1 extrs.                                            
  498 points on ppm-axis = NY
      4.000000     3.992357     3.984714     3.977070     3.969427     3.961784     3.954141     3.946497     3.938854     3.931211
      3.923568     3.915925     3.908281     3.900638     3.892995     3.885352     3.877708     3.870065     3.862422     3.854779
      3.847136     3.839492     3.831849     3.824206     3.816563     3.808919     3.801276     3.793633     3.785990     3.778347
      3.770703     3.763060     3.755417     3.747774     3.740130     3.732487     3.724844     3.717201     3.709558     3.701914
      3.694271     3.686628     3.678985     3.671341     3.663698     3.656055     3.648412     3.640769     3.633125     3.625482
      3.617839     3.610196     3.602552     3.594909     3.587266     3.579623     3.571980     3.564336     3.556693     3.549050
      3.541407     3.533763     3.526120     3.518477     3.510834     3.503191     3.495547     3.487904     3.480261     3.472618
      3.464974     3.457331     3.449688     3.442045     3.434402     3.426758     3.419115     3.411472     3.403829     3.396185
      3.388542     3.380899     3.373256     3.365613     3.357969     3.350326     3.342683     3.335040     3.327396     3.319753
      3.312110     3.304467     3.296824     3.289180     3.281537     3.273894     3.266251     3.258607     3.250964     3.243321
      3.235678     3.228034     3.220391     3.212748     3.205105     3.197462     3.189818     3.182175     3.174532     3.166889
      3.159245     3.151602     3.143959     3.136316     3.128673     3.121029     3.113386     3.105743     3.098100     3.090456
      3.082813     3.075170     3.067527     3.059884     3.052240     3.044597     3.036954     3.029311     3.021667     3.014024
      3.006381     2.998738     2.991095     2.983451     2.975808     2.968165     2.960522     2.952878     2.945235     2.937592
      2.929949     2.922306     2.914662     2.907019     2.899376     2.891733     2.884089     2.876446     2.868803     2.861160
      2.853517     2.845873     2.838230     2.830587     2.822944     2.815300     2.807657     2.800014     2.792371     2.784728
      2.777084     2.769441     2.761798     2.754155     2.746511     2.738868     2.731225     2.723582     2.715939     2.708295
      2.700652     2.693009     2.685366     2.677722     2.670079     2.662436     2.654793     2.647150     2.639506     2.631863
      2.624220     2.616577     2.608933     2.601290     2.593647     2.586004     2.578361     2.570717     2.563074     2.555431
      2.547788     2.540144     2.532501     2.524858     2.517215     2.509572     2.501928     2.494285     2.486642     2.478999
      2.471355     2.463712     2.456069     2.448426     2.440783     2.433139     2.425496     2.417853     2.410210     2.402566
      2.394923     2.387280     2.379637     2.371994     2.364350     2.356707     2.349064     2.341421     2.333777     2.326134
      2.318491     2.310848     2.303205     2.295561     2.287918     2.280275     2.272632     2.264988     2.257345     2.249702
      2.242059     2.234416     2.226772     2.219129     2.211486     2.203843     2.196199     2.188556     2.180913     2.173270
      2.165627     2.157983     2.150340     2.142697     2.135054     2.127410     2.119767     2.112124     2.104481     2.096838
      2.089194     2.081551     2.073908     2.066265     2.058621     2.050978     2.043335     2.035692     2.028049     2.020405
      2.012762     2.005119     1.997476     1.989833     1.982190     1.974546     1.966903     1.959260     1.951617     1.943974
      1.936331     1.928688     1.921045     1.913402     1.905759     1.898115     1.890472     1.882829     1.875186     1.867543
      1.859900     1.852257     1.844614     1.836971     1.829327     1.821684     1.814041     1.806398     1.798755     1.791112
      1.783469     1.775826     1.768183     1.760540     1.752896     1.745253     1.737610     1.729967     1.722324     1.714681
      1.707038     1.699395     1.691752     1.684108     1.676465     1.668822     1.661179     1.653536     1.645893     1.638250
      1.630607     1.622964     1.615321     1.607677     1.600034     1.592391     1.584748     1.577105     1.569462     1.561819
      1.554176     1.546533     1.538890     1.531246     1.523603     1.515960     1.508317     1.500674     1.493031     1.485388
      1.477745     1.470102     1.462458     1.454815     1.447172     1.439529     1.431886     1.424243     1.416600     1.408957
      1.401314     1.393671     1.386027     1.378384     1.370741     1.363098     1.355455     1.347812     1.340169     1.332526
      1.324883     1.317240     1.309596     1.301953     1.294310     1.286667     1.279024     1.271381     1.263738     1.256095
      1.248452     1.240808     1.233165     1.225522     1.217879     1.210236     1.202593     1.194950     1.187307     1.179664
      1.172021     1.164377     1.156734     1.149091     1.141448     1.133805     1.126162     1.118519     1.110876     1.103233
      1.095590     1.087946     1.080303     1.072660     1.065017     1.057374     1.049731     1.042088     1.034445     1.026802
      1.019158     1.011515     1.003872     0.996229     0.988586     0.980943     0.973300     0.965657     0.958014     0.950371
      0.942727     0.935084     0.927441     0.919798     0.912155     0.904512     0.896869     0.889226     0.881583     0.873940
      0.866296     0.858653     0.851010     0.843367     0.835724     0.828081     0.820438     0.812795     0.805152     0.797508
      0.789865     0.782222     0.774579     0.766936     0.759293     0.751650     0.744007     0.736364     0.728721     0.721077
      0.713434     0.705791     0.698148     0.690505     0.682862     0.675219     0.667576     0.659933     0.652290     0.644646
      0.637003     0.629360     0.621717     0.614074     0.606431     0.598788     0.591145     0.583502     0.575858     0.568215
      0.560572     0.552929     0.545286     0.537643     0.530000     0.522357     0.514714     0.507071     0.499427     0.491784
      0.484141     0.476498     0.468855     0.461212     0.453569     0.445925     0.438282     0.430639     0.422996     0.415353
      0.407710     0.400067     0.392424     0.384780     0.377137     0.369494     0.361851     0.354208     0.346565     0.338922
      0.331278     0.323635     0.315992     0.308349     0.300706     0.293063     0.285420     0.277777     0.270133     0.262490
      0.254847     0.247204     0.239561     0.231918     0.224275     0.216631     0.208988     0.201345
 NY phased data points follow
   2.19157E+01  1.95676E+01  2.30609E+01  2.43315E+01  2.64581E+01  3.04466E+01  4.17627E+01  4.63625E+01  5.57140E+01  6.51192E+01
   7.34236E+01  7.27008E+01  7.51396E+01  6.74851E+01  5.84907E+01  4.96015E+01  3.84222E+01  2.75094E+01  2.92230E+01  2.11191E+01
   2.07413E+01  2.60722E+01  2.30386E+01  2.08241E+01  2.34964E+01  2.72893E+01  2.46095E+01  2.31425E+01  2.33498E+01  2.84424E+01
   3.05437E+01  3.18046E+01  3.34721E+01  3.10221E+01  2.81050E+01  2.48162E+01  2.56742E+01  2.21925E+01  2.57409E+01  2.46754E+01
   2.33799E+01  1.97595E+01  2.00340E+01  2.18682E+01  2.23770E+01  2.56509E+01  2.39300E+01  3.40349E+01  3.10988E+01  3.37271E+01
   2.97209E+01  2.12978E+01  1.93227E+01  1.75636E+01  1.62320E+01  1.89644E+01  2.04781E+01  1.67687E+01  2.24519E+01  2.31842E+01
   1.66378E+01  1.87443E+01  1.28884E+01  1.21134E+01  4.92210E+00  1.70822E+00  5.68433E+00  5.13628E+00  6.90473E+00  4.84568E+00
   3.16071E+00  8.33251E+00  1.02018E+01  6.88244E+00  4.56247E+00  6.35392E+00  1.15426E+01  9.88822E+00  1.03562E+01  6.29494E+00
   9.01073E+00  7.76993E+00  8.58740E+00  9.82572E+00  7.02175E+00  1.11256E+01  1.40610E+01  1.28746E+01  1.00287E+01  1.06064E+01
   1.11171E+01  1.36573E+01  1.23637E+01  9.76108E+00  6.66207E+00  1.14605E+01  1.14342E+01  1.31705E+01  1.25168E+01  2.01086E+01
   3.48372E+01  5.45370E+01  7.46943E+01  8.66278E+01  8.84633E+01  7.94264E+01  6.61272E+01  4.59988E+01  3.32245E+01  2.41069E+01
   2.36592E+01  1.72632E+01  1.20018E+01  1.31153E+01  6.74312E+00  8.40303E+00  7.05132E+00  7.48855E+00  1.09614E+01  9.03446E+00
   8.17104E+00  1.32734E+01  1.08149E+01  1.59978E+01  2.70359E+01  4.76610E+01  6.22059E+01  7.13521E+01  7.49144E+01  6.74722E+01
   5.76226E+01  4.58655E+01  3.44685E+01  2.98424E+01  1.84810E+01  1.48507E+01  1.51040E+01  7.04254E+00  5.60868E+00  1.26062E+01
   1.03807E+01  4.85403E+00  5.92258E+00  9.20623E+00  8.04842E+00  9.72690E+00  8.52222E+00  6.48603E+00  4.36425E+00  6.91656E+00
   5.75320E+00  4.49393E+00  3.84358E+00  7.85356E+00  3.30715E+00  3.56124E+00  2.83463E+00  1.88903E+00 -7.99623E-01  4.73500E+00
   6.26055E-01 -7.87926E-01 -1.18635E+00  2.11240E-01 -1.28250E-01  4.65166E+00  8.59896E+00  4.89345E+00  5.60261E+00  3.88193E+00
  -3.36230E+00  1.11251E+00  1.18540E+00 -8.65276E-01 -7.66479E+00 -4.21699E+00 -7.01681E+00 -5.74935E+00 -3.63937E+00  1.67452E+00
   1.21042E+00 -5.47664E+00 -7.52681E+00 -9.05149E+00 -8.70070E+00 -5.07296E+00 -5.19448E+00  1.56406E+00 -3.55500E-01  3.00351E+00
   9.92216E+00  1.15210E+01  9.70457E+00  1.49464E+01  1.18770E+01  1.28445E+01  1.36820E+01  1.34384E+01  9.17104E+00  6.19551E+00
   1.85945E+00  1.01449E+01  5.78031E+00  1.05374E+01  1.21797E+01  6.67377E+00  8.86501E+00  6.25276E+00  5.87627E+00  1.45828E+00
   6.68275E+00 -2.48262E-01  2.53198E+00  6.41980E+00  1.41978E+01  1.67922E+01  2.28164E+01  2.18296E+01  1.65545E+01  1.33440E+01
   4.02517E+00  5.20930E+00 -1.11206E+00  7.58815E-01  1.42279E+00  6.92631E+00  1.40998E+01  1.01481E+01  1.43777E+01  2.01093E+01
   1.59220E+01  1.53047E+01  1.11284E+01  1.17081E+01  1.26833E+01  1.50400E+01  1.16327E+01  1.30083E+01  1.81974E+01  1.58449E+01
   1.00268E+01  8.27595E+00  6.97899E+00  1.09284E+01  1.18816E+01  8.81585E+00  1.54980E+01  1.68710E+01  1.89515E+01  1.94885E+01
   1.67682E+01  2.01578E+01  2.53058E+01  2.33874E+01  3.13776E+01  3.60651E+01  4.16889E+01  4.99972E+01  6.35346E+01  8.80646E+01
   1.01831E+02  1.10018E+02  9.36348E+01  7.35504E+01  5.39429E+01  4.28851E+01  2.94833E+01  3.04157E+01  2.10501E+01  1.45414E+01
   1.25553E+01  1.46124E+01  1.33658E+01  1.40774E+01  9.78450E+00  1.11372E+01  1.36002E+01  1.26371E+01  1.25920E+01  1.08058E+01
   6.72548E+00  1.07464E+01  8.11576E+00  8.30270E+00  7.91927E+00  9.47731E+00  9.71875E+00  1.28421E+01  9.75874E+00  1.30429E+01
   9.88751E+00  1.22803E+01  6.42286E+00  7.67993E+00  5.95451E+00  6.78797E+00  5.84237E+00  9.02481E+00  4.62560E+00  1.01326E+01
   6.12868E+00  1.17768E+01  6.80672E+00  1.01527E+01  1.24425E+01  1.13560E+01  1.21107E+01  1.65985E+01  1.06604E+01  1.48793E+01
   9.61760E+00  1.41026E+01  1.23012E+01  1.30179E+01  1.33644E+01  8.41797E+00  1.46779E+01  1.16312E+01  1.25386E+01  1.27980E+01
   9.70337E+00  7.50517E+00  1.10009E+01  1.21147E+01  6.00132E+00  1.12311E+01  1.11777E+01  8.91459E+00  3.15534E+00  9.75313E+00
  -3.19172E-01  4.91869E+00  8.05446E+00  3.73140E+00  7.21722E+00  1.36373E+00  6.21654E+00  7.72499E+00  8.31552E+00  1.57381E+00
   2.01676E+00 -1.98494E+00  3.54673E+00  5.24399E+00  3.66493E+00  4.14486E+00  5.61368E+00  6.00125E+00  3.09518E+00  1.15547E+00
  -1.47146E+00  6.09863E+00  2.52949E+00  5.36849E+00  4.48854E+00  1.05454E+01  6.24883E+00  7.56471E+00  7.04719E+00  1.05283E+01
   1.21042E+01  1.46622E+01  3.95604E+00  6.52331E+00  3.33518E+00  4.66375E+00  5.88902E+00  9.41263E+00  8.68237E+00  8.02432E+00
   9.86526E+00  6.64376E+00  7.50233E+00  1.12645E+01  9.23009E+00  8.95286E+00  1.00939E+01  1.28528E+01  5.09872E+00  1.18153E+01
   5.05998E+00  7.63158E+00  4.57978E+00  1.01114E+01  8.62175E+00  9.60195E+00  1.20912E+01  8.72050E+00  1.17694E+01  8.52703E+00
   9.33389E+00  1.09174E+01  1.27252E+01  9.46658E+00  1.22678E+01  1.32105E+01  1.06668E+01  1.20145E+01  1.37539E+01  1.21893E+01
   1.73327E+01  1.67952E+01  1.70452E+01  1.17179E+01  1.30797E+01  1.54912E+01  1.43935E+01  1.83555E+01  1.47283E+01  1.63264E+01
   1.53131E+01  1.21214E+01  1.93889E+01  1.36661E+01  1.02455E+01  1.15841E+01  1.40430E+01  1.51900E+01  1.13325E+01  1.28487E+01
   9.09400E+00  8.95113E+00  6.11996E+00  1.04567E+01  6.04441E+00  1.21098E+01  1.21452E+01  1.01102E+01  9.33383E+00  7.67879E+00
   6.21342E+00  4.21143E+00  6.68903E+00  6.00810E+00  6.45465E+00  8.36923E+00  5.42164E+00  8.77246E+00  5.67283E+00  8.83050E+00
   3.46387E+00  3.38396E+00  4.93019E+00  9.14578E+00  3.57792E+00  1.17608E+01  2.75904E+00  6.85907E+00  4.21245E+00  9.85845E+00
   1.02079E+00  6.82151E+00  6.56017E+00  4.76895E+00  8.25018E+00  7.49533E+00  4.40164E-01  7.26095E+00  4.90794E+00  2.87864E+00
   6.77141E+00  3.30584E+00  5.10428E+00  2.10012E+00  5.66401E+00  6.10884E+00  9.83797E+00  9.83470E+00  1.03308E+00  6.13759E+00
   6.37199E+00 -1.16031E+00  6.66914E+00  7.66849E+00  8.56985E+00  3.34404E+00  5.58751E+00  2.46923E+00  8.55000E+00  5.79242E+00
   4.78486E+00  4.37412E+00  1.00355E+01  4.36644E+00  2.04296E+00  4.67015E+00  4.73099E+00  5.91754E+00  5.60925E+00  8.83709E+00
   5.95454E+00  6.50695E+00  3.68731E+00  2.35848E+00  5.61275E+00  4.45925E+00  4.16877E+00  3.71982E+00
 NY points of the fit to the data follow
   2.40495E+01  2.37588E+01  2.38664E+01  2.44167E+01  2.58533E+01  2.86005E+01  3.33412E+01  4.08281E+01  5.09020E+01  6.14966E+01
   6.92794E+01  7.14739E+01  6.75781E+01  5.95845E+01  5.06217E+01  4.29463E+01  3.68904E+01  3.17608E+01  2.77799E+01  2.53504E+01
   2.42227E+01  2.35898E+01  2.30470E+01  2.24303E+01  2.17930E+01  2.12584E+01  2.10760E+01  2.18622E+01  2.40231E+01  2.73093E+01
   3.07605E+01  3.32591E+01  3.39707E+01  3.27649E+01  3.02550E+01  2.72967E+01  2.42575E+01  2.14073E+01  1.94785E+01  1.88476E+01
   1.89490E+01  1.95012E+01  2.03261E+01  2.14642E+01  2.29100E+01  2.46353E+01  2.62940E+01  2.71866E+01  2.69636E+01  2.55962E+01
   2.34224E+01  2.11933E+01  1.94141E+01  1.79596E+01  1.67402E+01  1.60201E+01  1.59010E+01  1.61359E+01  1.65232E+01  1.69138E+01
   1.70382E+01  1.66936E+01  1.58485E+01  1.47289E+01  1.36865E+01  1.29519E+01  1.25628E+01  1.24877E+01  1.26720E+01  1.29925E+01
   1.33626E+01  1.36342E+01  1.37073E+01  1.35441E+01  1.31771E+01  1.27261E+01  1.23067E+01  1.19738E+01  1.17040E+01  1.14555E+01
   1.13092E+01  1.12884E+01  1.14037E+01  1.17175E+01  1.21748E+01  1.25199E+01  1.24411E+01  1.18231E+01  1.08432E+01  9.87976E+00
   9.28303E+00  9.15868E+00  9.34492E+00  9.59985E+00  9.87899E+00  1.02463E+01  1.06966E+01  1.20402E+01  1.54731E+01  2.25734E+01
   3.57203E+01  5.45595E+01  7.42877E+01  8.77653E+01  8.99192E+01  8.06725E+01  6.48293E+01  4.86304E+01  3.58581E+01  2.62586E+01
   1.77356E+01  1.16383E+01  9.70049E+00  9.11813E+00  8.87130E+00  8.75735E+00  8.71635E+00  8.72183E+00  8.77766E+00  8.93765E+00
   9.39630E+00  1.08108E+01  1.40925E+01  2.03870E+01  3.14286E+01  4.71697E+01  6.40662E+01  7.64089E+01  7.97037E+01  7.33351E+01
   6.08857E+01  4.74916E+01  3.64583E+01  2.77534E+01  1.96647E+01  1.28461E+01  9.15024E+00  7.36882E+00  6.68888E+00  6.87183E+00
   7.52791E+00  8.23740E+00  8.80247E+00  9.07477E+00  8.97620E+00  8.62858E+00  8.14952E+00  7.59255E+00  7.05678E+00  6.53286E+00
   6.07568E+00  5.66047E+00  5.26136E+00  4.91979E+00  4.70575E+00  4.61866E+00  4.58276E+00  4.45603E+00  4.07126E+00  3.41764E+00
   2.70077E+00  2.26215E+00  2.32316E+00  2.77928E+00  3.26565E+00  3.42771E+00  3.14280E+00  2.59681E+00  2.07809E+00  1.67413E+00
   1.35896E+00  1.05913E+00  6.50874E-01  1.37903E-01 -4.33847E-01 -9.07435E-01 -1.02329E+00 -7.67071E-01 -4.14687E-01 -2.52083E-01
  -3.38723E-01 -4.83293E-01 -4.25611E-01 -1.40858E-01  9.97536E-02  1.84318E-01  5.16200E-01  1.45944E+00  3.11548E+00  5.11046E+00
   6.84862E+00  7.93811E+00  8.24533E+00  7.94030E+00  7.24780E+00  6.27483E+00  5.23194E+00  4.49367E+00  4.29410E+00  4.75870E+00
   5.88268E+00  7.43130E+00  9.00012E+00  1.02257E+01  1.07659E+01  1.04952E+01  9.21517E+00  7.07220E+00  4.68370E+00  2.65166E+00
   1.44199E+00  1.40508E+00  2.86954E+00  5.87010E+00  9.84238E+00  1.35939E+01  1.56984E+01  1.53784E+01  1.25249E+01  7.99550E+00
   3.02563E+00 -1.26524E+00 -3.80975E+00 -3.95357E+00 -1.58891E+00  2.52958E+00  6.73237E+00  9.98549E+00  1.19759E+01  1.28958E+01
   1.29741E+01  1.24098E+01  1.18041E+01  1.18414E+01  1.25915E+01  1.37827E+01  1.50033E+01  1.57603E+01  1.57687E+01  1.49335E+01
   1.34117E+01  1.18029E+01  1.08801E+01  1.10611E+01  1.22269E+01  1.39851E+01  1.58411E+01  1.72817E+01  1.79997E+01  1.81465E+01
   1.82974E+01  1.88931E+01  2.05577E+01  2.36603E+01  2.83818E+01  3.44761E+01  4.20389E+01  5.34743E+01  6.98226E+01  8.78502E+01
   1.00986E+02  1.03546E+02  9.41673E+01  7.71424E+01  5.94976E+01  4.54280E+01  3.48120E+01  2.51923E+01  1.74783E+01  1.44623E+01
   1.31358E+01  1.22869E+01  1.17798E+01  1.15533E+01  1.13835E+01  1.11733E+01  1.08734E+01  1.04816E+01  1.00443E+01  9.62481E+00
   9.24078E+00  8.89687E+00  8.62450E+00  8.43556E+00  8.29126E+00  8.14900E+00  8.00215E+00  7.86783E+00  7.76612E+00  7.70097E+00
   7.68713E+00  7.74024E+00  7.85328E+00  8.00470E+00  8.18153E+00  8.37787E+00  8.59502E+00  8.83720E+00  9.10749E+00  9.40942E+00
   9.74942E+00  1.01209E+01  1.05090E+01  1.08965E+01  1.12676E+01  1.16106E+01  1.19145E+01  1.21661E+01  1.23598E+01  1.24906E+01
   1.25529E+01  1.25437E+01  1.24634E+01  1.23142E+01  1.21009E+01  1.18300E+01  1.15098E+01  1.11505E+01  1.07637E+01  1.03618E+01
   9.95886E+00  9.57128E+00  9.20895E+00  8.88207E+00  8.58826E+00  8.29044E+00  7.93534E+00  7.49415E+00  6.98658E+00  6.47873E+00
   6.04329E+00  5.72604E+00  5.55279E+00  5.52579E+00  5.62632E+00  5.82349E+00  6.02865E+00  6.15707E+00  6.20338E+00  6.20760E+00
   6.22357E+00  6.28752E+00  6.38888E+00  6.54850E+00  6.77624E+00  6.95731E+00  6.94103E+00  6.64363E+00  6.10939E+00  5.50677E+00
   5.01713E+00  4.78170E+00  4.87374E+00  5.27119E+00  5.88204E+00  6.60816E+00  7.24214E+00  7.62200E+00  7.77743E+00  7.81458E+00
   7.82282E+00  7.81050E+00  7.74057E+00  7.68743E+00  7.67818E+00  7.68325E+00  7.68961E+00  7.69205E+00  7.68861E+00  7.67893E+00
   7.66352E+00  7.64357E+00  7.62090E+00  7.59798E+00  7.57773E+00  7.56317E+00  7.55736E+00  7.56335E+00  7.58442E+00  7.62397E+00
   7.68541E+00  7.77186E+00  7.88619E+00  8.03110E+00  8.20922E+00  8.42298E+00  8.67428E+00  8.96431E+00  9.29349E+00  9.66149E+00
   1.00672E+01  1.05082E+01  1.09810E+01  1.14803E+01  1.19994E+01  1.25306E+01  1.30647E+01  1.35917E+01  1.41004E+01  1.45791E+01
   1.50163E+01  1.54009E+01  1.57229E+01  1.59734E+01  1.61454E+01  1.62338E+01  1.62363E+01  1.61528E+01  1.59861E+01  1.57409E+01
   1.54240E+01  1.50440E+01  1.46108E+01  1.41354E+01  1.36288E+01  1.31019E+01  1.25651E+01  1.20278E+01  1.14988E+01  1.09853E+01
   1.04930E+01  1.00264E+01  9.58840E+00  9.18099E+00  8.80515E+00  8.46092E+00  8.14744E+00  7.86330E+00  7.60674E+00  7.37591E+00
   7.16883E+00  6.98339E+00  6.81740E+00  6.66876E+00  6.53562E+00  6.41639E+00  6.30954E+00  6.21364E+00  6.12730E+00  6.04937E+00
   5.97894E+00  5.91528E+00  5.85766E+00  5.80532E+00  5.75759E+00  5.71399E+00  5.67416E+00  5.63782E+00  5.60459E+00  5.57407E+00
   5.54593E+00  5.51999E+00  5.49618E+00  5.47433E+00  5.45422E+00  5.43560E+00  5.41834E+00  5.40241E+00  5.38780E+00  5.37438E+00
   5.36197E+00  5.35042E+00  5.33972E+00  5.32989E+00  5.32093E+00  5.31273E+00  5.30513E+00  5.29806E+00  5.29156E+00  5.28570E+00
   5.28042E+00  5.27560E+00  5.27116E+00  5.26707E+00  5.26343E+00  5.26026E+00  5.25749E+00  5.25501E+00  5.25275E+00  5.25076E+00
   5.24912E+00  5.24783E+00  5.24679E+00  5.24591E+00  5.24518E+00  5.24468E+00  5.24447E+00  5.24451E+00  5.24469E+00  5.24496E+00
   5.24534E+00  5.24594E+00  5.24677E+00  5.24775E+00  5.24879E+00  5.24987E+00  5.25108E+00  5.25248E+00
 NY background values follow
     2.021E+01    2.006E+01    1.991E+01    1.976E+01    1.961E+01    1.946E+01    1.931E+01    1.915E+01    1.900E+01    1.885E+01
     1.870E+01    1.855E+01    1.840E+01    1.825E+01    1.810E+01    1.794E+01    1.779E+01    1.764E+01    1.749E+01    1.734E+01
     1.719E+01    1.704E+01    1.689E+01    1.674E+01    1.659E+01    1.644E+01    1.629E+01    1.614E+01    1.599E+01    1.584E+01
     1.570E+01    1.555E+01    1.540E+01    1.525E+01    1.511E+01    1.496E+01    1.481E+01    1.467E+01    1.452E+01    1.438E+01
     1.423E+01    1.409E+01    1.395E+01    1.380E+01    1.366E+01    1.352E+01    1.338E+01    1.324E+01    1.310E+01    1.296E+01
     1.282E+01    1.268E+01    1.254E+01    1.240E+01    1.227E+01    1.213E+01    1.200E+01    1.186E+01    1.173E+01    1.159E+01
     1.146E+01    1.133E+01    1.120E+01    1.107E+01    1.094E+01    1.081E+01    1.069E+01    1.056E+01    1.043E+01    1.031E+01
     1.019E+01    1.006E+01    9.942E+00    9.821E+00    9.701E+00    9.583E+00    9.465E+00    9.348E+00    9.232E+00    9.118E+00
     9.004E+00    8.892E+00    8.781E+00    8.671E+00    8.562E+00    8.454E+00    8.347E+00    8.242E+00    8.138E+00    8.035E+00
     7.933E+00    7.833E+00    7.733E+00    7.636E+00    7.539E+00    7.443E+00    7.349E+00    7.256E+00    7.165E+00    7.074E+00
     6.985E+00    6.897E+00    6.811E+00    6.725E+00    6.641E+00    6.558E+00    6.476E+00    6.396E+00    6.316E+00    6.238E+00
     6.161E+00    6.086E+00    6.011E+00    5.938E+00    5.866E+00    5.795E+00    5.725E+00    5.657E+00    5.590E+00    5.524E+00
     5.459E+00    5.395E+00    5.332E+00    5.271E+00    5.211E+00    5.152E+00    5.094E+00    5.037E+00    4.981E+00    4.927E+00
     4.874E+00    4.821E+00    4.770E+00    4.721E+00    4.672E+00    4.624E+00    4.578E+00    4.532E+00    4.488E+00    4.445E+00
     4.403E+00    4.362E+00    4.322E+00    4.283E+00    4.246E+00    4.209E+00    4.173E+00    4.139E+00    4.105E+00    4.072E+00
     4.041E+00    4.010E+00    3.980E+00    3.951E+00    3.924E+00    3.897E+00    3.871E+00    3.846E+00    3.822E+00    3.798E+00
     3.776E+00    3.754E+00    3.734E+00    3.714E+00    3.695E+00    3.677E+00    3.660E+00    3.643E+00    3.627E+00    3.613E+00
     3.598E+00    3.585E+00    3.572E+00    3.561E+00    3.549E+00    3.539E+00    3.529E+00    3.520E+00    3.512E+00    3.505E+00
     3.498E+00    3.491E+00    3.486E+00    3.481E+00    3.476E+00    3.473E+00    3.469E+00    3.467E+00    3.465E+00    3.463E+00
     3.462E+00    3.462E+00    3.461E+00    3.462E+00    3.463E+00    3.464E+00    3.465E+00    3.467E+00    3.470E+00    3.472E+00
     3.475E+00    3.479E+00    3.482E+00    3.486E+00    3.490E+00    3.494E+00    3.499E+00    3.504E+00    3.509E+00    3.514E+00
     3.519E+00    3.524E+00    3.530E+00    3.535E+00    3.541E+00    3.547E+00    3.552E+00    3.558E+00    3.564E+00    3.569E+00
     3.575E+00    3.581E+00    3.586E+00    3.592E+00    3.597E+00    3.602E+00    3.607E+00    3.612E+00    3.617E+00    3.621E+00
     3.626E+00    3.630E+00    3.634E+00    3.638E+00    3.642E+00    3.645E+00    3.649E+00    3.652E+00    3.655E+00    3.658E+00
     3.661E+00    3.664E+00    3.667E+00    3.669E+00    3.672E+00    3.674E+00    3.676E+00    3.678E+00    3.680E+00    3.681E+00
     3.683E+00    3.684E+00    3.686E+00    3.687E+00    3.688E+00    3.689E+00    3.690E+00    3.691E+00    3.691E+00    3.692E+00
     3.692E+00    3.692E+00    3.693E+00    3.693E+00    3.693E+00    3.693E+00    3.692E+00    3.692E+00    3.692E+00    3.691E+00
     3.691E+00    3.690E+00    3.689E+00    3.688E+00    3.687E+00    3.686E+00    3.685E+00    3.684E+00    3.683E+00    3.682E+00
     3.680E+00    3.679E+00    3.678E+00    3.676E+00    3.675E+00    3.673E+00    3.671E+00    3.670E+00    3.668E+00    3.666E+00
     3.665E+00    3.663E+00    3.661E+00    3.659E+00    3.657E+00    3.656E+00    3.654E+00    3.652E+00    3.650E+00    3.648E+00
     3.647E+00    3.645E+00    3.643E+00    3.641E+00    3.640E+00    3.638E+00    3.636E+00    3.635E+00    3.633E+00    3.632E+00
     3.630E+00    3.629E+00    3.628E+00    3.626E+00    3.625E+00    3.624E+00    3.623E+00    3.622E+00    3.621E+00    3.620E+00
     3.619E+00    3.618E+00    3.618E+00    3.617E+00    3.617E+00    3.616E+00    3.616E+00    3.616E+00    3.616E+00    3.616E+00
     3.616E+00    3.616E+00    3.617E+00    3.617E+00    3.617E+00    3.618E+00    3.619E+00    3.620E+00    3.621E+00    3.622E+00
     3.623E+00    3.624E+00    3.626E+00    3.627E+00    3.629E+00    3.631E+00    3.632E+00    3.635E+00    3.637E+00    3.639E+00
     3.641E+00    3.644E+00    3.647E+00    3.650E+00    3.653E+00    3.656E+00    3.659E+00    3.662E+00    3.666E+00    3.670E+00
     3.674E+00    3.678E+00    3.682E+00    3.686E+00    3.691E+00    3.695E+00    3.700E+00    3.705E+00    3.710E+00    3.715E+00
     3.721E+00    3.726E+00    3.732E+00    3.738E+00    3.743E+00    3.749E+00    3.756E+00    3.762E+00    3.768E+00    3.775E+00
     3.781E+00    3.788E+00    3.794E+00    3.801E+00    3.808E+00    3.815E+00    3.822E+00    3.829E+00    3.837E+00    3.844E+00
     3.851E+00    3.859E+00    3.867E+00    3.874E+00    3.882E+00    3.890E+00    3.897E+00    3.905E+00    3.913E+00    3.921E+00
     3.929E+00    3.937E+00    3.945E+00    3.953E+00    3.961E+00    3.970E+00    3.978E+00    3.986E+00    3.994E+00    4.003E+00
     4.011E+00    4.019E+00    4.028E+00    4.036E+00    4.044E+00    4.053E+00    4.061E+00    4.069E+00    4.078E+00    4.086E+00
     4.095E+00    4.103E+00    4.112E+00    4.120E+00    4.129E+00    4.137E+00    4.146E+00    4.154E+00    4.162E+00    4.171E+00
     4.179E+00    4.188E+00    4.196E+00    4.205E+00    4.213E+00    4.222E+00    4.230E+00    4.239E+00    4.247E+00    4.256E+00
     4.264E+00    4.273E+00    4.281E+00    4.290E+00    4.298E+00    4.306E+00    4.315E+00    4.323E+00    4.332E+00    4.340E+00
     4.348E+00    4.357E+00    4.365E+00    4.373E+00    4.381E+00    4.390E+00    4.398E+00    4.406E+00    4.414E+00    4.422E+00
     4.430E+00    4.439E+00    4.447E+00    4.455E+00    4.463E+00    4.471E+00    4.479E+00    4.487E+00    4.495E+00    4.503E+00
     4.511E+00    4.519E+00    4.527E+00    4.535E+00    4.543E+00    4.551E+00    4.558E+00    4.566E+00    4.574E+00    4.582E+00
     4.590E+00    4.598E+00    4.606E+00    4.613E+00    4.621E+00    4.629E+00    4.637E+00    4.644E+00    4.652E+00    4.660E+00
     4.668E+00    4.675E+00    4.683E+00    4.691E+00    4.699E+00    4.706E+00    4.714E+00    4.722E+00
 Ala      Conc. = 4.23E+01
