 LCModel (Version 6.3-1L) Copyright: S.W. Provencher.          Ref.: Magn. Reson. Med. 30:672-679 (1993).                
 Slice#1 Row#10 Col#2  PD_24_press_1_raw_act
 36 lines in following concentration table = NCONC+1
    Conc.  %SD /Cr+PCr  Metabolite                                         
    7.885 587% 8.0E-02 Ala                                                 
   11.088  29%   0.112 Asp                                                 
    0.000 999%   0.000 Cr                                                  
   98.597  23%   1.000 PCr                                                 
    6.640  29% 6.7E-02 GABA                                                
    6.662  29% 6.8E-02 Glc                                                 
   14.081 658%   0.143 Gln                                                 
    0.000 999%   0.000 Glu                                                 
    0.000 999%   0.000 GPC                                                 
    8.742  98% 8.9E-02 PCh                                                 
    0.000 999%   0.000 GSH                                                 
    0.000 999%   0.000 Ins                                                 
    0.000 999%   0.000 Lac                                                 
   97.144  27%   0.985 NAA                                                 
    0.000 999%   0.000 NAAG                                                
    2.186  30% 2.2E-02 Scyllo                                              
   10.973  30%   0.111 Tau                                                 
    9.120  46% 9.2E-02 -CrCH2                                              
    8.742  98% 8.9E-02 GPC+PCh                                             
   97.144  27%   0.985 NAA+NAAG                                            
   98.597  23%   1.000 Cr+PCr                                              
   14.081 658%   0.143 Glu+Gln                                             
    0.000 999%   0.000 Lip13a                                              
    0.000 999%   0.000 Lip13b                                              
 7.70E-05 999% 7.8E-07 Lip09                                               
   21.050 170%   0.213 MM09                                                
 9.07E-06 999% 9.2E-08 Lip20                                               
    0.000 999%   0.000 MM20                                                
    0.000 999%   0.000 MM12                                                
    0.000 999%   0.000 MM14                                                
    9.914 573%   0.101 MM17                                                
    0.000 999%   0.000 Lip13a+Lip13b                                       
    0.000 999%   0.000 MM14+Lip13a+Lip13b+MM12                             
   21.050 170%   0.213 MM09+Lip09                                          
 9.07E-06 999% 9.2E-08 MM20+Lip20                                          
   6 lines in following misc. output table
  FWHM = 0.046 ppm    S/N =   1                                            
  Data shift =-0.015 ppm                                                   
  Ph:  98 deg       9.6 deg/ppm                                            
  alphaB,S = 4.6E-01,   7.0E+01                                            
   14 spline knots.   Ns = 5(1)                                            
   2 inflections.     1 extrema                                            
  498 points on ppm-axis = NY
      4.000000     3.992357     3.984714     3.977070     3.969427     3.961784     3.954141     3.946497     3.938854     3.931211
      3.923568     3.915925     3.908281     3.900638     3.892995     3.885352     3.877708     3.870065     3.862422     3.854779
      3.847136     3.839492     3.831849     3.824206     3.816563     3.808919     3.801276     3.793633     3.785990     3.778347
      3.770703     3.763060     3.755417     3.747774     3.740130     3.732487     3.724844     3.717201     3.709558     3.701914
      3.694271     3.686628     3.678985     3.671341     3.663698     3.656055     3.648412     3.640769     3.633125     3.625482
      3.617839     3.610196     3.602552     3.594909     3.587266     3.579623     3.571980     3.564336     3.556693     3.549050
      3.541407     3.533763     3.526120     3.518477     3.510834     3.503191     3.495547     3.487904     3.480261     3.472618
      3.464974     3.457331     3.449688     3.442045     3.434402     3.426758     3.419115     3.411472     3.403829     3.396185
      3.388542     3.380899     3.373256     3.365613     3.357969     3.350326     3.342683     3.335040     3.327396     3.319753
      3.312110     3.304467     3.296824     3.289180     3.281537     3.273894     3.266251     3.258607     3.250964     3.243321
      3.235678     3.228034     3.220391     3.212748     3.205105     3.197462     3.189818     3.182175     3.174532     3.166889
      3.159245     3.151602     3.143959     3.136316     3.128673     3.121029     3.113386     3.105743     3.098100     3.090456
      3.082813     3.075170     3.067527     3.059884     3.052240     3.044597     3.036954     3.029311     3.021667     3.014024
      3.006381     2.998738     2.991095     2.983451     2.975808     2.968165     2.960522     2.952878     2.945235     2.937592
      2.929949     2.922306     2.914662     2.907019     2.899376     2.891733     2.884089     2.876446     2.868803     2.861160
      2.853517     2.845873     2.838230     2.830587     2.822944     2.815300     2.807657     2.800014     2.792371     2.784728
      2.777084     2.769441     2.761798     2.754155     2.746511     2.738868     2.731225     2.723582     2.715939     2.708295
      2.700652     2.693009     2.685366     2.677722     2.670079     2.662436     2.654793     2.647150     2.639506     2.631863
      2.624220     2.616577     2.608933     2.601290     2.593647     2.586004     2.578361     2.570717     2.563074     2.555431
      2.547788     2.540144     2.532501     2.524858     2.517215     2.509572     2.501928     2.494285     2.486642     2.478999
      2.471355     2.463712     2.456069     2.448426     2.440783     2.433139     2.425496     2.417853     2.410210     2.402566
      2.394923     2.387280     2.379637     2.371994     2.364350     2.356707     2.349064     2.341421     2.333777     2.326134
      2.318491     2.310848     2.303205     2.295561     2.287918     2.280275     2.272632     2.264988     2.257345     2.249702
      2.242059     2.234416     2.226772     2.219129     2.211486     2.203843     2.196199     2.188556     2.180913     2.173270
      2.165627     2.157983     2.150340     2.142697     2.135054     2.127410     2.119767     2.112124     2.104481     2.096838
      2.089194     2.081551     2.073908     2.066265     2.058621     2.050978     2.043335     2.035692     2.028049     2.020405
      2.012762     2.005119     1.997476     1.989833     1.982190     1.974546     1.966903     1.959260     1.951617     1.943974
      1.936331     1.928688     1.921045     1.913402     1.905759     1.898115     1.890472     1.882829     1.875186     1.867543
      1.859900     1.852257     1.844614     1.836971     1.829327     1.821684     1.814041     1.806398     1.798755     1.791112
      1.783469     1.775826     1.768183     1.760540     1.752896     1.745253     1.737610     1.729967     1.722324     1.714681
      1.707038     1.699395     1.691752     1.684108     1.676465     1.668822     1.661179     1.653536     1.645893     1.638250
      1.630607     1.622964     1.615321     1.607677     1.600034     1.592391     1.584748     1.577105     1.569462     1.561819
      1.554176     1.546533     1.538890     1.531246     1.523603     1.515960     1.508317     1.500674     1.493031     1.485388
      1.477745     1.470102     1.462458     1.454815     1.447172     1.439529     1.431886     1.424243     1.416600     1.408957
      1.401314     1.393671     1.386027     1.378384     1.370741     1.363098     1.355455     1.347812     1.340169     1.332526
      1.324883     1.317240     1.309596     1.301953     1.294310     1.286667     1.279024     1.271381     1.263738     1.256095
      1.248452     1.240808     1.233165     1.225522     1.217879     1.210236     1.202593     1.194950     1.187307     1.179664
      1.172021     1.164377     1.156734     1.149091     1.141448     1.133805     1.126162     1.118519     1.110876     1.103233
      1.095590     1.087946     1.080303     1.072660     1.065017     1.057374     1.049731     1.042088     1.034445     1.026802
      1.019158     1.011515     1.003872     0.996229     0.988586     0.980943     0.973300     0.965657     0.958014     0.950371
      0.942727     0.935084     0.927441     0.919798     0.912155     0.904512     0.896869     0.889226     0.881583     0.873940
      0.866296     0.858653     0.851010     0.843367     0.835724     0.828081     0.820438     0.812795     0.805152     0.797508
      0.789865     0.782222     0.774579     0.766936     0.759293     0.751650     0.744007     0.736364     0.728721     0.721077
      0.713434     0.705791     0.698148     0.690505     0.682862     0.675219     0.667576     0.659933     0.652290     0.644646
      0.637003     0.629360     0.621717     0.614074     0.606431     0.598788     0.591145     0.583502     0.575858     0.568215
      0.560572     0.552929     0.545286     0.537643     0.530000     0.522357     0.514714     0.507071     0.499427     0.491784
      0.484141     0.476498     0.468855     0.461212     0.453569     0.445925     0.438282     0.430639     0.422996     0.415353
      0.407710     0.400067     0.392424     0.384780     0.377137     0.369494     0.361851     0.354208     0.346565     0.338922
      0.331278     0.323635     0.315992     0.308349     0.300706     0.293063     0.285420     0.277777     0.270133     0.262490
      0.254847     0.247204     0.239561     0.231918     0.224275     0.216631     0.208988     0.201345
 NY phased data points follow
   7.80693E+01  7.40831E+01  7.79104E+01  7.82668E+01  7.31602E+01  7.64389E+01  7.56740E+01  7.27762E+01  7.27065E+01  7.55629E+01
   7.05248E+01  6.95616E+01  6.67364E+01  6.92603E+01  6.61897E+01  6.33661E+01  6.33933E+01  5.95500E+01  6.31212E+01  6.38241E+01
   6.40750E+01  6.32119E+01  6.36628E+01  6.17483E+01  6.13692E+01  6.26293E+01  5.81377E+01  5.67997E+01  5.74242E+01  5.85351E+01
   5.95404E+01  6.04892E+01  5.37031E+01  5.85977E+01  5.69682E+01  5.38007E+01  5.30223E+01  5.85710E+01  5.63054E+01  5.40427E+01
   5.62537E+01  5.45181E+01  5.49285E+01  5.53209E+01  5.26879E+01  5.20777E+01  5.34588E+01  5.31992E+01  5.03148E+01  5.05776E+01
   4.82802E+01  4.92936E+01  5.01898E+01  5.05993E+01  4.74078E+01  4.96916E+01  4.90960E+01  4.47914E+01  4.83671E+01  4.33734E+01
   4.82175E+01  4.57967E+01  4.48406E+01  4.26232E+01  4.50083E+01  4.78043E+01  4.75984E+01  4.56587E+01  4.17403E+01  4.32766E+01
   4.45382E+01  4.24431E+01  4.15292E+01  4.11695E+01  4.12642E+01  4.26261E+01  4.32748E+01  3.97715E+01  4.10866E+01  3.98588E+01
   3.98491E+01  3.85353E+01  3.90813E+01  3.85337E+01  3.58087E+01  3.77991E+01  3.73427E+01  4.10023E+01  3.60591E+01  3.43980E+01
   3.56751E+01  3.83457E+01  3.92417E+01  3.75317E+01  3.53748E+01  3.54363E+01  3.40759E+01  3.51674E+01  3.27875E+01  3.38840E+01
   3.40879E+01  3.54048E+01  3.63398E+01  3.62984E+01  3.74764E+01  3.58154E+01  3.66059E+01  3.20884E+01  3.24263E+01  2.91025E+01
   3.32886E+01  3.32532E+01  3.34501E+01  3.69283E+01  3.51584E+01  3.26590E+01  3.33261E+01  3.30338E+01  3.53465E+01  2.98401E+01
   3.33986E+01  3.30433E+01  3.35233E+01  3.07277E+01  3.12716E+01  3.22027E+01  3.12303E+01  3.69344E+01  3.47468E+01  3.34748E+01
   3.10289E+01  3.08603E+01  3.01044E+01  2.94236E+01  2.79300E+01  2.87618E+01  2.92852E+01  2.96281E+01  3.23325E+01  2.86934E+01
   3.03598E+01  3.13659E+01  3.16315E+01  3.03478E+01  2.81679E+01  2.99337E+01  2.86925E+01  2.99813E+01  3.14948E+01  2.99838E+01
   2.63488E+01  2.89050E+01  2.49666E+01  2.94904E+01  2.90348E+01  3.05858E+01  3.27457E+01  2.82846E+01  2.57696E+01  2.96561E+01
   2.67712E+01  2.95338E+01  2.58187E+01  2.74434E+01  2.93825E+01  2.81317E+01  2.60588E+01  2.58452E+01  2.53979E+01  2.71111E+01
   2.62329E+01  2.89081E+01  2.84879E+01  2.88029E+01  2.44670E+01  2.63554E+01  2.74391E+01  2.24721E+01  2.71970E+01  2.53843E+01
   2.63170E+01  2.64115E+01  2.96852E+01  2.80582E+01  2.62327E+01  2.82055E+01  2.48571E+01  2.53490E+01  2.50042E+01  2.18950E+01
   2.56961E+01  2.48473E+01  2.48239E+01  2.12735E+01  2.26214E+01  2.05942E+01  2.28656E+01  2.16301E+01  2.23433E+01  2.39389E+01
   2.22835E+01  2.10541E+01  2.22270E+01  2.29673E+01  1.94395E+01  2.39864E+01  2.48974E+01  2.09674E+01  2.09066E+01  1.99887E+01
   2.20072E+01  2.31648E+01  2.52170E+01  1.86527E+01  2.04810E+01  2.19200E+01  2.12702E+01  2.44660E+01  2.39687E+01  2.02837E+01
   2.19973E+01  1.98510E+01  2.21398E+01  1.95681E+01  2.44310E+01  2.06623E+01  2.21558E+01  2.34722E+01  2.37754E+01  1.94101E+01
   2.10098E+01  1.77633E+01  1.99970E+01  1.94155E+01  1.99876E+01  1.81837E+01  2.28364E+01  1.95528E+01  2.08266E+01  1.89232E+01
   1.46952E+01  1.76210E+01  1.85882E+01  1.90539E+01  2.16930E+01  1.92594E+01  2.12602E+01  1.84310E+01  1.69732E+01  1.96251E+01
   1.81749E+01  1.88353E+01  1.81480E+01  1.81060E+01  1.51097E+01  1.93448E+01  2.28110E+01  1.89447E+01  2.17601E+01  2.32038E+01
   2.51564E+01  2.24957E+01  2.28133E+01  1.94858E+01  1.89272E+01  1.34726E+01  1.71251E+01  1.95818E+01  1.84923E+01  1.96519E+01
   2.21005E+01  2.21273E+01  2.05146E+01  1.85318E+01  1.89422E+01  1.63218E+01  2.12210E+01  1.85452E+01  1.61944E+01  2.04384E+01
   1.90677E+01  1.89634E+01  1.92345E+01  2.14205E+01  2.00402E+01  1.61957E+01  1.67888E+01  1.93717E+01  1.71921E+01  2.03255E+01
   1.57627E+01  1.79225E+01  1.75047E+01  1.71398E+01  1.41054E+01  1.49261E+01  1.54168E+01  1.76341E+01  1.65775E+01  1.76263E+01
   1.53294E+01  1.80041E+01  1.54856E+01  1.66604E+01  1.70843E+01  1.49637E+01  1.65819E+01  1.51969E+01  1.48961E+01  1.76273E+01
   1.71198E+01  1.67426E+01  1.54717E+01  1.68766E+01  1.63172E+01  1.69773E+01  1.45591E+01  1.60036E+01  1.65771E+01  1.71800E+01
   1.68641E+01  1.71670E+01  1.45281E+01  1.64431E+01  1.61434E+01  1.42124E+01  1.52051E+01  1.23489E+01  1.41586E+01  1.81502E+01
   1.56926E+01  1.36114E+01  1.49306E+01  1.32743E+01  1.45644E+01  1.50034E+01  1.37015E+01  1.63346E+01  1.26402E+01  1.44204E+01
   1.32178E+01  1.30049E+01  1.37485E+01  1.53299E+01  1.60473E+01  1.56124E+01  1.37875E+01  1.58523E+01  1.63192E+01  1.22744E+01
   1.30743E+01  1.58579E+01  1.43992E+01  1.06675E+01  1.30160E+01  1.27922E+01  1.24132E+01  1.03633E+01  1.11014E+01  1.25955E+01
   9.69186E+00  1.22986E+01  1.29413E+01  1.05773E+01  1.30730E+01  1.40793E+01  1.11486E+01  1.00663E+01  1.22167E+01  1.13303E+01
   1.40823E+01  1.39139E+01  1.14936E+01  1.44017E+01  1.09930E+01  1.22352E+01  1.37193E+01  1.11389E+01  1.16998E+01  1.17207E+01
   1.36279E+01  1.43303E+01  1.40559E+01  1.16695E+01  1.19937E+01  1.61402E+01  1.30663E+01  1.35922E+01  1.41558E+01  1.01802E+01
   1.22617E+01  1.31003E+01  1.21249E+01  1.41382E+01  1.47738E+01  1.12760E+01  1.28516E+01  9.72698E+00  1.06394E+01  1.15001E+01
   1.12791E+01  1.04200E+01  9.88467E+00  1.26739E+01  1.07084E+01  1.33044E+01  1.11601E+01  1.26863E+01  1.40743E+01  1.23769E+01
   1.39244E+01  1.36963E+01  8.16458E+00  1.14732E+01  1.09285E+01  1.07503E+01  1.37872E+01  9.69499E+00  1.19348E+01  1.25182E+01
   1.08590E+01  1.23748E+01  8.18498E+00  1.11345E+01  1.18421E+01  1.07712E+01  1.02271E+01  1.08474E+01  9.70445E+00  9.36686E+00
   9.26974E+00  8.84950E+00  9.90605E+00  8.43878E+00  1.14267E+01  1.09787E+01  9.83827E+00  1.21172E+01  1.02133E+01  9.45298E+00
   1.00791E+01  8.92544E+00  1.07321E+01  6.94456E+00  8.50887E+00  1.09756E+01  1.12819E+01  1.15793E+01  9.02036E+00  9.74290E+00
   9.89949E+00  8.75319E+00  1.07771E+01  7.19234E+00  5.60891E+00  7.65446E+00  6.46113E+00  8.53031E+00  3.66189E+00  9.39079E+00
   6.54103E+00  9.97222E+00  8.99963E+00  6.54117E+00  1.01949E+01  8.91909E+00  7.68342E+00  6.51889E+00  8.12158E+00  8.54873E+00
   5.28071E+00  5.32593E+00  6.20640E+00  7.78135E+00  9.31123E+00  7.01672E+00  8.04864E+00  7.33187E+00  5.42268E+00  8.05081E+00
   7.67955E+00  6.07615E+00  5.53589E+00  6.78105E+00  8.61277E+00  5.49646E+00  5.75657E+00  7.85258E+00  4.16356E+00  6.14146E+00
   7.40461E+00  7.01041E+00  5.73157E+00  6.90353E+00  5.98441E+00  8.61898E+00  5.10308E+00  5.66990E+00
 NY points of the fit to the data follow
   7.34831E+01  7.30092E+01  7.25546E+01  7.21817E+01  7.20076E+01  7.19779E+01  7.19735E+01  7.18931E+01  7.16515E+01  7.11881E+01
   7.04897E+01  6.96076E+01  6.86420E+01  6.77040E+01  6.68795E+01  6.62027E+01  6.56458E+01  6.51381E+01  6.46487E+01  6.41730E+01
   6.37094E+01  6.32522E+01  6.27939E+01  6.23297E+01  6.18573E+01  6.13770E+01  6.08935E+01  6.04155E+01  5.99503E+01  5.94986E+01
   5.90566E+01  5.86186E+01  5.81780E+01  5.77299E+01  5.72758E+01  5.68193E+01  5.63641E+01  5.59143E+01  5.54711E+01  5.50349E+01
   5.46032E+01  5.41731E+01  5.37440E+01  5.33168E+01  5.28929E+01  5.24744E+01  5.20615E+01  5.16536E+01  5.12512E+01  5.08537E+01
   5.04603E+01  5.00707E+01  4.96839E+01  4.92986E+01  4.89145E+01  4.85317E+01  4.81509E+01  4.77729E+01  4.73989E+01  4.70299E+01
   4.66666E+01  4.63096E+01  4.59586E+01  4.56115E+01  4.52678E+01  4.49258E+01  4.45840E+01  4.42430E+01  4.39041E+01  4.35689E+01
   4.32424E+01  4.29299E+01  4.26288E+01  4.23336E+01  4.20383E+01  4.17375E+01  4.14291E+01  4.11154E+01  4.08022E+01  4.04954E+01
   4.02018E+01  3.99319E+01  3.96874E+01  3.94560E+01  3.92249E+01  3.89855E+01  3.87335E+01  3.84687E+01  3.81930E+01  3.79103E+01
   3.76269E+01  3.73500E+01  3.70856E+01  3.68385E+01  3.66107E+01  3.63988E+01  3.62011E+01  3.60220E+01  3.58939E+01  3.58543E+01
   3.58649E+01  3.58747E+01  3.58431E+01  3.57389E+01  3.55410E+01  3.52483E+01  3.48860E+01  3.44980E+01  3.41323E+01  3.38237E+01
   3.35823E+01  3.33894E+01  3.32145E+01  3.30474E+01  3.28860E+01  3.27292E+01  3.25763E+01  3.24288E+01  3.22880E+01  3.21596E+01
   3.20676E+01  3.21407E+01  3.25612E+01  3.32151E+01  3.39059E+01  3.44634E+01  3.47454E+01  3.46520E+01  3.41647E+01  3.33735E+01
   3.24496E+01  3.15835E+01  3.09165E+01  3.04993E+01  3.02713E+01  3.01123E+01  2.99756E+01  2.98494E+01  2.97286E+01  2.96106E+01
   2.94949E+01  2.93822E+01  2.92727E+01  2.91652E+01  2.90586E+01  2.89520E+01  2.88449E+01  2.87362E+01  2.86262E+01  2.85158E+01
   2.84069E+01  2.83009E+01  2.81979E+01  2.80972E+01  2.79972E+01  2.78943E+01  2.77812E+01  2.76578E+01  2.75305E+01  2.74073E+01
   2.72984E+01  2.72039E+01  2.71202E+01  2.70425E+01  2.69639E+01  2.68768E+01  2.67766E+01  2.66631E+01  2.65415E+01  2.64194E+01
   2.63004E+01  2.61806E+01  2.60584E+01  2.59407E+01  2.58324E+01  2.57343E+01  2.56401E+01  2.55473E+01  2.54566E+01  2.53668E+01
   2.52761E+01  2.51813E+01  2.50782E+01  2.49736E+01  2.48785E+01  2.47953E+01  2.47202E+01  2.46488E+01  2.45775E+01  2.45043E+01
   2.44267E+01  2.43425E+01  2.42533E+01  2.41569E+01  2.40529E+01  2.39445E+01  2.38332E+01  2.37192E+01  2.36075E+01  2.35070E+01
   2.34199E+01  2.33435E+01  2.32704E+01  2.31909E+01  2.30935E+01  2.29678E+01  2.28176E+01  2.26562E+01  2.24914E+01  2.23356E+01
   2.22012E+01  2.20923E+01  2.20053E+01  2.19339E+01  2.18718E+01  2.18123E+01  2.17500E+01  2.16818E+01  2.16096E+01  2.15356E+01
   2.14611E+01  2.13877E+01  2.13141E+01  2.12373E+01  2.11546E+01  2.10641E+01  2.09657E+01  2.08633E+01  2.07636E+01  2.06717E+01
   2.05891E+01  2.05125E+01  2.04401E+01  2.03719E+01  2.03080E+01  2.02487E+01  2.01956E+01  2.01480E+01  2.01009E+01  2.00500E+01
   1.99911E+01  1.99207E+01  1.98390E+01  1.97511E+01  1.96643E+01  1.95849E+01  1.95175E+01  1.94632E+01  1.94193E+01  1.93815E+01
   1.93457E+01  1.93099E+01  1.92737E+01  1.92435E+01  1.92589E+01  1.95034E+01  2.00833E+01  2.08360E+01  2.15768E+01  2.21462E+01
   2.24117E+01  2.22915E+01  2.17968E+01  2.10442E+01  2.02140E+01  1.94839E+01  1.89704E+01  1.86935E+01  1.85610E+01  1.84706E+01
   1.83956E+01  1.83304E+01  1.82727E+01  1.82199E+01  1.81693E+01  1.81185E+01  1.80659E+01  1.80104E+01  1.79521E+01  1.78917E+01
   1.78305E+01  1.77700E+01  1.77116E+01  1.76558E+01  1.76022E+01  1.75505E+01  1.74998E+01  1.74493E+01  1.73983E+01  1.73464E+01
   1.72934E+01  1.72397E+01  1.71854E+01  1.71310E+01  1.70765E+01  1.70221E+01  1.69679E+01  1.69138E+01  1.68597E+01  1.68054E+01
   1.67508E+01  1.66957E+01  1.66401E+01  1.65840E+01  1.65272E+01  1.64698E+01  1.64118E+01  1.63532E+01  1.62941E+01  1.62343E+01
   1.61741E+01  1.61135E+01  1.60525E+01  1.59913E+01  1.59300E+01  1.58687E+01  1.58075E+01  1.57466E+01  1.56864E+01  1.56272E+01
   1.55699E+01  1.55167E+01  1.54713E+01  1.54287E+01  1.53781E+01  1.53140E+01  1.52346E+01  1.51403E+01  1.50340E+01  1.49212E+01
   1.48159E+01  1.47345E+01  1.46814E+01  1.46523E+01  1.46377E+01  1.46252E+01  1.46048E+01  1.45709E+01  1.45212E+01  1.44577E+01
   1.43856E+01  1.43118E+01  1.42420E+01  1.41775E+01  1.41160E+01  1.40564E+01  1.39982E+01  1.39410E+01  1.38848E+01  1.38294E+01
   1.37748E+01  1.37209E+01  1.36678E+01  1.36154E+01  1.35637E+01  1.35128E+01  1.34626E+01  1.34132E+01  1.33646E+01  1.33168E+01
   1.32699E+01  1.32237E+01  1.31784E+01  1.31340E+01  1.30904E+01  1.30476E+01  1.30055E+01  1.29641E+01  1.29234E+01  1.28833E+01
   1.28439E+01  1.28051E+01  1.27668E+01  1.27290E+01  1.26918E+01  1.26551E+01  1.26189E+01  1.25832E+01  1.25479E+01  1.25131E+01
   1.24788E+01  1.24449E+01  1.24115E+01  1.23786E+01  1.23462E+01  1.23143E+01  1.22829E+01  1.22520E+01  1.22217E+01  1.21918E+01
   1.21623E+01  1.21332E+01  1.21044E+01  1.20758E+01  1.20471E+01  1.20183E+01  1.19891E+01  1.19593E+01  1.19287E+01  1.18970E+01
   1.18640E+01  1.18294E+01  1.17931E+01  1.17548E+01  1.17144E+01  1.16718E+01  1.16269E+01  1.15798E+01  1.15305E+01  1.14791E+01
   1.14258E+01  1.13708E+01  1.13144E+01  1.12566E+01  1.11979E+01  1.11382E+01  1.10780E+01  1.10172E+01  1.09561E+01  1.08948E+01
   1.08333E+01  1.07717E+01  1.07101E+01  1.06485E+01  1.05869E+01  1.05253E+01  1.04636E+01  1.04019E+01  1.03401E+01  1.02782E+01
   1.02161E+01  1.01540E+01  1.00917E+01  1.00292E+01  9.96651E+00  9.90365E+00  9.84059E+00  9.77733E+00  9.71388E+00  9.65022E+00
   9.58638E+00  9.52235E+00  9.45815E+00  9.39378E+00  9.32925E+00  9.26458E+00  9.19977E+00  9.13484E+00  9.06980E+00  9.00467E+00
   8.93946E+00  8.87418E+00  8.80885E+00  8.74348E+00  8.67808E+00  8.61264E+00  8.54717E+00  8.48167E+00  8.41615E+00  8.35061E+00
   8.28505E+00  8.21948E+00  8.15390E+00  8.08832E+00  8.02274E+00  7.95715E+00  7.89157E+00  7.82601E+00  7.76045E+00  7.69492E+00
   7.62941E+00  7.56392E+00  7.49846E+00  7.43304E+00  7.36766E+00  7.30232E+00  7.23703E+00  7.17179E+00  7.10660E+00  7.04148E+00
   6.97642E+00  6.91142E+00  6.84650E+00  6.78166E+00  6.71689E+00  6.65222E+00  6.58763E+00  6.52313E+00  6.45873E+00  6.39444E+00
   6.33025E+00  6.26617E+00  6.20221E+00  6.13836E+00  6.07464E+00  6.01105E+00  5.94758E+00  5.88426E+00
 NY background values follow
     7.342E+01    7.293E+01    7.243E+01    7.194E+01    7.145E+01    7.096E+01    7.047E+01    6.998E+01    6.949E+01    6.900E+01
     6.851E+01    6.802E+01    6.753E+01    6.705E+01    6.656E+01    6.608E+01    6.560E+01    6.512E+01    6.464E+01    6.416E+01
     6.368E+01    6.321E+01    6.273E+01    6.226E+01    6.179E+01    6.133E+01    6.086E+01    6.040E+01    5.993E+01    5.947E+01
     5.902E+01    5.856E+01    5.811E+01    5.766E+01    5.721E+01    5.677E+01    5.632E+01    5.588E+01    5.545E+01    5.501E+01
     5.458E+01    5.415E+01    5.373E+01    5.330E+01    5.288E+01    5.247E+01    5.205E+01    5.164E+01    5.124E+01    5.084E+01
     5.044E+01    5.004E+01    4.965E+01    4.926E+01    4.887E+01    4.849E+01    4.811E+01    4.774E+01    4.737E+01    4.700E+01
     4.664E+01    4.628E+01    4.592E+01    4.557E+01    4.522E+01    4.487E+01    4.453E+01    4.419E+01    4.386E+01    4.353E+01
     4.320E+01    4.288E+01    4.256E+01    4.225E+01    4.194E+01    4.163E+01    4.133E+01    4.103E+01    4.074E+01    4.044E+01
     4.016E+01    3.988E+01    3.960E+01    3.933E+01    3.906E+01    3.879E+01    3.853E+01    3.827E+01    3.802E+01    3.777E+01
     3.753E+01    3.729E+01    3.706E+01    3.682E+01    3.660E+01    3.638E+01    3.616E+01    3.594E+01    3.573E+01    3.553E+01
     3.532E+01    3.512E+01    3.493E+01    3.474E+01    3.455E+01    3.436E+01    3.418E+01    3.400E+01    3.383E+01    3.366E+01
     3.349E+01    3.332E+01    3.316E+01    3.300E+01    3.284E+01    3.268E+01    3.253E+01    3.238E+01    3.223E+01    3.209E+01
     3.195E+01    3.181E+01    3.167E+01    3.153E+01    3.140E+01    3.126E+01    3.113E+01    3.100E+01    3.088E+01    3.075E+01
     3.063E+01    3.051E+01    3.039E+01    3.027E+01    3.015E+01    3.003E+01    2.992E+01    2.980E+01    2.969E+01    2.957E+01
     2.946E+01    2.935E+01    2.924E+01    2.913E+01    2.903E+01    2.892E+01    2.881E+01    2.871E+01    2.860E+01    2.850E+01
     2.839E+01    2.829E+01    2.819E+01    2.809E+01    2.799E+01    2.788E+01    2.778E+01    2.768E+01    2.758E+01    2.748E+01
     2.738E+01    2.729E+01    2.719E+01    2.709E+01    2.699E+01    2.689E+01    2.679E+01    2.670E+01    2.660E+01    2.650E+01
     2.640E+01    2.630E+01    2.620E+01    2.611E+01    2.601E+01    2.591E+01    2.581E+01    2.571E+01    2.561E+01    2.551E+01
     2.541E+01    2.531E+01    2.520E+01    2.510E+01    2.500E+01    2.490E+01    2.479E+01    2.469E+01    2.459E+01    2.448E+01
     2.438E+01    2.427E+01    2.417E+01    2.407E+01    2.396E+01    2.386E+01    2.375E+01    2.365E+01    2.355E+01    2.344E+01
     2.334E+01    2.324E+01    2.314E+01    2.304E+01    2.293E+01    2.283E+01    2.273E+01    2.263E+01    2.253E+01    2.244E+01
     2.234E+01    2.224E+01    2.215E+01    2.205E+01    2.196E+01    2.186E+01    2.177E+01    2.168E+01    2.159E+01    2.150E+01
     2.141E+01    2.133E+01    2.124E+01    2.116E+01    2.107E+01    2.099E+01    2.091E+01    2.083E+01    2.076E+01    2.068E+01
     2.061E+01    2.053E+01    2.046E+01    2.039E+01    2.032E+01    2.025E+01    2.019E+01    2.012E+01    2.005E+01    1.999E+01
     1.993E+01    1.986E+01    1.980E+01    1.974E+01    1.968E+01    1.962E+01    1.956E+01    1.951E+01    1.945E+01    1.939E+01
     1.934E+01    1.928E+01    1.923E+01    1.918E+01    1.912E+01    1.907E+01    1.902E+01    1.896E+01    1.891E+01    1.886E+01
     1.881E+01    1.876E+01    1.871E+01    1.865E+01    1.860E+01    1.855E+01    1.850E+01    1.845E+01    1.840E+01    1.835E+01
     1.830E+01    1.825E+01    1.820E+01    1.814E+01    1.809E+01    1.804E+01    1.799E+01    1.793E+01    1.788E+01    1.783E+01
     1.778E+01    1.772E+01    1.767E+01    1.762E+01    1.756E+01    1.751E+01    1.745E+01    1.740E+01    1.734E+01    1.729E+01
     1.723E+01    1.718E+01    1.712E+01    1.707E+01    1.701E+01    1.696E+01    1.690E+01    1.684E+01    1.679E+01    1.673E+01
     1.667E+01    1.662E+01    1.656E+01    1.650E+01    1.644E+01    1.639E+01    1.633E+01    1.627E+01    1.621E+01    1.615E+01
     1.609E+01    1.604E+01    1.598E+01    1.592E+01    1.586E+01    1.580E+01    1.574E+01    1.568E+01    1.562E+01    1.556E+01
     1.550E+01    1.544E+01    1.538E+01    1.532E+01    1.526E+01    1.520E+01    1.513E+01    1.507E+01    1.501E+01    1.495E+01
     1.489E+01    1.483E+01    1.477E+01    1.471E+01    1.465E+01    1.459E+01    1.454E+01    1.448E+01    1.442E+01    1.436E+01
     1.430E+01    1.424E+01    1.419E+01    1.413E+01    1.407E+01    1.402E+01    1.396E+01    1.391E+01    1.385E+01    1.380E+01
     1.374E+01    1.369E+01    1.364E+01    1.359E+01    1.354E+01    1.349E+01    1.344E+01    1.339E+01    1.334E+01    1.329E+01
     1.324E+01    1.320E+01    1.315E+01    1.311E+01    1.307E+01    1.302E+01    1.298E+01    1.294E+01    1.290E+01    1.286E+01
     1.282E+01    1.278E+01    1.274E+01    1.270E+01    1.266E+01    1.263E+01    1.259E+01    1.255E+01    1.252E+01    1.248E+01
     1.244E+01    1.241E+01    1.237E+01    1.233E+01    1.230E+01    1.226E+01    1.223E+01    1.219E+01    1.215E+01    1.212E+01
     1.208E+01    1.205E+01    1.201E+01    1.197E+01    1.193E+01    1.190E+01    1.186E+01    1.182E+01    1.178E+01    1.174E+01
     1.170E+01    1.166E+01    1.162E+01    1.158E+01    1.153E+01    1.149E+01    1.144E+01    1.140E+01    1.135E+01    1.131E+01
     1.126E+01    1.121E+01    1.116E+01    1.111E+01    1.106E+01    1.101E+01    1.096E+01    1.091E+01    1.085E+01    1.080E+01
     1.075E+01    1.069E+01    1.064E+01    1.058E+01    1.052E+01    1.047E+01    1.041E+01    1.035E+01    1.029E+01    1.023E+01
     1.017E+01    1.011E+01    1.005E+01    9.993E+00    9.932E+00    9.871E+00    9.809E+00    9.747E+00    9.684E+00    9.622E+00
     9.559E+00    9.495E+00    9.432E+00    9.368E+00    9.304E+00    9.240E+00    9.176E+00    9.112E+00    9.047E+00    8.982E+00
     8.918E+00    8.853E+00    8.788E+00    8.723E+00    8.658E+00    8.593E+00    8.527E+00    8.462E+00    8.397E+00    8.332E+00
     8.266E+00    8.201E+00    8.136E+00    8.070E+00    8.005E+00    7.940E+00    7.874E+00    7.809E+00    7.744E+00    7.678E+00
     7.613E+00    7.548E+00    7.482E+00    7.417E+00    7.352E+00    7.287E+00    7.222E+00    7.157E+00    7.091E+00    7.026E+00
     6.962E+00    6.897E+00    6.832E+00    6.767E+00    6.703E+00    6.638E+00    6.574E+00    6.509E+00    6.445E+00    6.381E+00
     6.317E+00    6.253E+00    6.189E+00    6.125E+00    6.062E+00    5.998E+00    5.935E+00    5.872E+00
 Ala      Conc. = 7.89E+00
