 LCModel (Version 6.3-1L) Copyright: S.W. Provencher.          Ref.: Magn. Reson. Med. 30:672-679 (1993).                
 Slice#3 Row#7 Col#8  PD_24_press_1_raw_act
 36 lines in following concentration table = NCONC+1
    Conc.  %SD /Cr+PCr  Metabolite                                         
   67.633 156% 4.4E-02 Ala                                                 
  150.797 137% 9.8E-02 Asp                                                 
  327.889  64%   0.212 Cr                                                  
 1.22E+03  18%   0.788 PCr                                                 
    0.000 999%   0.000 GABA                                                
    5.214 999% 3.4E-03 Glc                                                 
  621.295  34%   0.402 Gln                                                 
 1.01E+03  23%   0.651 Glu                                                 
  580.737   4%   0.376 GPC                                                 
    0.000 999%   0.000 PCh                                                 
  293.004  24%   0.190 GSH                                                 
  178.328 141%   0.115 Ins                                                 
  240.387  62%   0.156 Lac                                                 
 1.53E+03   6%   0.989 NAA                                                 
  132.486  70% 8.6E-02 NAAG                                                
   42.381  62% 2.7E-02 Scyllo                                              
    0.000 999%   0.000 Tau                                                 
    0.000 999%   0.000 -CrCH2                                              
  580.737   4%   0.376 GPC+PCh                                             
 1.66E+03   5%   1.075 NAA+NAAG                                            
 1.54E+03   4%   1.000 Cr+PCr                                              
 1.63E+03  20%   1.054 Glu+Gln                                             
 2.92E+03  32%   1.889 Lip13a                                              
  739.393  32%   0.479 Lip13b                                              
  280.111 140%   0.181 Lip09                                               
  868.295  40%   0.562 MM09                                                
  705.670  40%   0.457 Lip20                                               
 1.63E+03  28%   1.058 MM20                                                
  287.795  62%   0.186 MM12                                                
 1.74E+03  26%   1.126 MM14                                                
  884.077  32%   0.573 MM17                                                
 3.66E+03  23%   2.368 Lip13a+Lip13b                                       
 5.68E+03  13%   3.680 MM14+Lip13a+Lip13b+MM12                             
 1.15E+03  22%   0.744 MM09+Lip09                                          
 2.34E+03  18%   1.515 MM20+Lip20                                          
   6 lines in following misc. output table
  FWHM = 0.061 ppm    S/N =   9                                            
  Data shift = 0.000 ppm                                                   
  Ph: -35 deg      -2.2 deg/ppm                                            
  alphaB,S = 7.2E-01,   1.0E+02                                            
   14 spline knots.   Ns = 6(1)                                            
  (10) 4 infls.   ( 4) 1 extrs.                                            
  498 points on ppm-axis = NY
      4.000000     3.992357     3.984714     3.977070     3.969427     3.961784     3.954141     3.946497     3.938854     3.931211
      3.923568     3.915925     3.908281     3.900638     3.892995     3.885352     3.877708     3.870065     3.862422     3.854779
      3.847136     3.839492     3.831849     3.824206     3.816563     3.808919     3.801276     3.793633     3.785990     3.778347
      3.770703     3.763060     3.755417     3.747774     3.740130     3.732487     3.724844     3.717201     3.709558     3.701914
      3.694271     3.686628     3.678985     3.671341     3.663698     3.656055     3.648412     3.640769     3.633125     3.625482
      3.617839     3.610196     3.602552     3.594909     3.587266     3.579623     3.571980     3.564336     3.556693     3.549050
      3.541407     3.533763     3.526120     3.518477     3.510834     3.503191     3.495547     3.487904     3.480261     3.472618
      3.464974     3.457331     3.449688     3.442045     3.434402     3.426758     3.419115     3.411472     3.403829     3.396185
      3.388542     3.380899     3.373256     3.365613     3.357969     3.350326     3.342683     3.335040     3.327396     3.319753
      3.312110     3.304467     3.296824     3.289180     3.281537     3.273894     3.266251     3.258607     3.250964     3.243321
      3.235678     3.228034     3.220391     3.212748     3.205105     3.197462     3.189818     3.182175     3.174532     3.166889
      3.159245     3.151602     3.143959     3.136316     3.128673     3.121029     3.113386     3.105743     3.098100     3.090456
      3.082813     3.075170     3.067527     3.059884     3.052240     3.044597     3.036954     3.029311     3.021667     3.014024
      3.006381     2.998738     2.991095     2.983451     2.975808     2.968165     2.960522     2.952878     2.945235     2.937592
      2.929949     2.922306     2.914662     2.907019     2.899376     2.891733     2.884089     2.876446     2.868803     2.861160
      2.853517     2.845873     2.838230     2.830587     2.822944     2.815300     2.807657     2.800014     2.792371     2.784728
      2.777084     2.769441     2.761798     2.754155     2.746511     2.738868     2.731225     2.723582     2.715939     2.708295
      2.700652     2.693009     2.685366     2.677722     2.670079     2.662436     2.654793     2.647150     2.639506     2.631863
      2.624220     2.616577     2.608933     2.601290     2.593647     2.586004     2.578361     2.570717     2.563074     2.555431
      2.547788     2.540144     2.532501     2.524858     2.517215     2.509572     2.501928     2.494285     2.486642     2.478999
      2.471355     2.463712     2.456069     2.448426     2.440783     2.433139     2.425496     2.417853     2.410210     2.402566
      2.394923     2.387280     2.379637     2.371994     2.364350     2.356707     2.349064     2.341421     2.333777     2.326134
      2.318491     2.310848     2.303205     2.295561     2.287918     2.280275     2.272632     2.264988     2.257345     2.249702
      2.242059     2.234416     2.226772     2.219129     2.211486     2.203843     2.196199     2.188556     2.180913     2.173270
      2.165627     2.157983     2.150340     2.142697     2.135054     2.127410     2.119767     2.112124     2.104481     2.096838
      2.089194     2.081551     2.073908     2.066265     2.058621     2.050978     2.043335     2.035692     2.028049     2.020405
      2.012762     2.005119     1.997476     1.989833     1.982190     1.974546     1.966903     1.959260     1.951617     1.943974
      1.936331     1.928688     1.921045     1.913402     1.905759     1.898115     1.890472     1.882829     1.875186     1.867543
      1.859900     1.852257     1.844614     1.836971     1.829327     1.821684     1.814041     1.806398     1.798755     1.791112
      1.783469     1.775826     1.768183     1.760540     1.752896     1.745253     1.737610     1.729967     1.722324     1.714681
      1.707038     1.699395     1.691752     1.684108     1.676465     1.668822     1.661179     1.653536     1.645893     1.638250
      1.630607     1.622964     1.615321     1.607677     1.600034     1.592391     1.584748     1.577105     1.569462     1.561819
      1.554176     1.546533     1.538890     1.531246     1.523603     1.515960     1.508317     1.500674     1.493031     1.485388
      1.477745     1.470102     1.462458     1.454815     1.447172     1.439529     1.431886     1.424243     1.416600     1.408957
      1.401314     1.393671     1.386027     1.378384     1.370741     1.363098     1.355455     1.347812     1.340169     1.332526
      1.324883     1.317240     1.309596     1.301953     1.294310     1.286667     1.279024     1.271381     1.263738     1.256095
      1.248452     1.240808     1.233165     1.225522     1.217879     1.210236     1.202593     1.194950     1.187307     1.179664
      1.172021     1.164377     1.156734     1.149091     1.141448     1.133805     1.126162     1.118519     1.110876     1.103233
      1.095590     1.087946     1.080303     1.072660     1.065017     1.057374     1.049731     1.042088     1.034445     1.026802
      1.019158     1.011515     1.003872     0.996229     0.988586     0.980943     0.973300     0.965657     0.958014     0.950371
      0.942727     0.935084     0.927441     0.919798     0.912155     0.904512     0.896869     0.889226     0.881583     0.873940
      0.866296     0.858653     0.851010     0.843367     0.835724     0.828081     0.820438     0.812795     0.805152     0.797508
      0.789865     0.782222     0.774579     0.766936     0.759293     0.751650     0.744007     0.736364     0.728721     0.721077
      0.713434     0.705791     0.698148     0.690505     0.682862     0.675219     0.667576     0.659933     0.652290     0.644646
      0.637003     0.629360     0.621717     0.614074     0.606431     0.598788     0.591145     0.583502     0.575858     0.568215
      0.560572     0.552929     0.545286     0.537643     0.530000     0.522357     0.514714     0.507071     0.499427     0.491784
      0.484141     0.476498     0.468855     0.461212     0.453569     0.445925     0.438282     0.430639     0.422996     0.415353
      0.407710     0.400067     0.392424     0.384780     0.377137     0.369494     0.361851     0.354208     0.346565     0.338922
      0.331278     0.323635     0.315992     0.308349     0.300706     0.293063     0.285420     0.277777     0.270133     0.262490
      0.254847     0.247204     0.239561     0.231918     0.224275     0.216631     0.208988     0.201345
 NY phased data points follow
   1.11332E+02  1.07886E+02  1.07563E+02  1.05252E+02  1.06915E+02  1.10788E+02  1.07821E+02  1.21094E+02  1.21650E+02  1.33418E+02
   1.32596E+02  1.37422E+02  1.29276E+02  1.32006E+02  1.20670E+02  1.19191E+02  1.08804E+02  1.02758E+02  9.55429E+01  9.67189E+01
   8.97141E+01  9.04188E+01  8.48438E+01  9.02452E+01  8.32602E+01  8.57013E+01  8.82024E+01  8.44403E+01  8.68746E+01  8.93854E+01
   9.05591E+01  8.53620E+01  9.13859E+01  8.30828E+01  8.64034E+01  7.93574E+01  7.62944E+01  7.81003E+01  7.70605E+01  7.38762E+01
   7.49946E+01  7.45287E+01  6.64134E+01  7.52930E+01  7.19624E+01  7.35394E+01  7.18068E+01  7.72001E+01  7.18360E+01  7.35781E+01
   7.12128E+01  6.86537E+01  6.52126E+01  6.23747E+01  6.32601E+01  6.53336E+01  6.34577E+01  6.24377E+01  6.36349E+01  6.18664E+01
   6.14652E+01  6.55468E+01  5.38553E+01  5.39872E+01  5.06057E+01  5.16000E+01  4.61477E+01  5.12109E+01  4.23640E+01  4.31734E+01
   4.38737E+01  4.48585E+01  4.69657E+01  4.90380E+01  5.03831E+01  4.85796E+01  4.93563E+01  4.68054E+01  4.63891E+01  4.66888E+01
   4.45047E+01  4.36518E+01  4.30184E+01  4.62698E+01  4.62509E+01  4.38805E+01  4.07320E+01  4.35879E+01  4.21050E+01  4.25980E+01
   4.90965E+01  3.87739E+01  4.18395E+01  4.40703E+01  4.14697E+01  4.02963E+01  3.69178E+01  3.32981E+01  3.55774E+01  3.95695E+01
   5.12294E+01  6.64152E+01  8.44958E+01  9.33132E+01  9.06601E+01  8.36582E+01  7.93656E+01  7.53158E+01  6.74429E+01  5.63206E+01
   5.63742E+01  4.11281E+01  3.88348E+01  3.92781E+01  3.84242E+01  3.40904E+01  3.65470E+01  3.15682E+01  3.23731E+01  2.85773E+01
   2.74793E+01  2.53423E+01  2.97809E+01  3.97651E+01  4.48823E+01  5.56585E+01  6.76933E+01  8.02552E+01  7.45038E+01  7.61577E+01
   6.46392E+01  6.24176E+01  5.88719E+01  4.80880E+01  4.41937E+01  3.96201E+01  3.84771E+01  3.42770E+01  3.00840E+01  2.94253E+01
   2.66202E+01  2.89262E+01  2.61453E+01  2.13545E+01  2.05848E+01  2.44761E+01  2.53756E+01  2.72343E+01  2.32037E+01  2.67918E+01
   2.25578E+01  3.02570E+01  2.03942E+01  2.46903E+01  2.17799E+01  2.17413E+01  1.87110E+01  1.94764E+01  2.51449E+01  2.19537E+01
   1.84339E+01  2.17803E+01  1.90343E+01  1.58964E+01  2.15601E+01  1.99751E+01  1.87666E+01  1.84173E+01  2.07038E+01  2.11648E+01
   2.23449E+01  1.53238E+01  1.51302E+01  1.40408E+01  1.18950E+01  9.55180E+00  1.43135E+01  1.26727E+01  1.60000E+01  1.75718E+01
   1.41101E+01  1.15979E+01  9.14349E+00  1.19952E+01  1.17288E+01  1.59677E+01  1.13800E+01  1.25878E+01  1.37509E+01  1.97879E+01
   1.47915E+01  2.20564E+01  1.75236E+01  1.75775E+01  2.34067E+01  2.44977E+01  2.18752E+01  1.82972E+01  1.63012E+01  1.73904E+01
   1.40827E+01  1.54484E+01  2.16584E+01  2.26271E+01  2.21213E+01  1.91249E+01  1.90404E+01  1.83464E+01  1.19445E+01  1.53362E+01
   1.50072E+01  1.16031E+01  1.03486E+01  1.55548E+01  1.88337E+01  3.06689E+01  2.37638E+01  3.33769E+01  2.61373E+01  2.45015E+01
   2.31871E+01  1.53303E+01  1.66263E+01  1.66776E+01  1.80049E+01  2.10403E+01  1.82889E+01  2.44043E+01  1.88757E+01  2.02145E+01
   2.39143E+01  1.83201E+01  2.24037E+01  2.30212E+01  2.34570E+01  2.43742E+01  1.96385E+01  2.22550E+01  2.18279E+01  1.77555E+01
   2.19755E+01  1.72413E+01  1.26024E+01  1.93803E+01  2.11759E+01  1.69995E+01  2.31016E+01  2.51066E+01  1.83361E+01  2.50465E+01
   2.04973E+01  1.92978E+01  2.08763E+01  2.93052E+01  3.01529E+01  2.84524E+01  2.96996E+01  3.44396E+01  4.98773E+01  6.59289E+01
   8.26064E+01  7.99967E+01  6.55413E+01  5.78354E+01  5.13166E+01  4.50134E+01  4.16032E+01  3.28725E+01  2.38840E+01  2.16607E+01
   2.23564E+01  1.85607E+01  1.69318E+01  1.13439E+01  1.50904E+01  1.27995E+01  1.34895E+01  1.83905E+01  1.32852E+01  1.34386E+01
   1.27710E+01  1.04571E+01  1.04368E+01  1.79801E+01  1.06702E+01  1.26475E+01  1.35126E+01  1.45318E+01  9.75222E+00  1.53105E+01
   6.71527E+00  1.34901E+01  1.56076E+01  9.20374E+00  1.27700E+01  1.56419E+01  1.65114E+01  1.24665E+01  1.04726E+01  1.21392E+01
   1.31752E+01  1.29493E+01  1.76946E+01  1.99265E+01  1.25406E+01  1.21953E+01  1.70260E+01  1.51881E+01  1.69410E+01  1.75888E+01
   1.57827E+01  1.92232E+01  1.82627E+01  2.28476E+01  2.90236E+01  1.87393E+01  1.71182E+01  2.09630E+01  1.60574E+01  1.70870E+01
   2.02438E+01  2.12571E+01  2.40898E+01  2.72342E+01  1.83354E+01  2.15229E+01  2.22459E+01  2.48123E+01  2.07655E+01  1.87978E+01
   2.30959E+01  2.03874E+01  2.14378E+01  2.18733E+01  2.21946E+01  2.43192E+01  2.29657E+01  2.01138E+01  2.15667E+01  2.61502E+01
   2.24757E+01  2.52294E+01  2.66822E+01  2.57969E+01  2.36062E+01  3.21855E+01  3.74033E+01  2.93700E+01  2.74874E+01  3.09029E+01
   3.37311E+01  3.51780E+01  3.29974E+01  2.69155E+01  3.11582E+01  3.09529E+01  2.89214E+01  3.64642E+01  3.19605E+01  3.20024E+01
   2.77759E+01  2.14807E+01  2.17412E+01  1.93344E+01  1.99990E+01  2.31756E+01  1.84089E+01  1.99877E+01  2.08570E+01  1.75562E+01
   2.17177E+01  1.50881E+01  9.92842E+00  1.65145E+01  1.65553E+01  2.03219E+01  1.34786E+01  1.93233E+01  2.04729E+01  1.38669E+01
   1.07143E+01  1.24683E+01  1.20076E+01  1.47850E+01  1.30375E+01  1.17148E+01  1.25444E+01  1.13225E+01  1.15199E+01  1.09026E+01
   7.69295E+00  1.19231E+01  1.07695E+01  9.88103E+00  1.52842E+01  7.08416E+00  1.42228E+01  1.32976E+01  1.47685E+01  1.29312E+01
   1.78666E+01  8.72855E+00  1.14736E+01  1.36373E+01  1.50169E+01  1.68036E+01  1.19293E+01  1.52676E+01  1.52944E+01  1.65247E+01
   1.19789E+01  1.66993E+01  1.63124E+01  9.94513E+00  7.36360E+00  1.01614E+01  1.33063E+01  1.62178E+01  1.18069E+01  9.15004E+00
   8.94557E+00  1.16488E+01  8.13433E+00  1.06997E+01  1.12545E+01  7.97319E+00  1.21387E+01  1.13948E+01  1.11351E+01  1.00933E+01
   4.84307E+00  6.23723E+00  1.00395E+01  1.14258E+01  3.42362E+00  9.72521E+00  4.58397E+00  6.27890E+00  7.06403E+00  5.52309E+00
   6.88211E+00  3.86551E+00  9.70484E+00  4.18702E+00  5.68299E+00  1.16061E+01  4.69432E+00  5.23371E+00  7.04835E+00  4.87247E+00
   2.84896E+00  6.72503E+00  5.22557E+00  8.05812E+00 -7.38980E-01  5.58297E+00  8.51062E+00  5.01198E+00  8.06118E+00  5.09109E+00
   3.46325E+00  2.39815E+00  3.01399E+00  2.23714E+00  6.88799E+00  4.73835E+00  5.05092E+00  4.12675E+00 -1.54913E+00  4.49259E+00
   5.47079E+00  5.27823E+00 -1.74521E-02  3.47235E+00  6.02782E+00  6.24127E+00  5.73208E+00  5.47032E-01  6.14480E+00  4.73977E+00
   2.35123E+00  6.73821E+00  3.74326E+00  7.24652E+00  3.66331E+00  2.22154E+00  9.11600E+00  7.48604E+00  4.32272E+00  2.37671E-01
   6.96125E+00  7.10701E+00  3.86227E+00  7.87585E+00  5.27937E+00  4.09464E+00  2.81372E+00  6.57552E+00
 NY points of the fit to the data follow
   1.04945E+02  1.04208E+02  1.03650E+02  1.03321E+02  1.03441E+02  1.04846E+02  1.08723E+02  1.15468E+02  1.23771E+02  1.30781E+02
   1.33814E+02  1.32402E+02  1.28347E+02  1.23718E+02  1.19265E+02  1.14523E+02  1.08777E+02  1.02381E+02  9.74816E+01  9.48468E+01
   9.33038E+01  9.20747E+01  9.08330E+01  8.93898E+01  8.77832E+01  8.63555E+01  8.55641E+01  8.56672E+01  8.65541E+01  8.77081E+01
   8.84969E+01  8.85585E+01  8.78714E+01  8.65720E+01  8.47037E+01  8.24709E+01  8.00908E+01  7.78889E+01  7.64594E+01  7.55451E+01
   7.48325E+01  7.42829E+01  7.39368E+01  7.38282E+01  7.37092E+01  7.34057E+01  7.28026E+01  7.18760E+01  7.08687E+01  6.99923E+01
   6.90849E+01  6.81114E+01  6.71377E+01  6.60328E+01  6.48144E+01  6.37709E+01  6.29038E+01  6.19894E+01  6.10006E+01  6.00922E+01
   5.92190E+01  5.83229E+01  5.73892E+01  5.64646E+01  5.56166E+01  5.48377E+01  5.40958E+01  5.33929E+01  5.27451E+01  5.21503E+01
   5.15949E+01  5.10417E+01  5.04642E+01  4.98572E+01  4.92329E+01  4.86103E+01  4.79967E+01  4.73906E+01  4.67878E+01  4.61935E+01
   4.56409E+01  4.52064E+01  4.49985E+01  4.50367E+01  4.51848E+01  4.51805E+01  4.48067E+01  4.40784E+01  4.32091E+01  4.23901E+01
   4.16550E+01  4.09349E+01  4.01613E+01  3.93629E+01  3.87444E+01  3.83565E+01  3.80681E+01  3.79548E+01  3.87683E+01  4.29392E+01
   5.24763E+01  6.67572E+01  8.16924E+01  9.14875E+01  9.29105E+01  8.78102E+01  8.05304E+01  7.36355E+01  6.68997E+01  5.89335E+01
   4.90675E+01  3.97354E+01  3.53569E+01  3.38859E+01  3.30870E+01  3.25173E+01  3.20571E+01  3.16570E+01  3.13067E+01  3.10324E+01
   3.08986E+01  3.10784E+01  3.23358E+01  3.65228E+01  4.51266E+01  5.74419E+01  7.00406E+01  7.83281E+01  7.98271E+01  7.60117E+01
   7.02627E+01  6.45645E+01  5.86386E+01  5.13049E+01  4.23082E+01  3.39647E+01  2.94586E+01  2.78820E+01  2.72792E+01  2.70152E+01
   2.68291E+01  2.66904E+01  2.66412E+01  2.65871E+01  2.64641E+01  2.62377E+01  2.58572E+01  2.53661E+01  2.48565E+01  2.43768E+01
   2.39639E+01  2.35646E+01  2.31841E+01  2.28577E+01  2.26272E+01  2.24704E+01  2.22903E+01  2.19722E+01  2.14511E+01  2.07888E+01
   2.01973E+01  1.99044E+01  1.99320E+01  2.00823E+01  2.01119E+01  1.98974E+01  1.95174E+01  1.91639E+01  1.89311E+01  1.87113E+01
   1.83683E+01  1.79010E+01  1.72756E+01  1.66118E+01  1.60493E+01  1.56721E+01  1.55815E+01  1.56448E+01  1.56030E+01  1.53564E+01
   1.50653E+01  1.49624E+01  1.50859E+01  1.52184E+01  1.51410E+01  1.49149E+01  1.50231E+01  1.57363E+01  1.68918E+01  1.79930E+01
   1.86201E+01  1.87734E+01  1.86256E+01  1.83222E+01  1.79215E+01  1.73913E+01  1.68104E+01  1.65216E+01  1.66881E+01  1.73410E+01
   1.83924E+01  1.96198E+01  2.07754E+01  2.16283E+01  2.18714E+01  2.12516E+01  1.97017E+01  1.75782E+01  1.54711E+01  1.39095E+01
   1.31705E+01  1.32516E+01  1.42536E+01  1.61949E+01  1.87093E+01  2.10789E+01  2.25476E+01  2.27702E+01  2.16422E+01  1.96761E+01
   1.74865E+01  1.54206E+01  1.39524E+01  1.35643E+01  1.43013E+01  1.58179E+01  1.73484E+01  1.86289E+01  1.96485E+01  2.04241E+01
   2.08492E+01  2.07616E+01  2.03901E+01  2.01491E+01  2.01651E+01  2.04627E+01  2.10236E+01  2.16285E+01  2.19742E+01  2.18106E+01
   2.11107E+01  2.02233E+01  1.95771E+01  1.93400E+01  1.93644E+01  1.95975E+01  1.99574E+01  2.02943E+01  2.06388E+01  2.10935E+01
   2.16794E+01  2.23969E+01  2.34115E+01  2.47627E+01  2.61729E+01  2.78402E+01  3.19611E+01  4.06141E+01  5.34688E+01  6.66871E+01
   7.47314E+01  7.47643E+01  6.89103E+01  6.14961E+01  5.49998E+01  4.88337E+01  4.14178E+01  3.20646E+01  2.34500E+01  1.97590E+01
   1.84109E+01  1.75949E+01  1.70651E+01  1.67365E+01  1.64419E+01  1.61350E+01  1.58266E+01  1.55222E+01  1.52272E+01  1.49416E+01
   1.46521E+01  1.43623E+01  1.41059E+01  1.38989E+01  1.37235E+01  1.35628E+01  1.34171E+01  1.32944E+01  1.31988E+01  1.31236E+01
   1.30721E+01  1.30525E+01  1.30633E+01  1.31004E+01  1.31654E+01  1.32613E+01  1.33895E+01  1.35497E+01  1.37435E+01  1.39740E+01
   1.42455E+01  1.45559E+01  1.49000E+01  1.52717E+01  1.56649E+01  1.60738E+01  1.64904E+01  1.69042E+01  1.73075E+01  1.76931E+01
   1.80542E+01  1.83862E+01  1.86861E+01  1.89514E+01  1.91818E+01  1.93795E+01  1.95488E+01  1.96965E+01  1.98303E+01  1.99593E+01
   2.00950E+01  2.02549E+01  2.04700E+01  2.07486E+01  2.10429E+01  2.12656E+01  2.13401E+01  2.12662E+01  2.11280E+01  2.10143E+01
   2.09665E+01  2.10110E+01  2.11831E+01  2.15126E+01  2.19909E+01  2.25589E+01  2.30699E+01  2.34549E+01  2.37830E+01  2.41218E+01
   2.45066E+01  2.49592E+01  2.55585E+01  2.64719E+01  2.76902E+01  2.89188E+01  2.98128E+01  3.02182E+01  3.02968E+01  3.03307E+01
   3.04840E+01  3.07961E+01  3.12605E+01  3.18398E+01  3.24053E+01  3.27941E+01  3.27296E+01  3.19645E+01  3.07630E+01  2.93982E+01
   2.79699E+01  2.64335E+01  2.47342E+01  2.31257E+01  2.18554E+01  2.08177E+01  1.99308E+01  1.91487E+01  1.84407E+01  1.77864E+01
   1.71729E+01  1.65932E+01  1.60440E+01  1.55245E+01  1.50350E+01  1.45765E+01  1.41503E+01  1.37577E+01  1.34001E+01  1.30781E+01
   1.27923E+01  1.25431E+01  1.23309E+01  1.21563E+01  1.20196E+01  1.19208E+01  1.18600E+01  1.18370E+01  1.18519E+01  1.19043E+01
   1.19933E+01  1.21174E+01  1.22745E+01  1.24620E+01  1.26765E+01  1.29135E+01  1.31677E+01  1.34326E+01  1.37011E+01  1.39656E+01
   1.42181E+01  1.44503E+01  1.46537E+01  1.48205E+01  1.49437E+01  1.50176E+01  1.50377E+01  1.50011E+01  1.49064E+01  1.47540E+01
   1.45463E+01  1.42874E+01  1.39825E+01  1.36378E+01  1.32602E+01  1.28575E+01  1.24374E+01  1.20076E+01  1.15750E+01  1.11458E+01
   1.07256E+01  1.03191E+01  9.92990E+00  9.56091E+00  9.21376E+00  8.88934E+00  8.58795E+00  8.30942E+00  8.05315E+00  7.81803E+00
   7.60262E+00  7.40542E+00  7.22498E+00  7.05993E+00  6.90886E+00  6.77028E+00  6.64280E+00  6.52519E+00  6.41651E+00  6.31591E+00
   6.22250E+00  6.13543E+00  6.05393E+00  5.97747E+00  5.90567E+00  5.83814E+00  5.77441E+00  5.71402E+00  5.65663E+00  5.60208E+00
   5.55024E+00  5.50090E+00  5.45379E+00  5.40864E+00  5.36534E+00  5.32388E+00  5.28421E+00  5.24616E+00  5.20953E+00  5.17417E+00
   5.14010E+00  5.10735E+00  5.07588E+00  5.04552E+00  5.01613E+00  4.98767E+00  4.96019E+00  4.93374E+00  4.90823E+00  4.88352E+00
   4.85952E+00  4.83626E+00  4.81381E+00  4.79218E+00  4.77126E+00  4.75094E+00  4.73119E+00  4.71207E+00  4.69364E+00  4.67588E+00
   4.65865E+00  4.64189E+00  4.62560E+00  4.60989E+00  4.59478E+00  4.58019E+00  4.56601E+00  4.55221E+00  4.53886E+00  4.52603E+00
   4.51371E+00  4.50180E+00  4.49021E+00  4.47897E+00  4.46816E+00  4.45782E+00  4.44791E+00  4.43831E+00
 NY background values follow
     1.044E+02    1.036E+02    1.027E+02    1.019E+02    1.010E+02    1.002E+02    9.934E+01    9.849E+01    9.764E+01    9.680E+01
     9.595E+01    9.510E+01    9.426E+01    9.341E+01    9.257E+01    9.173E+01    9.089E+01    9.005E+01    8.921E+01    8.838E+01
     8.755E+01    8.671E+01    8.589E+01    8.506E+01    8.423E+01    8.341E+01    8.259E+01    8.178E+01    8.096E+01    8.015E+01
     7.935E+01    7.854E+01    7.774E+01    7.695E+01    7.616E+01    7.537E+01    7.458E+01    7.380E+01    7.303E+01    7.226E+01
     7.149E+01    7.073E+01    6.997E+01    6.922E+01    6.847E+01    6.773E+01    6.700E+01    6.627E+01    6.554E+01    6.482E+01
     6.411E+01    6.340E+01    6.270E+01    6.200E+01    6.131E+01    6.062E+01    5.994E+01    5.927E+01    5.860E+01    5.793E+01
     5.728E+01    5.662E+01    5.598E+01    5.534E+01    5.470E+01    5.407E+01    5.345E+01    5.284E+01    5.222E+01    5.162E+01
     5.102E+01    5.043E+01    4.984E+01    4.926E+01    4.868E+01    4.812E+01    4.755E+01    4.700E+01    4.644E+01    4.590E+01
     4.536E+01    4.483E+01    4.430E+01    4.378E+01    4.327E+01    4.276E+01    4.226E+01    4.177E+01    4.128E+01    4.080E+01
     4.032E+01    3.985E+01    3.939E+01    3.893E+01    3.848E+01    3.804E+01    3.760E+01    3.716E+01    3.674E+01    3.632E+01
     3.590E+01    3.550E+01    3.509E+01    3.470E+01    3.430E+01    3.392E+01    3.354E+01    3.316E+01    3.280E+01    3.243E+01
     3.207E+01    3.172E+01    3.137E+01    3.103E+01    3.069E+01    3.036E+01    3.003E+01    2.971E+01    2.939E+01    2.908E+01
     2.877E+01    2.847E+01    2.817E+01    2.788E+01    2.759E+01    2.730E+01    2.702E+01    2.675E+01    2.647E+01    2.621E+01
     2.594E+01    2.569E+01    2.543E+01    2.518E+01    2.493E+01    2.469E+01    2.445E+01    2.422E+01    2.399E+01    2.376E+01
     2.354E+01    2.332E+01    2.310E+01    2.289E+01    2.268E+01    2.248E+01    2.228E+01    2.208E+01    2.189E+01    2.170E+01
     2.151E+01    2.133E+01    2.115E+01    2.097E+01    2.080E+01    2.063E+01    2.047E+01    2.031E+01    2.015E+01    1.999E+01
     1.984E+01    1.969E+01    1.955E+01    1.941E+01    1.927E+01    1.914E+01    1.900E+01    1.888E+01    1.875E+01    1.863E+01
     1.851E+01    1.840E+01    1.828E+01    1.817E+01    1.807E+01    1.797E+01    1.787E+01    1.777E+01    1.768E+01    1.759E+01
     1.750E+01    1.741E+01    1.733E+01    1.725E+01    1.718E+01    1.710E+01    1.703E+01    1.696E+01    1.690E+01    1.683E+01
     1.677E+01    1.671E+01    1.665E+01    1.660E+01    1.654E+01    1.649E+01    1.644E+01    1.639E+01    1.634E+01    1.629E+01
     1.624E+01    1.619E+01    1.615E+01    1.610E+01    1.606E+01    1.601E+01    1.597E+01    1.593E+01    1.588E+01    1.584E+01
     1.579E+01    1.575E+01    1.571E+01    1.566E+01    1.561E+01    1.557E+01    1.552E+01    1.547E+01    1.542E+01    1.537E+01
     1.532E+01    1.527E+01    1.522E+01    1.516E+01    1.510E+01    1.505E+01    1.498E+01    1.492E+01    1.486E+01    1.479E+01
     1.472E+01    1.465E+01    1.458E+01    1.451E+01    1.443E+01    1.436E+01    1.428E+01    1.420E+01    1.412E+01    1.404E+01
     1.396E+01    1.388E+01    1.380E+01    1.371E+01    1.363E+01    1.354E+01    1.346E+01    1.337E+01    1.328E+01    1.320E+01
     1.311E+01    1.302E+01    1.293E+01    1.285E+01    1.276E+01    1.267E+01    1.258E+01    1.250E+01    1.241E+01    1.232E+01
     1.224E+01    1.215E+01    1.207E+01    1.199E+01    1.190E+01    1.182E+01    1.174E+01    1.166E+01    1.158E+01    1.150E+01
     1.143E+01    1.135E+01    1.128E+01    1.120E+01    1.113E+01    1.106E+01    1.100E+01    1.093E+01    1.086E+01    1.080E+01
     1.073E+01    1.067E+01    1.061E+01    1.055E+01    1.049E+01    1.043E+01    1.038E+01    1.032E+01    1.027E+01    1.021E+01
     1.016E+01    1.011E+01    1.006E+01    1.001E+01    9.957E+00    9.909E+00    9.861E+00    9.814E+00    9.767E+00    9.721E+00
     9.676E+00    9.632E+00    9.588E+00    9.545E+00    9.502E+00    9.460E+00    9.419E+00    9.378E+00    9.337E+00    9.297E+00
     9.257E+00    9.217E+00    9.178E+00    9.140E+00    9.101E+00    9.063E+00    9.025E+00    8.987E+00    8.950E+00    8.912E+00
     8.875E+00    8.838E+00    8.801E+00    8.764E+00    8.728E+00    8.691E+00    8.655E+00    8.619E+00    8.583E+00    8.547E+00
     8.511E+00    8.475E+00    8.439E+00    8.403E+00    8.368E+00    8.332E+00    8.296E+00    8.261E+00    8.225E+00    8.189E+00
     8.154E+00    8.118E+00    8.082E+00    8.047E+00    8.011E+00    7.975E+00    7.939E+00    7.903E+00    7.866E+00    7.830E+00
     7.794E+00    7.757E+00    7.721E+00    7.684E+00    7.647E+00    7.610E+00    7.572E+00    7.535E+00    7.497E+00    7.459E+00
     7.421E+00    7.382E+00    7.344E+00    7.305E+00    7.266E+00    7.227E+00    7.187E+00    7.148E+00    7.108E+00    7.068E+00
     7.028E+00    6.987E+00    6.947E+00    6.907E+00    6.866E+00    6.826E+00    6.785E+00    6.744E+00    6.704E+00    6.663E+00
     6.623E+00    6.582E+00    6.541E+00    6.501E+00    6.461E+00    6.420E+00    6.380E+00    6.340E+00    6.300E+00    6.260E+00
     6.220E+00    6.181E+00    6.141E+00    6.102E+00    6.063E+00    6.025E+00    5.986E+00    5.948E+00    5.910E+00    5.872E+00
     5.835E+00    5.798E+00    5.761E+00    5.725E+00    5.689E+00    5.654E+00    5.618E+00    5.584E+00    5.549E+00    5.515E+00
     5.482E+00    5.449E+00    5.416E+00    5.384E+00    5.352E+00    5.320E+00    5.289E+00    5.258E+00    5.228E+00    5.198E+00
     5.169E+00    5.140E+00    5.111E+00    5.083E+00    5.055E+00    5.027E+00    5.000E+00    4.974E+00    4.947E+00    4.922E+00
     4.896E+00    4.871E+00    4.846E+00    4.822E+00    4.798E+00    4.775E+00    4.752E+00    4.729E+00    4.707E+00    4.685E+00
     4.663E+00    4.642E+00    4.621E+00    4.601E+00    4.581E+00    4.561E+00    4.542E+00    4.523E+00    4.504E+00    4.486E+00
     4.469E+00    4.451E+00    4.434E+00    4.418E+00    4.401E+00    4.386E+00    4.370E+00    4.355E+00    4.340E+00    4.326E+00
     4.312E+00    4.298E+00    4.285E+00    4.272E+00    4.259E+00    4.247E+00    4.235E+00    4.223E+00    4.211E+00    4.200E+00
     4.190E+00    4.179E+00    4.169E+00    4.159E+00    4.150E+00    4.140E+00    4.131E+00    4.123E+00    4.114E+00    4.106E+00
     4.099E+00    4.091E+00    4.084E+00    4.077E+00    4.070E+00    4.064E+00    4.057E+00    4.051E+00    4.046E+00    4.040E+00
     4.035E+00    4.030E+00    4.025E+00    4.021E+00    4.017E+00    4.013E+00    4.009E+00    4.005E+00
 Ala      Conc. = 6.76E+01
