 LCModel (Version 6.3-1L) Copyright: S.W. Provencher.          Ref.: Magn. Reson. Med. 30:672-679 (1993).                
 Slice#1 Row#1 Col#13  PD_24_press_1_raw_act
 36 lines in following concentration table = NCONC+1
    Conc.  %SD /Cr+PCr  Metabolite                                         
 3.60E+03  23% 3.1E+05 Ala                                                 
 3.48E-03 999%   0.296 Asp                                                 
    0.000 999%   0.000 Cr                                                  
 1.18E-02 999%   1.000 PCr                                                 
    0.000 999%   0.000 GABA                                                
 1.77E-03 999%   0.150 Glc                                                 
   96.644 415% 8.2E+03 Gln                                                 
  625.966  77% 5.3E+04 Glu                                                 
    0.000 999%   0.000 GPC                                                 
    0.000 999%   0.000 PCh                                                 
    0.000 999%   0.000 GSH                                                 
  130.929 122% 1.1E+04 Ins                                                 
    0.000 999%   0.000 Lac                                                 
    0.000 999%   0.000 NAA                                                 
    0.000 999%   0.000 NAAG                                                
 9.04E-05 999% 7.7E-03 Scyllo                                              
 7.01E-03 999%   0.595 Tau                                                 
    0.194 999%  16.523 -CrCH2                                              
    0.000 999%   0.000 GPC+PCh                                             
    0.000 999%   0.000 NAA+NAAG                                            
 1.18E-02 999%   1.000 Cr+PCr                                              
  722.611  91% 6.1E+04 Glu+Gln                                             
 3.23E+03  40% 2.7E+05 Lip13a                                              
  529.490  34% 4.5E+04 Lip13b                                              
 5.24E+03  10% 4.4E+05 Lip09                                               
 1.09E+04   7% 9.3E+05 MM09                                                
    0.000 999%   0.000 Lip20                                               
    0.000 999%   0.000 MM20                                                
 7.10E+03  13% 6.0E+05 MM12                                                
 1.20E+04   9% 1.0E+06 MM14                                                
 4.29E+03  10% 3.6E+05 MM17                                                
 3.76E+03  32% 3.2E+05 Lip13a+Lip13b                                       
 2.29E+04   4% 1.9E+06 MM14+Lip13a+Lip13b+MM12                             
 1.62E+04   4% 1.4E+06 MM09+Lip09                                          
    0.000 999%   0.000 MM20+Lip20                                          
   6 lines in following misc. output table
  FWHM = 0.183 ppm    S/N =  24                                            
  Data shift = 0.130 ppm                                                   
  Ph:-165 deg      53.9 deg/ppm                                            
  alphaB,S = 8.5E+01,   2.0E+02                                            
    7 spline knots.   Ns = 9(2)                                            
   2 inflections.     1 extrema                                            
  498 points on ppm-axis = NY
      4.000000     3.992357     3.984714     3.977070     3.969427     3.961784     3.954141     3.946497     3.938854     3.931211
      3.923568     3.915925     3.908281     3.900638     3.892995     3.885352     3.877708     3.870065     3.862422     3.854779
      3.847136     3.839492     3.831849     3.824206     3.816563     3.808919     3.801276     3.793633     3.785990     3.778347
      3.770703     3.763060     3.755417     3.747774     3.740130     3.732487     3.724844     3.717201     3.709558     3.701914
      3.694271     3.686628     3.678985     3.671341     3.663698     3.656055     3.648412     3.640769     3.633125     3.625482
      3.617839     3.610196     3.602552     3.594909     3.587266     3.579623     3.571980     3.564336     3.556693     3.549050
      3.541407     3.533763     3.526120     3.518477     3.510834     3.503191     3.495547     3.487904     3.480261     3.472618
      3.464974     3.457331     3.449688     3.442045     3.434402     3.426758     3.419115     3.411472     3.403829     3.396185
      3.388542     3.380899     3.373256     3.365613     3.357969     3.350326     3.342683     3.335040     3.327396     3.319753
      3.312110     3.304467     3.296824     3.289180     3.281537     3.273894     3.266251     3.258607     3.250964     3.243321
      3.235678     3.228034     3.220391     3.212748     3.205105     3.197462     3.189818     3.182175     3.174532     3.166889
      3.159245     3.151602     3.143959     3.136316     3.128673     3.121029     3.113386     3.105743     3.098100     3.090456
      3.082813     3.075170     3.067527     3.059884     3.052240     3.044597     3.036954     3.029311     3.021667     3.014024
      3.006381     2.998738     2.991095     2.983451     2.975808     2.968165     2.960522     2.952878     2.945235     2.937592
      2.929949     2.922306     2.914662     2.907019     2.899376     2.891733     2.884089     2.876446     2.868803     2.861160
      2.853517     2.845873     2.838230     2.830587     2.822944     2.815300     2.807657     2.800014     2.792371     2.784728
      2.777084     2.769441     2.761798     2.754155     2.746511     2.738868     2.731225     2.723582     2.715939     2.708295
      2.700652     2.693009     2.685366     2.677722     2.670079     2.662436     2.654793     2.647150     2.639506     2.631863
      2.624220     2.616577     2.608933     2.601290     2.593647     2.586004     2.578361     2.570717     2.563074     2.555431
      2.547788     2.540144     2.532501     2.524858     2.517215     2.509572     2.501928     2.494285     2.486642     2.478999
      2.471355     2.463712     2.456069     2.448426     2.440783     2.433139     2.425496     2.417853     2.410210     2.402566
      2.394923     2.387280     2.379637     2.371994     2.364350     2.356707     2.349064     2.341421     2.333777     2.326134
      2.318491     2.310848     2.303205     2.295561     2.287918     2.280275     2.272632     2.264988     2.257345     2.249702
      2.242059     2.234416     2.226772     2.219129     2.211486     2.203843     2.196199     2.188556     2.180913     2.173270
      2.165627     2.157983     2.150340     2.142697     2.135054     2.127410     2.119767     2.112124     2.104481     2.096838
      2.089194     2.081551     2.073908     2.066265     2.058621     2.050978     2.043335     2.035692     2.028049     2.020405
      2.012762     2.005119     1.997476     1.989833     1.982190     1.974546     1.966903     1.959260     1.951617     1.943974
      1.936331     1.928688     1.921045     1.913402     1.905759     1.898115     1.890472     1.882829     1.875186     1.867543
      1.859900     1.852257     1.844614     1.836971     1.829327     1.821684     1.814041     1.806398     1.798755     1.791112
      1.783469     1.775826     1.768183     1.760540     1.752896     1.745253     1.737610     1.729967     1.722324     1.714681
      1.707038     1.699395     1.691752     1.684108     1.676465     1.668822     1.661179     1.653536     1.645893     1.638250
      1.630607     1.622964     1.615321     1.607677     1.600034     1.592391     1.584748     1.577105     1.569462     1.561819
      1.554176     1.546533     1.538890     1.531246     1.523603     1.515960     1.508317     1.500674     1.493031     1.485388
      1.477745     1.470102     1.462458     1.454815     1.447172     1.439529     1.431886     1.424243     1.416600     1.408957
      1.401314     1.393671     1.386027     1.378384     1.370741     1.363098     1.355455     1.347812     1.340169     1.332526
      1.324883     1.317240     1.309596     1.301953     1.294310     1.286667     1.279024     1.271381     1.263738     1.256095
      1.248452     1.240808     1.233165     1.225522     1.217879     1.210236     1.202593     1.194950     1.187307     1.179664
      1.172021     1.164377     1.156734     1.149091     1.141448     1.133805     1.126162     1.118519     1.110876     1.103233
      1.095590     1.087946     1.080303     1.072660     1.065017     1.057374     1.049731     1.042088     1.034445     1.026802
      1.019158     1.011515     1.003872     0.996229     0.988586     0.980943     0.973300     0.965657     0.958014     0.950371
      0.942727     0.935084     0.927441     0.919798     0.912155     0.904512     0.896869     0.889226     0.881583     0.873940
      0.866296     0.858653     0.851010     0.843367     0.835724     0.828081     0.820438     0.812795     0.805152     0.797508
      0.789865     0.782222     0.774579     0.766936     0.759293     0.751650     0.744007     0.736364     0.728721     0.721077
      0.713434     0.705791     0.698148     0.690505     0.682862     0.675219     0.667576     0.659933     0.652290     0.644646
      0.637003     0.629360     0.621717     0.614074     0.606431     0.598788     0.591145     0.583502     0.575858     0.568215
      0.560572     0.552929     0.545286     0.537643     0.530000     0.522357     0.514714     0.507071     0.499427     0.491784
      0.484141     0.476498     0.468855     0.461212     0.453569     0.445925     0.438282     0.430639     0.422996     0.415353
      0.407710     0.400067     0.392424     0.384780     0.377137     0.369494     0.361851     0.354208     0.346565     0.338922
      0.331278     0.323635     0.315992     0.308349     0.300706     0.293063     0.285420     0.277777     0.270133     0.262490
      0.254847     0.247204     0.239561     0.231918     0.224275     0.216631     0.208988     0.201345
 NY phased data points follow
  -7.76707E+00 -5.50969E+00 -6.40546E+00 -6.95729E+00 -7.64560E+00 -7.66995E+00 -6.90766E+00 -7.38556E+00 -7.48451E+00 -8.09338E+00
  -7.85892E+00 -7.50020E+00 -6.47237E+00 -5.26756E+00 -8.63322E+00 -6.61447E+00 -6.84484E+00 -8.71735E+00 -8.71458E+00 -9.59923E+00
  -9.08638E+00 -6.90376E+00 -5.75055E+00 -7.10825E+00 -1.14123E+01 -7.03291E+00 -6.43521E+00 -8.28994E+00 -7.13551E+00 -7.72434E+00
  -9.59946E+00 -8.76478E+00 -7.49117E+00 -7.45662E+00 -8.39239E+00 -1.01753E+01 -5.99182E+00 -8.63240E+00 -7.78321E+00 -9.87514E+00
  -9.67194E+00 -8.90621E+00 -7.16775E+00 -7.07733E+00 -9.83685E+00 -1.10975E+01 -7.66253E+00 -5.09361E+00 -8.43639E+00 -8.45558E+00
  -7.87515E+00 -8.32690E+00 -8.85453E+00 -9.76376E+00 -8.61838E+00 -8.91695E+00 -9.10835E+00 -6.70956E+00 -7.94459E+00 -6.61292E+00
  -8.89167E+00 -9.28288E+00 -9.54479E+00 -4.82299E+00 -8.67596E+00 -4.67756E+00 -9.22520E+00 -9.11967E+00 -7.56547E+00 -9.17790E+00
  -8.59348E+00 -8.22715E+00 -7.47452E+00 -1.03741E+01 -9.95744E+00 -8.12525E+00 -7.97169E+00 -6.47807E+00 -8.87633E+00 -8.47882E+00
  -1.04674E+01 -6.24793E+00 -8.21005E+00 -7.00473E+00 -1.12669E+01 -1.32891E+01 -1.10751E+01 -8.14911E+00 -9.09130E+00 -8.85281E+00
  -1.20465E+01 -1.07095E+01 -1.00291E+01 -1.08013E+01 -9.64441E+00 -9.81533E+00 -1.03736E+01 -9.23597E+00 -1.21150E+01 -1.35520E+01
  -8.34885E+00 -8.36210E+00 -1.16830E+01 -9.39512E+00 -9.29434E+00 -8.92601E+00 -9.71662E+00 -9.82519E+00 -9.29444E+00 -1.11446E+01
  -1.15453E+01 -1.15040E+01 -7.44844E+00 -8.90984E+00 -1.03791E+01 -8.07154E+00 -1.01979E+01 -1.11382E+01 -1.09871E+01 -1.23272E+01
  -1.09681E+01 -1.10501E+01 -1.30342E+01 -1.15030E+01 -1.08610E+01 -9.51527E+00 -8.90502E+00 -1.05089E+01 -1.00142E+01 -9.11476E+00
  -9.70706E+00 -1.20994E+01 -1.03930E+01 -9.33812E+00 -8.61913E+00 -1.19608E+01 -1.18721E+01 -8.75661E+00 -1.31864E+01 -1.00033E+01
  -8.65064E+00 -1.35495E+01 -1.08470E+01 -1.11884E+01 -1.31617E+01 -1.01297E+01 -1.16575E+01 -1.13673E+01 -1.36094E+01 -1.34017E+01
  -1.22420E+01 -1.09917E+01 -1.00607E+01 -1.31567E+01 -1.21214E+01 -1.16065E+01 -1.03392E+01 -1.12637E+01 -1.00908E+01 -1.23239E+01
  -9.42425E+00 -1.11477E+01 -1.13694E+01 -1.28983E+01 -1.36691E+01 -1.29660E+01 -1.24395E+01 -1.03414E+01 -1.12644E+01 -9.71466E+00
  -1.37376E+01 -9.29537E+00 -8.45728E+00 -1.05713E+01 -1.16767E+01 -9.44781E+00 -1.20890E+01 -1.06664E+01 -1.39674E+01 -8.84279E+00
  -1.08039E+01 -1.17433E+01 -1.03577E+01 -1.20911E+01 -1.33919E+01 -1.50808E+01 -1.08471E+01 -1.07793E+01 -1.19382E+01 -1.15357E+01
  -1.39914E+01 -9.84666E+00 -9.90591E+00 -1.35545E+01 -1.05133E+01 -1.22601E+01 -1.22190E+01 -1.30435E+01 -1.14591E+01 -1.22486E+01
  -1.23894E+01 -1.03484E+01 -9.73845E+00 -9.92732E+00 -1.10120E+01 -8.96385E+00 -9.80728E+00 -1.25708E+01 -1.15417E+01 -1.18337E+01
  -1.27564E+01 -1.20136E+01 -1.18183E+01 -1.22768E+01 -1.18772E+01 -1.04570E+01 -1.25002E+01 -1.34629E+01 -1.50252E+01 -1.15920E+01
  -1.19545E+01 -1.00534E+01 -1.32295E+01 -9.52691E+00 -1.26209E+01 -1.47874E+01 -1.09612E+01 -1.49612E+01 -1.02924E+01 -1.13659E+01
  -1.10844E+01 -1.14828E+01 -1.22204E+01 -1.10937E+01 -1.14280E+01 -1.26485E+01 -8.84569E+00 -1.22701E+01 -1.14714E+01 -1.12560E+01
  -1.33813E+01 -1.54691E+01 -1.39650E+01 -1.30677E+01 -1.07504E+01 -1.11100E+01 -1.22846E+01 -1.47308E+01 -1.37228E+01 -1.31543E+01
  -1.28576E+01 -1.34659E+01 -1.15622E+01 -1.29701E+01 -9.99971E+00 -1.27922E+01 -9.18360E+00 -9.67389E+00 -9.77986E+00 -1.22839E+01
  -9.62439E+00 -1.09245E+01 -1.14209E+01 -1.12949E+01 -6.48879E+00 -7.77471E+00 -1.00794E+01 -6.25665E+00 -7.82345E+00 -9.49045E+00
  -7.37942E+00 -7.14954E+00 -7.30936E+00 -4.39417E+00 -5.83462E+00 -6.66863E+00 -3.47906E+00 -4.24946E+00 -4.09849E+00 -4.99510E+00
  -4.30801E+00 -3.58426E+00 -3.61499E+00 -3.23932E+00 -1.86696E+00 -3.74699E+00 -1.29530E+00  1.16398E+00 -1.74733E+00  1.52455E-01
   2.74844E+00  1.21213E+00  2.01767E+00  3.40202E+00  1.53249E+00  6.08131E+00  3.83328E+00  4.99988E+00  6.74398E+00  9.78531E+00
   6.73631E+00  1.07426E+01  9.31502E+00  1.29103E+01  1.16570E+01  1.49638E+01  1.51625E+01  1.29837E+01  1.81137E+01  1.75532E+01
   1.84250E+01  1.86412E+01  2.17406E+01  2.06273E+01  2.30252E+01  2.70227E+01  2.23693E+01  2.41217E+01  2.66623E+01  2.69748E+01
   2.95941E+01  3.06935E+01  3.22492E+01  3.40518E+01  3.69537E+01  3.85544E+01  4.00143E+01  4.11154E+01  4.42655E+01  4.78133E+01
   5.14739E+01  5.09333E+01  5.17784E+01  5.27810E+01  5.45459E+01  5.38961E+01  5.51268E+01  5.50332E+01  5.67620E+01  5.55221E+01
   5.58425E+01  5.23795E+01  5.46493E+01  5.26452E+01  5.25011E+01  5.15668E+01  5.31661E+01  5.06439E+01  5.12067E+01  4.86073E+01
   4.76870E+01  5.12711E+01  4.89576E+01  5.07837E+01  4.85906E+01  4.61074E+01  4.62107E+01  4.86592E+01  4.95533E+01  4.91639E+01
   4.76441E+01  5.03748E+01  5.06547E+01  5.22521E+01  5.39186E+01  5.25311E+01  5.66955E+01  6.00163E+01  6.05384E+01  6.22693E+01
   6.42501E+01  6.60579E+01  6.77463E+01  6.86851E+01  7.04491E+01  6.77639E+01  7.32949E+01  7.56809E+01  7.62563E+01  7.45450E+01
   7.53267E+01  7.25250E+01  7.32597E+01  7.25556E+01  7.38736E+01  7.10568E+01  7.04099E+01  6.83954E+01  6.76706E+01  6.85028E+01
   6.58347E+01  6.49394E+01  6.02766E+01  6.10378E+01  5.88050E+01  5.80284E+01  5.73993E+01  5.91570E+01  5.47698E+01  5.19655E+01
   4.70364E+01  4.45328E+01  4.70298E+01  4.28804E+01  4.10296E+01  3.78716E+01  3.70680E+01  3.62420E+01  3.12218E+01  3.12978E+01
   2.84152E+01  2.73501E+01  2.50398E+01  2.45790E+01  2.19732E+01  2.11063E+01  1.74516E+01  1.71102E+01  1.48059E+01  1.21258E+01
   1.04547E+01  1.25176E+01  9.56968E+00  8.00042E+00  5.56799E+00  4.83408E+00  3.89946E+00  3.59530E+00  2.32165E-01 -5.10836E-01
  -3.03461E+00 -8.36509E-01  2.18281E-03 -4.10739E+00 -2.79421E+00 -4.36566E+00 -5.72508E+00 -4.31763E+00 -7.65267E+00 -6.30735E+00
  -6.93981E+00 -7.02881E+00 -7.52829E+00 -5.86998E+00 -9.48171E+00 -9.13019E+00 -1.06730E+01 -1.22497E+01 -1.19388E+01 -1.22475E+01
  -1.32553E+01 -1.34160E+01 -1.00809E+01 -1.81454E+01 -1.40600E+01 -1.53229E+01 -1.55378E+01 -1.63594E+01 -1.69267E+01 -1.63075E+01
  -1.89166E+01 -1.51934E+01 -1.94737E+01 -1.69354E+01 -1.73141E+01 -1.70878E+01 -1.87142E+01 -1.62848E+01 -1.70678E+01 -1.79143E+01
  -1.71184E+01 -1.92722E+01 -1.84548E+01 -1.97529E+01 -1.93773E+01 -2.15981E+01 -2.10769E+01 -2.10575E+01 -1.91879E+01 -1.89427E+01
  -2.03394E+01 -1.75375E+01 -1.92494E+01 -1.94629E+01 -2.22420E+01 -1.97448E+01 -2.24076E+01 -2.03893E+01 -2.12397E+01 -2.00290E+01
  -2.32002E+01 -2.12254E+01 -2.10308E+01 -2.05537E+01 -1.94738E+01 -1.95413E+01 -2.23736E+01 -2.26216E+01
 NY points of the fit to the data follow
  -6.75389E+00 -6.81426E+00 -6.97082E+00 -6.98165E+00 -7.14181E+00 -7.05176E+00 -7.13089E+00 -6.82917E+00 -6.99192E+00 -6.65196E+00
  -6.98132E+00 -6.63012E+00 -7.15061E+00 -6.84025E+00 -7.57780E+00 -7.15638E+00 -7.86377E+00 -7.31966E+00 -8.01366E+00 -7.41501E+00
  -8.08562E+00 -7.44814E+00 -8.04168E+00 -7.48546E+00 -8.00736E+00 -7.52711E+00 -7.92084E+00 -7.54836E+00 -7.85725E+00 -7.69472E+00
  -7.88612E+00 -7.87854E+00 -7.91560E+00 -8.05178E+00 -7.94830E+00 -8.16735E+00 -7.89149E+00 -8.23194E+00 -7.86426E+00 -8.30819E+00
  -7.86345E+00 -8.29157E+00 -7.78204E+00 -8.20859E+00 -7.65822E+00 -8.05758E+00 -7.55616E+00 -7.95111E+00 -7.65202E+00 -8.07451E+00
  -7.90264E+00 -8.29865E+00 -8.21617E+00 -8.51073E+00 -8.44838E+00 -8.56397E+00 -8.46509E+00 -8.51815E+00 -8.45042E+00 -8.48034E+00
  -8.46219E+00 -8.49662E+00 -8.52527E+00 -8.58054E+00 -8.60897E+00 -8.66489E+00 -8.68989E+00 -8.74240E+00 -8.76359E+00 -8.81342E+00
  -8.83448E+00 -8.89065E+00 -8.91769E+00 -8.98061E+00 -9.01089E+00 -9.07690E+00 -9.10686E+00 -9.17221E+00 -9.19897E+00 -9.26303E+00
  -9.28866E+00 -9.35114E+00 -9.37513E+00 -9.43721E+00 -9.46175E+00 -9.52489E+00 -9.55156E+00 -9.61345E+00 -9.63966E+00 -9.69891E+00
  -9.72391E+00 -9.77890E+00 -9.80082E+00 -9.85030E+00 -9.86778E+00 -9.91278E+00 -9.92779E+00 -9.96880E+00 -9.98207E+00 -1.00191E+01
  -1.00322E+01 -1.00653E+01 -1.00792E+01 -1.01094E+01 -1.01247E+01 -1.01529E+01 -1.01702E+01 -1.01975E+01 -1.02172E+01 -1.02448E+01
  -1.02658E+01 -1.02924E+01 -1.03125E+01 -1.03372E+01 -1.03563E+01 -1.03792E+01 -1.03974E+01 -1.04198E+01 -1.04383E+01 -1.04612E+01
  -1.04820E+01 -1.05055E+01 -1.05278E+01 -1.05517E+01 -1.05752E+01 -1.05991E+01 -1.06232E+01 -1.06467E+01 -1.06707E+01 -1.06941E+01
  -1.07178E+01 -1.07411E+01 -1.07645E+01 -1.07875E+01 -1.08105E+01 -1.08334E+01 -1.08562E+01 -1.08789E+01 -1.09016E+01 -1.09242E+01
  -1.09468E+01 -1.09694E+01 -1.09919E+01 -1.10143E+01 -1.10367E+01 -1.10589E+01 -1.10811E+01 -1.11031E+01 -1.11251E+01 -1.11469E+01
  -1.11686E+01 -1.11901E+01 -1.12116E+01 -1.12329E+01 -1.12540E+01 -1.12750E+01 -1.12959E+01 -1.13165E+01 -1.13371E+01 -1.13574E+01
  -1.13777E+01 -1.13976E+01 -1.14176E+01 -1.14373E+01 -1.14568E+01 -1.14762E+01 -1.14953E+01 -1.15142E+01 -1.15328E+01 -1.15513E+01
  -1.15691E+01 -1.15871E+01 -1.16041E+01 -1.16217E+01 -1.16377E+01 -1.16551E+01 -1.16716E+01 -1.16886E+01 -1.17073E+01 -1.17242E+01
  -1.17440E+01 -1.17596E+01 -1.17792E+01 -1.17894E+01 -1.18040E+01 -1.18068E+01 -1.18154E+01 -1.18062E+01 -1.18077E+01 -1.17964E+01
  -1.17996E+01 -1.17913E+01 -1.18260E+01 -1.18149E+01 -1.18748E+01 -1.18520E+01 -1.19221E+01 -1.18601E+01 -1.18884E+01 -1.18025E+01
  -1.18106E+01 -1.17225E+01 -1.17318E+01 -1.16695E+01 -1.17235E+01 -1.17177E+01 -1.17962E+01 -1.18069E+01 -1.18918E+01 -1.19087E+01
  -1.20000E+01 -1.20112E+01 -1.21023E+01 -1.20959E+01 -1.21827E+01 -1.21647E+01 -1.22332E+01 -1.21959E+01 -1.22426E+01 -1.21902E+01
  -1.22414E+01 -1.21783E+01 -1.22328E+01 -1.21630E+01 -1.22182E+01 -1.21562E+01 -1.21910E+01 -1.21212E+01 -1.21377E+01 -1.20783E+01
  -1.20771E+01 -1.20274E+01 -1.20028E+01 -1.19641E+01 -1.19037E+01 -1.18693E+01 -1.17556E+01 -1.17313E+01 -1.15854E+01 -1.15992E+01
  -1.14673E+01 -1.15218E+01 -1.14090E+01 -1.14951E+01 -1.13976E+01 -1.14891E+01 -1.13640E+01 -1.14211E+01 -1.12809E+01 -1.13005E+01
  -1.11595E+01 -1.11485E+01 -1.10189E+01 -1.09765E+01 -1.08640E+01 -1.07773E+01 -1.06776E+01 -1.05490E+01 -1.04657E+01 -1.02992E+01
  -1.02275E+01 -1.00252E+01 -9.95240E+00 -9.72655E+00 -9.64035E+00 -9.39917E+00 -9.28900E+00 -9.03037E+00 -8.89232E+00 -8.61553E+00
  -8.44245E+00 -8.14522E+00 -7.93423E+00 -7.61263E+00 -7.35535E+00 -6.99596E+00 -6.67952E+00 -6.27559E+00 -5.89743E+00 -5.44477E+00
  -4.99981E+00 -4.49194E+00 -3.96973E+00 -3.39807E+00 -2.79848E+00 -2.16491E+00 -1.49455E+00 -8.04526E-01 -7.92610E-02  6.60460E-01
   1.42772E+00  2.20118E+00  2.99184E+00  3.78042E+00  4.57421E+00  5.35892E+00  6.13754E+00  6.89926E+00  7.64596E+00  8.37280E+00
   9.08265E+00  9.77761E+00  1.04644E+01  1.11537E+01  1.18613E+01  1.26107E+01  1.34387E+01  1.44112E+01  1.56797E+01  1.73591E+01
   1.84400E+01  2.01559E+01  2.09442E+01  2.25938E+01  2.29776E+01  2.43311E+01  2.40775E+01  2.56856E+01  2.59014E+01  2.79120E+01
   2.85777E+01  3.07674E+01  3.19685E+01  3.42334E+01  3.61918E+01  3.83163E+01  4.06433E+01  4.25902E+01  4.52999E+01  4.69033E+01
   4.95893E+01  5.02868E+01  5.27157E+01  5.26158E+01  5.48397E+01  5.40521E+01  5.59646E+01  5.46599E+01  5.64052E+01  5.44817E+01
   5.59312E+01  5.35449E+01  5.47506E+01  5.23633E+01  5.33485E+01  5.11196E+01  5.20299E+01  5.02415E+01  5.10368E+01  4.97409E+01
   5.00661E+01  4.90507E+01  4.92207E+01  4.85215E+01  4.84906E+01  4.80986E+01  4.79722E+01  4.80480E+01  4.82351E+01  4.85366E+01
   4.89937E+01  4.96576E+01  5.05720E+01  5.17599E+01  5.32184E+01  5.49174E+01  5.68049E+01  5.88139E+01  6.08708E+01  6.29030E+01
   6.48443E+01  6.66396E+01  6.82464E+01  6.96358E+01  7.07919E+01  7.17103E+01  7.23968E+01  7.28649E+01  7.31333E+01  7.32240E+01
   7.31596E+01  7.29611E+01  7.26467E+01  7.22299E+01  7.17194E+01  7.11189E+01  7.04273E+01  6.96398E+01  6.87489E+01  6.77463E+01
   6.66237E+01  6.53746E+01  6.39951E+01  6.24850E+01  6.08478E+01  5.90912E+01  5.72268E+01  5.52691E+01  5.32351E+01  5.11434E+01
   4.90130E+01  4.68624E+01  4.47091E+01  4.25686E+01  4.04538E+01  3.83752E+01  3.63403E+01  3.43541E+01  3.24190E+01  3.05355E+01
   2.87024E+01  2.69170E+01  2.51763E+01  2.34767E+01  2.18147E+01  2.01873E+01  1.85918E+01  1.70266E+01  1.54905E+01  1.39833E+01
   1.25056E+01  1.10583E+01  9.64309E+00  8.26192E+00  6.91694E+00  5.61034E+00  4.34424E+00  3.12059E+00  1.94106E+00  8.06967E-01
  -2.80732E-01 -1.32147E+00 -2.31512E+00 -3.26189E+00 -4.16237E+00 -5.01745E+00 -5.82831E+00 -6.59633E+00 -7.32312E+00 -8.01036E+00
  -8.65989E+00 -9.27355E+00 -9.85325E+00 -1.04009E+01 -1.09183E+01 -1.14073E+01 -1.18696E+01 -1.23070E+01 -1.27210E+01 -1.31131E+01
  -1.34849E+01 -1.38375E+01 -1.41724E+01 -1.44907E+01 -1.47934E+01 -1.50816E+01 -1.53563E+01 -1.56184E+01 -1.58686E+01 -1.61078E+01
  -1.63366E+01 -1.65557E+01 -1.67657E+01 -1.69671E+01 -1.71606E+01 -1.73465E+01 -1.75254E+01 -1.76976E+01 -1.78635E+01 -1.80236E+01
  -1.81780E+01 -1.83272E+01 -1.84715E+01 -1.86111E+01 -1.87462E+01 -1.88772E+01 -1.90041E+01 -1.91273E+01 -1.92469E+01 -1.93632E+01
  -1.94762E+01 -1.95861E+01 -1.96931E+01 -1.97974E+01 -1.98990E+01 -1.99981E+01 -2.00948E+01 -2.01892E+01 -2.02814E+01 -2.03715E+01
  -2.04596E+01 -2.05458E+01 -2.06301E+01 -2.07127E+01 -2.07935E+01 -2.08727E+01 -2.09503E+01 -2.10263E+01
 NY background values follow
    -8.441E+00   -8.470E+00   -8.500E+00   -8.529E+00   -8.559E+00   -8.589E+00   -8.618E+00   -8.648E+00   -8.677E+00   -8.707E+00
    -8.736E+00   -8.766E+00   -8.796E+00   -8.825E+00   -8.855E+00   -8.884E+00   -8.914E+00   -8.943E+00   -8.973E+00   -9.002E+00
    -9.032E+00   -9.062E+00   -9.091E+00   -9.121E+00   -9.150E+00   -9.180E+00   -9.209E+00   -9.239E+00   -9.269E+00   -9.298E+00
    -9.328E+00   -9.357E+00   -9.387E+00   -9.417E+00   -9.446E+00   -9.476E+00   -9.505E+00   -9.535E+00   -9.564E+00   -9.594E+00
    -9.624E+00   -9.653E+00   -9.683E+00   -9.712E+00   -9.742E+00   -9.772E+00   -9.801E+00   -9.831E+00   -9.860E+00   -9.890E+00
    -9.920E+00   -9.949E+00   -9.979E+00   -1.001E+01   -1.004E+01   -1.007E+01   -1.010E+01   -1.013E+01   -1.016E+01   -1.019E+01
    -1.022E+01   -1.025E+01   -1.028E+01   -1.030E+01   -1.033E+01   -1.036E+01   -1.039E+01   -1.042E+01   -1.045E+01   -1.048E+01
    -1.051E+01   -1.054E+01   -1.057E+01   -1.060E+01   -1.063E+01   -1.066E+01   -1.069E+01   -1.072E+01   -1.075E+01   -1.078E+01
    -1.081E+01   -1.084E+01   -1.087E+01   -1.090E+01   -1.093E+01   -1.096E+01   -1.099E+01   -1.102E+01   -1.105E+01   -1.108E+01
    -1.111E+01   -1.114E+01   -1.116E+01   -1.119E+01   -1.122E+01   -1.125E+01   -1.128E+01   -1.131E+01   -1.134E+01   -1.137E+01
    -1.140E+01   -1.143E+01   -1.146E+01   -1.149E+01   -1.152E+01   -1.155E+01   -1.158E+01   -1.161E+01   -1.164E+01   -1.167E+01
    -1.170E+01   -1.173E+01   -1.176E+01   -1.179E+01   -1.182E+01   -1.185E+01   -1.188E+01   -1.191E+01   -1.194E+01   -1.197E+01
    -1.200E+01   -1.203E+01   -1.206E+01   -1.209E+01   -1.212E+01   -1.215E+01   -1.218E+01   -1.221E+01   -1.224E+01   -1.227E+01
    -1.230E+01   -1.233E+01   -1.236E+01   -1.239E+01   -1.242E+01   -1.245E+01   -1.247E+01   -1.250E+01   -1.253E+01   -1.256E+01
    -1.259E+01   -1.262E+01   -1.265E+01   -1.268E+01   -1.271E+01   -1.274E+01   -1.277E+01   -1.280E+01   -1.283E+01   -1.286E+01
    -1.289E+01   -1.292E+01   -1.295E+01   -1.298E+01   -1.301E+01   -1.304E+01   -1.307E+01   -1.310E+01   -1.313E+01   -1.316E+01
    -1.319E+01   -1.322E+01   -1.325E+01   -1.328E+01   -1.331E+01   -1.334E+01   -1.337E+01   -1.340E+01   -1.343E+01   -1.346E+01
    -1.349E+01   -1.352E+01   -1.355E+01   -1.358E+01   -1.361E+01   -1.364E+01   -1.367E+01   -1.370E+01   -1.373E+01   -1.376E+01
    -1.379E+01   -1.382E+01   -1.385E+01   -1.388E+01   -1.391E+01   -1.394E+01   -1.397E+01   -1.400E+01   -1.403E+01   -1.406E+01
    -1.409E+01   -1.412E+01   -1.415E+01   -1.418E+01   -1.421E+01   -1.424E+01   -1.427E+01   -1.430E+01   -1.433E+01   -1.436E+01
    -1.439E+01   -1.442E+01   -1.445E+01   -1.448E+01   -1.451E+01   -1.454E+01   -1.457E+01   -1.460E+01   -1.463E+01   -1.466E+01
    -1.469E+01   -1.472E+01   -1.475E+01   -1.478E+01   -1.481E+01   -1.484E+01   -1.487E+01   -1.491E+01   -1.494E+01   -1.497E+01
    -1.500E+01   -1.503E+01   -1.506E+01   -1.509E+01   -1.512E+01   -1.515E+01   -1.518E+01   -1.521E+01   -1.524E+01   -1.527E+01
    -1.530E+01   -1.533E+01   -1.536E+01   -1.539E+01   -1.542E+01   -1.545E+01   -1.548E+01   -1.551E+01   -1.554E+01   -1.557E+01
    -1.560E+01   -1.563E+01   -1.566E+01   -1.569E+01   -1.572E+01   -1.575E+01   -1.578E+01   -1.581E+01   -1.584E+01   -1.587E+01
    -1.590E+01   -1.593E+01   -1.596E+01   -1.599E+01   -1.602E+01   -1.605E+01   -1.608E+01   -1.611E+01   -1.614E+01   -1.618E+01
    -1.621E+01   -1.624E+01   -1.627E+01   -1.630E+01   -1.633E+01   -1.636E+01   -1.639E+01   -1.642E+01   -1.645E+01   -1.648E+01
    -1.651E+01   -1.654E+01   -1.657E+01   -1.660E+01   -1.663E+01   -1.666E+01   -1.669E+01   -1.672E+01   -1.675E+01   -1.678E+01
    -1.681E+01   -1.684E+01   -1.687E+01   -1.690E+01   -1.693E+01   -1.696E+01   -1.700E+01   -1.703E+01   -1.706E+01   -1.709E+01
    -1.712E+01   -1.715E+01   -1.718E+01   -1.721E+01   -1.724E+01   -1.727E+01   -1.730E+01   -1.733E+01   -1.736E+01   -1.739E+01
    -1.742E+01   -1.745E+01   -1.748E+01   -1.751E+01   -1.754E+01   -1.757E+01   -1.760E+01   -1.763E+01   -1.767E+01   -1.770E+01
    -1.773E+01   -1.776E+01   -1.779E+01   -1.782E+01   -1.785E+01   -1.788E+01   -1.791E+01   -1.794E+01   -1.797E+01   -1.800E+01
    -1.803E+01   -1.806E+01   -1.809E+01   -1.812E+01   -1.815E+01   -1.818E+01   -1.821E+01   -1.825E+01   -1.828E+01   -1.831E+01
    -1.834E+01   -1.837E+01   -1.840E+01   -1.843E+01   -1.846E+01   -1.849E+01   -1.852E+01   -1.855E+01   -1.858E+01   -1.861E+01
    -1.864E+01   -1.867E+01   -1.870E+01   -1.873E+01   -1.877E+01   -1.880E+01   -1.883E+01   -1.886E+01   -1.889E+01   -1.892E+01
    -1.895E+01   -1.898E+01   -1.901E+01   -1.904E+01   -1.907E+01   -1.910E+01   -1.913E+01   -1.916E+01   -1.919E+01   -1.923E+01
    -1.926E+01   -1.929E+01   -1.932E+01   -1.935E+01   -1.938E+01   -1.941E+01   -1.944E+01   -1.947E+01   -1.950E+01   -1.953E+01
    -1.956E+01   -1.959E+01   -1.962E+01   -1.966E+01   -1.969E+01   -1.972E+01   -1.975E+01   -1.978E+01   -1.981E+01   -1.984E+01
    -1.987E+01   -1.990E+01   -1.993E+01   -1.996E+01   -1.999E+01   -2.002E+01   -2.005E+01   -2.009E+01   -2.012E+01   -2.015E+01
    -2.018E+01   -2.021E+01   -2.024E+01   -2.027E+01   -2.030E+01   -2.033E+01   -2.036E+01   -2.039E+01   -2.042E+01   -2.045E+01
    -2.049E+01   -2.052E+01   -2.055E+01   -2.058E+01   -2.061E+01   -2.064E+01   -2.067E+01   -2.070E+01   -2.073E+01   -2.076E+01
    -2.079E+01   -2.082E+01   -2.086E+01   -2.089E+01   -2.092E+01   -2.095E+01   -2.098E+01   -2.101E+01   -2.104E+01   -2.107E+01
    -2.110E+01   -2.113E+01   -2.116E+01   -2.119E+01   -2.123E+01   -2.126E+01   -2.129E+01   -2.132E+01   -2.135E+01   -2.138E+01
    -2.141E+01   -2.144E+01   -2.147E+01   -2.150E+01   -2.153E+01   -2.156E+01   -2.160E+01   -2.163E+01   -2.166E+01   -2.169E+01
    -2.172E+01   -2.175E+01   -2.178E+01   -2.181E+01   -2.184E+01   -2.187E+01   -2.190E+01   -2.194E+01   -2.197E+01   -2.200E+01
    -2.203E+01   -2.206E+01   -2.209E+01   -2.212E+01   -2.215E+01   -2.218E+01   -2.221E+01   -2.224E+01   -2.228E+01   -2.231E+01
    -2.234E+01   -2.237E+01   -2.240E+01   -2.243E+01   -2.246E+01   -2.249E+01   -2.252E+01   -2.255E+01   -2.258E+01   -2.261E+01
    -2.265E+01   -2.268E+01   -2.271E+01   -2.274E+01   -2.277E+01   -2.280E+01   -2.283E+01   -2.286E+01   -2.289E+01   -2.292E+01
    -2.295E+01   -2.299E+01   -2.302E+01   -2.305E+01   -2.308E+01   -2.311E+01   -2.314E+01   -2.317E+01   -2.320E+01   -2.323E+01
    -2.326E+01   -2.330E+01   -2.333E+01   -2.336E+01   -2.339E+01   -2.342E+01   -2.345E+01   -2.348E+01
 Ala      Conc. = 3.60E+03
