 LCModel (Version 6.3-1L) Copyright: S.W. Provencher.          Ref.: Magn. Reson. Med. 30:672-679 (1993).                
 Slice#1 Row#14 Col#13  PD_24_press_1_raw_act
 36 lines in following concentration table = NCONC+1
    Conc.  %SD /Cr+PCr  Metabolite                                         
    0.807 999% 4.3E-02 Ala                                                 
    3.173  81%   0.170 Asp                                                 
    2.905 480%   0.155 Cr                                                  
   15.785  98%   0.845 PCr                                                 
    1.962  78%   0.105 GABA                                                
    1.845  83% 9.9E-02 Glc                                                 
    0.000 999%   0.000 Gln                                                 
   25.119  89%   1.344 Glu                                                 
    0.000 999%   0.000 GPC                                                 
    8.346  46%   0.447 PCh                                                 
    5.815 140%   0.311 GSH                                                 
   29.282  93%   1.567 Ins                                                 
   13.060  88%   0.699 Lac                                                 
   19.145  50%   1.024 NAA                                                 
    0.000 999%   0.000 NAAG                                                
    0.651  79% 3.5E-02 Scyllo                                              
    3.182  80%   0.170 Tau                                                 
    1.855 170% 9.9E-02 -CrCH2                                              
    8.346  46%   0.447 GPC+PCh                                             
   19.145  50%   1.024 NAA+NAAG                                            
   18.691  49%   1.000 Cr+PCr                                              
   25.119  89%   1.344 Glu+Gln                                             
 2.24E+03  18% 120.054 Lip13a                                              
    0.000 999%   0.000 Lip13b                                              
  795.219  16%  42.547 Lip09                                               
  566.834  20%  30.327 MM09                                                
  346.671  27%  18.548 Lip20                                               
    0.000 999%   0.000 MM20                                                
  333.536  45%  17.845 MM12                                                
   64.061 211%   3.427 MM14                                                
  352.316  29%  18.850 MM17                                                
 2.24E+03  18% 120.054 Lip13a+Lip13b                                       
 2.64E+03  11% 141.326 MM14+Lip13a+Lip13b+MM12                             
 1.36E+03   9%  72.874 MM09+Lip09                                          
  346.671  27%  18.548 MM20+Lip20                                          
   6 lines in following misc. output table
  FWHM = 0.031 ppm    S/N =   4                                            
  Data shift =-0.015 ppm                                                   
  Ph: 136 deg     -14.8 deg/ppm                                            
  alphaB,S = 8.5E+01,   6.4E+00                                            
   14 spline knots.   Ns = 5(1)                                            
   2 inflections.     2 extrema                                            
  498 points on ppm-axis = NY
      4.000000     3.992357     3.984714     3.977070     3.969427     3.961784     3.954141     3.946497     3.938854     3.931211
      3.923568     3.915925     3.908281     3.900638     3.892995     3.885352     3.877708     3.870065     3.862422     3.854779
      3.847136     3.839492     3.831849     3.824206     3.816563     3.808919     3.801276     3.793633     3.785990     3.778347
      3.770703     3.763060     3.755417     3.747774     3.740130     3.732487     3.724844     3.717201     3.709558     3.701914
      3.694271     3.686628     3.678985     3.671341     3.663698     3.656055     3.648412     3.640769     3.633125     3.625482
      3.617839     3.610196     3.602552     3.594909     3.587266     3.579623     3.571980     3.564336     3.556693     3.549050
      3.541407     3.533763     3.526120     3.518477     3.510834     3.503191     3.495547     3.487904     3.480261     3.472618
      3.464974     3.457331     3.449688     3.442045     3.434402     3.426758     3.419115     3.411472     3.403829     3.396185
      3.388542     3.380899     3.373256     3.365613     3.357969     3.350326     3.342683     3.335040     3.327396     3.319753
      3.312110     3.304467     3.296824     3.289180     3.281537     3.273894     3.266251     3.258607     3.250964     3.243321
      3.235678     3.228034     3.220391     3.212748     3.205105     3.197462     3.189818     3.182175     3.174532     3.166889
      3.159245     3.151602     3.143959     3.136316     3.128673     3.121029     3.113386     3.105743     3.098100     3.090456
      3.082813     3.075170     3.067527     3.059884     3.052240     3.044597     3.036954     3.029311     3.021667     3.014024
      3.006381     2.998738     2.991095     2.983451     2.975808     2.968165     2.960522     2.952878     2.945235     2.937592
      2.929949     2.922306     2.914662     2.907019     2.899376     2.891733     2.884089     2.876446     2.868803     2.861160
      2.853517     2.845873     2.838230     2.830587     2.822944     2.815300     2.807657     2.800014     2.792371     2.784728
      2.777084     2.769441     2.761798     2.754155     2.746511     2.738868     2.731225     2.723582     2.715939     2.708295
      2.700652     2.693009     2.685366     2.677722     2.670079     2.662436     2.654793     2.647150     2.639506     2.631863
      2.624220     2.616577     2.608933     2.601290     2.593647     2.586004     2.578361     2.570717     2.563074     2.555431
      2.547788     2.540144     2.532501     2.524858     2.517215     2.509572     2.501928     2.494285     2.486642     2.478999
      2.471355     2.463712     2.456069     2.448426     2.440783     2.433139     2.425496     2.417853     2.410210     2.402566
      2.394923     2.387280     2.379637     2.371994     2.364350     2.356707     2.349064     2.341421     2.333777     2.326134
      2.318491     2.310848     2.303205     2.295561     2.287918     2.280275     2.272632     2.264988     2.257345     2.249702
      2.242059     2.234416     2.226772     2.219129     2.211486     2.203843     2.196199     2.188556     2.180913     2.173270
      2.165627     2.157983     2.150340     2.142697     2.135054     2.127410     2.119767     2.112124     2.104481     2.096838
      2.089194     2.081551     2.073908     2.066265     2.058621     2.050978     2.043335     2.035692     2.028049     2.020405
      2.012762     2.005119     1.997476     1.989833     1.982190     1.974546     1.966903     1.959260     1.951617     1.943974
      1.936331     1.928688     1.921045     1.913402     1.905759     1.898115     1.890472     1.882829     1.875186     1.867543
      1.859900     1.852257     1.844614     1.836971     1.829327     1.821684     1.814041     1.806398     1.798755     1.791112
      1.783469     1.775826     1.768183     1.760540     1.752896     1.745253     1.737610     1.729967     1.722324     1.714681
      1.707038     1.699395     1.691752     1.684108     1.676465     1.668822     1.661179     1.653536     1.645893     1.638250
      1.630607     1.622964     1.615321     1.607677     1.600034     1.592391     1.584748     1.577105     1.569462     1.561819
      1.554176     1.546533     1.538890     1.531246     1.523603     1.515960     1.508317     1.500674     1.493031     1.485388
      1.477745     1.470102     1.462458     1.454815     1.447172     1.439529     1.431886     1.424243     1.416600     1.408957
      1.401314     1.393671     1.386027     1.378384     1.370741     1.363098     1.355455     1.347812     1.340169     1.332526
      1.324883     1.317240     1.309596     1.301953     1.294310     1.286667     1.279024     1.271381     1.263738     1.256095
      1.248452     1.240808     1.233165     1.225522     1.217879     1.210236     1.202593     1.194950     1.187307     1.179664
      1.172021     1.164377     1.156734     1.149091     1.141448     1.133805     1.126162     1.118519     1.110876     1.103233
      1.095590     1.087946     1.080303     1.072660     1.065017     1.057374     1.049731     1.042088     1.034445     1.026802
      1.019158     1.011515     1.003872     0.996229     0.988586     0.980943     0.973300     0.965657     0.958014     0.950371
      0.942727     0.935084     0.927441     0.919798     0.912155     0.904512     0.896869     0.889226     0.881583     0.873940
      0.866296     0.858653     0.851010     0.843367     0.835724     0.828081     0.820438     0.812795     0.805152     0.797508
      0.789865     0.782222     0.774579     0.766936     0.759293     0.751650     0.744007     0.736364     0.728721     0.721077
      0.713434     0.705791     0.698148     0.690505     0.682862     0.675219     0.667576     0.659933     0.652290     0.644646
      0.637003     0.629360     0.621717     0.614074     0.606431     0.598788     0.591145     0.583502     0.575858     0.568215
      0.560572     0.552929     0.545286     0.537643     0.530000     0.522357     0.514714     0.507071     0.499427     0.491784
      0.484141     0.476498     0.468855     0.461212     0.453569     0.445925     0.438282     0.430639     0.422996     0.415353
      0.407710     0.400067     0.392424     0.384780     0.377137     0.369494     0.361851     0.354208     0.346565     0.338922
      0.331278     0.323635     0.315992     0.308349     0.300706     0.293063     0.285420     0.277777     0.270133     0.262490
      0.254847     0.247204     0.239561     0.231918     0.224275     0.216631     0.208988     0.201345
 NY phased data points follow
   5.32571E-01  7.72882E-01  9.73981E-01  2.89721E-01  2.66547E+00  3.55737E-01  1.55310E+00  1.59050E+00  1.18440E+00  5.84280E-01
   8.93400E-01  2.18773E+00  1.68926E+00  1.83307E+00  1.56954E+00  1.18934E+00  6.75861E-01  9.16748E-01  1.18940E+00  9.88200E-01
  -6.67666E-01  4.25235E-01  7.50841E-01 -2.49267E-01  3.81478E-01  2.14357E+00  7.18764E-01  6.81971E-01  1.53879E+00  1.07744E+00
   1.59033E+00  9.30786E-01 -5.02485E-02  2.73557E-02  1.89619E+00  3.24630E-01  8.15593E-01  6.86360E-01 -6.61566E-01  2.19082E+00
   4.37953E-01  5.60024E-01  1.01190E-01  9.75635E-01 -9.66559E-02  1.81335E+00 -1.20694E-01 -3.09880E-01  4.70550E-01  2.25344E+00
   1.92846E+00  1.01653E+00  1.25240E+00  1.69433E+00 -2.22187E+00 -1.11064E-01 -3.25429E-01  9.41728E-01 -7.01311E-01  6.76503E-01
   4.89643E-01  3.13459E-01  5.25770E-01  1.95300E-01 -5.78619E-01  2.24770E+00  1.74480E+00  1.59309E+00  1.03394E+00  1.86533E+00
   1.40490E+00  2.14310E-01  2.47270E+00  9.05268E-02 -1.10383E+00  2.07435E+00 -4.92346E-01  1.50719E+00  1.14735E+00  3.88923E-01
   3.34682E-01  1.36411E+00  1.08734E-02 -1.17034E+00  1.14728E+00  4.74485E-01  5.16006E-01  7.01121E-01  7.08410E-01  1.46648E+00
   6.50852E-01  7.19423E-01  7.15296E-01 -5.33406E-01  1.09534E+00  2.18063E+00  1.12681E+00  2.16359E+00  1.98708E+00 -7.75665E-02
  -2.07218E+00  2.13973E+00 -5.60011E-01  1.10037E+00  2.18172E+00  3.16939E+00  7.91626E-01  3.35198E+00  1.92951E+00  1.50581E+00
   3.64485E-01  5.96804E-01  2.02256E+00  2.75103E+00  8.25923E-01  1.15994E+00  1.35242E+00  2.93825E-01  2.01030E+00  2.46973E+00
   2.07226E+00  1.13553E+00  5.27663E-01  1.04519E+00  1.01850E+00  1.31682E+00 -1.04195E+00 -2.61472E-01  3.05965E+00  1.90382E+00
   2.25227E+00  2.54442E+00  7.70911E-01  1.99914E+00  1.84744E+00  1.81424E+00  1.49750E+00  2.13862E+00 -4.24883E-01 -1.05313E-01
  -3.41849E-01  1.75259E+00  3.14907E-01  1.00243E+00  6.65475E-01  2.40490E+00  7.49827E-01  1.55491E+00  2.33015E+00  1.21175E+00
   4.94600E-02  1.16455E+00  1.83300E+00  1.69169E+00  1.09930E+00  9.67902E-01  1.05644E+00  1.15338E+00  5.59876E-01  7.39863E-01
   2.89685E+00  1.74809E+00  9.18490E-01 -1.83606E-02  1.93800E+00  9.67902E-01  1.37132E+00  9.33487E-01  2.14982E-01  2.11505E+00
  -1.13713E+00  1.26119E+00  1.36138E+00  1.45572E+00  8.53329E-01  8.42195E-01  1.06371E+00  1.02403E+00  1.38287E+00  1.33833E+00
   1.21673E+00 -1.94665E-01  3.70523E-01  2.22141E+00  2.09852E+00  1.80115E+00  3.48257E-01  1.30988E+00 -3.01560E-01  8.45984E-01
   2.08662E+00  1.30195E+00  1.71373E+00  1.75919E+00 -3.53345E-01  2.07401E+00  3.16418E+00  5.74809E-01  1.15991E+00  1.39837E+00
   1.89282E+00  1.36557E+00  1.02519E+00  1.10801E+00 -2.57368E-02  3.45734E-01  2.37680E+00  9.42937E-01  2.92979E+00  9.70059E-01
   1.12714E+00  1.71383E+00  1.31083E+00  2.74635E+00  7.94982E-01  1.68641E+00  1.17954E+00  3.91515E-01  3.27057E+00  5.77987E-01
   2.87165E+00  1.70716E+00  2.61270E+00  1.44202E+00  1.45878E+00 -6.15432E-01  2.22154E+00  1.99439E+00  1.27556E+00  1.98676E+00
   3.33593E+00  7.30419E-01  7.82524E-01  4.80315E-01  1.94013E+00  1.73693E+00  1.96804E+00  1.76812E+00  1.96695E+00  1.58322E+00
   2.79395E+00  1.53214E+00  1.50518E+00  1.65256E+00  1.33503E+00  1.12554E+00  1.77154E+00  9.52037E-01  2.43223E+00  3.63919E+00
   1.85466E+00  3.96602E-01  2.73285E+00  1.48297E+00  7.17160E-01  1.40492E+00  8.60908E-01  9.76731E-01  1.07967E+00  2.14137E-01
   1.36239E+00  3.21461E+00  3.27733E+00  2.21382E+00  2.52357E+00  3.54011E+00  2.22440E+00  1.63241E+00  1.50311E+00  3.22511E+00
   2.64106E+00  1.15866E+00  2.82197E+00  3.50369E+00  1.66581E+00  8.34104E-01  2.38890E+00  1.55315E+00  2.78701E+00  2.52513E+00
   9.14741E-01  1.88302E+00  2.69668E+00  2.84588E+00  2.17272E+00  2.87220E+00  2.09875E+00  2.35793E+00  1.01861E+00  1.99429E+00
   1.26769E+00  1.42043E+00  2.13548E+00  1.09426E+00  3.24868E+00  2.81713E+00  2.92885E+00  3.01320E+00  3.85731E+00  2.45674E+00
   2.74268E+00  4.57134E-01  4.81617E+00  3.68309E+00  3.11244E+00  1.74845E+00  2.98911E+00  3.02549E+00  3.54876E+00  1.31658E+00
   2.07287E+00  2.45950E+00  2.46739E+00  2.84124E+00  4.77081E+00  3.99491E+00  4.17679E+00  5.01418E+00  4.49381E+00  5.85101E+00
   4.37622E+00  2.95808E+00  4.03398E+00  3.45579E+00  3.80104E+00  4.26242E+00  3.83930E+00  3.23973E+00  4.60806E+00  4.63944E+00
   5.37658E+00  2.69035E+00  3.34168E+00  5.57427E+00  4.06357E+00  6.50150E+00  3.73377E+00  4.60574E+00  4.40513E+00  6.37351E+00
   5.10207E+00  4.71735E+00  5.00410E+00  6.91229E+00  5.14292E+00  7.12979E+00  5.70683E+00  6.14622E+00  6.36211E+00  7.40133E+00
   7.08570E+00  7.65253E+00  7.48627E+00  6.07124E+00  6.19043E+00  6.78726E+00  9.04195E+00  9.07987E+00  7.13429E+00  8.96167E+00
   8.41686E+00  9.58514E+00  7.75308E+00  7.15977E+00  8.73016E+00  8.76874E+00  8.75876E+00  9.14723E+00  8.84176E+00  8.09895E+00
   7.74211E+00  9.59949E+00  7.85400E+00  9.09646E+00  8.14101E+00  7.00165E+00  7.84674E+00  6.36147E+00  8.89981E+00  7.66710E+00
   7.29500E+00  8.10522E+00  8.27360E+00  8.74032E+00  8.96366E+00  6.75960E+00  9.54003E+00  7.56928E+00  8.08308E+00  7.68998E+00
   7.46731E+00  9.71384E+00  7.82766E+00  8.41688E+00  8.08106E+00  7.19540E+00  8.57993E+00  7.16034E+00  8.40214E+00  6.92142E+00
   6.34147E+00  6.58519E+00  7.07761E+00  6.73477E+00  7.56161E+00  7.28283E+00  7.80280E+00  6.68569E+00  5.35315E+00  7.42914E+00
   6.24209E+00  7.17820E+00  7.83929E+00  5.87240E+00  6.64484E+00  5.99750E+00  7.57085E+00  5.95643E+00  5.31861E+00  5.42313E+00
   6.04121E+00  3.70278E+00  4.70623E+00  6.18060E+00  4.28982E+00  6.45180E+00  4.16561E+00  5.56797E+00  4.48447E+00  4.62015E+00
   3.90346E+00  5.15284E+00  3.74156E+00  4.33367E+00  3.53219E+00  3.98463E+00  2.21462E+00  2.00911E+00  4.04910E+00  2.85691E+00
   2.70492E+00  3.11822E+00  2.83359E+00  3.27602E+00  3.34895E+00  1.77077E+00  2.13499E+00  2.42486E+00  4.25975E+00  2.04736E+00
   2.98809E+00  2.51166E+00  8.47718E-01  2.93449E+00  1.27910E+00  1.82317E+00  1.47096E+00  1.30397E+00  1.19359E+00  3.43413E-01
   1.94187E+00  4.03024E-01 -8.86710E-01  1.93266E+00  1.53025E+00  3.94221E-01  1.78604E+00 -3.52142E-01  2.82141E-01  1.45231E+00
   2.28825E-01  2.13309E+00  1.22792E-01  3.38057E-01 -2.20491E-02 -4.91378E-01  1.38162E+00 -4.18250E-01 -1.44440E+00  1.05868E+00
  -1.30714E-01  2.51334E-01 -5.91368E-01  2.38228E-03  1.23147E+00  1.59563E+00  1.78830E+00  9.93766E-01 -5.36246E-03 -1.18794E+00
   1.30777E+00  2.03894E+00 -8.66699E-01  7.77218E-01  1.52916E+00  1.00641E+00  8.21023E-01  3.55833E-01
 NY points of the fit to the data follow
   9.61382E-01  9.05231E-01  8.55873E-01  8.33596E-01  8.14715E-01  7.51444E-01  6.52486E-01  5.77475E-01  6.04028E-01  8.11679E-01
   1.14843E+00  1.44400E+00  1.59600E+00  1.59349E+00  1.43575E+00  1.18613E+00  9.95455E-01  9.04444E-01  8.55065E-01  8.31377E-01
   8.17233E-01  8.11665E-01  8.15196E-01  8.25341E-01  8.41239E-01  8.53294E-01  8.44264E-01  8.12867E-01  7.68578E-01  7.56349E-01
   8.20595E-01  9.20982E-01  1.00667E+00  1.08735E+00  1.15616E+00  1.15686E+00  1.09858E+00  1.04680E+00  9.90771E-01  9.11046E-01
   8.39159E-01  8.08550E-01  7.96765E-01  7.54516E-01  6.89062E-01  6.39067E-01  6.50105E-01  7.86991E-01  1.03586E+00  1.26810E+00
   1.36809E+00  1.32058E+00  1.16176E+00  9.53598E-01  7.89066E-01  7.20245E-01  7.16643E-01  7.26560E-01  7.33281E-01  7.66363E-01
   8.42219E-01  9.35930E-01  1.01198E+00  1.04532E+00  1.02122E+00  9.45226E-01  8.58227E-01  7.97999E-01  7.72751E-01  7.81519E-01
   8.06660E-01  8.36880E-01  8.71078E-01  9.03280E-01  9.24691E-01  9.39423E-01  9.54492E-01  9.55103E-01  9.35013E-01  9.12157E-01
   8.87461E-01  8.58851E-01  8.36952E-01  8.35985E-01  8.56424E-01  8.95463E-01  9.39545E-01  9.53867E-01  9.14510E-01  8.40273E-01
   7.65412E-01  7.11980E-01  6.94968E-01  7.23222E-01  7.73547E-01  8.18018E-01  8.47853E-01  8.55956E-01  8.02900E-01  6.12623E-01
   3.37262E-01  1.63723E-01  3.11274E-01  9.39695E-01  1.81535E+00  2.44873E+00  2.64704E+00  2.48131E+00  1.99700E+00  1.37534E+00
   9.98729E-01  9.03701E-01  8.77570E-01  8.68199E-01  8.64423E-01  8.65424E-01  8.68925E-01  8.72906E-01  8.75664E-01  8.75201E-01
   8.68740E-01  8.51719E-01  7.96306E-01  6.45112E-01  4.55412E-01  3.71935E-01  5.55643E-01  1.09452E+00  1.77327E+00  2.22732E+00
   2.34533E+00  2.20051E+00  1.83554E+00  1.41068E+00  1.20049E+00  1.16021E+00  1.12544E+00  1.07481E+00  1.01999E+00  9.84578E-01
   9.93140E-01  1.04412E+00  1.10964E+00  1.16895E+00  1.21035E+00  1.23162E+00  1.24184E+00  1.24745E+00  1.25287E+00  1.26191E+00
   1.27007E+00  1.27568E+00  1.27938E+00  1.28288E+00  1.28487E+00  1.28560E+00  1.28973E+00  1.29927E+00  1.30989E+00  1.31446E+00
   1.30530E+00  1.27827E+00  1.24419E+00  1.21940E+00  1.21140E+00  1.21845E+00  1.23063E+00  1.23489E+00  1.22470E+00  1.20380E+00
   1.17778E+00  1.15438E+00  1.14108E+00  1.13093E+00  1.11519E+00  1.09055E+00  1.05742E+00  1.02748E+00  1.01350E+00  1.01256E+00
   1.01117E+00  1.00319E+00  9.92068E-01  9.81038E-01  9.70430E-01  9.59578E-01  9.41950E-01  9.16112E-01  8.91747E-01  8.89124E-01
   9.16947E-01  9.67250E-01  1.02173E+00  1.05916E+00  1.06923E+00  1.05731E+00  1.03420E+00  1.00452E+00  9.74803E-01  9.56414E-01
   9.52716E-01  9.58895E-01  9.73878E-01  1.00735E+00  1.05743E+00  1.10525E+00  1.15034E+00  1.18575E+00  1.20245E+00  1.19710E+00
   1.16430E+00  1.10719E+00  1.03424E+00  9.77648E-01  9.79725E-01  1.07844E+00  1.27600E+00  1.49424E+00  1.65318E+00  1.71949E+00
   1.67792E+00  1.52221E+00  1.29173E+00  1.08838E+00  9.90697E-01  1.01610E+00  1.13766E+00  1.31657E+00  1.51008E+00  1.64633E+00
   1.68503E+00  1.65550E+00  1.60357E+00  1.55485E+00  1.53255E+00  1.54893E+00  1.60920E+00  1.70348E+00  1.79167E+00  1.83941E+00
   1.83594E+00  1.78657E+00  1.71008E+00  1.63450E+00  1.59724E+00  1.62721E+00  1.71351E+00  1.81994E+00  1.92054E+00  1.99633E+00
   2.01556E+00  1.98078E+00  1.92928E+00  1.89422E+00  1.88165E+00  1.86918E+00  1.78429E+00  1.61237E+00  1.46857E+00  1.51705E+00
   1.92428E+00  2.58559E+00  3.12479E+00  3.33266E+00  3.25263E+00  2.90622E+00  2.39113E+00  2.01330E+00  1.88202E+00  1.81756E+00
   1.76275E+00  1.71669E+00  1.67709E+00  1.64307E+00  1.62625E+00  1.62692E+00  1.63765E+00  1.65218E+00  1.66514E+00  1.67113E+00
   1.67149E+00  1.67107E+00  1.67326E+00  1.68125E+00  1.69699E+00  1.72105E+00  1.75394E+00  1.79439E+00  1.83987E+00  1.89034E+00
   1.94610E+00  2.00662E+00  2.07204E+00  2.14308E+00  2.21962E+00  2.30093E+00  2.38674E+00  2.47679E+00  2.57012E+00  2.66562E+00
   2.76223E+00  2.85849E+00  2.95306E+00  3.04468E+00  3.13208E+00  3.21393E+00  3.28906E+00  3.35648E+00  3.41549E+00  3.46568E+00
   3.50703E+00  3.53984E+00  3.56460E+00  3.58207E+00  3.59332E+00  3.59963E+00  3.60248E+00  3.60344E+00  3.60412E+00  3.60609E+00
   3.61085E+00  3.61973E+00  3.63369E+00  3.65381E+00  3.68327E+00  3.72522E+00  3.78094E+00  3.84859E+00  3.92162E+00  3.99524E+00
   4.07183E+00  4.15395E+00  4.24224E+00  4.34120E+00  4.45686E+00  4.59074E+00  4.74114E+00  4.90281E+00  5.06965E+00  5.23891E+00
   5.40715E+00  5.57049E+00  5.72766E+00  5.87929E+00  6.05714E+00  6.30338E+00  6.63233E+00  7.01351E+00  7.33615E+00  7.50495E+00
   7.54152E+00  7.48662E+00  7.36883E+00  7.27157E+00  7.31917E+00  7.54572E+00  7.88028E+00  8.22288E+00  8.50340E+00  8.69728E+00
   8.76809E+00  8.72232E+00  8.66001E+00  8.61943E+00  8.57817E+00  8.52738E+00  8.46496E+00  8.39121E+00  8.30766E+00  8.21659E+00
   8.12079E+00  8.02336E+00  7.92758E+00  7.83676E+00  7.75414E+00  7.68269E+00  7.62504E+00  7.58327E+00  7.55884E+00  7.55251E+00
   7.56425E+00  7.59322E+00  7.63774E+00  7.69536E+00  7.76296E+00  7.83685E+00  7.91298E+00  7.98708E+00  8.05494E+00  8.11257E+00
   8.15647E+00  8.18376E+00  8.19242E+00  8.18130E+00  8.15021E+00  8.09991E+00  8.03203E+00  7.94892E+00  7.85353E+00  7.74913E+00
   7.63916E+00  7.52697E+00  7.41562E+00  7.30772E+00  7.20528E+00  7.10963E+00  7.02137E+00  6.94037E+00  6.86584E+00  6.79641E+00
   6.73023E+00  6.66516E+00  6.59884E+00  6.52891E+00  6.45310E+00  6.36939E+00  6.27609E+00  6.17189E+00  6.05599E+00  5.92801E+00
   5.78809E+00  5.63680E+00  5.47508E+00  5.30424E+00  5.12582E+00  4.94155E+00  4.75325E+00  4.56279E+00  4.37195E+00  4.18246E+00
   3.99587E+00  3.81355E+00  3.63667E+00  3.46619E+00  3.30286E+00  3.14721E+00  2.99959E+00  2.86016E+00  2.72896E+00  2.60588E+00
   2.49071E+00  2.38316E+00  2.28291E+00  2.18955E+00  2.10269E+00  2.02191E+00  1.94679E+00  1.87691E+00  1.81189E+00  1.75134E+00
   1.69491E+00  1.64227E+00  1.59311E+00  1.54714E+00  1.50410E+00  1.46376E+00  1.42590E+00  1.39031E+00  1.35681E+00  1.32524E+00
   1.29545E+00  1.26730E+00  1.24067E+00  1.21544E+00  1.19151E+00  1.16879E+00  1.14720E+00  1.12665E+00  1.10707E+00  1.08840E+00
   1.07057E+00  1.05354E+00  1.03725E+00  1.02166E+00  1.00672E+00  9.92388E-01  9.78636E-01  9.65427E-01  9.52733E-01  9.40521E-01
   9.28765E-01  9.17437E-01  9.06517E-01  8.95984E-01  8.85821E-01  8.76002E-01  8.66513E-01  8.57334E-01  8.48455E-01  8.39861E-01
   8.31539E-01  8.23471E-01  8.15647E-01  8.08056E-01  8.00690E-01  7.93540E-01  7.86595E-01  7.79842E-01
 NY background values follow
     7.679E-01    7.673E-01    7.666E-01    7.660E-01    7.654E-01    7.648E-01    7.642E-01    7.636E-01    7.630E-01    7.623E-01
     7.617E-01    7.611E-01    7.605E-01    7.599E-01    7.593E-01    7.587E-01    7.580E-01    7.574E-01    7.568E-01    7.562E-01
     7.556E-01    7.550E-01    7.544E-01    7.537E-01    7.531E-01    7.525E-01    7.519E-01    7.513E-01    7.507E-01    7.501E-01
     7.494E-01    7.488E-01    7.482E-01    7.476E-01    7.470E-01    7.464E-01    7.457E-01    7.451E-01    7.445E-01    7.439E-01
     7.433E-01    7.427E-01    7.421E-01    7.414E-01    7.408E-01    7.402E-01    7.396E-01    7.390E-01    7.384E-01    7.378E-01
     7.371E-01    7.365E-01    7.359E-01    7.353E-01    7.347E-01    7.341E-01    7.335E-01    7.328E-01    7.322E-01    7.316E-01
     7.310E-01    7.304E-01    7.298E-01    7.292E-01    7.285E-01    7.279E-01    7.273E-01    7.267E-01    7.261E-01    7.255E-01
     7.249E-01    7.242E-01    7.236E-01    7.230E-01    7.224E-01    7.218E-01    7.212E-01    7.206E-01    7.199E-01    7.193E-01
     7.187E-01    7.181E-01    7.175E-01    7.169E-01    7.163E-01    7.156E-01    7.150E-01    7.144E-01    7.138E-01    7.132E-01
     7.126E-01    7.120E-01    7.113E-01    7.107E-01    7.101E-01    7.095E-01    7.089E-01    7.083E-01    7.077E-01    7.070E-01
     7.064E-01    7.058E-01    7.052E-01    7.046E-01    7.040E-01    7.033E-01    7.027E-01    7.021E-01    7.015E-01    7.009E-01
     7.003E-01    6.997E-01    6.990E-01    6.984E-01    6.978E-01    6.972E-01    6.966E-01    6.960E-01    6.954E-01    6.947E-01
     6.941E-01    6.935E-01    6.929E-01    6.923E-01    6.917E-01    6.911E-01    6.904E-01    6.898E-01    6.892E-01    6.886E-01
     6.880E-01    6.874E-01    6.868E-01    6.861E-01    6.855E-01    6.849E-01    6.843E-01    6.837E-01    6.831E-01    6.824E-01
     6.818E-01    6.812E-01    6.806E-01    6.800E-01    6.794E-01    6.788E-01    6.781E-01    6.775E-01    6.769E-01    6.763E-01
     6.757E-01    6.751E-01    6.745E-01    6.738E-01    6.732E-01    6.726E-01    6.720E-01    6.714E-01    6.708E-01    6.702E-01
     6.695E-01    6.689E-01    6.683E-01    6.677E-01    6.671E-01    6.665E-01    6.658E-01    6.652E-01    6.646E-01    6.640E-01
     6.634E-01    6.628E-01    6.622E-01    6.615E-01    6.609E-01    6.603E-01    6.597E-01    6.591E-01    6.585E-01    6.579E-01
     6.572E-01    6.566E-01    6.560E-01    6.554E-01    6.548E-01    6.542E-01    6.535E-01    6.529E-01    6.523E-01    6.517E-01
     6.511E-01    6.505E-01    6.499E-01    6.492E-01    6.486E-01    6.480E-01    6.474E-01    6.468E-01    6.462E-01    6.455E-01
     6.449E-01    6.443E-01    6.437E-01    6.431E-01    6.425E-01    6.419E-01    6.412E-01    6.406E-01    6.400E-01    6.394E-01
     6.388E-01    6.382E-01    6.375E-01    6.369E-01    6.363E-01    6.357E-01    6.351E-01    6.345E-01    6.339E-01    6.332E-01
     6.326E-01    6.320E-01    6.314E-01    6.308E-01    6.302E-01    6.295E-01    6.289E-01    6.283E-01    6.277E-01    6.271E-01
     6.265E-01    6.258E-01    6.252E-01    6.246E-01    6.240E-01    6.234E-01    6.228E-01    6.222E-01    6.215E-01    6.209E-01
     6.203E-01    6.197E-01    6.191E-01    6.185E-01    6.178E-01    6.172E-01    6.166E-01    6.160E-01    6.154E-01    6.148E-01
     6.141E-01    6.135E-01    6.129E-01    6.123E-01    6.117E-01    6.111E-01    6.105E-01    6.098E-01    6.092E-01    6.086E-01
     6.080E-01    6.074E-01    6.068E-01    6.061E-01    6.055E-01    6.049E-01    6.043E-01    6.037E-01    6.031E-01    6.024E-01
     6.018E-01    6.012E-01    6.006E-01    6.000E-01    5.994E-01    5.987E-01    5.981E-01    5.975E-01    5.969E-01    5.963E-01
     5.957E-01    5.950E-01    5.944E-01    5.938E-01    5.932E-01    5.926E-01    5.920E-01    5.913E-01    5.907E-01    5.901E-01
     5.895E-01    5.889E-01    5.883E-01    5.877E-01    5.870E-01    5.864E-01    5.858E-01    5.852E-01    5.846E-01    5.840E-01
     5.833E-01    5.827E-01    5.821E-01    5.815E-01    5.809E-01    5.803E-01    5.796E-01    5.790E-01    5.784E-01    5.778E-01
     5.772E-01    5.766E-01    5.759E-01    5.753E-01    5.747E-01    5.741E-01    5.735E-01    5.729E-01    5.722E-01    5.716E-01
     5.710E-01    5.704E-01    5.698E-01    5.692E-01    5.685E-01    5.679E-01    5.673E-01    5.667E-01    5.661E-01    5.655E-01
     5.648E-01    5.642E-01    5.636E-01    5.630E-01    5.624E-01    5.618E-01    5.611E-01    5.605E-01    5.599E-01    5.593E-01
     5.587E-01    5.581E-01    5.574E-01    5.568E-01    5.562E-01    5.556E-01    5.550E-01    5.543E-01    5.537E-01    5.531E-01
     5.525E-01    5.519E-01    5.513E-01    5.506E-01    5.500E-01    5.494E-01    5.488E-01    5.482E-01    5.476E-01    5.469E-01
     5.463E-01    5.457E-01    5.451E-01    5.445E-01    5.439E-01    5.432E-01    5.426E-01    5.420E-01    5.414E-01    5.408E-01
     5.402E-01    5.395E-01    5.389E-01    5.383E-01    5.377E-01    5.371E-01    5.365E-01    5.358E-01    5.352E-01    5.346E-01
     5.340E-01    5.334E-01    5.328E-01    5.321E-01    5.315E-01    5.309E-01    5.303E-01    5.297E-01    5.290E-01    5.284E-01
     5.278E-01    5.272E-01    5.266E-01    5.260E-01    5.253E-01    5.247E-01    5.241E-01    5.235E-01    5.229E-01    5.223E-01
     5.216E-01    5.210E-01    5.204E-01    5.198E-01    5.192E-01    5.186E-01    5.179E-01    5.173E-01    5.167E-01    5.161E-01
     5.155E-01    5.149E-01    5.142E-01    5.136E-01    5.130E-01    5.124E-01    5.118E-01    5.111E-01    5.105E-01    5.099E-01
     5.093E-01    5.087E-01    5.081E-01    5.074E-01    5.068E-01    5.062E-01    5.056E-01    5.050E-01    5.044E-01    5.037E-01
     5.031E-01    5.025E-01    5.019E-01    5.013E-01    5.006E-01    5.000E-01    4.994E-01    4.988E-01    4.982E-01    4.976E-01
     4.969E-01    4.963E-01    4.957E-01    4.951E-01    4.945E-01    4.939E-01    4.932E-01    4.926E-01    4.920E-01    4.914E-01
     4.908E-01    4.902E-01    4.895E-01    4.889E-01    4.883E-01    4.877E-01    4.871E-01    4.864E-01    4.858E-01    4.852E-01
     4.846E-01    4.840E-01    4.834E-01    4.827E-01    4.821E-01    4.815E-01    4.809E-01    4.803E-01    4.797E-01    4.790E-01
     4.784E-01    4.778E-01    4.772E-01    4.766E-01    4.759E-01    4.753E-01    4.747E-01    4.741E-01    4.735E-01    4.729E-01
     4.722E-01    4.716E-01    4.710E-01    4.704E-01    4.698E-01    4.692E-01    4.685E-01    4.679E-01    4.673E-01    4.667E-01
     4.661E-01    4.654E-01    4.648E-01    4.642E-01    4.636E-01    4.630E-01    4.624E-01    4.617E-01
 Ala      Conc. = 8.07E-01
