 LCModel (Version 6.3-1L) Copyright: S.W. Provencher.          Ref.: Magn. Reson. Med. 30:672-679 (1993).                
 Slice#3 Row#12 Col#5  PD_24_press_1_raw_act
 36 lines in following concentration table = NCONC+1
    Conc.  %SD /Cr+PCr  Metabolite                                         
    0.000 999%   0.000 Ala                                                 
    0.000 999%   0.000 Asp                                                 
  770.123   6%   1.000 Cr                                                  
    0.000 999%   0.000 PCr                                                 
   53.765 182% 7.0E-02 GABA                                                
    0.000 999%   0.000 Glc                                                 
  496.258  43%   0.644 Gln                                                 
  967.792  25%   1.257 Glu                                                 
  309.666   6%   0.402 GPC                                                 
    0.000 999%   0.000 PCh                                                 
  320.627  19%   0.416 GSH                                                 
  970.735  27%   1.260 Ins                                                 
  173.199  60%   0.225 Lac                                                 
 1.07E+03   7%   1.389 NAA                                                 
  149.069  52%   0.194 NAAG                                                
   82.575  26%   0.107 Scyllo                                              
    0.000 999%   0.000 Tau                                                 
   43.207 199% 5.6E-02 -CrCH2                                              
  309.666   6%   0.402 GPC+PCh                                             
 1.22E+03   5%   1.583 NAA+NAAG                                            
  770.123   6%   1.000 Cr+PCr                                              
 1.46E+03  26%   1.901 Glu+Gln                                             
    0.000 999%   0.000 Lip13a                                              
    0.000 999%   0.000 Lip13b                                              
    0.000 999%   0.000 Lip09                                               
  637.250  22%   0.827 MM09                                                
    0.000 999%   0.000 Lip20                                               
  342.373  94%   0.445 MM20                                                
  451.723  28%   0.587 MM12                                                
    0.000 999%   0.000 MM14                                                
  907.630  19%   1.179 MM17                                                
    0.000 999%   0.000 Lip13a+Lip13b                                       
  451.723  28%   0.587 MM14+Lip13a+Lip13b+MM12                             
  637.250  22%   0.827 MM09+Lip09                                          
  342.373  94%   0.445 MM20+Lip20                                          
   6 lines in following misc. output table
  FWHM = 0.061 ppm    S/N =   7                                            
  Data shift = 0.046 ppm                                                   
  Ph: -35 deg     -13.0 deg/ppm                                            
  alphaB,S = 5.5E-01,   8.3E+01                                            
   14 spline knots.   Ns = 8(1)                                            
  (14) 4 infls.   (15) 1 extrs.                                            
  498 points on ppm-axis = NY
      4.000000     3.992357     3.984714     3.977070     3.969427     3.961784     3.954141     3.946497     3.938854     3.931211
      3.923568     3.915925     3.908281     3.900638     3.892995     3.885352     3.877708     3.870065     3.862422     3.854779
      3.847136     3.839492     3.831849     3.824206     3.816563     3.808919     3.801276     3.793633     3.785990     3.778347
      3.770703     3.763060     3.755417     3.747774     3.740130     3.732487     3.724844     3.717201     3.709558     3.701914
      3.694271     3.686628     3.678985     3.671341     3.663698     3.656055     3.648412     3.640769     3.633125     3.625482
      3.617839     3.610196     3.602552     3.594909     3.587266     3.579623     3.571980     3.564336     3.556693     3.549050
      3.541407     3.533763     3.526120     3.518477     3.510834     3.503191     3.495547     3.487904     3.480261     3.472618
      3.464974     3.457331     3.449688     3.442045     3.434402     3.426758     3.419115     3.411472     3.403829     3.396185
      3.388542     3.380899     3.373256     3.365613     3.357969     3.350326     3.342683     3.335040     3.327396     3.319753
      3.312110     3.304467     3.296824     3.289180     3.281537     3.273894     3.266251     3.258607     3.250964     3.243321
      3.235678     3.228034     3.220391     3.212748     3.205105     3.197462     3.189818     3.182175     3.174532     3.166889
      3.159245     3.151602     3.143959     3.136316     3.128673     3.121029     3.113386     3.105743     3.098100     3.090456
      3.082813     3.075170     3.067527     3.059884     3.052240     3.044597     3.036954     3.029311     3.021667     3.014024
      3.006381     2.998738     2.991095     2.983451     2.975808     2.968165     2.960522     2.952878     2.945235     2.937592
      2.929949     2.922306     2.914662     2.907019     2.899376     2.891733     2.884089     2.876446     2.868803     2.861160
      2.853517     2.845873     2.838230     2.830587     2.822944     2.815300     2.807657     2.800014     2.792371     2.784728
      2.777084     2.769441     2.761798     2.754155     2.746511     2.738868     2.731225     2.723582     2.715939     2.708295
      2.700652     2.693009     2.685366     2.677722     2.670079     2.662436     2.654793     2.647150     2.639506     2.631863
      2.624220     2.616577     2.608933     2.601290     2.593647     2.586004     2.578361     2.570717     2.563074     2.555431
      2.547788     2.540144     2.532501     2.524858     2.517215     2.509572     2.501928     2.494285     2.486642     2.478999
      2.471355     2.463712     2.456069     2.448426     2.440783     2.433139     2.425496     2.417853     2.410210     2.402566
      2.394923     2.387280     2.379637     2.371994     2.364350     2.356707     2.349064     2.341421     2.333777     2.326134
      2.318491     2.310848     2.303205     2.295561     2.287918     2.280275     2.272632     2.264988     2.257345     2.249702
      2.242059     2.234416     2.226772     2.219129     2.211486     2.203843     2.196199     2.188556     2.180913     2.173270
      2.165627     2.157983     2.150340     2.142697     2.135054     2.127410     2.119767     2.112124     2.104481     2.096838
      2.089194     2.081551     2.073908     2.066265     2.058621     2.050978     2.043335     2.035692     2.028049     2.020405
      2.012762     2.005119     1.997476     1.989833     1.982190     1.974546     1.966903     1.959260     1.951617     1.943974
      1.936331     1.928688     1.921045     1.913402     1.905759     1.898115     1.890472     1.882829     1.875186     1.867543
      1.859900     1.852257     1.844614     1.836971     1.829327     1.821684     1.814041     1.806398     1.798755     1.791112
      1.783469     1.775826     1.768183     1.760540     1.752896     1.745253     1.737610     1.729967     1.722324     1.714681
      1.707038     1.699395     1.691752     1.684108     1.676465     1.668822     1.661179     1.653536     1.645893     1.638250
      1.630607     1.622964     1.615321     1.607677     1.600034     1.592391     1.584748     1.577105     1.569462     1.561819
      1.554176     1.546533     1.538890     1.531246     1.523603     1.515960     1.508317     1.500674     1.493031     1.485388
      1.477745     1.470102     1.462458     1.454815     1.447172     1.439529     1.431886     1.424243     1.416600     1.408957
      1.401314     1.393671     1.386027     1.378384     1.370741     1.363098     1.355455     1.347812     1.340169     1.332526
      1.324883     1.317240     1.309596     1.301953     1.294310     1.286667     1.279024     1.271381     1.263738     1.256095
      1.248452     1.240808     1.233165     1.225522     1.217879     1.210236     1.202593     1.194950     1.187307     1.179664
      1.172021     1.164377     1.156734     1.149091     1.141448     1.133805     1.126162     1.118519     1.110876     1.103233
      1.095590     1.087946     1.080303     1.072660     1.065017     1.057374     1.049731     1.042088     1.034445     1.026802
      1.019158     1.011515     1.003872     0.996229     0.988586     0.980943     0.973300     0.965657     0.958014     0.950371
      0.942727     0.935084     0.927441     0.919798     0.912155     0.904512     0.896869     0.889226     0.881583     0.873940
      0.866296     0.858653     0.851010     0.843367     0.835724     0.828081     0.820438     0.812795     0.805152     0.797508
      0.789865     0.782222     0.774579     0.766936     0.759293     0.751650     0.744007     0.736364     0.728721     0.721077
      0.713434     0.705791     0.698148     0.690505     0.682862     0.675219     0.667576     0.659933     0.652290     0.644646
      0.637003     0.629360     0.621717     0.614074     0.606431     0.598788     0.591145     0.583502     0.575858     0.568215
      0.560572     0.552929     0.545286     0.537643     0.530000     0.522357     0.514714     0.507071     0.499427     0.491784
      0.484141     0.476498     0.468855     0.461212     0.453569     0.445925     0.438282     0.430639     0.422996     0.415353
      0.407710     0.400067     0.392424     0.384780     0.377137     0.369494     0.361851     0.354208     0.346565     0.338922
      0.331278     0.323635     0.315992     0.308349     0.300706     0.293063     0.285420     0.277777     0.270133     0.262490
      0.254847     0.247204     0.239561     0.231918     0.224275     0.216631     0.208988     0.201345
 NY phased data points follow
  -2.44922E+02 -2.41931E+02 -2.39844E+02 -2.34136E+02 -2.31579E+02 -2.21344E+02 -2.18867E+02 -2.12985E+02 -2.07883E+02 -2.03367E+02
  -1.96921E+02 -1.94231E+02 -1.96910E+02 -1.96523E+02 -1.97928E+02 -1.97877E+02 -1.97742E+02 -1.98522E+02 -1.93840E+02 -1.93142E+02
  -1.94208E+02 -1.90130E+02 -1.87711E+02 -1.83985E+02 -1.83775E+02 -1.82021E+02 -1.78046E+02 -1.76769E+02 -1.73934E+02 -1.72655E+02
  -1.68549E+02 -1.66528E+02 -1.64111E+02 -1.61653E+02 -1.59481E+02 -1.56794E+02 -1.58007E+02 -1.52593E+02 -1.53269E+02 -1.50754E+02
  -1.47631E+02 -1.48952E+02 -1.48782E+02 -1.43607E+02 -1.40358E+02 -1.43195E+02 -1.36452E+02 -1.37405E+02 -1.34078E+02 -1.36678E+02
  -1.38435E+02 -1.37119E+02 -1.30036E+02 -1.32594E+02 -1.31794E+02 -1.34858E+02 -1.30657E+02 -1.30052E+02 -1.31503E+02 -1.27385E+02
  -1.30470E+02 -1.28923E+02 -1.24702E+02 -1.22179E+02 -1.27457E+02 -1.25615E+02 -1.22799E+02 -1.22508E+02 -1.20884E+02 -1.19855E+02
  -1.18374E+02 -1.18221E+02 -1.15969E+02 -1.14667E+02 -1.13661E+02 -1.10759E+02 -1.12326E+02 -1.13325E+02 -1.10826E+02 -1.09787E+02
  -1.08109E+02 -1.07941E+02 -1.06804E+02 -1.03850E+02 -1.03654E+02 -1.01970E+02 -9.99736E+01 -1.00234E+02 -9.82697E+01 -9.56043E+01
  -9.73797E+01 -9.69016E+01 -9.56982E+01 -9.56492E+01 -9.51681E+01 -9.05990E+01 -8.95184E+01 -8.56402E+01 -8.42361E+01 -7.85417E+01
  -7.41759E+01 -6.89450E+01 -7.01320E+01 -6.70415E+01 -6.98583E+01 -7.27352E+01 -7.86806E+01 -7.69988E+01 -7.84858E+01 -8.17825E+01
  -8.13296E+01 -8.50369E+01 -7.97238E+01 -8.22918E+01 -8.13864E+01 -8.02213E+01 -8.06425E+01 -8.02135E+01 -8.06071E+01 -7.76305E+01
  -7.50857E+01 -7.14886E+01 -7.17989E+01 -6.69854E+01 -6.06233E+01 -5.77002E+01 -5.62697E+01 -5.33383E+01 -5.73126E+01 -5.98628E+01
  -6.38439E+01 -6.83096E+01 -6.84755E+01 -7.30059E+01 -7.23043E+01 -7.67832E+01 -7.32150E+01 -7.16624E+01 -7.56337E+01 -7.12634E+01
  -7.13625E+01 -7.17600E+01 -6.77196E+01 -6.99670E+01 -7.17945E+01 -6.94560E+01 -7.06870E+01 -7.32109E+01 -6.73063E+01 -7.00540E+01
  -6.75085E+01 -6.59968E+01 -6.85615E+01 -6.74318E+01 -6.74704E+01 -6.76382E+01 -6.70484E+01 -6.40670E+01 -6.42588E+01 -6.27129E+01
  -6.37703E+01 -6.58147E+01 -6.39806E+01 -5.93214E+01 -6.41160E+01 -6.31236E+01 -6.11765E+01 -6.01633E+01 -6.29772E+01 -6.11227E+01
  -6.04481E+01 -6.11828E+01 -6.08982E+01 -6.00094E+01 -5.81435E+01 -6.09430E+01 -5.97745E+01 -6.01404E+01 -6.08506E+01 -5.90514E+01
  -6.18769E+01 -5.90328E+01 -6.28143E+01 -6.32282E+01 -6.03519E+01 -5.74119E+01 -6.10031E+01 -5.33462E+01 -5.52477E+01 -5.49795E+01
  -5.04113E+01 -5.19145E+01 -5.04062E+01 -5.16611E+01 -4.96433E+01 -4.92362E+01 -5.16093E+01 -5.38866E+01 -5.25091E+01 -5.17106E+01
  -4.93429E+01 -4.96857E+01 -5.22843E+01 -4.81570E+01 -4.81304E+01 -4.91517E+01 -4.85156E+01 -4.99925E+01 -5.00219E+01 -5.00998E+01
  -4.97494E+01 -4.62127E+01 -4.49016E+01 -4.53211E+01 -4.51688E+01 -4.41176E+01 -4.45897E+01 -4.51993E+01 -4.26265E+01 -4.66095E+01
  -4.69923E+01 -4.57197E+01 -4.64690E+01 -4.41098E+01 -4.47721E+01 -4.23731E+01 -4.21925E+01 -3.85292E+01 -4.43033E+01 -3.97323E+01
  -3.79741E+01 -3.71778E+01 -4.09989E+01 -4.25702E+01 -3.97330E+01 -4.30196E+01 -4.04678E+01 -3.87867E+01 -3.70566E+01 -3.98211E+01
  -4.40137E+01 -3.89265E+01 -4.23518E+01 -4.09761E+01 -3.76185E+01 -3.79592E+01 -4.17065E+01 -3.89877E+01 -3.96518E+01 -3.47617E+01
  -3.40722E+01 -3.20637E+01 -3.09351E+01 -2.35759E+01 -2.46443E+01 -1.75609E+01 -1.90741E+01 -9.14008E+00 -7.48061E+00 -3.93140E+00
  -2.11751E+00 -2.97205E+00 -7.39434E+00 -9.74442E+00 -2.03920E+01 -2.43908E+01 -2.75020E+01 -2.84976E+01 -3.31428E+01 -3.34762E+01
  -3.30959E+01 -3.36201E+01 -3.33719E+01 -2.77777E+01 -3.28405E+01 -3.19900E+01 -3.27314E+01 -3.57306E+01 -3.04077E+01 -3.03276E+01
  -3.15279E+01 -3.36517E+01 -3.42096E+01 -3.05100E+01 -3.14234E+01 -3.04550E+01 -3.36873E+01 -3.09900E+01 -3.14654E+01 -3.08464E+01
  -3.23345E+01 -3.28250E+01 -3.08320E+01 -3.48627E+01 -3.07960E+01 -3.21017E+01 -3.17680E+01 -3.11095E+01 -3.36273E+01 -2.87681E+01
  -2.76553E+01 -2.96062E+01 -2.66725E+01 -2.83579E+01 -2.68192E+01 -2.46472E+01 -2.95477E+01 -2.24212E+01 -2.39220E+01 -2.59687E+01
  -2.38221E+01 -2.27542E+01 -2.22037E+01 -2.56695E+01 -2.56152E+01 -2.40757E+01 -2.31363E+01 -2.03108E+01 -2.27531E+01 -2.33137E+01
  -2.34491E+01 -2.26491E+01 -2.08311E+01 -2.14338E+01 -2.31304E+01 -2.16467E+01 -1.95114E+01 -2.27431E+01 -1.88312E+01 -2.21609E+01
  -2.07548E+01 -2.33317E+01 -2.20747E+01 -2.53144E+01 -2.08610E+01 -1.98617E+01 -2.32059E+01 -1.99779E+01 -2.34210E+01 -2.44751E+01
  -2.46619E+01 -2.21628E+01 -2.91014E+01 -2.66715E+01 -2.47498E+01 -2.47163E+01 -2.71838E+01 -2.36821E+01 -2.60490E+01 -2.33798E+01
  -2.54845E+01 -2.37385E+01 -2.51698E+01 -2.37344E+01 -2.00041E+01 -1.76328E+01 -1.77914E+01 -2.10267E+01 -1.67743E+01 -1.65474E+01
  -1.97561E+01 -1.59757E+01 -1.83940E+01 -1.89531E+01 -1.37699E+01 -1.48333E+01 -1.66245E+01 -1.50102E+01 -1.63638E+01 -1.66209E+01
  -1.70488E+01 -1.53254E+01 -1.50941E+01 -1.49990E+01 -1.77797E+01 -1.79020E+01 -1.67386E+01 -1.55409E+01 -1.50440E+01 -1.65283E+01
  -1.67667E+01 -1.92374E+01 -1.76326E+01 -1.47385E+01 -1.52371E+01 -1.29598E+01 -1.78156E+01 -1.69512E+01 -1.65612E+01 -1.65340E+01
  -2.03014E+01 -1.84320E+01 -1.67296E+01 -1.60801E+01 -1.74001E+01 -1.36487E+01 -1.56700E+01 -1.54498E+01 -1.28540E+01 -1.18473E+01
  -1.65533E+01 -1.03905E+01 -1.27958E+01 -1.11456E+01 -1.00985E+01 -1.14065E+01 -1.25407E+01 -1.29908E+01 -1.24957E+01 -1.03827E+01
  -9.96154E+00 -7.62651E+00 -1.37672E+01 -1.37801E+01 -1.46716E+01 -1.20878E+01 -1.32938E+01 -1.15766E+01 -1.53792E+01 -1.09163E+01
  -1.52840E+01 -1.37850E+01 -1.44531E+01 -1.58619E+01 -1.59636E+01 -1.68170E+01 -1.41247E+01 -1.44598E+01 -1.27663E+01 -1.49216E+01
  -1.30952E+01 -1.36193E+01 -1.39395E+01 -1.54944E+01 -1.49964E+01 -1.63861E+01 -1.73851E+01 -1.50669E+01 -1.46691E+01 -1.47678E+01
  -1.41199E+01 -1.46521E+01 -1.68973E+01 -1.72692E+01 -1.58565E+01 -1.15381E+01 -1.09796E+01 -1.42339E+01 -1.50146E+01 -1.03016E+01
  -1.41887E+01 -1.05088E+01 -1.21874E+01 -1.29497E+01 -1.18664E+01 -1.08751E+01 -1.20786E+01 -1.24768E+01 -1.45998E+01 -1.07425E+01
  -1.09677E+01 -1.04359E+01 -1.36775E+01 -1.34223E+01 -8.78277E+00 -1.17141E+01 -1.17298E+01 -1.14255E+01 -1.06945E+01 -1.23523E+01
  -1.25257E+01 -1.20926E+01 -1.12805E+01 -1.17678E+01 -1.39562E+01 -1.04786E+01 -9.99620E+00 -8.29250E+00 -7.78725E+00 -1.33039E+01
  -1.12090E+01 -7.20031E+00 -7.25883E+00 -7.66798E+00 -9.34141E+00 -1.09349E+01 -7.47231E+00 -9.06791E+00 -1.02219E+01 -8.59939E+00
  -1.07367E+01 -9.82242E+00 -1.19375E+01 -7.08448E+00 -6.34653E+00 -9.60755E+00 -8.61464E+00 -9.31285E+00
 NY points of the fit to the data follow
  -2.36994E+02 -2.34983E+02 -2.32414E+02 -2.28836E+02 -2.24998E+02 -2.21300E+02 -2.17493E+02 -2.13156E+02 -2.08489E+02 -2.04107E+02
  -2.00516E+02 -1.98092E+02 -1.96972E+02 -1.96853E+02 -1.97136E+02 -1.97116E+02 -1.96563E+02 -1.95770E+02 -1.94952E+02 -1.94001E+02
  -1.92735E+02 -1.91178E+02 -1.89331E+02 -1.87084E+02 -1.84703E+02 -1.82318E+02 -1.79799E+02 -1.76928E+02 -1.73697E+02 -1.70282E+02
  -1.67007E+02 -1.64267E+02 -1.62353E+02 -1.61335E+02 -1.60935E+02 -1.60681E+02 -1.60283E+02 -1.59626E+02 -1.58528E+02 -1.56812E+02
  -1.54633E+02 -1.52306E+02 -1.49914E+02 -1.47400E+02 -1.44827E+02 -1.42423E+02 -1.40426E+02 -1.38993E+02 -1.38178E+02 -1.37881E+02
  -1.37779E+02 -1.37455E+02 -1.36748E+02 -1.35761E+02 -1.34653E+02 -1.33419E+02 -1.32005E+02 -1.30468E+02 -1.28948E+02 -1.27566E+02
  -1.26405E+02 -1.25475E+02 -1.24731E+02 -1.23991E+02 -1.23115E+02 -1.22086E+02 -1.20947E+02 -1.19736E+02 -1.18473E+02 -1.17210E+02
  -1.16003E+02 -1.14887E+02 -1.13889E+02 -1.13006E+02 -1.12217E+02 -1.11470E+02 -1.10711E+02 -1.09918E+02 -1.09074E+02 -1.08041E+02
  -1.06970E+02 -1.05971E+02 -1.04987E+02 -1.03908E+02 -1.02761E+02 -1.01677E+02 -1.00748E+02 -1.00026E+02 -9.95092E+01 -9.91509E+01
  -9.88339E+01 -9.84057E+01 -9.77884E+01 -9.69575E+01 -9.53366E+01 -9.24326E+01 -8.93131E+01 -8.63703E+01 -8.30690E+01 -7.88425E+01
  -7.41664E+01 -7.00922E+01 -6.74785E+01 -6.69419E+01 -6.85938E+01 -7.17879E+01 -7.54396E+01 -7.84810E+01 -8.06394E+01 -8.23386E+01
  -8.38192E+01 -8.48167E+01 -8.50718E+01 -8.48202E+01 -8.43931E+01 -8.39069E+01 -8.33717E+01 -8.26806E+01 -8.11411E+01 -7.83080E+01
  -7.53810E+01 -7.26842E+01 -6.96333E+01 -6.57039E+01 -6.14252E+01 -5.77750E+01 -5.54490E+01 -5.50134E+01 -5.66311E+01 -5.96761E+01
  -6.30795E+01 -6.58459E+01 -6.78163E+01 -6.95067E+01 -7.11349E+01 -7.23931E+01 -7.29624E+01 -7.29745E+01 -7.26403E+01 -7.20305E+01
  -7.12709E+01 -7.05155E+01 -6.98565E+01 -6.93281E+01 -6.89193E+01 -6.86027E+01 -6.83444E+01 -6.81162E+01 -6.79034E+01 -6.76882E+01
  -6.74601E+01 -6.72086E+01 -6.69399E+01 -6.66940E+01 -6.64500E+01 -6.61603E+01 -6.58222E+01 -6.54596E+01 -6.51453E+01 -6.49056E+01
  -6.46853E+01 -6.44139E+01 -6.40703E+01 -6.36895E+01 -6.33242E+01 -6.30339E+01 -6.28492E+01 -6.27425E+01 -6.26673E+01 -6.25592E+01
  -6.23551E+01 -6.21090E+01 -6.18976E+01 -6.17555E+01 -6.16070E+01 -6.13658E+01 -6.10222E+01 -6.06213E+01 -6.02411E+01 -5.99258E+01
  -5.96305E+01 -5.92863E+01 -5.88626E+01 -5.83392E+01 -5.77189E+01 -5.70337E+01 -5.63254E+01 -5.55435E+01 -5.46551E+01 -5.37327E+01
  -5.29898E+01 -5.25454E+01 -5.23241E+01 -5.22315E+01 -5.22074E+01 -5.21894E+01 -5.20455E+01 -5.16592E+01 -5.10105E+01 -5.01859E+01
  -4.92580E+01 -4.83736E+01 -4.78071E+01 -4.76132E+01 -4.77072E+01 -4.80989E+01 -4.87343E+01 -4.93971E+01 -4.97186E+01 -4.96685E+01
  -4.92314E+01 -4.83208E+01 -4.69825E+01 -4.55421E+01 -4.44906E+01 -4.40375E+01 -4.40661E+01 -4.45079E+01 -4.53715E+01 -4.64409E+01
  -4.72764E+01 -4.75371E+01 -4.71992E+01 -4.63814E+01 -4.52231E+01 -4.38999E+01 -4.26763E+01 -4.18037E+01 -4.13489E+01 -4.11076E+01
  -4.08818E+01 -4.06698E+01 -4.05316E+01 -4.03404E+01 -4.00004E+01 -3.96414E+01 -3.93199E+01 -3.90743E+01 -3.89440E+01 -3.89989E+01
  -3.92306E+01 -3.95486E+01 -3.98037E+01 -3.98233E+01 -3.95484E+01 -3.90573E+01 -3.84531E+01 -3.77578E+01 -3.68644E+01 -3.58904E+01
  -3.49224E+01 -3.36670E+01 -3.10022E+01 -2.67127E+01 -2.25875E+01 -1.90812E+01 -1.54223E+01 -1.10815E+01 -6.79374E+00 -3.65921E+00
  -2.42200E+00 -3.65682E+00 -7.41278E+00 -1.28222E+01 -1.84311E+01 -2.29185E+01 -2.61703E+01 -2.88780E+01 -3.12860E+01 -3.29733E+01
  -3.36734E+01 -3.37647E+01 -3.36534E+01 -3.34724E+01 -3.32821E+01 -3.31216E+01 -3.30029E+01 -3.29222E+01 -3.28600E+01 -3.27980E+01
  -3.27295E+01 -3.26509E+01 -3.25555E+01 -3.24395E+01 -3.23046E+01 -3.21587E+01 -3.20090E+01 -3.18573E+01 -3.17009E+01 -3.15380E+01
  -3.13687E+01 -3.11926E+01 -3.10072E+01 -3.08121E+01 -3.06071E+01 -3.03904E+01 -3.01588E+01 -2.99083E+01 -2.96353E+01 -2.93371E+01
  -2.90119E+01 -2.86581E+01 -2.82756E+01 -2.78669E+01 -2.74352E+01 -2.69832E+01 -2.65144E+01 -2.60340E+01 -2.55482E+01 -2.50645E+01
  -2.45906E+01 -2.41351E+01 -2.37067E+01 -2.33138E+01 -2.29640E+01 -2.26641E+01 -2.24190E+01 -2.22322E+01 -2.21047E+01 -2.20357E+01
  -2.20223E+01 -2.20595E+01 -2.21408E+01 -2.22584E+01 -2.24035E+01 -2.25669E+01 -2.27394E+01 -2.29124E+01 -2.30779E+01 -2.32286E+01
  -2.33587E+01 -2.34632E+01 -2.35381E+01 -2.35807E+01 -2.35881E+01 -2.35576E+01 -2.34845E+01 -2.33594E+01 -2.31558E+01 -2.28473E+01
  -2.25612E+01 -2.23627E+01 -2.21897E+01 -2.20021E+01 -2.18708E+01 -2.19120E+01 -2.21360E+01 -2.23955E+01 -2.26527E+01 -2.28754E+01
  -2.29525E+01 -2.27346E+01 -2.21993E+01 -2.14772E+01 -2.06935E+01 -1.99249E+01 -1.92525E+01 -1.87603E+01 -1.84730E+01 -1.83077E+01
  -1.81704E+01 -1.80475E+01 -1.79666E+01 -1.79241E+01 -1.78752E+01 -1.78005E+01 -1.77173E+01 -1.76410E+01 -1.75773E+01 -1.75280E+01
  -1.74930E+01 -1.74711E+01 -1.74603E+01 -1.74577E+01 -1.74603E+01 -1.74650E+01 -1.74684E+01 -1.74676E+01 -1.74596E+01 -1.74415E+01
  -1.74108E+01 -1.73655E+01 -1.73034E+01 -1.72231E+01 -1.71230E+01 -1.70018E+01 -1.68585E+01 -1.66922E+01 -1.65025E+01 -1.62892E+01
  -1.60525E+01 -1.57930E+01 -1.55121E+01 -1.52117E+01 -1.48948E+01 -1.45650E+01 -1.42268E+01 -1.38855E+01 -1.35473E+01 -1.32188E+01
  -1.29069E+01 -1.26187E+01 -1.23608E+01 -1.21394E+01 -1.19596E+01 -1.18256E+01 -1.17399E+01 -1.17033E+01 -1.17151E+01 -1.17730E+01
  -1.18731E+01 -1.20104E+01 -1.21788E+01 -1.23714E+01 -1.25810E+01 -1.28007E+01 -1.30237E+01 -1.32438E+01 -1.34556E+01 -1.36546E+01
  -1.38374E+01 -1.40015E+01 -1.41453E+01 -1.42681E+01 -1.43699E+01 -1.44512E+01 -1.45131E+01 -1.45568E+01 -1.45840E+01 -1.45962E+01
  -1.45950E+01 -1.45820E+01 -1.45585E+01 -1.45260E+01 -1.44856E+01 -1.44384E+01 -1.43851E+01 -1.43268E+01 -1.42639E+01 -1.41970E+01
  -1.41267E+01 -1.40533E+01 -1.39770E+01 -1.38981E+01 -1.38170E+01 -1.37337E+01 -1.36484E+01 -1.35611E+01 -1.34721E+01 -1.33813E+01
  -1.32889E+01 -1.31950E+01 -1.30994E+01 -1.30023E+01 -1.29038E+01 -1.28040E+01 -1.27029E+01 -1.26007E+01 -1.24974E+01 -1.23931E+01
  -1.22879E+01 -1.21818E+01 -1.20750E+01 -1.19674E+01 -1.18591E+01 -1.17502E+01 -1.16409E+01 -1.15310E+01 -1.14208E+01 -1.13102E+01
  -1.11993E+01 -1.10881E+01 -1.09768E+01 -1.08654E+01 -1.07539E+01 -1.06423E+01 -1.05308E+01 -1.04193E+01 -1.03081E+01 -1.01970E+01
  -1.00861E+01 -9.97557E+00 -9.86535E+00 -9.75554E+00 -9.64619E+00 -9.53733E+00 -9.42899E+00 -9.32122E+00 -9.21410E+00 -9.10767E+00
  -9.00198E+00 -8.89704E+00 -8.79290E+00 -8.68959E+00 -8.58719E+00 -8.48573E+00 -8.38522E+00 -8.28568E+00
 NY background values follow
    -2.390E+02   -2.368E+02   -2.346E+02   -2.324E+02   -2.302E+02   -2.280E+02   -2.258E+02   -2.236E+02   -2.215E+02   -2.193E+02
    -2.171E+02   -2.150E+02   -2.129E+02   -2.107E+02   -2.086E+02   -2.065E+02   -2.044E+02   -2.023E+02   -2.003E+02   -1.982E+02
    -1.962E+02   -1.941E+02   -1.921E+02   -1.901E+02   -1.881E+02   -1.861E+02   -1.842E+02   -1.822E+02   -1.803E+02   -1.784E+02
    -1.765E+02   -1.746E+02   -1.728E+02   -1.709E+02   -1.691E+02   -1.673E+02   -1.655E+02   -1.638E+02   -1.620E+02   -1.603E+02
    -1.586E+02   -1.570E+02   -1.553E+02   -1.537E+02   -1.521E+02   -1.506E+02   -1.490E+02   -1.475E+02   -1.460E+02   -1.445E+02
    -1.431E+02   -1.417E+02   -1.403E+02   -1.389E+02   -1.375E+02   -1.362E+02   -1.349E+02   -1.336E+02   -1.323E+02   -1.311E+02
    -1.299E+02   -1.287E+02   -1.275E+02   -1.263E+02   -1.252E+02   -1.241E+02   -1.230E+02   -1.219E+02   -1.208E+02   -1.197E+02
    -1.187E+02   -1.177E+02   -1.167E+02   -1.157E+02   -1.147E+02   -1.138E+02   -1.128E+02   -1.119E+02   -1.110E+02   -1.101E+02
    -1.092E+02   -1.083E+02   -1.075E+02   -1.066E+02   -1.058E+02   -1.050E+02   -1.042E+02   -1.034E+02   -1.026E+02   -1.018E+02
    -1.010E+02   -1.003E+02   -9.951E+01   -9.876E+01   -9.803E+01   -9.730E+01   -9.659E+01   -9.588E+01   -9.518E+01   -9.449E+01
    -9.381E+01   -9.314E+01   -9.247E+01   -9.182E+01   -9.117E+01   -9.053E+01   -8.990E+01   -8.927E+01   -8.865E+01   -8.804E+01
    -8.744E+01   -8.684E+01   -8.625E+01   -8.567E+01   -8.510E+01   -8.453E+01   -8.397E+01   -8.341E+01   -8.286E+01   -8.232E+01
    -8.178E+01   -8.125E+01   -8.073E+01   -8.021E+01   -7.970E+01   -7.919E+01   -7.869E+01   -7.819E+01   -7.770E+01   -7.722E+01
    -7.673E+01   -7.626E+01   -7.579E+01   -7.532E+01   -7.486E+01   -7.440E+01   -7.395E+01   -7.350E+01   -7.306E+01   -7.262E+01
    -7.218E+01   -7.175E+01   -7.133E+01   -7.090E+01   -7.048E+01   -7.007E+01   -6.965E+01   -6.924E+01   -6.884E+01   -6.844E+01
    -6.804E+01   -6.764E+01   -6.725E+01   -6.686E+01   -6.648E+01   -6.610E+01   -6.572E+01   -6.534E+01   -6.497E+01   -6.460E+01
    -6.423E+01   -6.386E+01   -6.350E+01   -6.314E+01   -6.278E+01   -6.242E+01   -6.207E+01   -6.172E+01   -6.137E+01   -6.102E+01
    -6.068E+01   -6.034E+01   -5.999E+01   -5.965E+01   -5.932E+01   -5.898E+01   -5.865E+01   -5.831E+01   -5.798E+01   -5.765E+01
    -5.732E+01   -5.699E+01   -5.667E+01   -5.634E+01   -5.602E+01   -5.570E+01   -5.537E+01   -5.505E+01   -5.474E+01   -5.442E+01
    -5.410E+01   -5.379E+01   -5.347E+01   -5.316E+01   -5.285E+01   -5.254E+01   -5.224E+01   -5.193E+01   -5.163E+01   -5.133E+01
    -5.103E+01   -5.073E+01   -5.043E+01   -5.014E+01   -4.984E+01   -4.955E+01   -4.926E+01   -4.897E+01   -4.869E+01   -4.840E+01
    -4.812E+01   -4.784E+01   -4.757E+01   -4.729E+01   -4.702E+01   -4.675E+01   -4.648E+01   -4.621E+01   -4.594E+01   -4.568E+01
    -4.542E+01   -4.516E+01   -4.491E+01   -4.466E+01   -4.440E+01   -4.416E+01   -4.391E+01   -4.367E+01   -4.343E+01   -4.319E+01
    -4.295E+01   -4.272E+01   -4.249E+01   -4.226E+01   -4.203E+01   -4.181E+01   -4.158E+01   -4.136E+01   -4.115E+01   -4.093E+01
    -4.072E+01   -4.051E+01   -4.030E+01   -4.009E+01   -3.989E+01   -3.968E+01   -3.948E+01   -3.928E+01   -3.909E+01   -3.889E+01
    -3.870E+01   -3.851E+01   -3.832E+01   -3.813E+01   -3.795E+01   -3.777E+01   -3.758E+01   -3.740E+01   -3.723E+01   -3.705E+01
    -3.688E+01   -3.670E+01   -3.653E+01   -3.636E+01   -3.620E+01   -3.603E+01   -3.587E+01   -3.570E+01   -3.554E+01   -3.538E+01
    -3.522E+01   -3.507E+01   -3.491E+01   -3.476E+01   -3.461E+01   -3.446E+01   -3.431E+01   -3.416E+01   -3.401E+01   -3.386E+01
    -3.372E+01   -3.357E+01   -3.343E+01   -3.329E+01   -3.314E+01   -3.300E+01   -3.286E+01   -3.272E+01   -3.258E+01   -3.244E+01
    -3.230E+01   -3.216E+01   -3.202E+01   -3.188E+01   -3.174E+01   -3.160E+01   -3.146E+01   -3.132E+01   -3.119E+01   -3.105E+01
    -3.090E+01   -3.076E+01   -3.062E+01   -3.048E+01   -3.034E+01   -3.020E+01   -3.005E+01   -2.991E+01   -2.976E+01   -2.962E+01
    -2.947E+01   -2.932E+01   -2.917E+01   -2.902E+01   -2.887E+01   -2.871E+01   -2.856E+01   -2.840E+01   -2.825E+01   -2.809E+01
    -2.793E+01   -2.777E+01   -2.760E+01   -2.744E+01   -2.728E+01   -2.711E+01   -2.695E+01   -2.678E+01   -2.661E+01   -2.645E+01
    -2.628E+01   -2.611E+01   -2.594E+01   -2.577E+01   -2.560E+01   -2.544E+01   -2.527E+01   -2.510E+01   -2.493E+01   -2.477E+01
    -2.460E+01   -2.443E+01   -2.427E+01   -2.410E+01   -2.394E+01   -2.378E+01   -2.361E+01   -2.345E+01   -2.329E+01   -2.314E+01
    -2.298E+01   -2.282E+01   -2.267E+01   -2.252E+01   -2.237E+01   -2.222E+01   -2.207E+01   -2.193E+01   -2.178E+01   -2.164E+01
    -2.150E+01   -2.137E+01   -2.123E+01   -2.110E+01   -2.097E+01   -2.085E+01   -2.072E+01   -2.060E+01   -2.048E+01   -2.036E+01
    -2.025E+01   -2.013E+01   -2.002E+01   -1.991E+01   -1.980E+01   -1.970E+01   -1.959E+01   -1.949E+01   -1.939E+01   -1.929E+01
    -1.919E+01   -1.909E+01   -1.899E+01   -1.890E+01   -1.881E+01   -1.871E+01   -1.862E+01   -1.853E+01   -1.845E+01   -1.836E+01
    -1.827E+01   -1.819E+01   -1.810E+01   -1.802E+01   -1.793E+01   -1.785E+01   -1.777E+01   -1.769E+01   -1.761E+01   -1.753E+01
    -1.745E+01   -1.737E+01   -1.729E+01   -1.721E+01   -1.713E+01   -1.705E+01   -1.697E+01   -1.689E+01   -1.682E+01   -1.674E+01
    -1.666E+01   -1.658E+01   -1.650E+01   -1.642E+01   -1.634E+01   -1.626E+01   -1.618E+01   -1.611E+01   -1.603E+01   -1.595E+01
    -1.587E+01   -1.578E+01   -1.570E+01   -1.562E+01   -1.554E+01   -1.546E+01   -1.538E+01   -1.529E+01   -1.521E+01   -1.513E+01
    -1.504E+01   -1.496E+01   -1.487E+01   -1.479E+01   -1.470E+01   -1.461E+01   -1.452E+01   -1.444E+01   -1.435E+01   -1.426E+01
    -1.417E+01   -1.407E+01   -1.398E+01   -1.389E+01   -1.379E+01   -1.370E+01   -1.360E+01   -1.351E+01   -1.341E+01   -1.331E+01
    -1.321E+01   -1.311E+01   -1.301E+01   -1.291E+01   -1.280E+01   -1.270E+01   -1.260E+01   -1.249E+01   -1.238E+01   -1.227E+01
    -1.217E+01   -1.206E+01   -1.195E+01   -1.184E+01   -1.173E+01   -1.162E+01   -1.150E+01   -1.139E+01   -1.128E+01   -1.117E+01
    -1.106E+01   -1.094E+01   -1.083E+01   -1.072E+01   -1.061E+01   -1.049E+01   -1.038E+01   -1.027E+01   -1.016E+01   -1.005E+01
    -9.936E+00   -9.825E+00   -9.714E+00   -9.604E+00   -9.495E+00   -9.386E+00   -9.278E+00   -9.170E+00   -9.063E+00   -8.957E+00
    -8.852E+00   -8.748E+00   -8.645E+00   -8.542E+00   -8.441E+00   -8.341E+00   -8.241E+00   -8.144E+00
 Cr       Conc. = 7.70E+02
