 LCModel (Version 6.3-1L) Copyright: S.W. Provencher.          Ref.: Magn. Reson. Med. 30:672-679 (1993).                
 Slice#1 Row#6 Col#6  PD_24_press_1_raw_act
 36 lines in following concentration table = NCONC+1
    Conc.  %SD /Cr+PCr  Metabolite                                         
    0.000 999%   0.000 Ala                                                 
   51.161 232% 9.0E-02 Asp                                                 
   17.485 954% 3.1E-02 Cr                                                  
  549.862  32%   0.969 PCr                                                 
   15.216 479% 2.7E-02 GABA                                                
   40.799 182% 7.2E-02 Glc                                                 
   99.921 160%   0.176 Gln                                                 
  373.011  48%   0.657 Glu                                                 
    0.000 999%   0.000 GPC                                                 
  278.512   6%   0.491 PCh                                                 
  108.905  52%   0.192 GSH                                                 
  666.190  27%   1.174 Ins                                                 
    0.000 999%   0.000 Lac                                                 
  939.052   7%   1.655 NAA                                                 
  156.995  45%   0.277 NAAG                                                
   29.889  60% 5.3E-02 Scyllo                                              
  111.491 100%   0.197 Tau                                                 
  286.910  28%   0.506 -CrCH2                                              
  278.512   6%   0.491 GPC+PCh                                             
 1.10E+03   6%   1.932 NAA+NAAG                                            
  567.346   8%   1.000 Cr+PCr                                              
  472.932  49%   0.834 Glu+Gln                                             
  835.993  28%   1.474 Lip13a                                              
    0.000 999%   0.000 Lip13b                                              
  246.711  47%   0.435 Lip09                                               
  590.883  25%   1.041 MM09                                                
  121.722  65%   0.215 Lip20                                               
 1.13E+03  22%   1.991 MM20                                                
  105.982 106%   0.187 MM12                                                
    0.000 999%   0.000 MM14                                                
    0.000 999%   0.000 MM17                                                
  835.993  28%   1.474 Lip13a+Lip13b                                       
  941.975  22%   1.660 MM14+Lip13a+Lip13b+MM12                             
  837.594  15%   1.476 MM09+Lip09                                          
 1.25E+03  20%   2.206 MM20+Lip20                                          
   6 lines in following misc. output table
  FWHM = 0.038 ppm    S/N =   6                                            
  Data shift = 0.015 ppm                                                   
  Ph: -19 deg       4.8 deg/ppm                                            
  alphaB,S = 8.5E+01,   7.6E+01                                            
   14 spline knots.   Ns = 5(1)                                            
   2 inflections.     1 extrema                                            
  498 points on ppm-axis = NY
      4.000000     3.992357     3.984714     3.977070     3.969427     3.961784     3.954141     3.946497     3.938854     3.931211
      3.923568     3.915925     3.908281     3.900638     3.892995     3.885352     3.877708     3.870065     3.862422     3.854779
      3.847136     3.839492     3.831849     3.824206     3.816563     3.808919     3.801276     3.793633     3.785990     3.778347
      3.770703     3.763060     3.755417     3.747774     3.740130     3.732487     3.724844     3.717201     3.709558     3.701914
      3.694271     3.686628     3.678985     3.671341     3.663698     3.656055     3.648412     3.640769     3.633125     3.625482
      3.617839     3.610196     3.602552     3.594909     3.587266     3.579623     3.571980     3.564336     3.556693     3.549050
      3.541407     3.533763     3.526120     3.518477     3.510834     3.503191     3.495547     3.487904     3.480261     3.472618
      3.464974     3.457331     3.449688     3.442045     3.434402     3.426758     3.419115     3.411472     3.403829     3.396185
      3.388542     3.380899     3.373256     3.365613     3.357969     3.350326     3.342683     3.335040     3.327396     3.319753
      3.312110     3.304467     3.296824     3.289180     3.281537     3.273894     3.266251     3.258607     3.250964     3.243321
      3.235678     3.228034     3.220391     3.212748     3.205105     3.197462     3.189818     3.182175     3.174532     3.166889
      3.159245     3.151602     3.143959     3.136316     3.128673     3.121029     3.113386     3.105743     3.098100     3.090456
      3.082813     3.075170     3.067527     3.059884     3.052240     3.044597     3.036954     3.029311     3.021667     3.014024
      3.006381     2.998738     2.991095     2.983451     2.975808     2.968165     2.960522     2.952878     2.945235     2.937592
      2.929949     2.922306     2.914662     2.907019     2.899376     2.891733     2.884089     2.876446     2.868803     2.861160
      2.853517     2.845873     2.838230     2.830587     2.822944     2.815300     2.807657     2.800014     2.792371     2.784728
      2.777084     2.769441     2.761798     2.754155     2.746511     2.738868     2.731225     2.723582     2.715939     2.708295
      2.700652     2.693009     2.685366     2.677722     2.670079     2.662436     2.654793     2.647150     2.639506     2.631863
      2.624220     2.616577     2.608933     2.601290     2.593647     2.586004     2.578361     2.570717     2.563074     2.555431
      2.547788     2.540144     2.532501     2.524858     2.517215     2.509572     2.501928     2.494285     2.486642     2.478999
      2.471355     2.463712     2.456069     2.448426     2.440783     2.433139     2.425496     2.417853     2.410210     2.402566
      2.394923     2.387280     2.379637     2.371994     2.364350     2.356707     2.349064     2.341421     2.333777     2.326134
      2.318491     2.310848     2.303205     2.295561     2.287918     2.280275     2.272632     2.264988     2.257345     2.249702
      2.242059     2.234416     2.226772     2.219129     2.211486     2.203843     2.196199     2.188556     2.180913     2.173270
      2.165627     2.157983     2.150340     2.142697     2.135054     2.127410     2.119767     2.112124     2.104481     2.096838
      2.089194     2.081551     2.073908     2.066265     2.058621     2.050978     2.043335     2.035692     2.028049     2.020405
      2.012762     2.005119     1.997476     1.989833     1.982190     1.974546     1.966903     1.959260     1.951617     1.943974
      1.936331     1.928688     1.921045     1.913402     1.905759     1.898115     1.890472     1.882829     1.875186     1.867543
      1.859900     1.852257     1.844614     1.836971     1.829327     1.821684     1.814041     1.806398     1.798755     1.791112
      1.783469     1.775826     1.768183     1.760540     1.752896     1.745253     1.737610     1.729967     1.722324     1.714681
      1.707038     1.699395     1.691752     1.684108     1.676465     1.668822     1.661179     1.653536     1.645893     1.638250
      1.630607     1.622964     1.615321     1.607677     1.600034     1.592391     1.584748     1.577105     1.569462     1.561819
      1.554176     1.546533     1.538890     1.531246     1.523603     1.515960     1.508317     1.500674     1.493031     1.485388
      1.477745     1.470102     1.462458     1.454815     1.447172     1.439529     1.431886     1.424243     1.416600     1.408957
      1.401314     1.393671     1.386027     1.378384     1.370741     1.363098     1.355455     1.347812     1.340169     1.332526
      1.324883     1.317240     1.309596     1.301953     1.294310     1.286667     1.279024     1.271381     1.263738     1.256095
      1.248452     1.240808     1.233165     1.225522     1.217879     1.210236     1.202593     1.194950     1.187307     1.179664
      1.172021     1.164377     1.156734     1.149091     1.141448     1.133805     1.126162     1.118519     1.110876     1.103233
      1.095590     1.087946     1.080303     1.072660     1.065017     1.057374     1.049731     1.042088     1.034445     1.026802
      1.019158     1.011515     1.003872     0.996229     0.988586     0.980943     0.973300     0.965657     0.958014     0.950371
      0.942727     0.935084     0.927441     0.919798     0.912155     0.904512     0.896869     0.889226     0.881583     0.873940
      0.866296     0.858653     0.851010     0.843367     0.835724     0.828081     0.820438     0.812795     0.805152     0.797508
      0.789865     0.782222     0.774579     0.766936     0.759293     0.751650     0.744007     0.736364     0.728721     0.721077
      0.713434     0.705791     0.698148     0.690505     0.682862     0.675219     0.667576     0.659933     0.652290     0.644646
      0.637003     0.629360     0.621717     0.614074     0.606431     0.598788     0.591145     0.583502     0.575858     0.568215
      0.560572     0.552929     0.545286     0.537643     0.530000     0.522357     0.514714     0.507071     0.499427     0.491784
      0.484141     0.476498     0.468855     0.461212     0.453569     0.445925     0.438282     0.430639     0.422996     0.415353
      0.407710     0.400067     0.392424     0.384780     0.377137     0.369494     0.361851     0.354208     0.346565     0.338922
      0.331278     0.323635     0.315992     0.308349     0.300706     0.293063     0.285420     0.277777     0.270133     0.262490
      0.254847     0.247204     0.239561     0.231918     0.224275     0.216631     0.208988     0.201345
 NY phased data points follow
  -1.49708E+01 -1.15301E+01 -1.68266E+01 -1.27541E+01 -1.20392E+01 -1.00289E+01 -9.49397E+00 -2.98913E+00 -1.82286E+00 -1.74134E+00
  -6.31604E-01 -1.72694E-01 -4.96447E-01 -8.96681E+00 -3.59224E+00 -8.30519E+00 -7.67737E+00 -9.19963E+00 -1.37761E+01 -7.22626E+00
  -6.56415E+00 -5.69381E+00 -1.02813E+01 -3.65525E+00 -3.83889E+00 -7.83214E+00 -6.39466E+00 -8.17184E+00 -4.31425E+00 -5.37283E+00
  -4.01908E+00 -5.71121E+00 -3.87620E+00 -1.01519E+01 -5.11902E+00 -4.38430E+00 -4.64760E+00 -8.03806E+00 -3.71979E+00 -3.54079E+00
  -5.00924E+00 -7.57541E+00 -5.67301E+00 -7.90069E+00 -1.04862E+00  2.09402E+00 -1.96748E+00 -2.40934E+00 -2.96921E+00 -3.99632E+00
  -7.08490E+00 -4.97466E+00 -4.86013E+00 -5.94735E+00  4.99246E-01 -4.68399E+00 -4.15253E+00 -7.81728E+00 -1.28856E+00 -5.65979E+00
  -1.92766E+00 -4.51366E+00 -8.38873E+00 -6.82476E+00 -7.24740E+00 -9.61832E+00 -1.25493E+01 -6.50911E+00 -1.33053E+01 -6.17886E+00
  -3.27742E+00 -3.93371E+00 -1.07169E+01 -1.33195E+00 -5.38781E+00 -6.29579E+00 -4.39989E+00 -1.46657E+01 -4.55823E+00 -7.75554E+00
  -3.23419E+00 -7.41916E+00 -6.02659E+00 -6.31412E+00 -7.65636E+00 -1.07722E+01 -4.57542E+00 -7.41679E+00 -1.90923E+00 -2.92391E+00
  -6.02121E+00 -2.99312E+00 -2.80003E+00 -2.72948E+00  1.11812E-02  8.79466E-02 -3.04505E+00 -4.96420E+00  3.12437E-01 -1.15294E-01
   7.39376E+00  2.17287E+01  2.69341E+01  2.03025E+01  2.45073E+01  1.71185E+01  1.11165E+00  1.35861E+00  2.10474E+00 -1.13567E+00
  -3.90320E+00 -6.26898E+00 -5.17776E+00 -7.56214E+00 -6.30878E+00 -7.61792E-01 -5.49181E+00 -9.77983E+00 -5.11595E+00 -7.28154E-01
  -5.75823E+00 -7.71749E+00 -5.08170E+00  2.05671E+00  3.45272E+00  1.01306E+01  1.63265E+01  1.95135E+01  1.49690E+01  6.97610E+00
   5.25114E+00  3.26026E+00  2.23219E+00 -3.46054E+00  1.45072E+00 -1.27730E+00 -9.56436E+00  1.58158E+00 -3.45962E+00  7.35194E-02
  -7.28068E+00 -2.53912E+00 -4.70711E+00 -4.96584E+00 -9.60324E+00  5.78857E-02 -4.13534E+00 -7.25825E+00 -1.06830E+01 -7.04132E+00
  -9.49018E+00 -3.71068E+00 -4.81909E+00 -5.89363E+00 -1.37495E+01 -3.46764E+00 -3.90074E+00 -5.30838E+00 -2.73820E+00 -8.08973E+00
  -4.68448E+00 -7.22960E+00 -9.35982E+00 -6.06252E-01 -8.56179E+00 -7.34672E+00 -4.37689E+00 -1.46123E+00 -9.88607E+00 -9.84888E+00
  -9.03913E+00 -6.07009E+00 -1.05341E+01 -5.54035E+00 -1.07435E+01 -1.36952E+01 -1.03570E+01 -1.21865E+01 -9.38594E+00 -1.09509E+01
  -1.12556E+01 -9.54342E+00 -1.27163E+01 -1.11131E+01 -7.91475E+00 -1.45352E+01 -9.56660E+00 -1.05647E+01 -3.56975E+00 -1.07283E+01
  -8.40488E+00 -6.56796E+00 -8.87537E+00 -1.13392E+01 -8.17756E+00 -6.08064E+00 -8.99459E+00 -8.18166E+00 -1.43112E+01 -4.70644E+00
  -7.96146E+00 -4.24284E+00 -3.46151E+00 -8.79829E+00 -1.84578E+00 -4.45722E+00 -5.25491E+00 -6.29184E+00 -3.97453E+00 -9.66888E+00
  -1.53714E+00 -5.23718E+00 -2.07863E+00 -5.52194E+00 -3.11357E+00  7.06607E-02  1.46525E+00 -2.23964E+00 -1.74611E+00 -1.58686E+00
  -5.01018E+00 -1.15806E+01 -6.42608E+00 -7.18286E+00 -2.13488E+00 -4.63585E+00 -6.74863E+00 -7.79212E+00 -3.24344E-01 -2.58248E+00
  -3.64722E+00 -5.75148E+00 -2.62336E+00 -6.64235E+00 -5.60357E+00  2.37809E-01 -8.84240E+00 -1.92791E+00 -2.91684E+00 -1.95128E+00
  -2.57643E+00 -7.80342E+00 -7.19528E+00 -7.34383E+00 -1.31044E+00  1.41638E+00  1.50467E+00 -2.45771E-01  1.98744E+00  7.20731E+00
   2.11954E+00  6.60273E+00  2.86478E+00  8.32111E+00  8.81676E+00  1.04498E+01  1.28163E+01  2.21502E+01  3.08300E+01  4.13134E+01
   4.14548E+01  3.38105E+01  2.09584E+01  1.58261E+01  7.53106E+00  4.35469E+00 -4.35525E-01  1.82020E+00 -3.64473E+00  8.61760E-01
  -5.95511E+00 -6.78941E+00 -4.65716E+00 -2.44162E+00 -1.71283E+00 -9.37327E+00 -3.11083E+00 -4.86120E+00 -1.47687E+00 -5.12408E+00
   8.84105E-01 -5.21077E+00 -2.45010E+00 -2.92383E+00 -5.85958E+00 -2.88795E+00 -5.33544E+00 -3.76951E+00 -7.08374E+00 -6.79519E+00
   7.28866E-01 -6.21730E+00 -4.47429E+00 -6.49127E+00 -7.48506E+00 -1.30218E+01 -9.29810E+00 -6.89343E+00 -9.15681E+00 -6.40955E+00
  -7.01459E+00 -6.99108E+00 -5.45573E+00 -5.50816E+00 -7.04995E+00 -7.30604E-01 -8.14649E+00 -7.57727E+00 -2.90785E+00 -1.77521E-02
  -4.67033E+00 -4.19635E+00 -1.00024E+01 -6.78334E+00 -6.90358E+00 -7.63908E+00 -8.56777E+00 -5.97051E+00 -6.66079E+00 -7.14778E+00
  -8.88630E+00 -2.37028E+00 -1.37530E+01 -4.62381E+00 -8.18314E+00 -6.21347E+00 -4.12166E+00 -6.80257E+00 -1.21123E+01 -4.91593E+00
  -5.52608E+00 -4.64334E+00 -3.48570E+00  2.27321E+00 -8.67804E-01 -4.17943E+00 -2.16431E+00 -6.66811E-01 -3.07955E+00 -4.87622E+00
  -1.82569E+00 -1.53767E+00  8.74494E-01  1.56980E+00  4.31562E+00 -2.07596E+00 -1.66539E+00  8.15213E-01 -8.62588E-03  3.65910E+00
  -1.85742E+00  3.27644E+00  3.94884E+00  2.41113E+00 -2.90691E+00  6.20014E+00  2.27923E+00 -5.27850E-01 -1.75194E+00  7.28295E-01
  -5.12627E+00 -1.88178E+00 -5.78733E+00  7.43052E+00 -1.68394E-01  2.45418E+00 -1.19791E+00 -2.55200E+00 -3.32990E+00 -2.86102E-01
   3.55354E+00 -4.00308E-01 -2.02879E+00 -3.89998E+00 -8.67628E+00 -3.06831E+00 -9.38532E+00 -4.68890E+00 -1.03186E+01 -7.41664E+00
  -6.14959E+00 -1.47672E+00 -4.77175E+00 -3.10972E+00  5.56614E-01  1.38095E+00 -1.79759E+00  2.13549E+00 -5.57834E-01  7.53470E+00
  -2.43393E+00 -3.49230E+00  4.77645E-01  1.03953E+00  5.79775E-01  4.88956E-01 -1.56931E+00 -3.85983E-01  2.36681E+00 -1.06964E+00
   9.06654E-01  1.05071E+00  7.36052E+00  2.01194E+00  4.66497E+00  5.77344E+00  3.56476E+00  2.20581E+00  1.60453E+00  1.11041E+00
   3.49605E+00  3.24444E+00 -1.84123E-01  3.62195E+00 -4.29239E+00  1.92189E+00  3.03327E-01  2.19427E+00  8.53305E-01 -6.67343E-01
   8.17867E-01 -7.26891E+00 -2.80309E+00 -2.02566E+00 -1.77882E+00  9.44492E-01 -4.62018E+00 -2.36938E+00  4.93032E+00  1.75628E+00
  -2.41558E+00 -3.58222E+00 -4.66973E+00 -3.35218E+00 -9.15562E-01 -2.35631E-01 -2.57459E+00  1.32337E+00 -2.21332E-01 -2.10409E+00
   1.11741E+00 -2.40396E+00  6.87109E+00  1.09353E+00 -1.55616E+00 -1.50206E+00 -4.97200E+00 -2.40591E+00 -2.60015E+00 -5.52854E+00
  -5.78017E-01  4.18484E-01  3.45511E-01  6.87740E-01  4.18795E+00 -3.98164E+00  1.25828E+00  2.62336E+00  7.97536E-01 -4.08632E+00
  -1.91414E+00  2.87978E-01  2.56082E+00 -4.04149E+00 -1.37879E+00  1.32054E+00 -3.69425E+00 -1.59782E+00 -3.92955E+00 -1.34196E+00
   7.68531E-01  2.92149E-01 -4.09493E+00 -4.03640E+00 -2.74185E+00 -5.24979E+00 -1.25456E+00 -5.66800E+00 -6.16390E+00 -2.93399E+00
   5.84338E-01 -1.80163E+00 -2.97787E-01 -1.10959E+00 -4.84224E+00 -5.86690E+00 -3.00087E+00 -4.82171E+00 -7.28187E+00 -1.59231E+00
  -6.35316E+00 -1.32049E+00 -5.18862E+00 -4.61353E+00 -2.36957E+00 -3.19347E+00 -1.23648E+01 -5.44148E+00
 NY points of the fit to the data follow
  -7.65266E+00 -7.87850E+00 -8.03644E+00 -8.33386E+00 -8.75272E+00 -8.45505E+00 -7.06981E+00 -4.68198E+00 -2.03323E+00 -1.82833E-01
   2.07281E-01 -8.20227E-01 -2.59571E+00 -4.29653E+00 -5.56378E+00 -6.64686E+00 -7.53054E+00 -7.84783E+00 -7.87103E+00 -7.78175E+00
  -7.65379E+00 -7.52520E+00 -7.42147E+00 -7.37597E+00 -7.37029E+00 -7.21017E+00 -6.77169E+00 -6.04727E+00 -5.15774E+00 -4.33635E+00
  -3.80425E+00 -3.69463E+00 -3.95579E+00 -4.43444E+00 -5.06390E+00 -5.81703E+00 -6.56809E+00 -7.12249E+00 -7.46669E+00 -7.64102E+00
  -7.68327E+00 -7.53840E+00 -6.96270E+00 -5.79192E+00 -4.17282E+00 -2.63182E+00 -1.84999E+00 -2.14615E+00 -3.32883E+00 -4.88545E+00
  -6.26453E+00 -7.15132E+00 -7.60528E+00 -7.75748E+00 -7.57277E+00 -7.06976E+00 -6.36732E+00 -5.62588E+00 -5.05070E+00 -4.80237E+00
  -4.95079E+00 -5.42390E+00 -6.00390E+00 -6.47406E+00 -6.71471E+00 -6.73787E+00 -6.57816E+00 -6.28962E+00 -5.94606E+00 -5.61746E+00
  -5.34650E+00 -5.14153E+00 -5.02455E+00 -5.00619E+00 -5.09707E+00 -5.30908E+00 -5.61071E+00 -5.94844E+00 -6.21652E+00 -6.33421E+00
  -6.31553E+00 -6.17255E+00 -5.91604E+00 -5.67593E+00 -5.60940E+00 -5.79910E+00 -6.20319E+00 -6.66118E+00 -6.98943E+00 -7.08149E+00
  -6.97471E+00 -6.77706E+00 -6.59535E+00 -6.42852E+00 -6.25261E+00 -6.09850E+00 -5.88912E+00 -5.26594E+00 -2.79759E+00  2.79482E+00
   1.07374E+01  1.88499E+01  2.42327E+01  2.49790E+01  2.12272E+01  1.48628E+01  8.29630E+00  3.01052E+00 -9.50620E-01 -3.96114E+00
  -5.67559E+00 -6.18202E+00 -6.33356E+00 -6.39522E+00 -6.42250E+00 -6.42815E+00 -6.42079E+00 -6.39577E+00 -6.34002E+00 -6.22706E+00
  -6.00486E+00 -5.50185E+00 -3.90345E+00 -1.59164E-01  5.34971E+00  1.12343E+01  1.54807E+01  1.65677E+01  1.44128E+01  1.02209E+01
   5.65317E+00  1.84203E+00 -1.11680E+00 -3.56693E+00 -5.29048E+00 -6.06315E+00 -6.38891E+00 -6.43721E+00 -6.29391E+00 -6.07050E+00
  -5.85923E+00 -5.71415E+00 -5.66686E+00 -5.70303E+00 -5.78744E+00 -5.89815E+00 -6.01665E+00 -6.12888E+00 -6.23024E+00 -6.32178E+00
  -6.42069E+00 -6.52149E+00 -6.60269E+00 -6.63413E+00 -6.60263E+00 -6.54253E+00 -6.55535E+00 -6.71866E+00 -7.01809E+00 -7.33706E+00
  -7.49011E+00 -7.40442E+00 -7.15572E+00 -6.90466E+00 -6.81531E+00 -6.93769E+00 -7.18523E+00 -7.43937E+00 -7.63745E+00 -7.75909E+00
  -7.85054E+00 -7.99881E+00 -8.23161E+00 -8.48546E+00 -8.64895E+00 -8.61700E+00 -8.43673E+00 -8.25141E+00 -8.16198E+00 -8.16550E+00
  -8.17186E+00 -8.09592E+00 -7.97812E+00 -7.90090E+00 -7.83430E+00 -7.63962E+00 -7.20177E+00 -6.52111E+00 -5.76722E+00 -5.14749E+00
  -4.78713E+00 -4.69251E+00 -4.76660E+00 -4.95325E+00 -5.21660E+00 -5.48166E+00 -5.67682E+00 -5.76253E+00 -5.69266E+00 -5.41169E+00
  -4.95743E+00 -4.43727E+00 -3.99710E+00 -3.77861E+00 -3.86406E+00 -4.31848E+00 -5.02948E+00 -5.79760E+00 -6.49245E+00 -6.99099E+00
  -7.15921E+00 -6.84085E+00 -6.02798E+00 -4.93244E+00 -3.88321E+00 -3.21646E+00 -3.13454E+00 -3.67255E+00 -4.64749E+00 -5.74303E+00
  -6.64258E+00 -7.08579E+00 -6.93074E+00 -6.21638E+00 -5.20085E+00 -4.22118E+00 -3.50473E+00 -3.12712E+00 -3.02845E+00 -3.11392E+00
  -3.25974E+00 -3.31393E+00 -3.17235E+00 -2.85445E+00 -2.45567E+00 -2.09239E+00 -1.86014E+00 -1.81164E+00 -1.98252E+00 -2.30059E+00
  -2.59441E+00 -2.68670E+00 -2.49928E+00 -2.06413E+00 -1.48104E+00 -8.97967E-01 -4.53871E-01 -1.96295E-01 -6.07009E-02  7.28974E-02
   4.13041E-01  1.35831E+00  2.97387E+00  4.98189E+00  7.09581E+00  1.03214E+01  1.61991E+01  2.42074E+01  3.23897E+01  3.77533E+01
   3.80091E+01  3.30598E+01  2.49902E+01  1.67424E+01  1.00939E+01  5.08240E+00  1.17363E+00 -1.25732E+00 -2.14673E+00 -2.55043E+00
  -2.79463E+00 -2.93548E+00 -3.01954E+00 -3.09934E+00 -3.19992E+00 -3.33189E+00 -3.49110E+00 -3.65951E+00 -3.81546E+00 -3.94830E+00
  -4.05521E+00 -4.13359E+00 -4.18910E+00 -4.23525E+00 -4.28465E+00 -4.34117E+00 -4.40180E+00 -4.45897E+00 -4.50711E+00 -4.53967E+00
  -4.55397E+00 -4.55568E+00 -4.55436E+00 -4.55646E+00 -4.56690E+00 -4.58472E+00 -4.60610E+00 -4.62697E+00 -4.64282E+00 -4.64865E+00
  -4.64463E+00 -4.63390E+00 -4.62047E+00 -4.60665E+00 -4.59322E+00 -4.58048E+00 -4.56917E+00 -4.55788E+00 -4.54591E+00 -4.53312E+00
  -4.51959E+00 -4.50514E+00 -4.48981E+00 -4.47336E+00 -4.45588E+00 -4.43722E+00 -4.41736E+00 -4.39595E+00 -4.37288E+00 -4.34783E+00
  -4.32081E+00 -4.29157E+00 -4.25986E+00 -4.22504E+00 -4.18666E+00 -4.14409E+00 -4.09687E+00 -4.04412E+00 -3.98495E+00 -3.91804E+00
  -3.84226E+00 -3.75627E+00 -3.65881E+00 -3.54824E+00 -3.42301E+00 -3.28143E+00 -3.12226E+00 -2.94433E+00 -2.74699E+00 -2.52973E+00
  -2.29280E+00 -2.03701E+00 -1.76432E+00 -1.47737E+00 -1.17984E+00 -8.76000E-01 -5.71157E-01 -2.71186E-01  1.72663E-02  2.87559E-01
   5.32989E-01  7.47471E-01  9.25324E-01  1.06194E+00  1.15367E+00  1.19856E+00  1.19603E+00  1.14724E+00  1.05453E+00  9.21729E-01
   7.53572E-01  5.55965E-01  3.35237E-01  9.81388E-02 -1.48893E-01 -3.99547E-01 -6.48159E-01 -8.89449E-01 -1.11909E+00 -1.33346E+00
  -1.52999E+00 -1.70670E+00 -1.86239E+00 -1.99616E+00 -2.10778E+00 -2.19723E+00 -2.26490E+00 -2.31104E+00 -2.33600E+00 -2.33984E+00
  -2.32271E+00 -2.28449E+00 -2.22505E+00 -2.14389E+00 -2.04048E+00 -1.91406E+00 -1.76418E+00 -1.59036E+00 -1.39256E+00 -1.17085E+00
  -9.25989E-01 -6.59277E-01 -3.73038E-01 -7.03146E-02  2.44808E-01  5.67549E-01  8.92084E-01  1.21195E+00  1.51989E+00  1.80854E+00
   2.07042E+00  2.29856E+00  2.48645E+00  2.62863E+00  2.72075E+00  2.76014E+00  2.74564E+00  2.67800E+00  2.55937E+00  2.39355E+00
   2.18548E+00  1.94140E+00  1.66813E+00  1.37300E+00  1.06319E+00  7.45770E-01  4.27159E-01  1.13288E-01 -1.90906E-01 -4.81323E-01
  -7.55019E-01 -1.00982E+00 -1.24450E+00 -1.45839E+00 -1.65160E+00 -1.82468E+00 -1.97873E+00 -2.11495E+00 -2.23478E+00 -2.33958E+00
  -2.43090E+00 -2.51016E+00 -2.57886E+00 -2.63820E+00 -2.68936E+00 -2.73328E+00 -2.77094E+00 -2.80315E+00 -2.83070E+00 -2.85412E+00
  -2.87395E+00 -2.89055E+00 -2.90442E+00 -2.91586E+00 -2.92525E+00 -2.93272E+00 -2.93851E+00 -2.94274E+00 -2.94569E+00 -2.94746E+00
  -2.94823E+00 -2.94797E+00 -2.94684E+00 -2.94486E+00 -2.94223E+00 -2.93895E+00 -2.93512E+00 -2.93067E+00 -2.92571E+00 -2.92027E+00
  -2.91448E+00 -2.90830E+00 -2.90177E+00 -2.89484E+00 -2.88760E+00 -2.88007E+00 -2.87234E+00 -2.86435E+00 -2.85613E+00 -2.84761E+00
  -2.83892E+00 -2.83005E+00 -2.82106E+00 -2.81186E+00 -2.80249E+00 -2.79291E+00 -2.78324E+00 -2.77344E+00 -2.76357E+00 -2.75352E+00
  -2.74334E+00 -2.73301E+00 -2.72265E+00 -2.71218E+00 -2.70165E+00 -2.69096E+00 -2.68018E+00 -2.66929E+00 -2.65839E+00 -2.64740E+00
  -2.63633E+00 -2.62512E+00 -2.61384E+00 -2.60248E+00 -2.59110E+00 -2.57962E+00 -2.56805E+00 -2.55633E+00
 NY background values follow
    -8.912E+00   -8.899E+00   -8.886E+00   -8.874E+00   -8.861E+00   -8.848E+00   -8.835E+00   -8.823E+00   -8.810E+00   -8.797E+00
    -8.785E+00   -8.772E+00   -8.759E+00   -8.747E+00   -8.734E+00   -8.721E+00   -8.709E+00   -8.696E+00   -8.683E+00   -8.671E+00
    -8.658E+00   -8.645E+00   -8.633E+00   -8.620E+00   -8.607E+00   -8.595E+00   -8.582E+00   -8.569E+00   -8.556E+00   -8.544E+00
    -8.531E+00   -8.518E+00   -8.506E+00   -8.493E+00   -8.480E+00   -8.468E+00   -8.455E+00   -8.442E+00   -8.430E+00   -8.417E+00
    -8.404E+00   -8.392E+00   -8.379E+00   -8.366E+00   -8.354E+00   -8.341E+00   -8.328E+00   -8.316E+00   -8.303E+00   -8.290E+00
    -8.277E+00   -8.265E+00   -8.252E+00   -8.239E+00   -8.227E+00   -8.214E+00   -8.201E+00   -8.189E+00   -8.176E+00   -8.163E+00
    -8.151E+00   -8.138E+00   -8.125E+00   -8.113E+00   -8.100E+00   -8.087E+00   -8.075E+00   -8.062E+00   -8.049E+00   -8.037E+00
    -8.024E+00   -8.011E+00   -7.998E+00   -7.986E+00   -7.973E+00   -7.960E+00   -7.948E+00   -7.935E+00   -7.922E+00   -7.910E+00
    -7.897E+00   -7.884E+00   -7.872E+00   -7.859E+00   -7.846E+00   -7.834E+00   -7.821E+00   -7.808E+00   -7.796E+00   -7.783E+00
    -7.770E+00   -7.758E+00   -7.745E+00   -7.732E+00   -7.719E+00   -7.707E+00   -7.694E+00   -7.681E+00   -7.669E+00   -7.656E+00
    -7.643E+00   -7.631E+00   -7.618E+00   -7.605E+00   -7.593E+00   -7.580E+00   -7.567E+00   -7.555E+00   -7.542E+00   -7.529E+00
    -7.517E+00   -7.504E+00   -7.491E+00   -7.479E+00   -7.466E+00   -7.453E+00   -7.441E+00   -7.428E+00   -7.415E+00   -7.402E+00
    -7.390E+00   -7.377E+00   -7.364E+00   -7.352E+00   -7.339E+00   -7.326E+00   -7.314E+00   -7.301E+00   -7.288E+00   -7.276E+00
    -7.263E+00   -7.250E+00   -7.238E+00   -7.225E+00   -7.212E+00   -7.200E+00   -7.187E+00   -7.174E+00   -7.162E+00   -7.149E+00
    -7.136E+00   -7.123E+00   -7.111E+00   -7.098E+00   -7.085E+00   -7.073E+00   -7.060E+00   -7.047E+00   -7.035E+00   -7.022E+00
    -7.009E+00   -6.997E+00   -6.984E+00   -6.971E+00   -6.959E+00   -6.946E+00   -6.933E+00   -6.921E+00   -6.908E+00   -6.895E+00
    -6.883E+00   -6.870E+00   -6.857E+00   -6.845E+00   -6.832E+00   -6.819E+00   -6.806E+00   -6.794E+00   -6.781E+00   -6.768E+00
    -6.756E+00   -6.743E+00   -6.730E+00   -6.718E+00   -6.705E+00   -6.692E+00   -6.680E+00   -6.667E+00   -6.654E+00   -6.642E+00
    -6.629E+00   -6.616E+00   -6.604E+00   -6.591E+00   -6.578E+00   -6.566E+00   -6.553E+00   -6.540E+00   -6.527E+00   -6.515E+00
    -6.502E+00   -6.489E+00   -6.477E+00   -6.464E+00   -6.451E+00   -6.439E+00   -6.426E+00   -6.413E+00   -6.401E+00   -6.388E+00
    -6.375E+00   -6.363E+00   -6.350E+00   -6.337E+00   -6.325E+00   -6.312E+00   -6.299E+00   -6.287E+00   -6.274E+00   -6.261E+00
    -6.248E+00   -6.236E+00   -6.223E+00   -6.210E+00   -6.198E+00   -6.185E+00   -6.172E+00   -6.160E+00   -6.147E+00   -6.134E+00
    -6.122E+00   -6.109E+00   -6.096E+00   -6.084E+00   -6.071E+00   -6.058E+00   -6.046E+00   -6.033E+00   -6.020E+00   -6.008E+00
    -5.995E+00   -5.982E+00   -5.970E+00   -5.957E+00   -5.944E+00   -5.931E+00   -5.919E+00   -5.906E+00   -5.893E+00   -5.881E+00
    -5.868E+00   -5.855E+00   -5.843E+00   -5.830E+00   -5.817E+00   -5.805E+00   -5.792E+00   -5.779E+00   -5.767E+00   -5.754E+00
    -5.741E+00   -5.729E+00   -5.716E+00   -5.703E+00   -5.690E+00   -5.678E+00   -5.665E+00   -5.652E+00   -5.640E+00   -5.627E+00
    -5.614E+00   -5.602E+00   -5.589E+00   -5.576E+00   -5.564E+00   -5.551E+00   -5.538E+00   -5.526E+00   -5.513E+00   -5.500E+00
    -5.488E+00   -5.475E+00   -5.462E+00   -5.450E+00   -5.437E+00   -5.424E+00   -5.411E+00   -5.399E+00   -5.386E+00   -5.373E+00
    -5.361E+00   -5.348E+00   -5.335E+00   -5.323E+00   -5.310E+00   -5.297E+00   -5.285E+00   -5.272E+00   -5.259E+00   -5.247E+00
    -5.234E+00   -5.221E+00   -5.209E+00   -5.196E+00   -5.183E+00   -5.171E+00   -5.158E+00   -5.145E+00   -5.132E+00   -5.120E+00
    -5.107E+00   -5.094E+00   -5.082E+00   -5.069E+00   -5.056E+00   -5.044E+00   -5.031E+00   -5.018E+00   -5.006E+00   -4.993E+00
    -4.980E+00   -4.968E+00   -4.955E+00   -4.942E+00   -4.930E+00   -4.917E+00   -4.904E+00   -4.891E+00   -4.879E+00   -4.866E+00
    -4.853E+00   -4.841E+00   -4.828E+00   -4.815E+00   -4.803E+00   -4.790E+00   -4.777E+00   -4.765E+00   -4.752E+00   -4.739E+00
    -4.727E+00   -4.714E+00   -4.701E+00   -4.689E+00   -4.676E+00   -4.663E+00   -4.650E+00   -4.638E+00   -4.625E+00   -4.612E+00
    -4.600E+00   -4.587E+00   -4.574E+00   -4.562E+00   -4.549E+00   -4.536E+00   -4.524E+00   -4.511E+00   -4.498E+00   -4.486E+00
    -4.473E+00   -4.460E+00   -4.448E+00   -4.435E+00   -4.422E+00   -4.409E+00   -4.397E+00   -4.384E+00   -4.371E+00   -4.359E+00
    -4.346E+00   -4.333E+00   -4.321E+00   -4.308E+00   -4.295E+00   -4.283E+00   -4.270E+00   -4.257E+00   -4.245E+00   -4.232E+00
    -4.219E+00   -4.207E+00   -4.194E+00   -4.181E+00   -4.168E+00   -4.156E+00   -4.143E+00   -4.130E+00   -4.118E+00   -4.105E+00
    -4.092E+00   -4.080E+00   -4.067E+00   -4.054E+00   -4.042E+00   -4.029E+00   -4.016E+00   -4.004E+00   -3.991E+00   -3.978E+00
    -3.966E+00   -3.953E+00   -3.940E+00   -3.927E+00   -3.915E+00   -3.902E+00   -3.889E+00   -3.877E+00   -3.864E+00   -3.851E+00
    -3.839E+00   -3.826E+00   -3.813E+00   -3.801E+00   -3.788E+00   -3.775E+00   -3.763E+00   -3.750E+00   -3.737E+00   -3.725E+00
    -3.712E+00   -3.699E+00   -3.686E+00   -3.674E+00   -3.661E+00   -3.648E+00   -3.636E+00   -3.623E+00   -3.610E+00   -3.598E+00
    -3.585E+00   -3.572E+00   -3.560E+00   -3.547E+00   -3.534E+00   -3.522E+00   -3.509E+00   -3.496E+00   -3.484E+00   -3.471E+00
    -3.458E+00   -3.446E+00   -3.433E+00   -3.420E+00   -3.407E+00   -3.395E+00   -3.382E+00   -3.369E+00   -3.357E+00   -3.344E+00
    -3.331E+00   -3.319E+00   -3.306E+00   -3.293E+00   -3.281E+00   -3.268E+00   -3.255E+00   -3.243E+00   -3.230E+00   -3.217E+00
    -3.205E+00   -3.192E+00   -3.179E+00   -3.166E+00   -3.154E+00   -3.141E+00   -3.128E+00   -3.116E+00   -3.103E+00   -3.090E+00
    -3.078E+00   -3.065E+00   -3.052E+00   -3.040E+00   -3.027E+00   -3.014E+00   -3.002E+00   -2.989E+00   -2.976E+00   -2.964E+00
    -2.951E+00   -2.938E+00   -2.926E+00   -2.913E+00   -2.900E+00   -2.887E+00   -2.875E+00   -2.862E+00   -2.849E+00   -2.837E+00
    -2.824E+00   -2.811E+00   -2.799E+00   -2.786E+00   -2.773E+00   -2.761E+00   -2.748E+00   -2.735E+00   -2.723E+00   -2.710E+00
    -2.697E+00   -2.685E+00   -2.672E+00   -2.659E+00   -2.647E+00   -2.634E+00   -2.621E+00   -2.608E+00
 Asp      Conc. = 5.12E+01
