 LCModel (Version 6.3-1L) Copyright: S.W. Provencher.          Ref.: Magn. Reson. Med. 30:672-679 (1993).                
 Slice#1 Row#2 Col#6  PD_24_press_1_raw_act
 36 lines in following concentration table = NCONC+1
    Conc.  %SD /Cr+PCr  Metabolite                                         
    0.000 999%   0.000 Ala                                                 
   10.547 688% 7.4E-02 Asp                                                 
  141.891  24%   1.000 Cr                                                  
    0.000 999%   0.000 PCr                                                 
    0.000 999%   0.000 GABA                                                
    0.000 999%   0.000 Glc                                                 
    0.000 999%   0.000 Gln                                                 
  108.659  66%   0.766 Glu                                                 
   25.181 154%   0.177 GPC                                                 
   26.292 150%   0.185 PCh                                                 
    0.000 999%   0.000 GSH                                                 
    9.346 890% 6.6E-02 Ins                                                 
   14.854 220%   0.105 Lac                                                 
  191.600  24%   1.350 NAA                                                 
  178.777  20%   1.260 NAAG                                                
    7.455 123% 5.3E-02 Scyllo                                              
    0.000 999%   0.000 Tau                                                 
   74.270  50%   0.523 -CrCH2                                              
   51.473  24%   0.363 GPC+PCh                                             
  370.377  19%   2.610 NAA+NAAG                                            
  141.891  24%   1.000 Cr+PCr                                              
  108.659  66%   0.766 Glu+Gln                                             
    0.000 999%   0.000 Lip13a                                              
    0.000 999%   0.000 Lip13b                                              
    0.000 999%   0.000 Lip09                                               
 1.49E+03  11%  10.508 MM09                                                
 8.44E-03 999% 5.9E-05 Lip20                                               
 3.26E+03   9%  22.945 MM20                                                
  508.172  18%   3.581 MM12                                                
    0.000 999%   0.000 MM14                                                
 1.12E+03  19%   7.925 MM17                                                
    0.000 999%   0.000 Lip13a+Lip13b                                       
  508.172  18%   3.581 MM14+Lip13a+Lip13b+MM12                             
 1.49E+03  11%  10.508 MM09+Lip09                                          
 3.26E+03   9%  22.945 MM20+Lip20                                          
   6 lines in following misc. output table
  FWHM = 0.061 ppm    S/N =   5                                            
  Data shift = 0.031 ppm                                                   
  Ph:  71 deg      37.8 deg/ppm                                            
  alphaB,S = 7.8E-01,   3.2E+00                                            
   14 spline knots.   Ns = 7(1)                                            
  (11) 6 infls.   (12) 4 extrs.                                            
  498 points on ppm-axis = NY
      4.000000     3.992357     3.984714     3.977070     3.969427     3.961784     3.954141     3.946497     3.938854     3.931211
      3.923568     3.915925     3.908281     3.900638     3.892995     3.885352     3.877708     3.870065     3.862422     3.854779
      3.847136     3.839492     3.831849     3.824206     3.816563     3.808919     3.801276     3.793633     3.785990     3.778347
      3.770703     3.763060     3.755417     3.747774     3.740130     3.732487     3.724844     3.717201     3.709558     3.701914
      3.694271     3.686628     3.678985     3.671341     3.663698     3.656055     3.648412     3.640769     3.633125     3.625482
      3.617839     3.610196     3.602552     3.594909     3.587266     3.579623     3.571980     3.564336     3.556693     3.549050
      3.541407     3.533763     3.526120     3.518477     3.510834     3.503191     3.495547     3.487904     3.480261     3.472618
      3.464974     3.457331     3.449688     3.442045     3.434402     3.426758     3.419115     3.411472     3.403829     3.396185
      3.388542     3.380899     3.373256     3.365613     3.357969     3.350326     3.342683     3.335040     3.327396     3.319753
      3.312110     3.304467     3.296824     3.289180     3.281537     3.273894     3.266251     3.258607     3.250964     3.243321
      3.235678     3.228034     3.220391     3.212748     3.205105     3.197462     3.189818     3.182175     3.174532     3.166889
      3.159245     3.151602     3.143959     3.136316     3.128673     3.121029     3.113386     3.105743     3.098100     3.090456
      3.082813     3.075170     3.067527     3.059884     3.052240     3.044597     3.036954     3.029311     3.021667     3.014024
      3.006381     2.998738     2.991095     2.983451     2.975808     2.968165     2.960522     2.952878     2.945235     2.937592
      2.929949     2.922306     2.914662     2.907019     2.899376     2.891733     2.884089     2.876446     2.868803     2.861160
      2.853517     2.845873     2.838230     2.830587     2.822944     2.815300     2.807657     2.800014     2.792371     2.784728
      2.777084     2.769441     2.761798     2.754155     2.746511     2.738868     2.731225     2.723582     2.715939     2.708295
      2.700652     2.693009     2.685366     2.677722     2.670079     2.662436     2.654793     2.647150     2.639506     2.631863
      2.624220     2.616577     2.608933     2.601290     2.593647     2.586004     2.578361     2.570717     2.563074     2.555431
      2.547788     2.540144     2.532501     2.524858     2.517215     2.509572     2.501928     2.494285     2.486642     2.478999
      2.471355     2.463712     2.456069     2.448426     2.440783     2.433139     2.425496     2.417853     2.410210     2.402566
      2.394923     2.387280     2.379637     2.371994     2.364350     2.356707     2.349064     2.341421     2.333777     2.326134
      2.318491     2.310848     2.303205     2.295561     2.287918     2.280275     2.272632     2.264988     2.257345     2.249702
      2.242059     2.234416     2.226772     2.219129     2.211486     2.203843     2.196199     2.188556     2.180913     2.173270
      2.165627     2.157983     2.150340     2.142697     2.135054     2.127410     2.119767     2.112124     2.104481     2.096838
      2.089194     2.081551     2.073908     2.066265     2.058621     2.050978     2.043335     2.035692     2.028049     2.020405
      2.012762     2.005119     1.997476     1.989833     1.982190     1.974546     1.966903     1.959260     1.951617     1.943974
      1.936331     1.928688     1.921045     1.913402     1.905759     1.898115     1.890472     1.882829     1.875186     1.867543
      1.859900     1.852257     1.844614     1.836971     1.829327     1.821684     1.814041     1.806398     1.798755     1.791112
      1.783469     1.775826     1.768183     1.760540     1.752896     1.745253     1.737610     1.729967     1.722324     1.714681
      1.707038     1.699395     1.691752     1.684108     1.676465     1.668822     1.661179     1.653536     1.645893     1.638250
      1.630607     1.622964     1.615321     1.607677     1.600034     1.592391     1.584748     1.577105     1.569462     1.561819
      1.554176     1.546533     1.538890     1.531246     1.523603     1.515960     1.508317     1.500674     1.493031     1.485388
      1.477745     1.470102     1.462458     1.454815     1.447172     1.439529     1.431886     1.424243     1.416600     1.408957
      1.401314     1.393671     1.386027     1.378384     1.370741     1.363098     1.355455     1.347812     1.340169     1.332526
      1.324883     1.317240     1.309596     1.301953     1.294310     1.286667     1.279024     1.271381     1.263738     1.256095
      1.248452     1.240808     1.233165     1.225522     1.217879     1.210236     1.202593     1.194950     1.187307     1.179664
      1.172021     1.164377     1.156734     1.149091     1.141448     1.133805     1.126162     1.118519     1.110876     1.103233
      1.095590     1.087946     1.080303     1.072660     1.065017     1.057374     1.049731     1.042088     1.034445     1.026802
      1.019158     1.011515     1.003872     0.996229     0.988586     0.980943     0.973300     0.965657     0.958014     0.950371
      0.942727     0.935084     0.927441     0.919798     0.912155     0.904512     0.896869     0.889226     0.881583     0.873940
      0.866296     0.858653     0.851010     0.843367     0.835724     0.828081     0.820438     0.812795     0.805152     0.797508
      0.789865     0.782222     0.774579     0.766936     0.759293     0.751650     0.744007     0.736364     0.728721     0.721077
      0.713434     0.705791     0.698148     0.690505     0.682862     0.675219     0.667576     0.659933     0.652290     0.644646
      0.637003     0.629360     0.621717     0.614074     0.606431     0.598788     0.591145     0.583502     0.575858     0.568215
      0.560572     0.552929     0.545286     0.537643     0.530000     0.522357     0.514714     0.507071     0.499427     0.491784
      0.484141     0.476498     0.468855     0.461212     0.453569     0.445925     0.438282     0.430639     0.422996     0.415353
      0.407710     0.400067     0.392424     0.384780     0.377137     0.369494     0.361851     0.354208     0.346565     0.338922
      0.331278     0.323635     0.315992     0.308349     0.300706     0.293063     0.285420     0.277777     0.270133     0.262490
      0.254847     0.247204     0.239561     0.231918     0.224275     0.216631     0.208988     0.201345
 NY phased data points follow
  -8.07608E-01 -1.98352E+00  3.88229E-01  5.32092E-01 -3.92283E+00 -3.08142E+00 -2.94458E+00  4.93811E-01  1.09684E+00  5.17352E+00
   5.29326E+00  8.59311E+00  5.25614E+00  7.77267E+00  1.82678E+00  8.58158E+00  2.53575E+00  4.17345E+00 -2.92372E+00  6.99889E+00
   2.80172E+00  1.67428E+00 -3.03859E+00  3.02665E-01 -1.22489E-01 -1.47967E+00 -5.53118E+00 -6.32379E-01 -1.90770E+00  2.16460E+00
  -4.92054E-01 -2.48375E+00  4.25530E+00  3.26612E+00  3.86853E-01  1.59954E+00  2.03182E+00  2.77073E-01  4.19194E+00  1.67549E+00
   3.86796E+00  2.53086E+00  2.15352E+00  5.36023E+00  3.89755E+00  3.41779E+00  8.17811E+00  5.92934E+00 -1.23966E+00  2.11322E+00
   4.02934E-01  1.49949E+00 -2.72925E+00  1.36454E-01  2.41595E+00 -6.26137E-02  5.86766E+00  7.86384E+00 -1.26950E-01  1.97438E-01
   1.73358E+00  4.60640E+00 -8.60692E-02  2.51500E+00 -6.82072E-01  3.34036E+00 -3.82913E-01  4.74934E-01  1.62078E+00  3.19988E+00
  -2.19314E-01 -5.04634E+00  1.31822E+00  1.29490E+00 -3.01418E+00  1.81410E+00 -1.01283E+00  2.00874E+00 -3.03507E-01  5.53345E-01
  -3.85241E+00  2.19150E+00 -1.81500E+00 -1.65950E+00  5.44196E-01  1.70831E+00  2.89935E+00  3.13419E+00  3.28519E+00  1.09560E+00
   7.90566E+00  3.62988E+00  3.87070E-02 -3.09372E-01  5.07493E-01 -6.69653E+00 -6.51824E+00 -7.04735E+00 -4.01315E+00  7.91297E+00
   3.66644E+00  8.79619E+00  1.09632E+01  1.33617E+01  1.47957E+01  1.05037E+01  8.11003E+00  9.49802E+00  8.07274E+00  8.18226E+00
   4.39829E+00  3.74603E+00  5.49303E+00  7.78808E+00  3.20641E+00  2.27122E+00  1.21700E+00  1.74325E+00 -2.86862E+00  1.66321E+00
  -3.81527E+00 -9.09392E-01  4.45189E+00  1.97192E+00  6.10258E+00  1.00390E+01  1.20564E+01  1.51240E+01  1.38425E+01  1.10320E+01
   8.43998E+00  9.68435E+00  1.03419E+01  7.91252E+00  9.88796E+00  4.77078E-01  6.98753E-01  7.56580E+00  5.29491E+00  6.04825E+00
   6.28079E-01  1.33780E+00  3.27831E+00  1.29615E+00  2.10384E+00  9.19531E-01  2.63059E-01  6.80086E+00  6.35733E+00  2.64364E-01
   1.30572E+00 -4.16381E-01  2.66726E+00  5.19474E+00  1.64196E+00 -5.37670E-01  2.44558E+00 -3.18812E-01  3.86806E+00 -1.29212E+00
  -1.54060E+00  2.95609E-01  5.33859E-01  5.62846E-02  1.17187E+00  2.55489E+00  4.33033E+00  1.60629E+00  1.43967E+00  2.32523E+00
   2.33753E-01 -1.53961E+00  4.33893E+00 -4.50804E-01 -2.69828E+00  2.69367E+00 -7.42314E-01 -4.11189E+00  2.53402E+00 -4.88891E-01
  -1.32040E+00 -9.79786E-01 -4.84659E-01 -1.47830E+00  1.30578E+00  8.03386E-01  3.44680E-01  1.93137E-01  6.32469E-01  3.51134E+00
   2.90081E+00 -2.99994E-02  8.11126E-01  4.16977E+00  9.30082E-01  2.45950E-01  1.84639E+00  1.25771E+00  1.27154E+00  1.69065E+00
   3.53812E+00 -1.58113E+00  1.56576E+00  6.66119E+00 -3.49674E+00 -3.37278E-01 -1.84112E+00  3.83885E+00 -2.64486E+00  3.77726E-01
   2.44971E+00  2.44072E-01  3.08707E+00  3.18950E+00  6.76474E-01  5.93617E+00  5.88787E+00  4.89170E+00  6.82531E+00  3.24763E+00
   2.92453E+00  2.71576E+00  1.65350E+00  5.16811E+00  2.92978E+00  4.74925E+00  6.24982E+00  2.30079E+00  3.25105E+00  5.72420E+00
   4.25881E+00  7.69315E+00  3.90729E+00  6.56712E+00  3.67092E+00  8.58827E+00  5.08656E+00  3.91876E+00  6.87246E+00  8.54497E+00
   2.69231E+00  4.10761E+00  5.77009E+00 -4.18774E-01  2.49712E+00  5.12948E+00  7.47471E+00  2.20748E+00  4.51488E+00  3.61184E+00
   5.21434E+00  1.87848E-01  1.55152E+00  6.19008E+00  4.04689E+00  9.19880E+00  8.12033E+00  1.27724E+01  1.96494E+01  2.27696E+01
   2.63351E+01  3.13579E+01  1.70385E+01  1.87463E+01  2.03923E+01  1.88223E+01  2.35365E+01  1.46495E+01  1.23750E+01  9.65408E+00
   8.16531E+00  8.51855E+00  6.54361E+00  3.03682E+00  6.82444E+00  6.33062E+00  6.71584E+00  2.66702E+00  2.54781E+00  2.35107E+00
   2.93105E+00  3.09786E+00 -3.13219E-01 -3.97106E-01  3.27588E+00  2.26620E+00  3.36537E+00  4.23306E+00  4.54399E+00  4.29838E+00
  -1.86014E+00  8.98151E-01  3.61460E+00  6.70290E+00  3.16990E+00  3.77997E+00  3.50390E+00  4.61599E+00  6.43282E-01  6.96616E-01
   2.23740E+00 -8.67728E-01  7.33006E+00  2.82332E+00  1.95708E+00  6.23306E+00  6.73718E+00  3.99110E+00  2.93110E+00  7.18239E+00
   4.02986E+00  3.10647E+00  2.63819E+00  3.68847E+00  3.52017E+00  2.58709E+00  1.12884E+00  3.07282E+00  7.84778E+00  5.51185E+00
   5.72177E+00  5.83316E+00  1.81814E+00  4.88890E+00  2.94751E+00  4.59291E+00 -2.16313E+00  6.92927E-01 -2.20073E+00 -2.32987E+00
  -7.95510E+00 -5.81324E+00 -5.75763E+00 -9.15038E-01 -4.38672E+00 -6.07884E+00 -9.88607E+00 -6.82368E+00 -2.45419E+00 -8.36950E+00
  -1.15216E+01 -6.43204E+00 -4.59617E+00 -4.98671E+00 -8.98324E+00 -1.13915E+01 -5.52540E+00 -9.76194E+00 -1.05262E+01 -1.01761E+01
  -1.19657E+01 -1.05906E+01 -1.43982E+01 -1.22197E+01 -7.11207E+00 -1.44433E+01 -1.25928E+01 -8.64576E+00 -1.26792E+01 -9.86948E+00
  -9.18165E+00 -1.06785E+01 -2.19229E+00 -2.64277E+00 -6.32642E+00 -4.41515E+00 -3.19982E+00 -2.82424E+00 -1.24328E+00 -2.00701E+00
  -4.03956E+00 -2.06948E+00 -1.83601E+00 -1.01370E+00 -2.91421E+00 -2.73938E+00 -4.25055E-01 -1.83871E+00  5.14642E-01 -1.09913E-03
  -3.34621E+00 -6.67238E-01 -2.90693E+00  9.72485E-01 -4.24407E+00 -3.70635E+00 -1.95827E+00 -1.51774E+00 -7.10722E+00 -2.43110E+00
  -1.89881E+00 -2.51060E+00 -5.86498E-01 -2.40909E+00 -1.80007E+00  2.26504E-01  8.66462E-01  2.33338E+00  5.40460E+00  1.39499E+00
   1.32361E+00  2.58088E+00  2.69161E+00 -3.64530E-01  3.06077E+00  6.94708E+00  4.47626E+00  2.35550E+00  3.94164E+00  3.99703E+00
   4.57765E+00  3.74033E+00 -1.88577E+00  2.50382E+00  2.23011E+00  1.30551E+00  3.01303E+00 -1.46869E+00 -1.02137E+00  6.54726E-01
  -3.06545E+00  6.85929E-01 -1.33849E-01  5.53771E-01  6.17885E-02 -2.32397E+00 -2.77050E+00 -1.60508E-01 -2.97037E+00 -2.20485E+00
   5.95424E-01  1.25021E+00 -3.60311E+00 -1.73875E+00  6.08981E-01 -1.43778E+00  1.72384E+00  3.40149E+00 -3.18840E+00 -3.34543E+00
  -3.40538E+00  1.10731E-01 -2.95471E+00 -8.31361E-01 -5.88727E+00 -4.44457E+00 -3.70346E+00 -2.70624E+00  5.97121E-01  3.02200E+00
  -1.52714E+00 -8.67869E-01 -3.58741E+00 -1.84306E+00  1.48903E+00  4.31720E-01 -1.57448E+00 -2.22343E+00  5.46252E-01  4.09722E+00
   1.81963E+00 -5.55263E-01 -1.46738E-01  1.52883E+00 -7.71276E-01 -2.32080E+00 -1.05029E-01 -2.14959E+00  8.42699E-01 -8.57427E-01
   2.64505E+00 -4.75938E+00  1.27142E-01  1.78488E+00 -3.64007E+00 -2.83367E+00 -2.84413E+00 -7.72621E-01  1.58922E+00  1.57891E+00
   2.68967E-01  3.53616E-01  1.58690E+00  2.23149E-01 -9.90850E-01 -6.74183E-01  1.70461E-01  3.87830E-01  1.55302E+00  1.38338E+00
  -1.05190E+00  2.27296E+00 -1.66882E+00  3.12586E+00 -3.76939E+00  4.94528E+00 -7.50918E-01  2.10348E+00
 NY points of the fit to the data follow
   2.36444E+00  2.93317E+00  2.92909E+00  1.10818E+00 -1.37255E+00 -1.72780E+00 -4.77594E-01  1.24230E+00  3.60411E+00  5.71884E+00
   7.20506E+00  7.24985E+00  5.62313E+00  4.17985E+00  4.68037E+00  5.77718E+00  5.41762E+00  3.42403E+00  1.62074E+00  7.97702E-01
   9.48120E-01  1.44605E+00  1.64159E+00  1.66848E+00  1.52124E+00  1.27262E+00  1.12432E+00  1.12249E+00  1.44747E+00  1.91782E+00
   2.30787E+00  2.48993E+00  2.34626E+00  2.15577E+00  2.06031E+00  1.99486E+00  2.09638E+00  2.27868E+00  2.32378E+00  2.22079E+00
   2.07913E+00  2.03612E+00  2.08015E+00  2.22197E+00  2.42589E+00  2.49604E+00  2.49154E+00  2.44340E+00  2.33104E+00  2.30339E+00
   2.35395E+00  2.37756E+00  2.34404E+00  2.30433E+00  2.27832E+00  2.26362E+00  2.25924E+00  2.27889E+00  2.28341E+00  2.28257E+00
   2.26132E+00  2.22992E+00  2.21104E+00  2.20893E+00  2.21648E+00  2.22123E+00  2.23256E+00  2.24400E+00  2.25997E+00  2.28195E+00
   2.30499E+00  2.32737E+00  2.34441E+00  2.35144E+00  2.35415E+00  2.35170E+00  2.34028E+00  2.29813E+00  2.16691E+00  1.88612E+00
   1.91983E+00  2.22245E+00  2.55764E+00  2.96259E+00  3.28772E+00  3.46205E+00  3.49083E+00  3.30215E+00  3.07160E+00  3.00713E+00
   3.02783E+00  2.89814E+00  2.48321E+00  1.97745E+00  1.29146E+00 -2.75015E-01 -3.05878E+00 -3.24067E+00 -6.14678E-01  2.72898E+00
   6.87136E+00  1.04872E+01  1.27206E+01  1.34315E+01  1.20268E+01  1.00314E+01  9.55302E+00  1.00439E+01  9.41098E+00  6.64615E+00
   3.83554E+00  2.14071E+00  1.58689E+00  1.82187E+00  2.09709E+00  2.28512E+00  2.38147E+00  2.35258E+00  2.06898E+00  9.44389E-01
  -2.00134E+00 -2.63037E+00 -4.22524E-01  2.41108E+00  6.26669E+00  9.83598E+00  1.22066E+01  1.33191E+01  1.22802E+01  1.03632E+01
   9.84327E+00  1.04187E+01  1.01076E+01  7.52977E+00  4.72217E+00  2.86986E+00  2.03223E+00  2.00512E+00  2.03760E+00  2.02298E+00
   1.99401E+00  1.95575E+00  1.90581E+00  1.85732E+00  1.80324E+00  1.74036E+00  1.70814E+00  1.74555E+00  1.68771E+00  1.55365E+00
   1.36549E+00  1.07964E+00  8.81280E-01  9.19161E-01  1.10209E+00  1.27353E+00  1.33452E+00  1.18079E+00  8.33423E-01  6.31203E-01
   5.95061E-01  7.02831E-01  1.00057E+00  1.17244E+00  8.85341E-01  4.68237E-01  1.27617E-01  3.70088E-02  3.10893E-01  6.13951E-01
   6.65545E-01  4.32563E-01  1.32429E-01 -1.70394E-01 -2.13652E-01 -3.06704E-02  1.12212E-01  4.35369E-02 -1.39563E-01 -4.67736E-01
  -6.72159E-01 -7.14702E-01 -5.83874E-01 -3.30703E-01 -3.04553E-01 -4.71763E-01 -4.45212E-01 -1.24663E-01  4.15544E-01  8.68802E-01
   9.52578E-01  9.60423E-01  8.90628E-01  8.73075E-01  9.85759E-01  1.09036E+00  1.07769E+00  8.53723E-01  6.29632E-01  5.72363E-01
   7.50192E-01  1.06811E+00  1.42750E+00  1.69984E+00  1.83403E+00  1.74236E+00  1.54778E+00  1.15996E+00  6.36447E-01 -1.32394E-02
  -2.46453E-01 -1.67243E-01  1.03661E-01  6.89472E-01  1.49684E+00  2.44995E+00  2.97574E+00  2.70917E+00  2.17383E+00  1.78819E+00
   1.41254E+00  1.06521E+00  6.25292E-01  5.82947E-01  9.44130E-01  1.30736E+00  1.54526E+00  1.76006E+00  2.06973E+00  2.52173E+00
   3.00035E+00  3.36530E+00  3.68766E+00  4.08725E+00  4.56303E+00  5.01301E+00  5.28651E+00  5.29513E+00  5.31912E+00  5.46299E+00
   5.61097E+00  5.76563E+00  6.08020E+00  6.66863E+00  7.37924E+00  7.84008E+00  8.00063E+00  7.80645E+00  5.61650E+00  1.15012E+00
   1.52513E-01  1.11608E+00  3.06772E+00  3.77086E+00  3.09073E+00  6.11117E+00  9.40002E+00  1.19254E+01  1.57031E+01  2.09135E+01
   2.64858E+01  2.82943E+01  2.43022E+01  2.03602E+01  1.88827E+01  1.92445E+01  1.78147E+01  1.39563E+01  1.04108E+01  7.58178E+00
   6.28031E+00  5.59759E+00  5.07613E+00  4.60260E+00  4.14831E+00  3.67345E+00  3.15475E+00  2.66519E+00  2.27365E+00  1.92833E+00
   1.58938E+00  1.25290E+00  9.83873E-01  8.32068E-01  7.03516E-01  5.30442E-01  3.85501E-01  2.86351E-01  2.28740E-01  2.08841E-01
   2.37611E-01  3.49799E-01  5.57120E-01  7.83198E-01  1.01835E+00  1.28450E+00  1.59270E+00  1.92997E+00  2.25569E+00  2.57061E+00
   2.88087E+00  3.17929E+00  3.43992E+00  3.65122E+00  3.81903E+00  3.95106E+00  4.02627E+00  4.04117E+00  3.98481E+00  3.85900E+00
   3.66974E+00  3.42341E+00  3.12792E+00  2.79216E+00  2.42466E+00  2.03523E+00  1.63248E+00  1.22465E+00  8.18139E-01  4.19606E-01
   3.40712E-02 -3.34343E-01 -6.83301E-01 -1.01096E+00 -1.31696E+00 -1.60105E+00 -1.86442E+00 -2.10803E+00 -2.33376E+00 -2.54284E+00
  -2.73729E+00 -2.91854E+00 -3.08881E+00 -3.24953E+00 -3.40265E+00 -3.54939E+00 -3.69201E+00 -3.83307E+00 -3.97904E+00 -4.15091E+00
  -4.41263E+00 -4.62687E+00 -4.63627E+00 -4.59668E+00 -4.49772E+00 -4.37081E+00 -4.27775E+00 -4.20143E+00 -4.36213E+00 -4.73221E+00
  -5.00820E+00 -5.18523E+00 -5.29999E+00 -5.41362E+00 -5.49409E+00 -5.41333E+00 -5.25797E+00 -5.11436E+00 -4.97681E+00 -4.75413E+00
  -4.42132E+00 -4.10090E+00 -3.85364E+00 -3.64970E+00 -3.47587E+00 -3.29371E+00 -3.11326E+00 -2.94570E+00 -2.79949E+00 -2.68014E+00
  -2.59204E+00 -2.53699E+00 -2.51566E+00 -2.52605E+00 -2.56518E+00 -2.62780E+00 -2.70817E+00 -2.79879E+00 -2.89222E+00 -2.97984E+00
  -3.05383E+00 -3.10589E+00 -3.12909E+00 -3.11653E+00 -3.06297E+00 -2.96353E+00 -2.81542E+00 -2.61654E+00 -2.36703E+00 -2.06774E+00
  -1.72174E+00 -1.33289E+00 -9.07265E-01 -4.51530E-01  2.57737E-02  5.16014E-01  1.00923E+00  1.49589E+00  1.96573E+00  2.40962E+00
   2.81849E+00  3.18516E+00  3.50304E+00  3.76778E+00  3.97590E+00  4.12637E+00  4.21914E+00  4.25643E+00  4.24108E+00  4.17772E+00
   4.07107E+00  3.92720E+00  3.75181E+00  3.55140E+00  3.33153E+00  3.09811E+00  2.85585E+00  2.60964E+00  2.36308E+00  2.11982E+00
   1.88210E+00  1.65229E+00  1.43152E+00  1.22123E+00  1.02174E+00  8.33729E-01  6.56846E-01  4.91254E-01  3.36293E-01  1.91942E-01
   5.73978E-02 -6.75249E-02 -1.83764E-01 -2.91528E-01 -3.91671E-01 -4.84309E-01 -5.70262E-01 -6.49664E-01 -7.23314E-01 -7.91255E-01
  -8.54154E-01 -9.11966E-01 -9.65347E-01 -1.01427E+00 -1.05935E+00 -1.10047E+00 -1.13812E+00 -1.17217E+00 -1.20315E+00 -1.23093E+00
  -1.25600E+00 -1.27813E+00 -1.29776E+00 -1.31466E+00 -1.32933E+00 -1.34156E+00 -1.35176E+00 -1.35964E+00 -1.36561E+00 -1.36943E+00
  -1.37153E+00 -1.37167E+00 -1.37020E+00 -1.36682E+00 -1.36190E+00 -1.35523E+00 -1.34718E+00 -1.33747E+00 -1.32642E+00 -1.31374E+00
  -1.29981E+00 -1.28437E+00 -1.26779E+00 -1.24975E+00 -1.23057E+00 -1.20996E+00 -1.18828E+00 -1.16529E+00 -1.14130E+00 -1.11600E+00
  -1.08969E+00 -1.06211E+00 -1.03361E+00 -1.00392E+00 -9.73344E-01 -9.41557E-01 -9.08870E-01 -8.75034E-01 -8.40382E-01 -8.04633E-01
  -7.68054E-01 -7.30350E-01 -6.91828E-01 -6.52248E-01 -6.11914E-01 -5.70531E-01 -5.28351E-01 -4.85093E-01
 NY background values follow
    -8.807E-02   -8.807E-02   -8.804E-02   -8.798E-02   -8.791E-02   -8.781E-02   -8.769E-02   -8.754E-02   -8.737E-02   -8.718E-02
    -8.697E-02   -8.673E-02   -8.648E-02   -8.620E-02   -8.590E-02   -8.558E-02   -8.524E-02   -8.488E-02   -8.450E-02   -8.410E-02
    -8.368E-02   -8.324E-02   -8.279E-02   -8.232E-02   -8.183E-02   -8.132E-02   -8.080E-02   -8.026E-02   -7.970E-02   -7.913E-02
    -7.855E-02   -7.795E-02   -7.733E-02   -7.671E-02   -7.607E-02   -7.541E-02   -7.475E-02   -7.407E-02   -7.339E-02   -7.269E-02
    -7.198E-02   -7.127E-02   -7.054E-02   -6.981E-02   -6.907E-02   -6.832E-02   -6.756E-02   -6.680E-02   -6.604E-02   -6.527E-02
    -6.449E-02   -6.372E-02   -6.295E-02   -6.218E-02   -6.140E-02   -6.064E-02   -5.987E-02   -5.911E-02   -5.836E-02   -5.762E-02
    -5.688E-02   -5.616E-02   -5.545E-02   -5.475E-02   -5.406E-02   -5.339E-02   -5.274E-02   -5.210E-02   -5.148E-02   -5.089E-02
    -5.032E-02   -4.977E-02   -4.924E-02   -4.874E-02   -4.827E-02   -4.783E-02   -4.742E-02   -4.704E-02   -4.670E-02   -4.639E-02
    -4.612E-02   -4.588E-02   -4.569E-02   -4.553E-02   -4.542E-02   -4.535E-02   -4.533E-02   -4.535E-02   -4.543E-02   -4.555E-02
    -4.573E-02   -4.596E-02   -4.624E-02   -4.659E-02   -4.699E-02   -4.746E-02   -4.800E-02   -4.860E-02   -4.928E-02   -5.003E-02
    -5.087E-02   -5.178E-02   -5.278E-02   -5.386E-02   -5.503E-02   -5.630E-02   -5.767E-02   -5.913E-02   -6.069E-02   -6.236E-02
    -6.414E-02   -6.603E-02   -6.804E-02   -7.016E-02   -7.240E-02   -7.477E-02   -7.726E-02   -7.989E-02   -8.264E-02   -8.554E-02
    -8.857E-02   -9.175E-02   -9.507E-02   -9.854E-02   -1.022E-01   -1.059E-01   -1.099E-01   -1.140E-01   -1.182E-01   -1.227E-01
    -1.273E-01   -1.321E-01   -1.370E-01   -1.422E-01   -1.475E-01   -1.530E-01   -1.587E-01   -1.646E-01   -1.707E-01   -1.770E-01
    -1.835E-01   -1.902E-01   -1.971E-01   -2.042E-01   -2.115E-01   -2.190E-01   -2.268E-01   -2.347E-01   -2.429E-01   -2.513E-01
    -2.599E-01   -2.687E-01   -2.778E-01   -2.871E-01   -2.966E-01   -3.063E-01   -3.163E-01   -3.265E-01   -3.370E-01   -3.477E-01
    -3.586E-01   -3.698E-01   -3.812E-01   -3.929E-01   -4.048E-01   -4.170E-01   -4.294E-01   -4.420E-01   -4.550E-01   -4.681E-01
    -4.816E-01   -4.953E-01   -5.092E-01   -5.234E-01   -5.379E-01   -5.526E-01   -5.676E-01   -5.829E-01   -5.985E-01   -6.143E-01
    -6.304E-01   -6.467E-01   -6.633E-01   -6.803E-01   -6.974E-01   -7.149E-01   -7.326E-01   -7.506E-01   -7.689E-01   -7.874E-01
    -8.062E-01   -8.253E-01   -8.447E-01   -8.644E-01   -8.843E-01   -9.045E-01   -9.249E-01   -9.457E-01   -9.667E-01   -9.880E-01
    -1.010E+00   -1.031E+00   -1.053E+00   -1.076E+00   -1.099E+00   -1.121E+00   -1.145E+00   -1.168E+00   -1.192E+00   -1.216E+00
    -1.240E+00   -1.265E+00   -1.289E+00   -1.314E+00   -1.340E+00   -1.365E+00   -1.391E+00   -1.417E+00   -1.444E+00   -1.470E+00
    -1.497E+00   -1.524E+00   -1.552E+00   -1.579E+00   -1.607E+00   -1.635E+00   -1.664E+00   -1.692E+00   -1.721E+00   -1.750E+00
    -1.780E+00   -1.809E+00   -1.839E+00   -1.869E+00   -1.900E+00   -1.930E+00   -1.961E+00   -1.992E+00   -2.023E+00   -2.054E+00
    -2.086E+00   -2.118E+00   -2.150E+00   -2.182E+00   -2.214E+00   -2.247E+00   -2.279E+00   -2.312E+00   -2.345E+00   -2.379E+00
    -2.412E+00   -2.446E+00   -2.479E+00   -2.513E+00   -2.547E+00   -2.582E+00   -2.616E+00   -2.651E+00   -2.685E+00   -2.720E+00
    -2.755E+00   -2.790E+00   -2.825E+00   -2.860E+00   -2.896E+00   -2.931E+00   -2.967E+00   -3.003E+00   -3.038E+00   -3.074E+00
    -3.110E+00   -3.146E+00   -3.183E+00   -3.219E+00   -3.255E+00   -3.291E+00   -3.328E+00   -3.364E+00   -3.401E+00   -3.437E+00
    -3.474E+00   -3.510E+00   -3.547E+00   -3.583E+00   -3.620E+00   -3.657E+00   -3.693E+00   -3.730E+00   -3.766E+00   -3.803E+00
    -3.839E+00   -3.876E+00   -3.912E+00   -3.948E+00   -3.985E+00   -4.021E+00   -4.057E+00   -4.093E+00   -4.129E+00   -4.165E+00
    -4.200E+00   -4.236E+00   -4.271E+00   -4.307E+00   -4.342E+00   -4.377E+00   -4.412E+00   -4.447E+00   -4.482E+00   -4.516E+00
    -4.550E+00   -4.585E+00   -4.619E+00   -4.652E+00   -4.686E+00   -4.719E+00   -4.753E+00   -4.785E+00   -4.818E+00   -4.851E+00
    -4.883E+00   -4.915E+00   -4.947E+00   -4.978E+00   -5.010E+00   -5.041E+00   -5.071E+00   -5.102E+00   -5.132E+00   -5.162E+00
    -5.191E+00   -5.221E+00   -5.250E+00   -5.278E+00   -5.307E+00   -5.334E+00   -5.362E+00   -5.389E+00   -5.416E+00   -5.443E+00
    -5.469E+00   -5.495E+00   -5.520E+00   -5.545E+00   -5.570E+00   -5.594E+00   -5.618E+00   -5.641E+00   -5.664E+00   -5.686E+00
    -5.709E+00   -5.730E+00   -5.751E+00   -5.772E+00   -5.793E+00   -5.812E+00   -5.832E+00   -5.851E+00   -5.869E+00   -5.887E+00
    -5.905E+00   -5.922E+00   -5.938E+00   -5.954E+00   -5.970E+00   -5.985E+00   -5.999E+00   -6.013E+00   -6.026E+00   -6.039E+00
    -6.052E+00   -6.064E+00   -6.075E+00   -6.086E+00   -6.096E+00   -6.106E+00   -6.115E+00   -6.124E+00   -6.132E+00   -6.139E+00
    -6.146E+00   -6.153E+00   -6.159E+00   -6.164E+00   -6.169E+00   -6.173E+00   -6.177E+00   -6.180E+00   -6.183E+00   -6.185E+00
    -6.187E+00   -6.187E+00   -6.188E+00   -6.188E+00   -6.187E+00   -6.185E+00   -6.183E+00   -6.181E+00   -6.178E+00   -6.174E+00
    -6.170E+00   -6.165E+00   -6.159E+00   -6.153E+00   -6.147E+00   -6.139E+00   -6.132E+00   -6.123E+00   -6.114E+00   -6.104E+00
    -6.094E+00   -6.083E+00   -6.072E+00   -6.060E+00   -6.047E+00   -6.034E+00   -6.020E+00   -6.006E+00   -5.991E+00   -5.975E+00
    -5.959E+00   -5.942E+00   -5.924E+00   -5.906E+00   -5.887E+00   -5.868E+00   -5.848E+00   -5.827E+00   -5.806E+00   -5.784E+00
    -5.762E+00   -5.739E+00   -5.715E+00   -5.691E+00   -5.666E+00   -5.641E+00   -5.614E+00   -5.588E+00   -5.560E+00   -5.532E+00
    -5.504E+00   -5.474E+00   -5.444E+00   -5.414E+00   -5.383E+00   -5.351E+00   -5.319E+00   -5.286E+00   -5.252E+00   -5.218E+00
    -5.183E+00   -5.147E+00   -5.111E+00   -5.075E+00   -5.037E+00   -4.999E+00   -4.961E+00   -4.921E+00   -4.882E+00   -4.841E+00
    -4.800E+00   -4.758E+00   -4.716E+00   -4.673E+00   -4.630E+00   -4.585E+00   -4.541E+00   -4.495E+00   -4.449E+00   -4.402E+00
    -4.355E+00   -4.307E+00   -4.259E+00   -4.210E+00   -4.160E+00   -4.109E+00   -4.059E+00   -4.007E+00   -3.955E+00   -3.902E+00
    -3.849E+00   -3.795E+00   -3.740E+00   -3.685E+00   -3.629E+00   -3.572E+00   -3.515E+00   -3.458E+00   -3.399E+00   -3.341E+00
    -3.281E+00   -3.221E+00   -3.160E+00   -3.099E+00   -3.037E+00   -2.975E+00   -2.912E+00   -2.848E+00
 Asp      Conc. = 1.05E+01
