 LCModel (Version 6.3-1L) Copyright: S.W. Provencher.          Ref.: Magn. Reson. Med. 30:672-679 (1993).                
 Slice#1 Row#13 Col#12  PD_24_press_1_raw_act
 36 lines in following concentration table = NCONC+1
    Conc.  %SD /Cr+PCr  Metabolite                                         
    2.164 155%   0.249 Ala                                                 
    2.134 165%   0.245 Asp                                                 
    0.000 999%   0.000 Cr                                                  
    8.697  30%   1.000 PCr                                                 
    0.940 218%   0.108 GABA                                                
    1.104 195%   0.127 Glc                                                 
    0.000 999%   0.000 Gln                                                 
   13.535  48%   1.556 Glu                                                 
    0.000 999%   0.000 GPC                                                 
    4.020  24%   0.462 PCh                                                 
    0.000 999%   0.000 GSH                                                 
    5.087 165%   0.585 Ins                                                 
    5.873  58%   0.675 Lac                                                 
   10.561  31%   1.214 NAA                                                 
    1.779 179%   0.205 NAAG                                                
    0.000 999%   0.000 Scyllo                                              
    3.717  89%   0.427 Tau                                                 
    9.280  41%   1.067 -CrCH2                                              
    4.020  24%   0.462 GPC+PCh                                             
   12.340  45%   1.419 NAA+NAAG                                            
    8.697  30%   1.000 Cr+PCr                                              
   13.535  48%   1.556 Glu+Gln                                             
 1.17E+03   9% 134.635 Lip13a                                              
    0.000 999%   0.000 Lip13b                                              
  317.165  23%  36.468 Lip09                                               
    2.638 999%   0.303 MM09                                                
  151.681  35%  17.440 Lip20                                               
    0.000 999%   0.000 MM20                                                
   14.916 263%   1.715 MM12                                                
    0.000 999%   0.000 MM14                                                
   62.592  78%   7.197 MM17                                                
 1.17E+03   9% 134.635 Lip13a+Lip13b                                       
 1.19E+03   8% 136.350 MM14+Lip13a+Lip13b+MM12                             
  319.802  14%  36.771 MM09+Lip09                                          
  151.681  35%  17.440 MM20+Lip20                                          
   6 lines in following misc. output table
  FWHM = 0.031 ppm    S/N =   2                                            
  Data shift =-0.008 ppm                                                   
  Ph:  47 deg     -36.4 deg/ppm                                            
  alphaB,S = 8.5E+01,   8.0E-01                                            
   14 spline knots.   Ns = 5(1)                                            
   2 inflections.     3 extrema                                            
  498 points on ppm-axis = NY
      4.000000     3.992357     3.984714     3.977070     3.969427     3.961784     3.954141     3.946497     3.938854     3.931211
      3.923568     3.915925     3.908281     3.900638     3.892995     3.885352     3.877708     3.870065     3.862422     3.854779
      3.847136     3.839492     3.831849     3.824206     3.816563     3.808919     3.801276     3.793633     3.785990     3.778347
      3.770703     3.763060     3.755417     3.747774     3.740130     3.732487     3.724844     3.717201     3.709558     3.701914
      3.694271     3.686628     3.678985     3.671341     3.663698     3.656055     3.648412     3.640769     3.633125     3.625482
      3.617839     3.610196     3.602552     3.594909     3.587266     3.579623     3.571980     3.564336     3.556693     3.549050
      3.541407     3.533763     3.526120     3.518477     3.510834     3.503191     3.495547     3.487904     3.480261     3.472618
      3.464974     3.457331     3.449688     3.442045     3.434402     3.426758     3.419115     3.411472     3.403829     3.396185
      3.388542     3.380899     3.373256     3.365613     3.357969     3.350326     3.342683     3.335040     3.327396     3.319753
      3.312110     3.304467     3.296824     3.289180     3.281537     3.273894     3.266251     3.258607     3.250964     3.243321
      3.235678     3.228034     3.220391     3.212748     3.205105     3.197462     3.189818     3.182175     3.174532     3.166889
      3.159245     3.151602     3.143959     3.136316     3.128673     3.121029     3.113386     3.105743     3.098100     3.090456
      3.082813     3.075170     3.067527     3.059884     3.052240     3.044597     3.036954     3.029311     3.021667     3.014024
      3.006381     2.998738     2.991095     2.983451     2.975808     2.968165     2.960522     2.952878     2.945235     2.937592
      2.929949     2.922306     2.914662     2.907019     2.899376     2.891733     2.884089     2.876446     2.868803     2.861160
      2.853517     2.845873     2.838230     2.830587     2.822944     2.815300     2.807657     2.800014     2.792371     2.784728
      2.777084     2.769441     2.761798     2.754155     2.746511     2.738868     2.731225     2.723582     2.715939     2.708295
      2.700652     2.693009     2.685366     2.677722     2.670079     2.662436     2.654793     2.647150     2.639506     2.631863
      2.624220     2.616577     2.608933     2.601290     2.593647     2.586004     2.578361     2.570717     2.563074     2.555431
      2.547788     2.540144     2.532501     2.524858     2.517215     2.509572     2.501928     2.494285     2.486642     2.478999
      2.471355     2.463712     2.456069     2.448426     2.440783     2.433139     2.425496     2.417853     2.410210     2.402566
      2.394923     2.387280     2.379637     2.371994     2.364350     2.356707     2.349064     2.341421     2.333777     2.326134
      2.318491     2.310848     2.303205     2.295561     2.287918     2.280275     2.272632     2.264988     2.257345     2.249702
      2.242059     2.234416     2.226772     2.219129     2.211486     2.203843     2.196199     2.188556     2.180913     2.173270
      2.165627     2.157983     2.150340     2.142697     2.135054     2.127410     2.119767     2.112124     2.104481     2.096838
      2.089194     2.081551     2.073908     2.066265     2.058621     2.050978     2.043335     2.035692     2.028049     2.020405
      2.012762     2.005119     1.997476     1.989833     1.982190     1.974546     1.966903     1.959260     1.951617     1.943974
      1.936331     1.928688     1.921045     1.913402     1.905759     1.898115     1.890472     1.882829     1.875186     1.867543
      1.859900     1.852257     1.844614     1.836971     1.829327     1.821684     1.814041     1.806398     1.798755     1.791112
      1.783469     1.775826     1.768183     1.760540     1.752896     1.745253     1.737610     1.729967     1.722324     1.714681
      1.707038     1.699395     1.691752     1.684108     1.676465     1.668822     1.661179     1.653536     1.645893     1.638250
      1.630607     1.622964     1.615321     1.607677     1.600034     1.592391     1.584748     1.577105     1.569462     1.561819
      1.554176     1.546533     1.538890     1.531246     1.523603     1.515960     1.508317     1.500674     1.493031     1.485388
      1.477745     1.470102     1.462458     1.454815     1.447172     1.439529     1.431886     1.424243     1.416600     1.408957
      1.401314     1.393671     1.386027     1.378384     1.370741     1.363098     1.355455     1.347812     1.340169     1.332526
      1.324883     1.317240     1.309596     1.301953     1.294310     1.286667     1.279024     1.271381     1.263738     1.256095
      1.248452     1.240808     1.233165     1.225522     1.217879     1.210236     1.202593     1.194950     1.187307     1.179664
      1.172021     1.164377     1.156734     1.149091     1.141448     1.133805     1.126162     1.118519     1.110876     1.103233
      1.095590     1.087946     1.080303     1.072660     1.065017     1.057374     1.049731     1.042088     1.034445     1.026802
      1.019158     1.011515     1.003872     0.996229     0.988586     0.980943     0.973300     0.965657     0.958014     0.950371
      0.942727     0.935084     0.927441     0.919798     0.912155     0.904512     0.896869     0.889226     0.881583     0.873940
      0.866296     0.858653     0.851010     0.843367     0.835724     0.828081     0.820438     0.812795     0.805152     0.797508
      0.789865     0.782222     0.774579     0.766936     0.759293     0.751650     0.744007     0.736364     0.728721     0.721077
      0.713434     0.705791     0.698148     0.690505     0.682862     0.675219     0.667576     0.659933     0.652290     0.644646
      0.637003     0.629360     0.621717     0.614074     0.606431     0.598788     0.591145     0.583502     0.575858     0.568215
      0.560572     0.552929     0.545286     0.537643     0.530000     0.522357     0.514714     0.507071     0.499427     0.491784
      0.484141     0.476498     0.468855     0.461212     0.453569     0.445925     0.438282     0.430639     0.422996     0.415353
      0.407710     0.400067     0.392424     0.384780     0.377137     0.369494     0.361851     0.354208     0.346565     0.338922
      0.331278     0.323635     0.315992     0.308349     0.300706     0.293063     0.285420     0.277777     0.270133     0.262490
      0.254847     0.247204     0.239561     0.231918     0.224275     0.216631     0.208988     0.201345
 NY phased data points follow
   1.45272E-01 -3.26186E+00 -6.76559E-01 -1.24142E+00 -3.79892E-01 -1.11361E+00  6.83785E-02 -2.55383E+00 -1.84785E+00 -2.99321E+00
  -1.25230E+00 -1.74126E+00 -2.07765E+00 -2.36099E+00 -2.73618E+00 -2.76097E+00  1.32334E+00 -2.64005E+00 -1.54213E+00 -4.22555E+00
   3.05285E-01 -3.57406E+00 -1.85644E+00 -8.13231E-01 -5.85059E-01 -1.45198E+00  6.57699E-01 -1.18189E+00 -4.77134E-01 -2.53556E+00
  -1.02359E+00 -5.07780E+00 -6.95312E-01 -2.00970E+00 -6.48274E-01 -2.82156E+00 -1.47610E+00 -4.33283E-01 -2.17224E+00 -7.42022E-01
  -8.57430E-01 -2.83322E-01 -1.06028E-01 -1.52428E+00 -2.28843E+00 -1.35406E+00  3.14701E-01 -1.69761E+00  4.34817E-01 -2.24648E+00
  -1.57316E-01 -8.58715E-01 -2.79775E+00 -2.93179E+00 -2.36049E+00  2.44413E-03 -1.02525E+00 -1.72010E+00  2.80147E-01 -4.44544E-01
  -1.32378E+00 -2.59774E+00 -1.94448E+00 -4.08780E-01 -5.43937E-01  9.53564E-01 -1.46315E+00 -3.26151E-01 -8.66919E-01 -9.05786E-01
  -7.30954E-01 -1.30538E+00 -1.69958E+00  1.46282E-01 -2.04346E+00 -1.12171E+00 -1.67391E-01 -6.57705E-01  7.87143E-01 -9.92616E-01
  -1.32012E+00 -5.31240E-01 -1.13336E+00 -1.70368E-01 -2.49256E-02 -2.17830E+00 -6.43938E-01 -2.07224E+00 -8.97065E-01 -1.40999E+00
   6.39973E-02  1.98095E-01 -9.93797E-01 -8.47059E-01  3.66195E-01 -1.23441E+00 -5.74545E-01 -1.96170E+00 -1.57649E+00 -2.07953E+00
  -1.98204E+00  5.52182E-01  3.38013E-01 -1.44634E-01  2.22052E+00  2.59246E+00  6.49933E-01 -8.26496E-01 -2.28488E+00 -5.04172E-02
   5.19378E-01 -2.82226E-01  7.11086E-01 -1.90817E+00 -2.31351E+00 -3.08461E-01  7.18665E-02 -7.31458E-01 -3.70575E-01 -2.83227E+00
  -3.31646E-01 -6.51170E-01 -5.49286E-01 -1.27943E+00 -6.82930E-02 -1.02594E+00  1.66209E+00  1.68603E+00  1.86631E+00  1.31735E+00
  -9.68540E-01 -1.61264E+00 -2.00005E+00 -4.42168E-01 -2.92793E-02 -1.97746E+00 -1.68025E+00 -1.83897E+00 -1.15156E+00 -9.26434E-01
   6.20522E-01 -1.31168E+00 -2.62355E-01 -1.32932E+00 -1.57127E+00  6.14886E-02 -1.35180E+00  7.32277E-01 -6.23130E-01 -1.71609E+00
  -5.41313E-01 -7.16474E-01  6.63642E-01  1.67542E+00  5.43863E-01 -2.28138E+00 -2.99289E-01 -1.87645E+00 -6.77441E-01 -4.61614E-01
   7.31396E-01 -2.15185E+00 -2.40918E-01 -6.77079E-01 -7.55246E-01  1.82984E+00  5.64279E-01 -1.38008E+00 -5.89780E-01 -1.96103E+00
   1.46746E+00 -3.37165E-01 -2.52081E+00 -2.04808E-01 -1.35161E+00 -1.98710E+00  1.15578E+00 -8.46945E-01  7.47624E-01 -1.51715E+00
  -1.06718E+00 -4.27380E-01 -7.70192E-01 -4.57024E-01  9.30568E-01 -1.07596E+00 -9.56285E-01 -9.63114E-01 -9.63666E-02  3.22775E-01
   8.87914E-01  9.57581E-02  1.13873E+00 -3.73046E-01  4.99820E-01 -3.86166E-01  1.34661E+00 -1.03393E+00 -7.36365E-01  4.90160E-01
  -1.27416E+00 -1.27256E+00 -8.24659E-01 -4.68504E-01  1.38664E+00 -2.49094E-01 -1.08644E+00  6.71913E-01  4.32428E-01 -1.66581E+00
  -1.42170E-01 -1.07017E+00  1.26795E+00 -1.07758E+00  1.41677E+00  1.75904E-01  1.75254E+00  1.30863E+00  7.67208E-01 -2.90387E-01
   1.32054E+00  8.29298E-02  3.54475E-01  7.45051E-02 -2.59575E-01 -1.02349E-01 -1.25715E+00 -2.03521E-01  1.43084E+00  1.57055E+00
  -9.58372E-01 -6.66245E-01 -1.62301E-01 -1.46660E+00 -1.54120E+00  2.42072E-01  2.22675E-01  1.49961E+00  2.68142E-02  2.74155E-01
   6.07214E-01 -1.09260E+00 -8.87785E-01 -1.49291E+00 -9.39096E-01  5.23749E-02  1.13022E-01  5.24599E-01  1.07475E+00 -1.28447E+00
  -1.20313E+00 -2.85624E-03 -1.45404E+00  1.18629E+00 -9.42257E-02  6.32078E-01 -9.18912E-03 -2.94415E-01 -1.59199E+00  3.45739E-01
   2.27842E+00  2.88168E+00  1.32290E+00  1.98299E+00  8.60701E-01 -7.41360E-01 -3.68425E-01  5.29091E-01  1.61645E+00  4.73071E-01
  -3.95069E-01 -2.17100E-01 -7.63992E-02  4.36984E-01  3.72782E-01  6.89973E-01  1.73556E+00  8.91746E-01 -8.93563E-01 -1.20256E-01
  -1.39556E-01  4.34142E-02 -1.84338E-01  1.53763E-02 -9.08495E-01  2.22683E-02 -7.19166E-01  2.81355E-01  1.30155E+00 -1.25644E+00
  -8.13093E-01  1.24590E+00  1.92415E+00  3.51304E-01  6.37696E-01  3.19768E-01 -1.17299E-01  1.60235E+00 -1.37256E+00 -1.02543E+00
   8.08059E-01  2.31145E+00  2.12455E+00 -4.02976E-01  1.23421E+00  5.53756E-01 -2.78585E-01 -5.04741E-01  6.69810E-01  1.98413E+00
   1.28596E+00 -1.10373E-01 -6.77126E-01  2.36633E+00  1.19347E-01  7.84902E-01 -4.14278E-01  8.07901E-01  8.15675E-01  1.47133E+00
  -8.84091E-01  8.81320E-01  1.68631E+00  2.72380E+00  1.96178E+00  6.57637E-01  1.80109E+00  3.43426E-01  1.61202E+00  1.76817E+00
  -3.79618E-01  2.58667E+00 -2.35242E-01  2.17261E+00  1.24240E+00  1.29477E+00  1.17901E+00  2.24225E+00  2.20464E+00  2.00187E+00
   9.84429E-01  2.24409E+00  5.90328E-01  1.43584E+00  1.15110E+00  3.87687E+00  2.86535E+00  4.64372E+00  3.37354E+00  1.23859E+00
   5.10989E+00  2.43552E+00  2.64792E+00  3.17615E+00  4.02695E+00  4.71432E+00  4.67979E+00  3.85307E+00  5.15305E+00  3.49218E+00
   3.24722E+00  3.41770E+00  4.50806E+00  4.62609E+00  3.49937E+00  4.32807E+00  5.98021E+00  3.93206E+00  3.28821E+00  6.53044E+00
   4.39289E+00  1.96405E+00  3.52581E+00  3.86084E+00  2.45644E+00  4.13178E+00  4.40969E+00  3.95054E+00  2.21284E+00  3.32579E+00
   1.89535E+00  2.52563E+00  3.11480E+00  2.43707E+00  1.58453E+00  3.15964E+00  1.44834E+00  2.94591E+00  2.96142E+00  1.27909E+00
   3.01958E+00  2.31401E+00  2.26269E+00  3.07612E+00  1.53083E+00  3.53417E+00  3.42718E+00  2.25490E+00  3.25416E+00  3.41981E+00
   3.54541E+00  3.47846E+00  1.46895E+00  3.16866E-01  2.59463E+00  1.72866E+00  3.08700E+00  1.74212E+00  1.65182E+00  3.03890E+00
   2.25753E+00  3.71931E+00  1.05705E+00  2.23216E+00  1.10085E+00  1.42541E+00  7.89420E-01  1.48731E+00  9.34403E-01  2.00972E+00
  -1.09602E+00  1.12699E+00  3.37104E+00  2.18207E+00 -1.12678E+00  4.16062E-01  2.28645E+00 -9.25935E-01  1.46797E-01 -4.21741E-02
   2.71526E+00  7.51524E-01  1.43534E+00 -1.18997E-01  1.84828E+00  9.47787E-02  1.03390E+00  1.03037E+00  6.92834E-01 -7.13622E-01
  -7.82182E-01  2.26531E+00  1.49361E+00  1.65314E+00  7.29884E-01  1.23593E+00  7.30413E-01  1.26388E+00  1.15990E+00  8.98722E-01
   3.95019E-01  7.58606E-01  1.53431E+00 -1.88435E+00 -3.55951E-01  9.47750E-01  6.39041E-01 -1.07885E+00 -6.05311E-01  5.93447E-01
   1.51657E+00  1.15469E+00  1.73104E+00  4.51976E-01  1.61321E-01  4.70339E-01  7.19077E-01  9.99894E-01  1.68311E+00 -3.67292E-01
   7.38642E-01 -1.96863E-01 -1.37246E+00 -7.31400E-02 -1.80655E+00 -5.88130E-02 -4.73098E-01  2.12201E-01  7.84782E-01 -2.34016E-01
   4.46475E-01 -7.44501E-02  1.52688E+00  2.58651E-01 -2.60520E-01  2.11804E-01  6.71543E-01 -5.90343E-01 -7.97771E-01  1.98363E+00
  -4.71322E-01  1.93832E-01 -2.10699E-01  1.45190E+00  6.24017E-01  6.87102E-01  1.20832E+00 -1.45199E+00
 NY points of the fit to the data follow
  -1.25460E+00 -1.23253E+00 -1.18903E+00 -1.13658E+00 -1.08305E+00 -1.07595E+00 -1.13469E+00 -1.22771E+00 -1.30348E+00 -1.31796E+00
  -1.26842E+00 -1.18054E+00 -1.08138E+00 -1.05316E+00 -1.10774E+00 -1.12987E+00 -1.12555E+00 -1.14433E+00 -1.17230E+00 -1.20361E+00
  -1.22124E+00 -1.20887E+00 -1.15612E+00 -1.05374E+00 -9.28335E-01 -8.50762E-01 -8.69736E-01 -9.90616E-01 -1.19763E+00 -1.41763E+00
  -1.52235E+00 -1.40716E+00 -1.10641E+00 -8.03469E-01 -6.34388E-01 -6.37770E-01 -8.21660E-01 -1.09276E+00 -1.28052E+00 -1.29227E+00
  -1.17523E+00 -1.05603E+00 -1.01549E+00 -1.06019E+00 -1.14646E+00 -1.15691E+00 -1.01811E+00 -8.31279E-01 -7.30083E-01 -7.52155E-01
  -8.75118E-01 -1.04571E+00 -1.15251E+00 -1.13295E+00 -1.05162E+00 -1.00376E+00 -1.01260E+00 -1.03193E+00 -1.01118E+00 -9.58528E-01
  -9.05513E-01 -8.74919E-01 -8.84835E-01 -9.33015E-01 -9.88420E-01 -1.00901E+00 -9.84774E-01 -9.45681E-01 -9.24255E-01 -9.24047E-01
  -9.45859E-01 -9.87741E-01 -1.00402E+00 -9.67357E-01 -8.78944E-01 -7.74293E-01 -7.24578E-01 -7.50837E-01 -8.35291E-01 -9.60782E-01
  -1.05175E+00 -1.02802E+00 -9.27271E-01 -8.34229E-01 -7.78812E-01 -7.83804E-01 -8.50906E-01 -9.35298E-01 -9.83948E-01 -9.76832E-01
  -9.18739E-01 -8.42897E-01 -7.97611E-01 -8.13177E-01 -8.88568E-01 -9.68836E-01 -9.96773E-01 -1.03060E+00 -1.39115E+00 -1.99050E+00
  -2.10245E+00 -1.32468E+00  2.40730E-02  1.26858E+00  1.82341E+00  1.46897E+00  3.15272E-01 -1.11284E+00 -1.75666E+00 -1.35926E+00
  -9.04974E-01 -7.98803E-01 -7.85811E-01 -7.83487E-01 -7.71356E-01 -7.61264E-01 -7.54726E-01 -7.52836E-01 -7.54805E-01 -7.61243E-01
  -7.88709E-01 -9.58786E-01 -1.43021E+00 -1.79579E+00 -1.54188E+00 -6.60915E-01  4.16655E-01  1.17016E+00  1.25188E+00  6.74612E-01
  -3.52721E-01 -1.24223E+00 -1.30257E+00 -8.84202E-01 -6.94913E-01 -6.60237E-01 -6.41665E-01 -6.17108E-01 -5.87864E-01 -5.64917E-01
  -5.56769E-01 -5.59098E-01 -5.61893E-01 -5.56097E-01 -5.33353E-01 -4.97248E-01 -4.62350E-01 -4.45387E-01 -4.49313E-01 -4.57833E-01
  -4.57793E-01 -4.45710E-01 -4.28577E-01 -4.20332E-01 -4.18967E-01 -4.09366E-01 -3.81292E-01 -3.45569E-01 -3.29975E-01 -3.52854E-01
  -4.11155E-01 -4.68699E-01 -4.86306E-01 -4.54587E-01 -3.88801E-01 -3.25463E-01 -3.09057E-01 -3.43279E-01 -3.93519E-01 -4.31709E-01
  -4.37621E-01 -4.12997E-01 -3.88346E-01 -3.92168E-01 -4.30641E-01 -4.83722E-01 -5.09695E-01 -4.87901E-01 -4.44972E-01 -4.20538E-01
  -4.29515E-01 -4.68885E-01 -5.07092E-01 -5.01424E-01 -4.66612E-01 -4.46292E-01 -4.57210E-01 -4.85957E-01 -4.90431E-01 -4.54882E-01
  -4.01981E-01 -3.71527E-01 -3.99111E-01 -4.51743E-01 -4.61105E-01 -4.24757E-01 -3.79129E-01 -3.46309E-01 -3.49518E-01 -3.95527E-01
  -4.53702E-01 -4.83852E-01 -4.46705E-01 -3.54117E-01 -2.64371E-01 -1.95285E-01 -1.64722E-01 -2.00759E-01 -2.87198E-01 -3.91135E-01
  -5.08529E-01 -6.49521E-01 -7.28873E-01 -6.12866E-01 -2.77470E-01  1.18283E-01  4.02701E-01  5.11886E-01  4.09639E-01  7.42870E-02
  -4.06069E-01 -7.72599E-01 -8.89977E-01 -8.27277E-01 -5.96841E-01 -2.27338E-01  1.49463E-01  3.50850E-01  2.86370E-01  1.08200E-01
  -8.27824E-03 -7.12610E-02 -1.10697E-01 -9.66519E-02 -3.71636E-02  4.49367E-02  1.15067E-01  1.43936E-01  1.47460E-01  1.16514E-01
   3.81035E-02 -5.10741E-02 -9.38079E-02 -6.94941E-02  2.18515E-02  1.53980E-01  2.79892E-01  3.58268E-01  3.34754E-01  2.20382E-01
   9.15256E-02 -4.60724E-02 -1.32343E-01 -4.46611E-02  1.89591E-01  2.04022E-01 -2.37285E-01 -5.69092E-01 -2.16787E-01  7.34822E-01
   1.79020E+00  2.48666E+00  2.46833E+00  1.63411E+00  3.02075E-01 -6.07429E-01 -4.63934E-01  1.09844E-02  1.35674E-01  1.34289E-01
   1.17295E-01  8.78410E-02  7.55333E-02  1.00666E-01  1.38607E-01  1.68138E-01  1.80643E-01  1.69924E-01  1.40543E-01  1.13675E-01
   9.97246E-02  9.49262E-02  9.75371E-02  1.07429E-01  1.24213E-01  1.44357E-01  1.61273E-01  1.73867E-01  1.86676E-01  2.00964E-01
   2.17357E-01  2.38288E-01  2.63954E-01  2.90966E-01  3.18138E-01  3.45200E-01  3.70852E-01  3.95778E-01  4.21544E-01  4.47192E-01
   4.72168E-01  4.96868E-01  5.21125E-01  5.43893E-01  5.63496E-01  5.79594E-01  5.93071E-01  6.04061E-01  6.12949E-01  6.20349E-01
   6.26467E-01  6.31454E-01  6.35726E-01  6.39754E-01  6.44107E-01  6.49299E-01  6.55768E-01  6.63827E-01  6.73682E-01  6.85185E-01
   6.97337E-01  7.06010E-01  7.05180E-01  7.32537E-01  8.34132E-01  9.83386E-01  1.10962E+00  1.16165E+00  1.13483E+00  1.06987E+00
   9.90648E-01  9.21546E-01  9.51835E-01  1.09518E+00  1.27993E+00  1.49415E+00  1.72454E+00  1.91684E+00  2.03381E+00  2.06147E+00
   2.06917E+00  2.14206E+00  2.23237E+00  2.37990E+00  2.72262E+00  3.19903E+00  3.61078E+00  3.80557E+00  3.75915E+00  3.56274E+00
   3.25538E+00  2.97315E+00  3.01817E+00  3.40425E+00  3.85973E+00  4.29811E+00  4.67822E+00  4.88347E+00  4.83232E+00  4.55160E+00
   4.31121E+00  4.27742E+00  4.28913E+00  4.24990E+00  4.18162E+00  4.09477E+00  3.99376E+00  3.88164E+00  3.76108E+00  3.63454E+00
   3.50434E+00  3.37266E+00  3.24159E+00  3.11311E+00  2.98906E+00  2.87101E+00  2.76031E+00  2.65811E+00  2.56538E+00  2.48292E+00
   2.41135E+00  2.35107E+00  2.30231E+00  2.26509E+00  2.23934E+00  2.22484E+00  2.22116E+00  2.22771E+00  2.24366E+00  2.26805E+00
   2.29974E+00  2.33743E+00  2.37964E+00  2.42470E+00  2.47083E+00  2.51619E+00  2.55894E+00  2.59724E+00  2.62934E+00  2.65361E+00
   2.66862E+00  2.67324E+00  2.66665E+00  2.64836E+00  2.61820E+00  2.57637E+00  2.52341E+00  2.46016E+00  2.38777E+00  2.30755E+00
   2.22096E+00  2.12952E+00  2.03480E+00  1.93835E+00  1.84161E+00  1.74589E+00  1.65231E+00  1.56182E+00  1.47521E+00  1.39308E+00
   1.31585E+00  1.24375E+00  1.17685E+00  1.11514E+00  1.05852E+00  1.00679E+00  9.59702E-01  9.16954E-01  8.78218E-01  8.43181E-01
   8.11541E-01  7.83001E-01  7.57260E-01  7.34033E-01  7.13059E-01  6.94122E-01  6.77027E-01  6.61592E-01  6.47632E-01  6.34989E-01
   6.23529E-01  6.13152E-01  6.03761E-01  5.95261E-01  5.87554E-01  5.80560E-01  5.74219E-01  5.68492E-01  5.63328E-01  5.58674E-01
   5.54473E-01  5.50689E-01  5.47297E-01  5.44284E-01  5.41615E-01  5.39259E-01  5.37179E-01  5.35364E-01  5.33805E-01  5.32495E-01
   5.31407E-01  5.30518E-01  5.29807E-01  5.29277E-01  5.28925E-01  5.28746E-01  5.28715E-01  5.28816E-01  5.29039E-01  5.29394E-01
   5.29877E-01  5.30483E-01  5.31187E-01  5.31985E-01  5.32872E-01  5.33861E-01  5.34945E-01  5.36118E-01  5.37357E-01  5.38663E-01
   5.40038E-01  5.41495E-01  5.43023E-01  5.44613E-01  5.46249E-01  5.47938E-01  5.49683E-01  5.51495E-01  5.53359E-01  5.55268E-01
   5.57207E-01  5.59191E-01  5.61222E-01  5.63309E-01  5.65432E-01  5.67586E-01  5.69762E-01  5.71980E-01
 NY background values follow
    -1.143E+00   -1.140E+00   -1.136E+00   -1.133E+00   -1.130E+00   -1.127E+00   -1.123E+00   -1.120E+00   -1.117E+00   -1.113E+00
    -1.110E+00   -1.107E+00   -1.103E+00   -1.100E+00   -1.097E+00   -1.093E+00   -1.090E+00   -1.087E+00   -1.083E+00   -1.080E+00
    -1.077E+00   -1.073E+00   -1.070E+00   -1.067E+00   -1.063E+00   -1.060E+00   -1.057E+00   -1.054E+00   -1.050E+00   -1.047E+00
    -1.044E+00   -1.040E+00   -1.037E+00   -1.034E+00   -1.030E+00   -1.027E+00   -1.024E+00   -1.020E+00   -1.017E+00   -1.014E+00
    -1.010E+00   -1.007E+00   -1.004E+00   -1.000E+00   -9.969E-01   -9.936E-01   -9.903E-01   -9.869E-01   -9.836E-01   -9.803E-01
    -9.769E-01   -9.736E-01   -9.702E-01   -9.669E-01   -9.636E-01   -9.602E-01   -9.569E-01   -9.535E-01   -9.502E-01   -9.469E-01
    -9.435E-01   -9.402E-01   -9.368E-01   -9.335E-01   -9.302E-01   -9.268E-01   -9.235E-01   -9.201E-01   -9.168E-01   -9.134E-01
    -9.101E-01   -9.067E-01   -9.034E-01   -9.000E-01   -8.967E-01   -8.933E-01   -8.900E-01   -8.866E-01   -8.833E-01   -8.799E-01
    -8.766E-01   -8.732E-01   -8.699E-01   -8.665E-01   -8.632E-01   -8.598E-01   -8.564E-01   -8.531E-01   -8.497E-01   -8.464E-01
    -8.430E-01   -8.397E-01   -8.363E-01   -8.329E-01   -8.296E-01   -8.262E-01   -8.229E-01   -8.195E-01   -8.161E-01   -8.128E-01
    -8.094E-01   -8.061E-01   -8.027E-01   -7.993E-01   -7.960E-01   -7.926E-01   -7.892E-01   -7.859E-01   -7.825E-01   -7.791E-01
    -7.758E-01   -7.724E-01   -7.690E-01   -7.657E-01   -7.623E-01   -7.589E-01   -7.556E-01   -7.522E-01   -7.488E-01   -7.455E-01
    -7.421E-01   -7.387E-01   -7.354E-01   -7.320E-01   -7.286E-01   -7.252E-01   -7.219E-01   -7.185E-01   -7.151E-01   -7.117E-01
    -7.084E-01   -7.050E-01   -7.016E-01   -6.982E-01   -6.949E-01   -6.915E-01   -6.881E-01   -6.847E-01   -6.814E-01   -6.780E-01
    -6.746E-01   -6.712E-01   -6.678E-01   -6.645E-01   -6.611E-01   -6.577E-01   -6.543E-01   -6.509E-01   -6.476E-01   -6.442E-01
    -6.408E-01   -6.374E-01   -6.340E-01   -6.306E-01   -6.273E-01   -6.239E-01   -6.205E-01   -6.171E-01   -6.137E-01   -6.103E-01
    -6.070E-01   -6.036E-01   -6.002E-01   -5.968E-01   -5.934E-01   -5.900E-01   -5.866E-01   -5.832E-01   -5.799E-01   -5.765E-01
    -5.731E-01   -5.697E-01   -5.663E-01   -5.629E-01   -5.595E-01   -5.561E-01   -5.527E-01   -5.494E-01   -5.460E-01   -5.426E-01
    -5.392E-01   -5.358E-01   -5.324E-01   -5.290E-01   -5.256E-01   -5.222E-01   -5.188E-01   -5.154E-01   -5.120E-01   -5.086E-01
    -5.052E-01   -5.018E-01   -4.985E-01   -4.951E-01   -4.917E-01   -4.883E-01   -4.849E-01   -4.815E-01   -4.781E-01   -4.747E-01
    -4.713E-01   -4.679E-01   -4.645E-01   -4.611E-01   -4.577E-01   -4.543E-01   -4.509E-01   -4.475E-01   -4.441E-01   -4.407E-01
    -4.373E-01   -4.339E-01   -4.305E-01   -4.271E-01   -4.237E-01   -4.203E-01   -4.169E-01   -4.135E-01   -4.101E-01   -4.067E-01
    -4.033E-01   -3.999E-01   -3.965E-01   -3.931E-01   -3.897E-01   -3.863E-01   -3.829E-01   -3.795E-01   -3.760E-01   -3.726E-01
    -3.692E-01   -3.658E-01   -3.624E-01   -3.590E-01   -3.556E-01   -3.522E-01   -3.488E-01   -3.454E-01   -3.420E-01   -3.386E-01
    -3.352E-01   -3.318E-01   -3.284E-01   -3.250E-01   -3.216E-01   -3.181E-01   -3.147E-01   -3.113E-01   -3.079E-01   -3.045E-01
    -3.011E-01   -2.977E-01   -2.943E-01   -2.909E-01   -2.875E-01   -2.841E-01   -2.807E-01   -2.772E-01   -2.738E-01   -2.704E-01
    -2.670E-01   -2.636E-01   -2.602E-01   -2.568E-01   -2.534E-01   -2.500E-01   -2.466E-01   -2.431E-01   -2.397E-01   -2.363E-01
    -2.329E-01   -2.295E-01   -2.261E-01   -2.227E-01   -2.193E-01   -2.159E-01   -2.124E-01   -2.090E-01   -2.056E-01   -2.022E-01
    -1.988E-01   -1.954E-01   -1.920E-01   -1.886E-01   -1.851E-01   -1.817E-01   -1.783E-01   -1.749E-01   -1.715E-01   -1.681E-01
    -1.647E-01   -1.613E-01   -1.578E-01   -1.544E-01   -1.510E-01   -1.476E-01   -1.442E-01   -1.408E-01   -1.374E-01   -1.339E-01
    -1.305E-01   -1.271E-01   -1.237E-01   -1.203E-01   -1.169E-01   -1.135E-01   -1.100E-01   -1.066E-01   -1.032E-01   -9.980E-02
    -9.639E-02   -9.297E-02   -8.956E-02   -8.614E-02   -8.273E-02   -7.931E-02   -7.590E-02   -7.248E-02   -6.907E-02   -6.565E-02
    -6.224E-02   -5.882E-02   -5.541E-02   -5.199E-02   -4.858E-02   -4.516E-02   -4.175E-02   -3.833E-02   -3.492E-02   -3.150E-02
    -2.809E-02   -2.467E-02   -2.126E-02   -1.784E-02   -1.442E-02   -1.101E-02   -7.594E-03   -4.179E-03   -7.635E-04    2.652E-03
     6.067E-03    9.483E-03    1.290E-02    1.631E-02    1.973E-02    2.314E-02    2.656E-02    2.997E-02    3.339E-02    3.680E-02
     4.022E-02    4.364E-02    4.705E-02    5.047E-02    5.388E-02    5.730E-02    6.071E-02    6.413E-02    6.754E-02    7.096E-02
     7.437E-02    7.778E-02    8.120E-02    8.461E-02    8.803E-02    9.144E-02    9.486E-02    9.827E-02    1.017E-01    1.051E-01
     1.085E-01    1.119E-01    1.153E-01    1.188E-01    1.222E-01    1.256E-01    1.290E-01    1.324E-01    1.358E-01    1.392E-01
     1.427E-01    1.461E-01    1.495E-01    1.529E-01    1.563E-01    1.597E-01    1.631E-01    1.665E-01    1.700E-01    1.734E-01
     1.768E-01    1.802E-01    1.836E-01    1.870E-01    1.904E-01    1.938E-01    1.973E-01    2.007E-01    2.041E-01    2.075E-01
     2.109E-01    2.143E-01    2.177E-01    2.211E-01    2.246E-01    2.280E-01    2.314E-01    2.348E-01    2.382E-01    2.416E-01
     2.450E-01    2.484E-01    2.518E-01    2.552E-01    2.587E-01    2.621E-01    2.655E-01    2.689E-01    2.723E-01    2.757E-01
     2.791E-01    2.825E-01    2.859E-01    2.893E-01    2.927E-01    2.962E-01    2.996E-01    3.030E-01    3.064E-01    3.098E-01
     3.132E-01    3.166E-01    3.200E-01    3.234E-01    3.268E-01    3.302E-01    3.336E-01    3.370E-01    3.404E-01    3.438E-01
     3.473E-01    3.507E-01    3.541E-01    3.575E-01    3.609E-01    3.643E-01    3.677E-01    3.711E-01    3.745E-01    3.779E-01
     3.813E-01    3.847E-01    3.881E-01    3.915E-01    3.949E-01    3.983E-01    4.017E-01    4.051E-01    4.085E-01    4.119E-01
     4.153E-01    4.187E-01    4.221E-01    4.255E-01    4.289E-01    4.323E-01    4.357E-01    4.391E-01    4.425E-01    4.459E-01
     4.493E-01    4.527E-01    4.561E-01    4.595E-01    4.629E-01    4.663E-01    4.697E-01    4.731E-01    4.765E-01    4.799E-01
     4.833E-01    4.867E-01    4.901E-01    4.935E-01    4.969E-01    5.003E-01    5.037E-01    5.070E-01    5.104E-01    5.138E-01
     5.172E-01    5.206E-01    5.240E-01    5.274E-01    5.308E-01    5.342E-01    5.376E-01    5.410E-01
 Ala      Conc. = 2.16E+00
