 LCModel (Version 6.3-1L) Copyright: S.W. Provencher.          Ref.: Magn. Reson. Med. 30:672-679 (1993).                
 Slice#2 Row#8 Col#5  PD_24_press_1_raw_act
 36 lines in following concentration table = NCONC+1
    Conc.  %SD /Cr+PCr  Metabolite                                         
   74.961 178% 4.7E-02 Ala                                                 
    0.000 999%   0.000 Asp                                                 
  572.319  45%   0.357 Cr                                                  
 1.03E+03  26%   0.643 PCr                                                 
    0.000 999%   0.000 GABA                                                
  209.773  96%   0.131 Glc                                                 
  762.183  37%   0.475 Gln                                                 
 1.89E+03  17%   1.179 Glu                                                 
  897.692  19%   0.560 GPC                                                 
   15.651 999% 9.8E-03 PCh                                                 
  401.716  23%   0.250 GSH                                                 
 1.29E+03  26%   0.803 Ins                                                 
    0.000 999%   0.000 Lac                                                 
 2.61E+03   6%   1.626 NAA                                                 
  534.469  30%   0.333 NAAG                                                
  287.037  13%   0.179 Scyllo                                              
  570.798  50%   0.356 Tau                                                 
  175.876  77%   0.110 -CrCH2                                              
  913.344   3%   0.569 GPC+PCh                                             
 3.14E+03   3%   1.960 NAA+NAAG                                            
 1.60E+03   4%   1.000 Cr+PCr                                              
 2.65E+03  17%   1.654 Glu+Gln                                             
 1.49E+03  42%   0.928 Lip13a                                              
    0.000 999%   0.000 Lip13b                                              
  238.616 139%   0.149 Lip09                                               
 1.19E+03  30%   0.744 MM09                                                
  154.661 149% 9.6E-02 Lip20                                               
 2.08E+03  24%   1.298 MM20                                                
  594.448  43%   0.371 MM12                                                
 1.09E+03  36%   0.680 MM14                                                
  633.592  45%   0.395 MM17                                                
 1.49E+03  42%   0.928 Lip13a+Lip13b                                       
 3.17E+03  18%   1.979 MM14+Lip13a+Lip13b+MM12                             
 1.43E+03  17%   0.893 MM09+Lip09                                          
 2.24E+03  22%   1.394 MM20+Lip20                                          
   6 lines in following misc. output table
  FWHM = 0.054 ppm    S/N =  12                                            
  Data shift = 0.015 ppm                                                   
  Ph: -66 deg     -19.7 deg/ppm                                            
  alphaB,S = 1.2E+00,   5.0E+01                                            
   14 spline knots.   Ns = 7(1)                                            
  (14) 3 infls.   ( 9) 3 extrs.                                            
  498 points on ppm-axis = NY
      4.000000     3.992357     3.984714     3.977070     3.969427     3.961784     3.954141     3.946497     3.938854     3.931211
      3.923568     3.915925     3.908281     3.900638     3.892995     3.885352     3.877708     3.870065     3.862422     3.854779
      3.847136     3.839492     3.831849     3.824206     3.816563     3.808919     3.801276     3.793633     3.785990     3.778347
      3.770703     3.763060     3.755417     3.747774     3.740130     3.732487     3.724844     3.717201     3.709558     3.701914
      3.694271     3.686628     3.678985     3.671341     3.663698     3.656055     3.648412     3.640769     3.633125     3.625482
      3.617839     3.610196     3.602552     3.594909     3.587266     3.579623     3.571980     3.564336     3.556693     3.549050
      3.541407     3.533763     3.526120     3.518477     3.510834     3.503191     3.495547     3.487904     3.480261     3.472618
      3.464974     3.457331     3.449688     3.442045     3.434402     3.426758     3.419115     3.411472     3.403829     3.396185
      3.388542     3.380899     3.373256     3.365613     3.357969     3.350326     3.342683     3.335040     3.327396     3.319753
      3.312110     3.304467     3.296824     3.289180     3.281537     3.273894     3.266251     3.258607     3.250964     3.243321
      3.235678     3.228034     3.220391     3.212748     3.205105     3.197462     3.189818     3.182175     3.174532     3.166889
      3.159245     3.151602     3.143959     3.136316     3.128673     3.121029     3.113386     3.105743     3.098100     3.090456
      3.082813     3.075170     3.067527     3.059884     3.052240     3.044597     3.036954     3.029311     3.021667     3.014024
      3.006381     2.998738     2.991095     2.983451     2.975808     2.968165     2.960522     2.952878     2.945235     2.937592
      2.929949     2.922306     2.914662     2.907019     2.899376     2.891733     2.884089     2.876446     2.868803     2.861160
      2.853517     2.845873     2.838230     2.830587     2.822944     2.815300     2.807657     2.800014     2.792371     2.784728
      2.777084     2.769441     2.761798     2.754155     2.746511     2.738868     2.731225     2.723582     2.715939     2.708295
      2.700652     2.693009     2.685366     2.677722     2.670079     2.662436     2.654793     2.647150     2.639506     2.631863
      2.624220     2.616577     2.608933     2.601290     2.593647     2.586004     2.578361     2.570717     2.563074     2.555431
      2.547788     2.540144     2.532501     2.524858     2.517215     2.509572     2.501928     2.494285     2.486642     2.478999
      2.471355     2.463712     2.456069     2.448426     2.440783     2.433139     2.425496     2.417853     2.410210     2.402566
      2.394923     2.387280     2.379637     2.371994     2.364350     2.356707     2.349064     2.341421     2.333777     2.326134
      2.318491     2.310848     2.303205     2.295561     2.287918     2.280275     2.272632     2.264988     2.257345     2.249702
      2.242059     2.234416     2.226772     2.219129     2.211486     2.203843     2.196199     2.188556     2.180913     2.173270
      2.165627     2.157983     2.150340     2.142697     2.135054     2.127410     2.119767     2.112124     2.104481     2.096838
      2.089194     2.081551     2.073908     2.066265     2.058621     2.050978     2.043335     2.035692     2.028049     2.020405
      2.012762     2.005119     1.997476     1.989833     1.982190     1.974546     1.966903     1.959260     1.951617     1.943974
      1.936331     1.928688     1.921045     1.913402     1.905759     1.898115     1.890472     1.882829     1.875186     1.867543
      1.859900     1.852257     1.844614     1.836971     1.829327     1.821684     1.814041     1.806398     1.798755     1.791112
      1.783469     1.775826     1.768183     1.760540     1.752896     1.745253     1.737610     1.729967     1.722324     1.714681
      1.707038     1.699395     1.691752     1.684108     1.676465     1.668822     1.661179     1.653536     1.645893     1.638250
      1.630607     1.622964     1.615321     1.607677     1.600034     1.592391     1.584748     1.577105     1.569462     1.561819
      1.554176     1.546533     1.538890     1.531246     1.523603     1.515960     1.508317     1.500674     1.493031     1.485388
      1.477745     1.470102     1.462458     1.454815     1.447172     1.439529     1.431886     1.424243     1.416600     1.408957
      1.401314     1.393671     1.386027     1.378384     1.370741     1.363098     1.355455     1.347812     1.340169     1.332526
      1.324883     1.317240     1.309596     1.301953     1.294310     1.286667     1.279024     1.271381     1.263738     1.256095
      1.248452     1.240808     1.233165     1.225522     1.217879     1.210236     1.202593     1.194950     1.187307     1.179664
      1.172021     1.164377     1.156734     1.149091     1.141448     1.133805     1.126162     1.118519     1.110876     1.103233
      1.095590     1.087946     1.080303     1.072660     1.065017     1.057374     1.049731     1.042088     1.034445     1.026802
      1.019158     1.011515     1.003872     0.996229     0.988586     0.980943     0.973300     0.965657     0.958014     0.950371
      0.942727     0.935084     0.927441     0.919798     0.912155     0.904512     0.896869     0.889226     0.881583     0.873940
      0.866296     0.858653     0.851010     0.843367     0.835724     0.828081     0.820438     0.812795     0.805152     0.797508
      0.789865     0.782222     0.774579     0.766936     0.759293     0.751650     0.744007     0.736364     0.728721     0.721077
      0.713434     0.705791     0.698148     0.690505     0.682862     0.675219     0.667576     0.659933     0.652290     0.644646
      0.637003     0.629360     0.621717     0.614074     0.606431     0.598788     0.591145     0.583502     0.575858     0.568215
      0.560572     0.552929     0.545286     0.537643     0.530000     0.522357     0.514714     0.507071     0.499427     0.491784
      0.484141     0.476498     0.468855     0.461212     0.453569     0.445925     0.438282     0.430639     0.422996     0.415353
      0.407710     0.400067     0.392424     0.384780     0.377137     0.369494     0.361851     0.354208     0.346565     0.338922
      0.331278     0.323635     0.315992     0.308349     0.300706     0.293063     0.285420     0.277777     0.270133     0.262490
      0.254847     0.247204     0.239561     0.231918     0.224275     0.216631     0.208988     0.201345
 NY phased data points follow
  -6.18856E+01 -6.23109E+01 -5.98552E+01 -5.80670E+01 -5.20303E+01 -4.78862E+01 -4.08647E+01 -3.33912E+01 -2.94028E+01 -2.38501E+01
  -2.14791E+01 -2.71491E+01 -3.00832E+01 -3.48379E+01 -4.59567E+01 -4.51833E+01 -5.15148E+01 -5.51710E+01 -5.86688E+01 -6.09022E+01
  -5.37964E+01 -5.52942E+01 -5.71123E+01 -5.32355E+01 -4.89317E+01 -4.55919E+01 -5.13370E+01 -4.48451E+01 -4.13041E+01 -4.41299E+01
  -3.86226E+01 -4.14470E+01 -3.81826E+01 -3.67650E+01 -4.67088E+01 -4.04488E+01 -4.24008E+01 -4.29963E+01 -3.99850E+01 -3.54544E+01
  -3.55446E+01 -3.50692E+01 -3.06030E+01 -3.76310E+01 -2.99733E+01 -2.79862E+01 -3.23521E+01 -3.23419E+01 -3.39650E+01 -3.12373E+01
  -3.55807E+01 -4.00141E+01 -3.34187E+01 -3.65034E+01 -3.68610E+01 -3.36637E+01 -3.57603E+01 -4.13215E+01 -3.90893E+01 -3.92597E+01
  -4.17934E+01 -3.66511E+01 -4.15818E+01 -4.19421E+01 -3.72383E+01 -3.74815E+01 -4.13635E+01 -3.87598E+01 -3.56418E+01 -3.92741E+01
  -3.83653E+01 -3.17177E+01 -3.19151E+01 -2.92863E+01 -2.97298E+01 -3.56074E+01 -3.27843E+01 -2.86250E+01 -2.77853E+01 -2.57597E+01
  -2.56899E+01 -2.87172E+01 -2.65460E+01 -1.57661E+01 -2.57463E+01 -1.47852E+01 -2.25693E+01 -1.65287E+01 -1.86353E+01 -1.35813E+01
  -1.85335E+01 -1.56083E+01 -1.05974E+01 -1.40352E+01 -7.43441E+00 -1.24756E+01 -1.27712E+00 -2.67509E+00  5.15026E+00  2.03013E+01
   3.72343E+01  4.80930E+01  6.00005E+01  5.05424E+01  3.77920E+01  2.62493E+01  1.29647E+01  4.46068E+00 -5.01622E+00 -1.28624E+01
  -1.82075E+01 -2.04907E+01 -1.74979E+01 -1.95530E+01 -2.29139E+01 -1.54582E+01 -1.76623E+01 -1.42296E+01 -1.68757E+01 -9.87892E+00
  -8.78063E+00 -1.45969E+01 -4.43595E+00 -3.21259E+00  1.43140E+01  1.79247E+01  3.15808E+01  3.34865E+01  2.85801E+01  1.55324E+01
   1.21702E+01  1.43938E-01 -3.88023E+00 -1.32531E+01 -1.32579E+01 -1.01337E+01 -1.65825E+01 -2.28243E+01 -1.87545E+01 -1.61310E+01
  -1.21606E+01 -1.47285E+01 -1.32147E+01 -1.44242E+01 -1.88487E+01 -1.91825E+01 -1.90767E+01 -1.50468E+01 -1.75159E+01 -1.63578E+01
  -1.39184E+01 -9.19416E+00 -1.30155E+01 -1.61207E+01 -1.92840E+01 -1.17094E+01 -1.59501E+01 -1.46878E+01 -1.01200E+01 -1.75870E+01
  -1.51983E+01 -1.67687E+01 -1.86807E+01 -1.82448E+01 -1.53795E+01 -1.59413E+01 -2.06506E+01 -1.97028E+01 -1.29408E+01 -1.62780E+01
  -2.05693E+01 -1.67896E+01 -1.80850E+01 -1.91675E+01 -2.54917E+01 -1.91764E+01 -2.54390E+01 -1.85835E+01 -1.61571E+01 -1.97998E+01
  -2.25247E+01 -2.17993E+01 -2.62013E+01 -1.38527E+01 -1.45693E+01 -1.67691E+01 -1.18931E+01 -1.17200E+01 -8.75782E+00 -8.54161E+00
  -5.26213E+00 -5.10099E+00 -2.75151E+00 -4.94166E+00 -1.27846E+00  1.28015E+00 -5.26808E+00 -4.27886E+00 -9.38448E+00 -1.21238E+01
  -1.29260E+00 -2.13844E+00 -6.26911E+00  1.95176E+00  8.18989E-01  9.16327E-01 -4.12762E-02 -8.05870E+00 -1.16797E+01 -1.14412E+01
  -4.12737E+00 -9.01239E+00 -2.28535E+00  4.09804E+00  1.75331E+00  7.60549E+00  7.01556E+00  6.03273E+00  5.80723E+00  2.80231E+00
  -4.07258E+00 -9.68098E+00 -1.20434E+01 -4.98961E+00 -6.33709E+00  2.28138E+00  1.57097E+00  2.99284E+00  5.19174E+00  5.94968E+00
   4.66628E+00  1.00215E+01  2.52098E-01  4.19241E+00  1.05293E+01 -8.16526E-01  5.54594E+00  7.68945E+00  8.36657E+00  8.30946E+00
  -2.14748E+00 -2.66034E+00 -5.48890E+00  4.34521E+00  1.48645E-02  8.90142E+00  8.42702E+00  1.19361E+01  1.39743E+01  1.59728E+01
   1.61682E+01  2.07078E+01  3.24586E+01  3.84672E+01  4.80053E+01  4.74079E+01  5.47189E+01  6.52924E+01  8.43918E+01  1.00712E+02
   1.04269E+02  9.89352E+01  7.93259E+01  6.85182E+01  4.95465E+01  3.93194E+01  2.99618E+01  2.41697E+01  1.65383E+01  1.44517E+01
   1.53730E+01  1.67708E+01  1.22711E+01  9.33514E+00  9.42378E+00  1.31326E+01  8.64675E+00  6.26919E+00  9.62946E+00  8.94840E+00
   1.55765E+01  6.00263E+00  7.19241E+00  9.08494E+00  1.04636E+01  4.96444E+00  7.89846E+00  4.10613E+00  8.28506E+00  1.06755E+01
   1.29615E+01  1.12500E+01  8.54465E+00  1.32238E+01  1.09922E+01  9.22766E+00  9.85505E+00  3.84443E+00  1.29547E+01  1.39102E+01
   1.50855E+01  1.10399E+01  1.41000E+01  1.49524E+01  1.69639E+01  1.49515E+01  7.98016E+00  1.14657E+01  1.41030E+01  1.99619E+01
   1.57563E+01  6.51993E+00  1.09305E+01  1.20268E+01  1.73916E+01  1.32456E+01  1.39027E+01  1.33536E+01  1.92779E+01  1.98329E+01
   1.32752E+01  1.86007E+01  1.55185E+01  1.55796E+01  1.30841E+01  1.88077E+01  1.44982E+01  1.92027E+01  1.89655E+01  1.73684E+01
   1.66049E+01  1.33045E+01  1.70334E+01  1.68256E+01  1.81581E+01  2.00698E+01  2.17703E+01  1.58913E+01  2.00913E+01  2.46491E+01
   1.64421E+01  1.74888E+01  1.45556E+01  1.90545E+01  1.82397E+01  2.42857E+01  2.44860E+01  2.04113E+01  1.67939E+01  1.37610E+01
   1.61174E+01  1.95016E+01  1.78251E+01  2.90825E+01  2.44721E+01  1.64788E+01  1.96020E+01  1.87771E+01  1.78065E+01  2.56921E+01
   2.07634E+01  1.92319E+01  1.51153E+01  1.92071E+01  1.63973E+01  2.18334E+01  2.10815E+01  2.09540E+01  1.75376E+01  1.71296E+01
   2.55704E+01  1.85097E+01  2.30027E+01  2.44149E+01  1.96366E+01  2.10102E+01  2.17718E+01  2.36856E+01  1.80374E+01  1.90516E+01
   2.00510E+01  2.39341E+01  2.28190E+01  2.41165E+01  1.62520E+01  1.90625E+01  2.59699E+01  1.91782E+01  1.74615E+01  1.68361E+01
   1.45689E+01  1.50501E+01  1.37244E+01  2.18075E+01  1.76275E+01  1.76047E+01  2.03498E+01  2.20468E+01  2.17962E+01  2.25056E+01
   1.92787E+01  1.76743E+01  1.93291E+01  2.22324E+01  2.45061E+01  2.13836E+01  2.46367E+01  2.18297E+01  2.24282E+01  2.39314E+01
   2.01821E+01  2.72558E+01  2.32808E+01  2.40577E+01  2.14813E+01  2.16645E+01  1.64738E+01  1.58737E+01  1.84472E+01  1.42825E+01
   1.42388E+01  1.85901E+01  2.13005E+01  1.47086E+01  1.74839E+01  2.25046E+01  1.83186E+01  1.48908E+01  1.53202E+01  1.22373E+01
   1.00529E+01  1.41540E+01  1.63795E+01  1.27087E+01  1.15979E+01  1.35503E+01  1.24203E+01  1.38769E+01  1.56651E+01  1.51781E+01
   6.66941E+00  1.01983E+01  1.13423E+01  1.37265E+01  1.25129E+01  1.59672E+01  1.20500E+01  9.41732E+00  1.65074E+01  1.22264E+01
   9.66269E+00  1.01523E+01  1.20944E+01  1.31469E+01  1.00998E+01  9.70565E+00  1.29769E+01  1.48623E+01  1.35452E+01  1.47963E+01
   1.24065E+01  1.81672E+01  9.22697E+00  4.95511E+00  1.07825E+01  1.31012E+01  1.04466E+01  1.11249E+01  1.47517E+01  1.52012E+01
   9.50755E+00  1.19681E+01  7.43326E+00  1.38063E+01  1.00305E+01  1.10804E+01  1.10655E+01  1.03282E+01  8.06366E+00  8.90837E+00
   1.41384E+01  1.23813E+01  8.40681E+00  1.48447E+01  4.36015E+00  9.14501E+00  1.17094E+01  1.06214E+01  8.35244E+00  6.97120E+00
   5.90770E+00  9.42476E+00  9.55170E+00  1.16729E+01  1.33792E+01  9.90624E+00  1.16163E+01  8.63544E+00
 NY points of the fit to the data follow
  -5.97365E+01 -5.82713E+01 -5.50058E+01 -5.17909E+01 -4.88744E+01 -4.58738E+01 -4.13737E+01 -3.52188E+01 -2.90245E+01 -2.50146E+01
  -2.47284E+01 -2.76998E+01 -3.22254E+01 -3.68220E+01 -4.07080E+01 -4.38888E+01 -4.66162E+01 -4.90408E+01 -5.06412E+01 -5.14091E+01
  -5.14609E+01 -5.16159E+01 -5.13447E+01 -5.00475E+01 -4.92016E+01 -4.90334E+01 -4.85385E+01 -4.69498E+01 -4.44608E+01 -4.16046E+01
  -3.88215E+01 -3.70225E+01 -3.67486E+01 -3.74833E+01 -3.87752E+01 -4.03154E+01 -4.20520E+01 -4.36914E+01 -4.44137E+01 -4.37689E+01
  -4.23418E+01 -4.10142E+01 -3.98203E+01 -3.83545E+01 -3.63464E+01 -3.41960E+01 -3.26195E+01 -3.21374E+01 -3.28928E+01 -3.44648E+01
  -3.62920E+01 -3.77037E+01 -3.84659E+01 -3.89616E+01 -3.92472E+01 -3.93183E+01 -3.89910E+01 -3.82561E+01 -3.73244E+01 -3.64970E+01
  -3.60367E+01 -3.61652E+01 -3.65393E+01 -3.68380E+01 -3.67851E+01 -3.63618E+01 -3.57676E+01 -3.52191E+01 -3.45418E+01 -3.35672E+01
  -3.28349E+01 -3.24559E+01 -3.20265E+01 -3.14097E+01 -3.07240E+01 -3.00526E+01 -2.96832E+01 -2.99578E+01 -3.05367E+01 -3.06769E+01
  -2.91091E+01 -2.75004E+01 -2.69072E+01 -2.57440E+01 -2.31172E+01 -1.94714E+01 -1.61694E+01 -1.46033E+01 -1.52126E+01 -1.71323E+01
  -1.92486E+01 -2.09304E+01 -2.18138E+01 -2.18928E+01 -1.92127E+01 -1.08348E+01 -4.90730E+00 -2.16855E+00  5.11302E+00  1.98195E+01
   3.76957E+01  5.23307E+01  5.79651E+01  5.22548E+01  3.93607E+01  2.53965E+01  1.27869E+01  2.29045E+00 -5.98857E+00 -1.29773E+01
  -1.89009E+01 -2.18362E+01 -2.26584E+01 -2.29060E+01 -2.29204E+01 -2.27649E+01 -2.25013E+01 -2.20263E+01 -2.08894E+01 -1.68632E+01
  -1.02177E+01 -7.65512E+00 -6.03880E+00 -3.74676E-02  1.06364E+01  2.23434E+01  3.06990E+01  3.22351E+01  2.65404E+01  1.76859E+01
   9.34136E+00  2.24048E+00 -3.42779E+00 -8.16034E+00 -1.27627E+01 -1.65906E+01 -1.82836E+01 -1.87431E+01 -1.85320E+01 -1.78714E+01
  -1.70694E+01 -1.64003E+01 -1.59441E+01 -1.57022E+01 -1.56365E+01 -1.56466E+01 -1.56865E+01 -1.57881E+01 -1.58855E+01 -1.59031E+01
  -1.58999E+01 -1.58826E+01 -1.58724E+01 -1.59974E+01 -1.62222E+01 -1.60773E+01 -1.56591E+01 -1.53077E+01 -1.52527E+01 -1.57729E+01
  -1.63471E+01 -1.64073E+01 -1.59325E+01 -1.53565E+01 -1.49957E+01 -1.50290E+01 -1.54692E+01 -1.60387E+01 -1.65436E+01 -1.69677E+01
  -1.69869E+01 -1.67167E+01 -1.67744E+01 -1.72732E+01 -1.78679E+01 -1.79402E+01 -1.73962E+01 -1.65624E+01 -1.60390E+01 -1.60154E+01
  -1.61427E+01 -1.57031E+01 -1.48488E+01 -1.40182E+01 -1.33410E+01 -1.26939E+01 -1.18900E+01 -1.06085E+01 -8.82081E+00 -6.96058E+00
  -5.60992E+00 -5.16760E+00 -5.11356E+00 -5.18712E+00 -5.42300E+00 -5.81235E+00 -6.07111E+00 -5.79260E+00 -5.11181E+00 -4.03600E+00
  -2.77579E+00 -1.57250E+00 -7.73313E-01 -5.34407E-01 -5.48953E-01 -1.57928E+00 -3.79489E+00 -6.11210E+00 -7.77877E+00 -8.05023E+00
  -7.79409E+00 -7.10208E+00 -5.19755E+00 -2.02710E+00  1.41582E+00  3.55742E+00  3.95011E+00  3.17007E+00  1.26651E+00 -1.98098E+00
  -5.54005E+00 -8.22359E+00 -9.18790E+00 -8.11061E+00 -5.68974E+00 -2.59479E+00  5.35169E-01  3.00363E+00  4.37672E+00  4.98968E+00
   5.41508E+00  5.50746E+00  5.24488E+00  5.13998E+00  5.46574E+00  5.96437E+00  6.62151E+00  7.44275E+00  7.89875E+00  7.61374E+00
   6.57257E+00  5.40735E+00  4.75311E+00  4.92255E+00  5.79024E+00  7.06513E+00  8.57516E+00  1.00402E+01  1.19008E+01  1.45991E+01
   1.62017E+01  1.75293E+01  2.25683E+01  3.62118E+01  4.75691E+01  5.18027E+01  5.74311E+01  6.92021E+01  8.47766E+01  9.83714E+01
   1.03824E+02  9.75623E+01  8.30709E+01  6.69657E+01  5.22989E+01  4.03295E+01  3.10544E+01  2.32650E+01  1.62550E+01  1.22667E+01
   1.08978E+01  1.03261E+01  1.01174E+01  1.00953E+01  1.00819E+01  9.98170E+00  9.83552E+00  9.65133E+00  9.45034E+00  9.27561E+00
   9.15414E+00  9.08489E+00  9.06921E+00  9.09466E+00  9.14756E+00  9.22232E+00  9.28787E+00  9.34273E+00  9.41628E+00  9.53304E+00
   9.69558E+00  9.89885E+00  1.01301E+01  1.03857E+01  1.06475E+01  1.09024E+01  1.11470E+01  1.13845E+01  1.16229E+01  1.18680E+01
   1.21226E+01  1.23842E+01  1.26414E+01  1.28854E+01  1.31095E+01  1.33101E+01  1.34874E+01  1.36407E+01  1.37683E+01  1.38754E+01
   1.39670E+01  1.40467E+01  1.41194E+01  1.41899E+01  1.42639E+01  1.43473E+01  1.44461E+01  1.45663E+01  1.47163E+01  1.49137E+01
   1.51785E+01  1.53898E+01  1.55401E+01  1.57817E+01  1.61114E+01  1.64142E+01  1.65838E+01  1.65816E+01  1.65345E+01  1.65578E+01
   1.65816E+01  1.66366E+01  1.68183E+01  1.71775E+01  1.76749E+01  1.82248E+01  1.87320E+01  1.91021E+01  1.93303E+01  1.94741E+01
   1.95669E+01  1.96368E+01  1.96936E+01  1.97253E+01  1.97510E+01  1.98075E+01  1.98835E+01  1.99706E+01  2.00653E+01  2.01654E+01
   2.02686E+01  2.03724E+01  2.04743E+01  2.05714E+01  2.06611E+01  2.07401E+01  2.08053E+01  2.08535E+01  2.08820E+01  2.08887E+01
   2.08718E+01  2.08297E+01  2.07618E+01  2.06676E+01  2.05480E+01  2.04043E+01  2.02384E+01  2.00526E+01  1.98496E+01  1.96329E+01
   1.94064E+01  1.91740E+01  1.89399E+01  1.87081E+01  1.84828E+01  1.82679E+01  1.80678E+01  1.78860E+01  1.77260E+01  1.75909E+01
   1.74839E+01  1.74076E+01  1.73648E+01  1.73575E+01  1.73878E+01  1.74569E+01  1.75663E+01  1.77166E+01  1.79082E+01  1.81402E+01
   1.84113E+01  1.87190E+01  1.90600E+01  1.94298E+01  1.98228E+01  2.02316E+01  2.06483E+01  2.10636E+01  2.14679E+01  2.18509E+01
   2.22021E+01  2.25113E+01  2.27690E+01  2.29670E+01  2.30987E+01  2.31590E+01  2.31451E+01  2.30560E+01  2.28935E+01  2.26611E+01
   2.23647E+01  2.20111E+01  2.16089E+01  2.11671E+01  2.06956E+01  2.02041E+01  1.97020E+01  1.91977E+01  1.86989E+01  1.82122E+01
   1.77431E+01  1.72959E+01  1.68736E+01  1.64779E+01  1.61098E+01  1.57694E+01  1.54564E+01  1.51695E+01  1.49075E+01  1.46684E+01
   1.44504E+01  1.42517E+01  1.40705E+01  1.39050E+01  1.37534E+01  1.36140E+01  1.34857E+01  1.33669E+01  1.32568E+01  1.31542E+01
   1.30581E+01  1.29678E+01  1.28826E+01  1.28021E+01  1.27257E+01  1.26527E+01  1.25830E+01  1.25159E+01  1.24515E+01  1.23894E+01
   1.23295E+01  1.22713E+01  1.22147E+01  1.21596E+01  1.21060E+01  1.20536E+01  1.20025E+01  1.19522E+01  1.19029E+01  1.18544E+01
   1.18069E+01  1.17600E+01  1.17139E+01  1.16682E+01  1.16231E+01  1.15785E+01  1.15346E+01  1.14911E+01  1.14479E+01  1.14051E+01
   1.13627E+01  1.13206E+01  1.12790E+01  1.12375E+01  1.11964E+01  1.11554E+01  1.11148E+01  1.10745E+01  1.10344E+01  1.09945E+01
   1.09547E+01  1.09151E+01  1.08759E+01  1.08368E+01  1.07979E+01  1.07590E+01  1.07204E+01  1.06819E+01  1.06438E+01  1.06057E+01
   1.05678E+01  1.05300E+01  1.04923E+01  1.04549E+01  1.04177E+01  1.03806E+01  1.03437E+01  1.03068E+01
 NY background values follow
    -6.632E+01   -6.593E+01   -6.554E+01   -6.514E+01   -6.475E+01   -6.436E+01   -6.397E+01   -6.358E+01   -6.318E+01   -6.279E+01
    -6.240E+01   -6.201E+01   -6.162E+01   -6.122E+01   -6.083E+01   -6.044E+01   -6.005E+01   -5.966E+01   -5.927E+01   -5.888E+01
    -5.849E+01   -5.810E+01   -5.771E+01   -5.732E+01   -5.693E+01   -5.654E+01   -5.615E+01   -5.577E+01   -5.538E+01   -5.499E+01
    -5.461E+01   -5.422E+01   -5.384E+01   -5.345E+01   -5.307E+01   -5.269E+01   -5.230E+01   -5.192E+01   -5.154E+01   -5.116E+01
    -5.078E+01   -5.040E+01   -5.002E+01   -4.964E+01   -4.927E+01   -4.889E+01   -4.852E+01   -4.814E+01   -4.777E+01   -4.740E+01
    -4.702E+01   -4.665E+01   -4.628E+01   -4.592E+01   -4.555E+01   -4.518E+01   -4.482E+01   -4.445E+01   -4.409E+01   -4.373E+01
    -4.337E+01   -4.301E+01   -4.265E+01   -4.229E+01   -4.193E+01   -4.158E+01   -4.122E+01   -4.087E+01   -4.052E+01   -4.017E+01
    -3.982E+01   -3.948E+01   -3.913E+01   -3.879E+01   -3.844E+01   -3.810E+01   -3.776E+01   -3.742E+01   -3.709E+01   -3.675E+01
    -3.642E+01   -3.609E+01   -3.576E+01   -3.543E+01   -3.510E+01   -3.477E+01   -3.445E+01   -3.413E+01   -3.381E+01   -3.349E+01
    -3.317E+01   -3.286E+01   -3.254E+01   -3.223E+01   -3.192E+01   -3.161E+01   -3.131E+01   -3.100E+01   -3.070E+01   -3.040E+01
    -3.010E+01   -2.980E+01   -2.950E+01   -2.921E+01   -2.892E+01   -2.863E+01   -2.834E+01   -2.805E+01   -2.777E+01   -2.748E+01
    -2.720E+01   -2.692E+01   -2.664E+01   -2.636E+01   -2.609E+01   -2.581E+01   -2.554E+01   -2.527E+01   -2.500E+01   -2.473E+01
    -2.447E+01   -2.420E+01   -2.394E+01   -2.368E+01   -2.342E+01   -2.316E+01   -2.291E+01   -2.265E+01   -2.240E+01   -2.215E+01
    -2.190E+01   -2.165E+01   -2.140E+01   -2.116E+01   -2.091E+01   -2.067E+01   -2.043E+01   -2.019E+01   -1.995E+01   -1.972E+01
    -1.948E+01   -1.925E+01   -1.902E+01   -1.879E+01   -1.856E+01   -1.833E+01   -1.810E+01   -1.788E+01   -1.765E+01   -1.743E+01
    -1.721E+01   -1.699E+01   -1.677E+01   -1.655E+01   -1.633E+01   -1.612E+01   -1.590E+01   -1.569E+01   -1.548E+01   -1.527E+01
    -1.506E+01   -1.485E+01   -1.464E+01   -1.443E+01   -1.422E+01   -1.402E+01   -1.381E+01   -1.361E+01   -1.341E+01   -1.320E+01
    -1.300E+01   -1.280E+01   -1.260E+01   -1.240E+01   -1.220E+01   -1.201E+01   -1.181E+01   -1.161E+01   -1.142E+01   -1.122E+01
    -1.103E+01   -1.083E+01   -1.064E+01   -1.044E+01   -1.025E+01   -1.006E+01   -9.869E+00   -9.678E+00   -9.487E+00   -9.298E+00
    -9.108E+00   -8.920E+00   -8.732E+00   -8.545E+00   -8.358E+00   -8.172E+00   -7.987E+00   -7.802E+00   -7.618E+00   -7.434E+00
    -7.251E+00   -7.069E+00   -6.888E+00   -6.707E+00   -6.527E+00   -6.348E+00   -6.169E+00   -5.991E+00   -5.814E+00   -5.638E+00
    -5.462E+00   -5.287E+00   -5.113E+00   -4.939E+00   -4.767E+00   -4.595E+00   -4.424E+00   -4.253E+00   -4.084E+00   -3.915E+00
    -3.747E+00   -3.580E+00   -3.414E+00   -3.248E+00   -3.084E+00   -2.920E+00   -2.757E+00   -2.595E+00   -2.434E+00   -2.273E+00
    -2.114E+00   -1.955E+00   -1.798E+00   -1.641E+00   -1.485E+00   -1.330E+00   -1.175E+00   -1.022E+00   -8.694E-01   -7.177E-01
    -5.668E-01   -4.168E-01   -2.677E-01   -1.194E-01    2.797E-02    1.745E-01    3.202E-01    4.651E-01    6.090E-01    7.522E-01
     8.944E-01    1.036E+00    1.176E+00    1.316E+00    1.455E+00    1.593E+00    1.730E+00    1.866E+00    2.002E+00    2.136E+00
     2.270E+00    2.403E+00    2.535E+00    2.666E+00    2.796E+00    2.925E+00    3.054E+00    3.182E+00    3.308E+00    3.434E+00
     3.560E+00    3.684E+00    3.807E+00    3.930E+00    4.051E+00    4.172E+00    4.292E+00    4.411E+00    4.530E+00    4.647E+00
     4.763E+00    4.879E+00    4.994E+00    5.108E+00    5.221E+00    5.333E+00    5.444E+00    5.554E+00    5.664E+00    5.772E+00
     5.880E+00    5.987E+00    6.093E+00    6.198E+00    6.302E+00    6.405E+00    6.507E+00    6.609E+00    6.709E+00    6.809E+00
     6.907E+00    7.005E+00    7.102E+00    7.198E+00    7.293E+00    7.387E+00    7.480E+00    7.572E+00    7.663E+00    7.754E+00
     7.843E+00    7.931E+00    8.019E+00    8.106E+00    8.191E+00    8.276E+00    8.360E+00    8.443E+00    8.524E+00    8.605E+00
     8.685E+00    8.764E+00    8.842E+00    8.920E+00    8.996E+00    9.071E+00    9.145E+00    9.218E+00    9.290E+00    9.362E+00
     9.432E+00    9.501E+00    9.570E+00    9.637E+00    9.703E+00    9.769E+00    9.833E+00    9.896E+00    9.959E+00    1.002E+01
     1.008E+01    1.014E+01    1.020E+01    1.026E+01    1.031E+01    1.037E+01    1.042E+01    1.047E+01    1.053E+01    1.058E+01
     1.063E+01    1.068E+01    1.072E+01    1.077E+01    1.082E+01    1.086E+01    1.091E+01    1.095E+01    1.099E+01    1.103E+01
     1.107E+01    1.111E+01    1.115E+01    1.118E+01    1.122E+01    1.125E+01    1.129E+01    1.132E+01    1.135E+01    1.138E+01
     1.141E+01    1.144E+01    1.146E+01    1.149E+01    1.151E+01    1.154E+01    1.156E+01    1.158E+01    1.161E+01    1.163E+01
     1.164E+01    1.166E+01    1.168E+01    1.170E+01    1.171E+01    1.173E+01    1.174E+01    1.175E+01    1.177E+01    1.178E+01
     1.179E+01    1.180E+01    1.181E+01    1.181E+01    1.182E+01    1.183E+01    1.183E+01    1.184E+01    1.184E+01    1.184E+01
     1.184E+01    1.184E+01    1.185E+01    1.184E+01    1.184E+01    1.184E+01    1.184E+01    1.184E+01    1.183E+01    1.183E+01
     1.182E+01    1.181E+01    1.181E+01    1.180E+01    1.179E+01    1.178E+01    1.177E+01    1.176E+01    1.175E+01    1.174E+01
     1.173E+01    1.171E+01    1.170E+01    1.169E+01    1.167E+01    1.166E+01    1.164E+01    1.163E+01    1.161E+01    1.159E+01
     1.157E+01    1.156E+01    1.154E+01    1.152E+01    1.150E+01    1.148E+01    1.146E+01    1.144E+01    1.141E+01    1.139E+01
     1.137E+01    1.135E+01    1.133E+01    1.130E+01    1.128E+01    1.126E+01    1.123E+01    1.121E+01    1.118E+01    1.116E+01
     1.113E+01    1.111E+01    1.108E+01    1.105E+01    1.103E+01    1.100E+01    1.097E+01    1.095E+01    1.092E+01    1.089E+01
     1.086E+01    1.084E+01    1.081E+01    1.078E+01    1.075E+01    1.072E+01    1.069E+01    1.067E+01    1.064E+01    1.061E+01
     1.058E+01    1.055E+01    1.052E+01    1.049E+01    1.046E+01    1.043E+01    1.040E+01    1.037E+01    1.034E+01    1.031E+01
     1.028E+01    1.025E+01    1.022E+01    1.019E+01    1.016E+01    1.013E+01    1.010E+01    1.007E+01    1.003E+01    1.000E+01
     9.973E+00    9.942E+00    9.911E+00    9.881E+00    9.850E+00    9.819E+00    9.788E+00    9.758E+00
 Ala      Conc. = 7.50E+01
