 LCModel (Version 6.3-1L) Copyright: S.W. Provencher.          Ref.: Magn. Reson. Med. 30:672-679 (1993).                
 Slice#2 Row#8 Col#7  PD_24_press_1_raw_act
 36 lines in following concentration table = NCONC+1
    Conc.  %SD /Cr+PCr  Metabolite                                         
    0.000 999%   0.000 Ala                                                 
    0.000 999%   0.000 Asp                                                 
 1.65E+03   5%   1.000 Cr                                                  
    0.000 999%   0.000 PCr                                                 
  173.551 113%   0.105 GABA                                                
    0.000 999%   0.000 Glc                                                 
 1.29E+03  30%   0.780 Gln                                                 
 2.27E+03  20%   1.372 Glu                                                 
  770.242   4%   0.466 GPC                                                 
    0.000 999%   0.000 PCh                                                 
  563.442  19%   0.341 GSH                                                 
 2.62E+03  14%   1.584 Ins                                                 
    0.000 999%   0.000 Lac                                                 
 2.26E+03   7%   1.365 NAA                                                 
  108.981 180% 6.6E-02 NAAG                                                
   69.960  52% 4.2E-02 Scyllo                                              
    0.000 999%   0.000 Tau                                                 
    0.000 999%   0.000 -CrCH2                                              
  770.242   4%   0.466 GPC+PCh                                             
 2.37E+03   5%   1.430 NAA+NAAG                                            
 1.65E+03   5%   1.000 Cr+PCr                                              
 3.56E+03  18%   2.152 Glu+Gln                                             
    0.000 999%   0.000 Lip13a                                              
 1.10E+03  32%   0.665 Lip13b                                              
    0.000 999%   0.000 Lip09                                               
 1.64E+03  14%   0.990 MM09                                                
  124.821 163% 7.5E-02 Lip20                                               
 2.87E+03  16%   1.734 MM20                                                
  650.536  27%   0.393 MM12                                                
  754.719  51%   0.456 MM14                                                
 1.57E+03  19%   0.952 MM17                                                
 1.10E+03  32%   0.665 Lip13a+Lip13b                                       
 2.50E+03  16%   1.514 MM14+Lip13a+Lip13b+MM12                             
 1.64E+03  14%   0.990 MM09+Lip09                                          
 2.99E+03  15%   1.809 MM20+Lip20                                          
   6 lines in following misc. output table
  FWHM = 0.069 ppm    S/N =   8                                            
  Data shift = 0.008 ppm                                                   
  Ph: -11 deg       6.2 deg/ppm                                            
  alphaB,S = 3.4E+00,   1.3E+02                                            
   14 spline knots.   Ns = 7(1)                                            
  (12) 4 infls.   (13) 1 extrs.                                            
  498 points on ppm-axis = NY
      4.000000     3.992357     3.984714     3.977070     3.969427     3.961784     3.954141     3.946497     3.938854     3.931211
      3.923568     3.915925     3.908281     3.900638     3.892995     3.885352     3.877708     3.870065     3.862422     3.854779
      3.847136     3.839492     3.831849     3.824206     3.816563     3.808919     3.801276     3.793633     3.785990     3.778347
      3.770703     3.763060     3.755417     3.747774     3.740130     3.732487     3.724844     3.717201     3.709558     3.701914
      3.694271     3.686628     3.678985     3.671341     3.663698     3.656055     3.648412     3.640769     3.633125     3.625482
      3.617839     3.610196     3.602552     3.594909     3.587266     3.579623     3.571980     3.564336     3.556693     3.549050
      3.541407     3.533763     3.526120     3.518477     3.510834     3.503191     3.495547     3.487904     3.480261     3.472618
      3.464974     3.457331     3.449688     3.442045     3.434402     3.426758     3.419115     3.411472     3.403829     3.396185
      3.388542     3.380899     3.373256     3.365613     3.357969     3.350326     3.342683     3.335040     3.327396     3.319753
      3.312110     3.304467     3.296824     3.289180     3.281537     3.273894     3.266251     3.258607     3.250964     3.243321
      3.235678     3.228034     3.220391     3.212748     3.205105     3.197462     3.189818     3.182175     3.174532     3.166889
      3.159245     3.151602     3.143959     3.136316     3.128673     3.121029     3.113386     3.105743     3.098100     3.090456
      3.082813     3.075170     3.067527     3.059884     3.052240     3.044597     3.036954     3.029311     3.021667     3.014024
      3.006381     2.998738     2.991095     2.983451     2.975808     2.968165     2.960522     2.952878     2.945235     2.937592
      2.929949     2.922306     2.914662     2.907019     2.899376     2.891733     2.884089     2.876446     2.868803     2.861160
      2.853517     2.845873     2.838230     2.830587     2.822944     2.815300     2.807657     2.800014     2.792371     2.784728
      2.777084     2.769441     2.761798     2.754155     2.746511     2.738868     2.731225     2.723582     2.715939     2.708295
      2.700652     2.693009     2.685366     2.677722     2.670079     2.662436     2.654793     2.647150     2.639506     2.631863
      2.624220     2.616577     2.608933     2.601290     2.593647     2.586004     2.578361     2.570717     2.563074     2.555431
      2.547788     2.540144     2.532501     2.524858     2.517215     2.509572     2.501928     2.494285     2.486642     2.478999
      2.471355     2.463712     2.456069     2.448426     2.440783     2.433139     2.425496     2.417853     2.410210     2.402566
      2.394923     2.387280     2.379637     2.371994     2.364350     2.356707     2.349064     2.341421     2.333777     2.326134
      2.318491     2.310848     2.303205     2.295561     2.287918     2.280275     2.272632     2.264988     2.257345     2.249702
      2.242059     2.234416     2.226772     2.219129     2.211486     2.203843     2.196199     2.188556     2.180913     2.173270
      2.165627     2.157983     2.150340     2.142697     2.135054     2.127410     2.119767     2.112124     2.104481     2.096838
      2.089194     2.081551     2.073908     2.066265     2.058621     2.050978     2.043335     2.035692     2.028049     2.020405
      2.012762     2.005119     1.997476     1.989833     1.982190     1.974546     1.966903     1.959260     1.951617     1.943974
      1.936331     1.928688     1.921045     1.913402     1.905759     1.898115     1.890472     1.882829     1.875186     1.867543
      1.859900     1.852257     1.844614     1.836971     1.829327     1.821684     1.814041     1.806398     1.798755     1.791112
      1.783469     1.775826     1.768183     1.760540     1.752896     1.745253     1.737610     1.729967     1.722324     1.714681
      1.707038     1.699395     1.691752     1.684108     1.676465     1.668822     1.661179     1.653536     1.645893     1.638250
      1.630607     1.622964     1.615321     1.607677     1.600034     1.592391     1.584748     1.577105     1.569462     1.561819
      1.554176     1.546533     1.538890     1.531246     1.523603     1.515960     1.508317     1.500674     1.493031     1.485388
      1.477745     1.470102     1.462458     1.454815     1.447172     1.439529     1.431886     1.424243     1.416600     1.408957
      1.401314     1.393671     1.386027     1.378384     1.370741     1.363098     1.355455     1.347812     1.340169     1.332526
      1.324883     1.317240     1.309596     1.301953     1.294310     1.286667     1.279024     1.271381     1.263738     1.256095
      1.248452     1.240808     1.233165     1.225522     1.217879     1.210236     1.202593     1.194950     1.187307     1.179664
      1.172021     1.164377     1.156734     1.149091     1.141448     1.133805     1.126162     1.118519     1.110876     1.103233
      1.095590     1.087946     1.080303     1.072660     1.065017     1.057374     1.049731     1.042088     1.034445     1.026802
      1.019158     1.011515     1.003872     0.996229     0.988586     0.980943     0.973300     0.965657     0.958014     0.950371
      0.942727     0.935084     0.927441     0.919798     0.912155     0.904512     0.896869     0.889226     0.881583     0.873940
      0.866296     0.858653     0.851010     0.843367     0.835724     0.828081     0.820438     0.812795     0.805152     0.797508
      0.789865     0.782222     0.774579     0.766936     0.759293     0.751650     0.744007     0.736364     0.728721     0.721077
      0.713434     0.705791     0.698148     0.690505     0.682862     0.675219     0.667576     0.659933     0.652290     0.644646
      0.637003     0.629360     0.621717     0.614074     0.606431     0.598788     0.591145     0.583502     0.575858     0.568215
      0.560572     0.552929     0.545286     0.537643     0.530000     0.522357     0.514714     0.507071     0.499427     0.491784
      0.484141     0.476498     0.468855     0.461212     0.453569     0.445925     0.438282     0.430639     0.422996     0.415353
      0.407710     0.400067     0.392424     0.384780     0.377137     0.369494     0.361851     0.354208     0.346565     0.338922
      0.331278     0.323635     0.315992     0.308349     0.300706     0.293063     0.285420     0.277777     0.270133     0.262490
      0.254847     0.247204     0.239561     0.231918     0.224275     0.216631     0.208988     0.201345
 NY phased data points follow
   1.85003E+01  2.38185E+01  2.15733E+01  2.10210E+01  2.02009E+01  3.67724E+01  3.77343E+01  4.13070E+01  4.73849E+01  6.02369E+01
   5.97406E+01  6.38879E+01  5.70938E+01  5.87971E+01  5.26016E+01  5.56710E+01  3.17190E+01  4.23860E+01  3.53240E+01  3.96816E+01
   2.83355E+01  2.27663E+01  2.73989E+01  3.19188E+01  2.09859E+01  2.84535E+01  2.68303E+01  3.45387E+01  2.21821E+01  3.26176E+01
   2.41198E+01  3.87134E+01  2.91116E+01  2.84773E+01  2.86866E+01  3.10308E+01  2.64831E+01  3.24250E+01  2.74574E+01  2.89176E+01
   2.11585E+01  2.91330E+01  2.90034E+01  2.77302E+01  3.07554E+01  4.12780E+01  2.83489E+01  3.44986E+01  3.74576E+01  2.98383E+01
   3.12299E+01  3.31890E+01  3.13423E+01  2.54244E+01  2.44619E+01  2.29356E+01  2.24429E+01  3.51022E+01  1.86607E+01  2.29984E+01
   2.71598E+01  2.74590E+01  1.94369E+01  1.72719E+01  1.29983E+01  1.76750E+01  1.16801E+01  1.70028E+01  4.71204E+00  1.39839E+01
   7.56986E+00  1.33714E+01  1.37053E+01  1.26656E+01  1.27858E+01  1.75872E+01  1.46891E+01  1.14294E+01  1.14236E+01  1.22194E+01
   1.73065E+01  1.22681E+01  1.57571E+01  1.17398E+01  1.40416E+01  1.84149E+01  6.82129E+00  1.28519E+01  2.01594E+01  8.20170E+00
   1.25548E+01  1.71869E+01  1.35478E+01  7.28132E+00  1.11311E+01  1.88902E+01  1.82762E+01  1.45401E+01  2.22215E+01  3.43066E+01
   4.80973E+01  6.09933E+01  7.39231E+01  7.33785E+01  8.03533E+01  6.32841E+01  5.30190E+01  5.17020E+01  3.62114E+01  3.24382E+01
   2.20458E+01  2.96262E+01  1.49519E+01  1.49540E+01  1.11923E+01  2.26850E+01  8.07754E+00  1.43346E+01  4.71469E+00  1.40700E+01
   1.07536E+01  1.72379E+01  1.74015E+01  2.99165E+01  3.51728E+01  3.67728E+01  5.19067E+01  5.30853E+01  5.19212E+01  5.76629E+01
   5.01022E+01  4.31072E+01  3.29248E+01  2.68982E+01  3.16664E+01  1.22451E+01  4.85159E+00  1.36891E+01  1.15257E+01  9.64691E+00
   1.55091E+01  5.96644E+00  8.92169E+00  1.09778E+01  1.08046E+01  4.33819E+00  9.87786E+00  1.08886E+01  6.88986E+00  1.49964E+01
   6.51595E+00  4.52763E+00  3.17837E+00  1.65188E+01  1.58430E+00  1.06923E+01  3.46211E+00  6.80940E+00  1.44673E+00  8.99856E+00
   2.42566E+00  4.68967E+00  8.63829E+00  7.83090E+00  1.06559E+00  1.36326E+01  8.02985E+00 -9.36020E-01  7.61502E-01  2.23924E+00
  -7.19824E+00 -1.78385E-01  5.40674E-01  4.18412E+00 -2.22292E+00 -3.97207E+00 -7.07422E-01  4.45660E-01 -9.58423E+00 -3.71766E+00
  -7.38297E+00 -4.99982E+00 -9.48536E+00 -8.82465E+00 -8.54846E+00 -5.74455E+00 -3.06982E+00 -1.29652E+00  5.66710E+00  4.12749E+00
   3.01516E+00  1.03593E+01  8.94164E+00  4.44972E+00  9.71592E+00  4.52393E+00  7.59600E+00  5.99090E+00  1.48775E+00  9.11581E+00
   3.00570E+00  9.35352E+00  8.24045E+00  9.79134E+00  8.91086E+00  9.49852E+00  8.17581E+00  6.50491E+00  3.67889E+00 -5.11165E+00
   4.99871E+00  2.94197E+00  7.45316E+00  1.19523E+01  1.13639E+01  1.87639E+01  1.75853E+01  1.46116E+01  1.05166E+01  2.05497E+01
   5.67214E+00  2.47289E-01  5.66943E+00  1.68984E+00  1.03422E+01  7.54133E+00  5.06095E+00  7.30271E+00  9.21245E+00  1.27592E+01
   9.52312E+00  1.28825E+01  1.03542E+01  1.28715E+01  1.09245E+01  9.80563E+00  1.46152E+01  1.47671E+01  1.04808E+01  1.39582E+01
   6.55589E+00  1.33142E+01  1.10767E+01  1.35430E+01  2.01668E+01  1.33003E+01  8.84893E+00  1.31457E+01  1.54854E+01  2.45582E+01
   1.52706E+01  1.94672E+01  2.05148E+01  2.38992E+01  2.73269E+01  3.71892E+01  3.99358E+01  5.97235E+01  7.01106E+01  8.05682E+01
   8.18981E+01  7.93902E+01  7.19771E+01  6.62570E+01  5.75837E+01  4.25969E+01  2.64039E+01  2.10040E+01  1.34459E+01  1.41210E+01
   1.50753E+01  1.61336E+01  1.11529E+01  1.10442E+01  9.59506E+00  5.74873E+00  9.37841E+00  8.26275E+00  6.63515E+00  1.22982E+01
   8.93774E+00  9.11269E+00 -2.37429E-01  3.27528E+00  3.49449E+00 -1.41679E+00 -3.95528E-01  9.49575E+00  1.37165E+00  3.95669E+00
   1.08681E+01  1.03794E+01  5.77286E+00  9.24676E+00  7.97299E+00  6.07577E+00  6.15623E+00  3.28637E+00  1.18745E+01  1.18269E+01
   6.92149E+00  1.04056E+01  7.76939E+00  8.87788E+00  1.28303E+01  7.07316E+00  6.90488E+00  1.47904E+01  1.53285E+01  7.57146E+00
   1.59082E+01  1.56893E+01  1.68794E+01  1.78316E+01  1.03373E+01  1.35415E+01  1.27546E+01  9.77569E+00  1.33347E+01  1.43738E+01
   1.68760E+01  1.14503E+01  1.40036E+01  7.86123E+00  9.56206E+00  1.48626E+01  7.09557E+00  1.39243E+01  6.59831E+00  1.15627E+01
   1.43982E+01  7.90649E+00  7.07779E+00  1.05952E+01  1.07408E+01  1.00678E+01 -3.64896E-01  9.23365E-01  4.78367E-01  1.34593E+01
  -9.03144E-02 -3.78829E-01 -6.51623E+00  3.95139E-01  7.42943E-01  8.10089E+00  6.87393E+00  7.08811E+00  8.78084E+00  9.19231E+00
   8.10495E+00  2.46354E+00  1.28599E+01  9.13537E+00  1.18175E+01  2.15629E+01  1.93058E+01  1.01841E+01  1.12798E+01  1.50771E+01
   1.79865E+01  2.00016E+01  3.36722E+00  1.37407E+01  9.48165E+00  8.25318E+00  1.12191E+01  1.32456E+01  1.43323E+01  1.10783E+01
   1.00727E+01  8.38385E+00  1.04474E+01  8.49753E+00  9.52525E+00  1.85515E+01  6.34051E+00  9.51473E+00  1.18389E+01  5.25758E+00
   8.39996E+00  6.60147E+00 -2.56423E+00  6.11218E+00 -8.37132E-01  8.91443E+00  1.02297E+01 -1.17117E+00 -2.61941E-01  4.66394E+00
   1.20756E+01  6.92347E+00  6.64660E+00  1.60883E+01  4.74901E+00  9.66826E+00  9.67019E+00  1.02227E+01  1.12757E+01  1.08992E+01
   3.14489E+00  9.93340E+00  5.65498E+00  1.14749E+01  6.62069E+00  1.37078E+01  1.19538E+01  1.06681E+01  1.34581E+01  1.21045E+01
   1.44335E+01  5.57398E+00  6.39056E+00  6.09215E+00  4.88162E+00  8.11726E+00  8.86648E+00  9.37081E+00  5.94112E+00  7.40759E+00
   6.03044E+00 -2.22449E+00  2.24927E+00  2.66975E+00  1.97150E+00  8.19448E-01  4.07518E+00 -1.53282E+00  3.14835E+00  7.28636E-01
  -5.26521E-01 -5.09113E-01 -5.79427E+00  5.69615E+00 -3.30804E+00  3.33965E+00  1.30246E+00  3.95292E-01  3.71328E+00  6.28944E-01
  -4.08982E+00  6.77696E+00 -6.36768E+00  2.90927E+00 -2.90776E+00 -2.39828E+00  3.85009E+00  2.46916E+00 -4.33953E+00 -6.68219E+00
  -3.48413E+00 -2.71446E+00 -1.12000E+00  4.43006E+00  5.03109E+00 -3.88426E+00 -7.51389E+00  3.03420E-01 -3.83353E+00 -6.44172E+00
  -4.37538E+00  6.10980E-01  8.59687E-01  7.93609E+00 -1.03110E+00  5.85131E+00 -8.99088E-01  3.39275E+00  4.41308E+00  3.63917E+00
  -7.17881E+00 -6.48385E+00  1.07859E+00  3.01323E+00 -1.64589E+00 -3.28799E+00  2.20116E+00 -5.82987E-01 -2.06008E+00  2.62534E+00
  -9.65594E-01 -4.26300E+00  2.82906E+00  3.14550E+00 -3.12445E+00 -6.86008E+00  3.65015E+00 -6.36432E-01 -7.17243E+00  4.74265E+00
  -9.13314E-03 -6.08054E+00  2.62225E-01  3.53980E-01  4.62753E+00 -2.29146E+00  7.65505E-01 -4.03761E+00
 NY points of the fit to the data follow
   2.51947E+01  2.42798E+01  2.40719E+01  2.43555E+01  2.53736E+01  2.79185E+01  3.19196E+01  3.70345E+01  4.29089E+01  4.87629E+01
   5.33967E+01  5.57908E+01  5.56452E+01  5.33474E+01  4.96326E+01  4.51879E+01  4.04973E+01  3.60024E+01  3.18857E+01  2.80035E+01
   2.47753E+01  2.31742E+01  2.25462E+01  2.23508E+01  2.25146E+01  2.32462E+01  2.47667E+01  2.70035E+01  2.95683E+01  3.19099E+01
   3.36081E+01  3.43600E+01  3.40072E+01  3.26423E+01  3.05905E+01  2.81898E+01  2.57706E+01  2.34859E+01  2.16853E+01  2.09175E+01
   2.11867E+01  2.26245E+01  2.50886E+01  2.82142E+01  3.15671E+01  3.43444E+01  3.58893E+01  3.58217E+01  3.42003E+01  3.16290E+01
   2.86575E+01  2.55913E+01  2.29083E+01  2.09325E+01  1.95417E+01  1.87827E+01  1.90335E+01  2.01208E+01  2.12356E+01  2.17834E+01
   2.16929E+01  2.10451E+01  2.00547E+01  1.89527E+01  1.80069E+01  1.74523E+01  1.72556E+01  1.73176E+01  1.76592E+01  1.82157E+01
   1.88065E+01  1.92647E+01  1.94399E+01  1.93214E+01  1.89645E+01  1.84480E+01  1.78837E+01  1.73482E+01  1.68959E+01  1.65469E+01
   1.62961E+01  1.61246E+01  1.58905E+01  1.54705E+01  1.47771E+01  1.38300E+01  1.27962E+01  1.19167E+01  1.13850E+01  1.13037E+01
   1.16338E+01  1.22381E+01  1.29494E+01  1.36114E+01  1.41959E+01  1.49548E+01  1.67865E+01  2.12185E+01  2.83177E+01  3.79847E+01
   4.95788E+01  6.11968E+01  7.01359E+01  7.43894E+01  7.35580E+01  6.85997E+01  6.10016E+01  5.20327E+01  4.26888E+01  3.38773E+01
   2.57282E+01  1.81407E+01  1.26530E+01  1.09568E+01  1.07239E+01  1.07453E+01  1.08275E+01  1.09622E+01  1.12083E+01  1.17128E+01
   1.30426E+01  1.63804E+01  2.18623E+01  2.92724E+01  3.81683E+01  4.73023E+01  5.47920E+01  5.90535E+01  5.95284E+01  5.66490E+01
   5.13885E+01  4.46582E+01  3.71754E+01  2.97153E+01  2.26814E+01  1.61930E+01  1.12521E+01  9.37978E+00  9.20120E+00  9.47659E+00
   9.83911E+00  1.01400E+01  1.03905E+01  1.05596E+01  1.05394E+01  1.03439E+01  9.99788E+00  9.51905E+00  8.99854E+00  8.49914E+00
   8.08175E+00  7.78225E+00  7.56443E+00  7.39963E+00  7.22367E+00  7.00200E+00  6.71667E+00  6.38098E+00  6.06766E+00  5.81948E+00
   5.68072E+00  5.66159E+00  5.69565E+00  5.66662E+00  5.50184E+00  5.22214E+00  4.86925E+00  4.49493E+00  4.13584E+00  3.73513E+00
   3.21285E+00  2.64175E+00  2.08969E+00  1.65155E+00  1.41318E+00  1.32189E+00  1.31808E+00  1.34743E+00  1.35173E+00  1.31735E+00
   1.24971E+00  1.19495E+00  1.20941E+00  1.36458E+00  1.73375E+00  2.35518E+00  3.27848E+00  4.48359E+00  5.77744E+00  6.88009E+00
   7.50313E+00  7.56133E+00  7.17030E+00  6.49418E+00  5.72669E+00  5.09240E+00  4.78578E+00  5.05420E+00  5.99760E+00  7.49645E+00
   9.29067E+00  1.10161E+01  1.22608E+01  1.25208E+01  1.16672E+01  9.81657E+00  7.16112E+00  4.15048E+00  1.55653E+00  9.30844E-02
   1.85773E-01  1.76123E+00  4.50965E+00  7.86323E+00  1.10753E+01  1.32926E+01  1.38962E+01  1.28701E+01  1.06054E+01  7.39610E+00
   4.12202E+00  1.73989E+00  6.15454E-01  7.62166E-01  1.91046E+00  3.81675E+00  6.13551E+00  8.19665E+00  9.74438E+00  1.07663E+01
   1.14754E+01  1.19017E+01  1.19476E+01  1.19254E+01  1.22384E+01  1.28373E+01  1.34109E+01  1.37667E+01  1.38137E+01  1.35232E+01
   1.28782E+01  1.20587E+01  1.14471E+01  1.12580E+01  1.14016E+01  1.16484E+01  1.20722E+01  1.27194E+01  1.34773E+01  1.44117E+01
   1.56295E+01  1.71219E+01  1.88706E+01  2.22515E+01  2.83103E+01  3.68084E+01  4.75023E+01  5.95011E+01  7.06760E+01  7.84045E+01
   8.11577E+01  7.89534E+01  7.29081E+01  6.44615E+01  5.47840E+01  4.49939E+01  3.57104E+01  2.67303E+01  1.83794E+01  1.31187E+01
   1.11320E+01  1.01766E+01  9.61557E+00  9.30854E+00  9.14360E+00  8.95310E+00  8.71435E+00  8.42673E+00  8.07546E+00  7.67232E+00
   7.25538E+00  6.83870E+00  6.44584E+00  6.12179E+00  5.88207E+00  5.71782E+00  5.61567E+00  5.55844E+00  5.53945E+00  5.55604E+00
   5.59333E+00  5.65355E+00  5.74604E+00  5.87451E+00  6.04580E+00  6.26993E+00  6.55006E+00  6.88552E+00  7.27606E+00  7.72073E+00
   8.21333E+00  8.74666E+00  9.31198E+00  9.89503E+00  1.04813E+01  1.10561E+01  1.16041E+01  1.21098E+01  1.25574E+01  1.29343E+01
   1.32295E+01  1.34344E+01  1.35440E+01  1.35573E+01  1.34758E+01  1.33047E+01  1.30523E+01  1.27293E+01  1.23485E+01  1.19239E+01
   1.14698E+01  1.10001E+01  1.05277E+01  1.00639E+01  9.61797E+00  9.19723E+00  8.80661E+00  8.44895E+00  8.12511E+00  7.83436E+00
   7.57475E+00  7.34346E+00  7.13724E+00  6.95272E+00  6.78683E+00  6.63718E+00  6.50225E+00  6.38175E+00  6.27680E+00  6.19021E+00
   6.12679E+00  6.09363E+00  6.10036E+00  6.15915E+00  6.28452E+00  6.49278E+00  6.80064E+00  7.22329E+00  7.77167E+00  8.44908E+00
   9.24795E+00  1.01471E+01  1.11105E+01  1.20881E+01  1.30196E+01  1.38399E+01  1.44871E+01  1.49102E+01  1.50767E+01  1.49764E+01
   1.46228E+01  1.40506E+01  1.33093E+01  1.24569E+01  1.15514E+01  1.06445E+01  9.77724E+00  8.97804E+00  8.26274E+00  7.63666E+00
   7.09732E+00  6.63747E+00  6.24769E+00  5.91841E+00  5.64127E+00  5.40974E+00  5.21931E+00  5.06736E+00  4.95282E+00  4.87583E+00
   4.83737E+00  4.83898E+00  4.88240E+00  4.96937E+00  5.10139E+00  5.27952E+00  5.50424E+00  5.77521E+00  6.09112E+00  6.44948E+00
   6.84654E+00  7.27715E+00  7.73474E+00  8.21130E+00  8.69751E+00  9.18290E+00  9.65611E+00  1.01053E+01  1.05184E+01  1.08840E+01
   1.11912E+01  1.14305E+01  1.15944E+01  1.16771E+01  1.16756E+01  1.15890E+01  1.14193E+01  1.11705E+01  1.08490E+01  1.04629E+01
   1.00217E+01  9.53586E+00  9.01614E+00  8.47338E+00  7.91796E+00  7.35949E+00  6.80652E+00  6.26639E+00  5.74508E+00  5.24725E+00
   4.77626E+00  4.33427E+00  3.92238E+00  3.54078E+00  3.18893E+00  2.86572E+00  2.56963E+00  2.29889E+00  2.05153E+00  1.82557E+00
   1.61900E+00  1.42993E+00  1.25654E+00  1.09717E+00  9.50289E-01  8.14514E-01  6.88611E-01  5.71488E-01  4.62181E-01  3.59836E-01
   2.63698E-01  1.73110E-01  8.74967E-02  6.35763E-03 -7.07476E-02 -1.44215E-01 -2.14394E-01 -2.81594E-01 -3.46078E-01 -4.08081E-01
  -4.67816E-01 -5.25476E-01 -5.81232E-01 -6.35232E-01 -6.87607E-01 -7.38476E-01 -7.87955E-01 -8.36151E-01 -8.83159E-01 -9.29060E-01
  -9.73925E-01 -1.01782E+00 -1.06082E+00 -1.10298E+00 -1.14435E+00 -1.18499E+00 -1.22494E+00 -1.26424E+00 -1.30294E+00 -1.34108E+00
  -1.37869E+00 -1.41579E+00 -1.45242E+00 -1.48861E+00 -1.52438E+00 -1.55976E+00 -1.59478E+00 -1.62945E+00 -1.66380E+00 -1.69785E+00
  -1.73163E+00 -1.76516E+00 -1.79845E+00 -1.83151E+00 -1.86437E+00 -1.89706E+00 -1.92958E+00 -1.96196E+00 -1.99421E+00 -2.02635E+00
  -2.05840E+00 -2.09039E+00 -2.12233E+00 -2.15424E+00 -2.18615E+00 -2.21807E+00 -2.25005E+00 -2.28211E+00
 NY background values follow
     1.545E+01    1.539E+01    1.533E+01    1.527E+01    1.521E+01    1.515E+01    1.509E+01    1.503E+01    1.498E+01    1.492E+01
     1.486E+01    1.480E+01    1.474E+01    1.468E+01    1.462E+01    1.456E+01    1.450E+01    1.444E+01    1.438E+01    1.432E+01
     1.426E+01    1.420E+01    1.414E+01    1.408E+01    1.402E+01    1.396E+01    1.390E+01    1.384E+01    1.378E+01    1.372E+01
     1.366E+01    1.360E+01    1.354E+01    1.348E+01    1.342E+01    1.336E+01    1.330E+01    1.324E+01    1.318E+01    1.312E+01
     1.306E+01    1.300E+01    1.294E+01    1.288E+01    1.282E+01    1.276E+01    1.270E+01    1.264E+01    1.258E+01    1.252E+01
     1.246E+01    1.240E+01    1.234E+01    1.228E+01    1.222E+01    1.216E+01    1.210E+01    1.204E+01    1.198E+01    1.192E+01
     1.186E+01    1.180E+01    1.174E+01    1.168E+01    1.163E+01    1.157E+01    1.151E+01    1.145E+01    1.139E+01    1.133E+01
     1.127E+01    1.121E+01    1.116E+01    1.110E+01    1.104E+01    1.098E+01    1.092E+01    1.086E+01    1.081E+01    1.075E+01
     1.069E+01    1.063E+01    1.057E+01    1.052E+01    1.046E+01    1.040E+01    1.034E+01    1.029E+01    1.023E+01    1.017E+01
     1.012E+01    1.006E+01    1.000E+01    9.946E+00    9.889E+00    9.833E+00    9.776E+00    9.720E+00    9.664E+00    9.608E+00
     9.552E+00    9.497E+00    9.441E+00    9.386E+00    9.330E+00    9.275E+00    9.220E+00    9.165E+00    9.110E+00    9.056E+00
     9.001E+00    8.947E+00    8.892E+00    8.838E+00    8.784E+00    8.730E+00    8.676E+00    8.623E+00    8.569E+00    8.516E+00
     8.463E+00    8.410E+00    8.357E+00    8.304E+00    8.251E+00    8.198E+00    8.146E+00    8.094E+00    8.042E+00    7.990E+00
     7.938E+00    7.886E+00    7.835E+00    7.783E+00    7.732E+00    7.681E+00    7.630E+00    7.579E+00    7.529E+00    7.478E+00
     7.428E+00    7.378E+00    7.328E+00    7.278E+00    7.228E+00    7.179E+00    7.129E+00    7.080E+00    7.031E+00    6.982E+00
     6.933E+00    6.885E+00    6.836E+00    6.788E+00    6.740E+00    6.692E+00    6.644E+00    6.597E+00    6.549E+00    6.502E+00
     6.455E+00    6.408E+00    6.361E+00    6.314E+00    6.268E+00    6.221E+00    6.175E+00    6.129E+00    6.084E+00    6.038E+00
     5.992E+00    5.947E+00    5.902E+00    5.857E+00    5.812E+00    5.768E+00    5.723E+00    5.679E+00    5.635E+00    5.591E+00
     5.547E+00    5.504E+00    5.460E+00    5.417E+00    5.374E+00    5.331E+00    5.288E+00    5.246E+00    5.203E+00    5.161E+00
     5.119E+00    5.077E+00    5.036E+00    4.994E+00    4.953E+00    4.911E+00    4.870E+00    4.829E+00    4.789E+00    4.748E+00
     4.707E+00    4.667E+00    4.627E+00    4.587E+00    4.547E+00    4.507E+00    4.468E+00    4.428E+00    4.389E+00    4.350E+00
     4.311E+00    4.272E+00    4.234E+00    4.195E+00    4.157E+00    4.118E+00    4.080E+00    4.042E+00    4.004E+00    3.966E+00
     3.929E+00    3.891E+00    3.854E+00    3.817E+00    3.780E+00    3.743E+00    3.706E+00    3.669E+00    3.632E+00    3.596E+00
     3.559E+00    3.523E+00    3.487E+00    3.451E+00    3.415E+00    3.379E+00    3.344E+00    3.308E+00    3.273E+00    3.237E+00
     3.202E+00    3.167E+00    3.132E+00    3.097E+00    3.062E+00    3.028E+00    2.993E+00    2.959E+00    2.925E+00    2.890E+00
     2.856E+00    2.822E+00    2.789E+00    2.755E+00    2.721E+00    2.688E+00    2.654E+00    2.621E+00    2.588E+00    2.555E+00
     2.522E+00    2.489E+00    2.456E+00    2.423E+00    2.391E+00    2.358E+00    2.326E+00    2.294E+00    2.262E+00    2.229E+00
     2.198E+00    2.166E+00    2.134E+00    2.102E+00    2.071E+00    2.039E+00    2.008E+00    1.977E+00    1.945E+00    1.914E+00
     1.883E+00    1.852E+00    1.822E+00    1.791E+00    1.760E+00    1.730E+00    1.699E+00    1.669E+00    1.639E+00    1.609E+00
     1.579E+00    1.549E+00    1.519E+00    1.489E+00    1.459E+00    1.430E+00    1.400E+00    1.371E+00    1.341E+00    1.312E+00
     1.283E+00    1.254E+00    1.225E+00    1.196E+00    1.167E+00    1.138E+00    1.109E+00    1.081E+00    1.052E+00    1.023E+00
     9.951E-01    9.668E-01    9.385E-01    9.104E-01    8.823E-01    8.543E-01    8.263E-01    7.984E-01    7.706E-01    7.429E-01
     7.153E-01    6.877E-01    6.602E-01    6.328E-01    6.054E-01    5.781E-01    5.509E-01    5.237E-01    4.966E-01    4.696E-01
     4.427E-01    4.158E-01    3.890E-01    3.622E-01    3.355E-01    3.089E-01    2.824E-01    2.559E-01    2.294E-01    2.031E-01
     1.768E-01    1.505E-01    1.244E-01    9.825E-02    7.219E-02    4.620E-02    2.026E-02   -5.609E-03   -3.142E-02   -5.718E-02
    -8.288E-02   -1.085E-01   -1.341E-01   -1.596E-01   -1.851E-01   -2.105E-01   -2.359E-01   -2.612E-01   -2.864E-01   -3.116E-01
    -3.368E-01   -3.619E-01   -3.869E-01   -4.119E-01   -4.369E-01   -4.617E-01   -4.866E-01   -5.114E-01   -5.361E-01   -5.608E-01
    -5.854E-01   -6.100E-01   -6.345E-01   -6.590E-01   -6.835E-01   -7.078E-01   -7.322E-01   -7.565E-01   -7.807E-01   -8.049E-01
    -8.290E-01   -8.531E-01   -8.772E-01   -9.012E-01   -9.251E-01   -9.490E-01   -9.729E-01   -9.967E-01   -1.020E+00   -1.044E+00
    -1.068E+00   -1.091E+00   -1.115E+00   -1.139E+00   -1.162E+00   -1.186E+00   -1.209E+00   -1.232E+00   -1.256E+00   -1.279E+00
    -1.302E+00   -1.325E+00   -1.348E+00   -1.371E+00   -1.395E+00   -1.418E+00   -1.440E+00   -1.463E+00   -1.486E+00   -1.509E+00
    -1.532E+00   -1.555E+00   -1.577E+00   -1.600E+00   -1.623E+00   -1.645E+00   -1.668E+00   -1.690E+00   -1.713E+00   -1.735E+00
    -1.758E+00   -1.780E+00   -1.802E+00   -1.825E+00   -1.847E+00   -1.869E+00   -1.891E+00   -1.913E+00   -1.935E+00   -1.958E+00
    -1.980E+00   -2.002E+00   -2.024E+00   -2.045E+00   -2.067E+00   -2.089E+00   -2.111E+00   -2.133E+00   -2.155E+00   -2.177E+00
    -2.198E+00   -2.220E+00   -2.242E+00   -2.263E+00   -2.285E+00   -2.306E+00   -2.328E+00   -2.350E+00   -2.371E+00   -2.393E+00
    -2.414E+00   -2.435E+00   -2.457E+00   -2.478E+00   -2.500E+00   -2.521E+00   -2.542E+00   -2.564E+00   -2.585E+00   -2.606E+00
    -2.627E+00   -2.649E+00   -2.670E+00   -2.691E+00   -2.712E+00   -2.733E+00   -2.754E+00   -2.776E+00   -2.797E+00   -2.818E+00
    -2.839E+00   -2.860E+00   -2.881E+00   -2.902E+00   -2.923E+00   -2.944E+00   -2.965E+00   -2.986E+00   -3.007E+00   -3.028E+00
    -3.049E+00   -3.070E+00   -3.090E+00   -3.111E+00   -3.132E+00   -3.153E+00   -3.174E+00   -3.195E+00   -3.216E+00   -3.237E+00
    -3.258E+00   -3.278E+00   -3.299E+00   -3.320E+00   -3.341E+00   -3.362E+00   -3.383E+00   -3.403E+00
 Cr       Conc. = 1.65E+03
