 LCModel (Version 6.3-1L) Copyright: S.W. Provencher.          Ref.: Magn. Reson. Med. 30:672-679 (1993).                
 Slice#3 Row#3 Col#7  PD_24_press_1_raw_act
 36 lines in following concentration table = NCONC+1
    Conc.  %SD /Cr+PCr  Metabolite                                         
  109.601 111% 9.0E-02 Ala                                                 
   16.132 999% 1.3E-02 Asp                                                 
  838.796  27%   0.692 Cr                                                  
  373.710  61%   0.308 PCr                                                 
    0.000 999%   0.000 GABA                                                
    0.000 999%   0.000 Glc                                                 
  593.063  40%   0.489 Gln                                                 
 1.20E+03  22%   0.987 Glu                                                 
  416.390   5%   0.343 GPC                                                 
    0.000 999%   0.000 PCh                                                 
  338.768  22%   0.279 GSH                                                 
  196.766 135%   0.162 Ins                                                 
    1.693 999% 1.4E-03 Lac                                                 
 1.45E+03   8%   1.195 NAA                                                 
  244.944  51%   0.202 NAAG                                                
   22.807 113% 1.9E-02 Scyllo                                              
    0.000 999%   0.000 Tau                                                 
   52.012 213% 4.3E-02 -CrCH2                                              
  416.390   5%   0.343 GPC+PCh                                             
 1.69E+03   5%   1.397 NAA+NAAG                                            
 1.21E+03   5%   1.000 Cr+PCr                                              
 1.79E+03  22%   1.476 Glu+Gln                                             
    0.000 999%   0.000 Lip13a                                              
 1.12E+03  15%   0.922 Lip13b                                              
  268.350  48%   0.221 Lip09                                               
 1.60E+03  17%   1.319 MM09                                                
  161.455  56%   0.133 Lip20                                               
 3.87E+03  12%   3.194 MM20                                                
    0.000 999%   0.000 MM12                                                
 2.30E+03  21%   1.894 MM14                                                
 1.84E+03  21%   1.515 MM17                                                
 1.12E+03  15%   0.922 Lip13a+Lip13b                                       
 3.41E+03  12%   2.816 MM14+Lip13a+Lip13b+MM12                             
 1.87E+03  13%   1.540 MM09+Lip09                                          
 4.03E+03  12%   3.327 MM20+Lip20                                          
   6 lines in following misc. output table
  FWHM = 0.061 ppm    S/N =   9                                            
  Data shift =-0.023 ppm                                                   
  Ph:  -2 deg      -4.1 deg/ppm                                            
  alphaB,S = 5.7E-01,   1.7E+02                                            
   14 spline knots.   Ns = 8(1)                                            
  ( 5) 3 infls.   ( 3) 1 extrs.                                            
  498 points on ppm-axis = NY
      4.000000     3.992357     3.984714     3.977070     3.969427     3.961784     3.954141     3.946497     3.938854     3.931211
      3.923568     3.915925     3.908281     3.900638     3.892995     3.885352     3.877708     3.870065     3.862422     3.854779
      3.847136     3.839492     3.831849     3.824206     3.816563     3.808919     3.801276     3.793633     3.785990     3.778347
      3.770703     3.763060     3.755417     3.747774     3.740130     3.732487     3.724844     3.717201     3.709558     3.701914
      3.694271     3.686628     3.678985     3.671341     3.663698     3.656055     3.648412     3.640769     3.633125     3.625482
      3.617839     3.610196     3.602552     3.594909     3.587266     3.579623     3.571980     3.564336     3.556693     3.549050
      3.541407     3.533763     3.526120     3.518477     3.510834     3.503191     3.495547     3.487904     3.480261     3.472618
      3.464974     3.457331     3.449688     3.442045     3.434402     3.426758     3.419115     3.411472     3.403829     3.396185
      3.388542     3.380899     3.373256     3.365613     3.357969     3.350326     3.342683     3.335040     3.327396     3.319753
      3.312110     3.304467     3.296824     3.289180     3.281537     3.273894     3.266251     3.258607     3.250964     3.243321
      3.235678     3.228034     3.220391     3.212748     3.205105     3.197462     3.189818     3.182175     3.174532     3.166889
      3.159245     3.151602     3.143959     3.136316     3.128673     3.121029     3.113386     3.105743     3.098100     3.090456
      3.082813     3.075170     3.067527     3.059884     3.052240     3.044597     3.036954     3.029311     3.021667     3.014024
      3.006381     2.998738     2.991095     2.983451     2.975808     2.968165     2.960522     2.952878     2.945235     2.937592
      2.929949     2.922306     2.914662     2.907019     2.899376     2.891733     2.884089     2.876446     2.868803     2.861160
      2.853517     2.845873     2.838230     2.830587     2.822944     2.815300     2.807657     2.800014     2.792371     2.784728
      2.777084     2.769441     2.761798     2.754155     2.746511     2.738868     2.731225     2.723582     2.715939     2.708295
      2.700652     2.693009     2.685366     2.677722     2.670079     2.662436     2.654793     2.647150     2.639506     2.631863
      2.624220     2.616577     2.608933     2.601290     2.593647     2.586004     2.578361     2.570717     2.563074     2.555431
      2.547788     2.540144     2.532501     2.524858     2.517215     2.509572     2.501928     2.494285     2.486642     2.478999
      2.471355     2.463712     2.456069     2.448426     2.440783     2.433139     2.425496     2.417853     2.410210     2.402566
      2.394923     2.387280     2.379637     2.371994     2.364350     2.356707     2.349064     2.341421     2.333777     2.326134
      2.318491     2.310848     2.303205     2.295561     2.287918     2.280275     2.272632     2.264988     2.257345     2.249702
      2.242059     2.234416     2.226772     2.219129     2.211486     2.203843     2.196199     2.188556     2.180913     2.173270
      2.165627     2.157983     2.150340     2.142697     2.135054     2.127410     2.119767     2.112124     2.104481     2.096838
      2.089194     2.081551     2.073908     2.066265     2.058621     2.050978     2.043335     2.035692     2.028049     2.020405
      2.012762     2.005119     1.997476     1.989833     1.982190     1.974546     1.966903     1.959260     1.951617     1.943974
      1.936331     1.928688     1.921045     1.913402     1.905759     1.898115     1.890472     1.882829     1.875186     1.867543
      1.859900     1.852257     1.844614     1.836971     1.829327     1.821684     1.814041     1.806398     1.798755     1.791112
      1.783469     1.775826     1.768183     1.760540     1.752896     1.745253     1.737610     1.729967     1.722324     1.714681
      1.707038     1.699395     1.691752     1.684108     1.676465     1.668822     1.661179     1.653536     1.645893     1.638250
      1.630607     1.622964     1.615321     1.607677     1.600034     1.592391     1.584748     1.577105     1.569462     1.561819
      1.554176     1.546533     1.538890     1.531246     1.523603     1.515960     1.508317     1.500674     1.493031     1.485388
      1.477745     1.470102     1.462458     1.454815     1.447172     1.439529     1.431886     1.424243     1.416600     1.408957
      1.401314     1.393671     1.386027     1.378384     1.370741     1.363098     1.355455     1.347812     1.340169     1.332526
      1.324883     1.317240     1.309596     1.301953     1.294310     1.286667     1.279024     1.271381     1.263738     1.256095
      1.248452     1.240808     1.233165     1.225522     1.217879     1.210236     1.202593     1.194950     1.187307     1.179664
      1.172021     1.164377     1.156734     1.149091     1.141448     1.133805     1.126162     1.118519     1.110876     1.103233
      1.095590     1.087946     1.080303     1.072660     1.065017     1.057374     1.049731     1.042088     1.034445     1.026802
      1.019158     1.011515     1.003872     0.996229     0.988586     0.980943     0.973300     0.965657     0.958014     0.950371
      0.942727     0.935084     0.927441     0.919798     0.912155     0.904512     0.896869     0.889226     0.881583     0.873940
      0.866296     0.858653     0.851010     0.843367     0.835724     0.828081     0.820438     0.812795     0.805152     0.797508
      0.789865     0.782222     0.774579     0.766936     0.759293     0.751650     0.744007     0.736364     0.728721     0.721077
      0.713434     0.705791     0.698148     0.690505     0.682862     0.675219     0.667576     0.659933     0.652290     0.644646
      0.637003     0.629360     0.621717     0.614074     0.606431     0.598788     0.591145     0.583502     0.575858     0.568215
      0.560572     0.552929     0.545286     0.537643     0.530000     0.522357     0.514714     0.507071     0.499427     0.491784
      0.484141     0.476498     0.468855     0.461212     0.453569     0.445925     0.438282     0.430639     0.422996     0.415353
      0.407710     0.400067     0.392424     0.384780     0.377137     0.369494     0.361851     0.354208     0.346565     0.338922
      0.331278     0.323635     0.315992     0.308349     0.300706     0.293063     0.285420     0.277777     0.270133     0.262490
      0.254847     0.247204     0.239561     0.231918     0.224275     0.216631     0.208988     0.201345
 NY phased data points follow
   4.80308E+01  4.68031E+01  5.13934E+01  5.27631E+01  4.93314E+01  5.36190E+01  5.65037E+01  5.61249E+01  6.48840E+01  6.57245E+01
   6.82101E+01  6.67891E+01  6.75615E+01  6.21124E+01  5.38686E+01  5.67232E+01  4.95597E+01  4.44679E+01  5.08182E+01  4.49300E+01
   4.23899E+01  4.08206E+01  4.67050E+01  4.16860E+01  4.22251E+01  4.04536E+01  4.57046E+01  3.92250E+01  4.77214E+01  4.03836E+01
   4.36191E+01  4.30296E+01  4.67411E+01  4.10542E+01  4.43812E+01  3.91327E+01  3.84325E+01  3.57596E+01  3.76362E+01  3.77934E+01
   3.64767E+01  3.65522E+01  4.28367E+01  3.85076E+01  3.78375E+01  3.62616E+01  4.06611E+01  3.83584E+01  3.61478E+01  3.72488E+01
   3.12396E+01  2.98994E+01  3.00378E+01  3.26957E+01  3.39725E+01  2.77839E+01  3.38111E+01  2.87941E+01  3.10402E+01  2.98063E+01
   2.45558E+01  2.68831E+01  2.55749E+01  2.34988E+01  2.11026E+01  1.88746E+01  2.32916E+01  1.98290E+01  1.82099E+01  1.90131E+01
   1.60638E+01  2.10095E+01  1.89352E+01  2.09235E+01  2.12546E+01  2.24957E+01  2.38141E+01  2.40632E+01  2.16653E+01  1.37582E+01
   2.29369E+01  2.04280E+01  1.79013E+01  1.93107E+01  2.58718E+01  2.17159E+01  1.75433E+01  2.11768E+01  2.11175E+01  1.71644E+01
   1.97459E+01  1.78328E+01  2.31882E+01  1.59882E+01  2.08321E+01  1.81711E+01  2.26761E+01  2.39264E+01  2.96023E+01  3.12003E+01
   3.57192E+01  4.48895E+01  4.95600E+01  5.38983E+01  5.40226E+01  4.92988E+01  4.72124E+01  2.88547E+01  2.79038E+01  2.55076E+01
   1.96856E+01  2.47579E+01  2.40144E+01  2.08537E+01  2.06345E+01  1.87075E+01  1.60569E+01  1.79179E+01  1.91110E+01  1.87612E+01
   1.95518E+01  2.27116E+01  3.18754E+01  2.96610E+01  4.11294E+01  4.44884E+01  5.08349E+01  4.99433E+01  5.17083E+01  4.65275E+01
   3.66664E+01  3.14992E+01  2.57526E+01  1.94651E+01  2.00557E+01  1.32600E+01  1.74994E+01  1.58779E+01  1.60686E+01  1.44614E+01
   1.22077E+01  7.73299E+00  1.48618E+01  1.23796E+01  1.26769E+01  5.96359E+00  1.33562E+01  7.44770E+00  1.10969E+01  8.43344E+00
   7.89596E+00  7.32620E+00  1.05080E+01  5.69697E+00  5.89664E+00  1.01460E+01  1.12161E+01  5.41536E+00  8.49867E+00  5.83240E+00
   6.07698E+00  7.53338E+00  6.56920E+00  5.66603E+00  5.42040E+00  4.39417E+00  5.50841E+00 -1.98115E+00  3.12599E+00  1.62328E-01
   5.26133E+00  2.31028E-01 -7.28290E-01 -1.81671E-01 -1.00944E+00  4.56622E-01 -2.56107E+00  1.17973E+00  7.62451E-01 -5.15536E+00
   5.83567E+00 -9.57554E-02  2.16302E-01 -6.06097E+00 -9.45714E-01  2.87214E+00  4.54505E-01  2.82269E+00  5.94776E+00 -2.97574E+00
   4.58557E+00  2.54670E+00  1.15541E+01  7.35001E+00  5.38714E+00  3.80352E+00  5.75789E+00  3.42306E+00  5.73525E+00  2.49963E+00
   6.50461E+00  7.45293E+00  6.74368E+00  4.85931E+00  4.45897E+00  9.75186E+00  1.07855E+00  7.22701E-02  2.47808E+00  1.78545E+00
   6.09286E+00  1.26999E+00  7.28443E+00  5.35140E+00  3.06812E+00  1.07638E+01  8.94060E+00  1.25025E+01  1.28361E+01  6.79951E+00
   5.75735E+00  6.65323E-01 -6.80946E-01  2.49682E+00  3.29055E+00  6.97106E+00  1.03752E+01  1.09931E+01  9.61511E+00  1.02715E+01
   1.07760E+01  8.81909E+00  7.14702E+00  5.21926E+00  7.81741E+00  9.74070E+00  7.12077E+00  8.40276E+00  7.54116E+00  8.39221E+00
   5.66773E+00  6.77043E+00  8.91947E+00  8.01987E+00  9.13945E+00  1.22987E+01  1.57707E+01  1.37229E+01  1.45405E+01  1.67880E+01
   1.89123E+01  1.73790E+01  2.56608E+01  2.75885E+01  2.85797E+01  3.22137E+01  4.11983E+01  4.77839E+01  5.34159E+01  5.59163E+01
   5.97600E+01  5.88283E+01  5.61757E+01  4.74094E+01  3.37446E+01  1.90834E+01  9.43153E+00  1.69783E+01  1.30182E+01  1.53181E+01
   1.37649E+01  6.61110E+00  5.68128E+00  8.10772E+00  9.37211E+00  6.07537E+00  6.81474E+00  1.88146E+00  4.06530E+00  2.47589E+00
   5.56703E+00  3.20067E+00  2.64794E+00  3.12817E+00  4.09308E+00  4.49752E+00  5.45929E+00  4.22928E+00  5.63842E+00  4.74147E+00
   2.40903E+00  1.14477E+00  3.97612E+00  5.10924E+00 -1.13667E+00  1.11233E+00  5.95909E+00  4.94729E+00  4.38921E+00  6.26843E-01
   6.37096E+00  6.92029E+00  4.85567E+00  3.95271E+00  4.97913E+00  5.68798E+00  8.37158E+00  4.85764E+00  8.29243E+00  1.44841E+00
   1.07593E+01  1.01758E+01  1.04996E+01  9.17335E+00  8.74159E+00  4.73801E+00  8.54224E+00  3.39162E+00  1.07293E+01  4.08548E+00
   7.72280E-01  6.93362E+00  7.48541E+00  2.17851E+00  3.84953E+00  5.73295E+00  4.98156E+00  7.78232E+00  9.26997E+00  1.63564E+00
   7.59926E+00  5.66743E+00  8.07794E+00  5.63951E+00  8.97704E+00  1.00208E+01  1.49090E+01  8.32541E+00  6.91977E+00  6.53798E+00
   1.48499E+01  1.47657E+01  9.95383E+00  1.10704E+01  1.48916E+01  1.01534E+01  8.42332E+00  1.44274E+01  1.16068E+01  1.24400E+01
   1.35782E+01  1.72310E+01  1.53724E+01  1.74449E+01  1.82002E+01  1.59023E+01  1.76438E+01  7.75279E+00  1.18833E+01  1.14151E+01
   6.22116E+00  7.62719E+00  1.48032E+00  2.05615E+00 -4.53984E-01  1.54893E+00 -6.40395E+00 -1.64372E+00 -6.62845E+00 -9.11048E+00
  -7.50021E+00 -6.19321E+00 -6.90118E+00 -6.85913E+00 -6.40091E+00 -1.20477E+01 -7.74120E+00 -6.23274E+00 -6.76810E+00 -4.96602E+00
  -6.32640E+00 -2.60284E+00 -3.44061E+00 -5.40525E+00 -7.15240E+00 -2.09101E+00  5.57919E-01 -5.42723E+00  1.60612E+00 -1.17054E+00
   6.31235E+00  2.45878E-01  8.17863E-01  1.53031E+00  3.64590E+00  8.75546E+00  5.31051E+00  3.65708E+00  4.13486E+00  4.75876E+00
   6.08213E+00  7.80574E+00  4.43971E+00  3.82631E+00  3.92246E+00  5.28068E+00  6.10156E+00  7.68499E+00  1.02158E+01  8.93146E+00
   6.71579E+00  1.13330E+01  1.05718E+01  7.64620E+00  1.07600E+01  6.43010E+00  9.08439E+00  3.10630E+00  7.07006E+00  3.83194E+00
   3.33845E+00  4.46226E+00  4.33749E+00  7.15253E+00  3.77187E+00  5.66874E-01  7.04376E+00  7.21142E+00  3.18521E+00  6.13320E+00
   7.69378E+00  7.51901E+00  7.23332E+00  7.39089E+00  7.63732E+00  5.46437E+00  5.58383E+00  2.62358E+00  4.15584E+00  9.46692E+00
   8.19997E+00  2.48464E+00  2.28921E+00  7.88111E-01  4.47103E+00  2.49925E+00 -9.48424E-01  1.09551E+00  4.15994E+00 -1.33412E-01
  -1.99802E-01 -1.58239E+00  1.69985E+00 -1.02812E+00  4.64495E+00 -2.68953E+00  8.91626E-02  8.50649E-01  2.93240E+00  4.25270E+00
   2.28036E+00  2.72098E+00 -2.82730E+00 -3.22856E+00  2.89843E+00 -2.14106E-01  1.71888E+00  2.86364E+00  7.07991E-01 -3.66808E+00
   3.09813E+00 -8.65404E-01  3.54417E+00 -2.31669E-01  4.55780E+00  2.06457E+00  1.24566E+00 -4.07681E-01  2.80048E+00 -8.29217E-01
  -3.39488E+00  3.73386E+00 -3.42697E+00 -7.63411E-01 -1.26012E-01  1.34162E+00  1.34739E+00  9.31868E-02 -4.24955E-01 -1.22041E+00
   3.87056E+00  3.44644E+00 -2.70183E+00 -5.05293E-01  2.33746E+00  2.97286E+00  7.38909E-01  6.45401E-01
 NY points of the fit to the data follow
   4.67783E+01  4.70132E+01  4.76634E+01  4.90121E+01  5.10983E+01  5.36658E+01  5.66352E+01  5.98932E+01  6.31375E+01  6.58522E+01
   6.74298E+01  6.73735E+01  6.54968E+01  6.20521E+01  5.77316E+01  5.34721E+01  5.00155E+01  4.76118E+01  4.59935E+01  4.47273E+01
   4.34311E+01  4.23558E+01  4.17830E+01  4.14648E+01  4.12908E+01  4.13132E+01  4.16309E+01  4.22956E+01  4.32166E+01  4.42362E+01
   4.50877E+01  4.54305E+01  4.49944E+01  4.36666E+01  4.16537E+01  3.94809E+01  3.76429E+01  3.63387E+01  3.55320E+01  3.52244E+01
   3.53869E+01  3.56801E+01  3.58473E+01  3.58421E+01  3.57020E+01  3.54834E+01  3.51817E+01  3.47941E+01  3.42894E+01  3.36635E+01
   3.29912E+01  3.23102E+01  3.16479E+01  3.10542E+01  3.05261E+01  2.99903E+01  2.94579E+01  2.89992E+01  2.85934E+01  2.81769E+01
   2.77364E+01  2.72902E+01  2.68337E+01  2.63726E+01  2.59283E+01  2.55300E+01  2.51971E+01  2.49194E+01  2.46726E+01  2.44360E+01
   2.41944E+01  2.39376E+01  2.36633E+01  2.33702E+01  2.30617E+01  2.27448E+01  2.24309E+01  2.21393E+01  2.19024E+01  2.17153E+01
   2.15449E+01  2.13881E+01  2.12571E+01  2.11443E+01  2.10238E+01  2.08634E+01  2.06354E+01  2.03213E+01  1.99279E+01  1.94951E+01
   1.90900E+01  1.87778E+01  1.85873E+01  1.85125E+01  1.86251E+01  1.95440E+01  2.18659E+01  2.50040E+01  2.88017E+01  3.34627E+01
   3.89477E+01  4.46951E+01  4.97143E+01  5.28729E+01  5.31430E+01  4.99701E+01  4.37555E+01  3.60598E+01  2.89755E+01  2.39664E+01
   2.11222E+01  1.93655E+01  1.76758E+01  1.62786E+01  1.57383E+01  1.55426E+01  1.54687E+01  1.55328E+01  1.60328E+01  1.78039E+01
   2.06939E+01  2.42461E+01  2.85641E+01  3.37653E+01  3.95517E+01  4.51449E+01  4.94886E+01  5.14572E+01  5.02144E+01  4.56429E+01
   3.86987E+01  3.12604E+01  2.51455E+01  2.11086E+01  1.85798E+01  1.64102E+01  1.42515E+01  1.29275E+01  1.24684E+01  1.24368E+01
   1.26077E+01  1.27653E+01  1.27436E+01  1.25092E+01  1.21211E+01  1.16376E+01  1.11294E+01  1.06495E+01  1.02063E+01  9.78982E+00
   9.39094E+00  9.01265E+00  8.66848E+00  8.32258E+00  7.98635E+00  7.68333E+00  7.41150E+00  7.16274E+00  6.88426E+00  6.55394E+00
   6.20394E+00  5.88602E+00  5.64546E+00  5.49937E+00  5.40133E+00  5.25072E+00  4.95993E+00  4.50058E+00  3.93308E+00  3.40248E+00
   3.02224E+00  2.74013E+00  2.47072E+00  2.14702E+00  1.79996E+00  1.52843E+00  1.36517E+00  1.29737E+00  1.29992E+00  1.30292E+00
   1.26242E+00  1.18884E+00  1.13669E+00  1.20989E+00  1.49358E+00  1.96117E+00  2.50700E+00  3.10246E+00  3.76998E+00  4.45964E+00
   4.99499E+00  5.20495E+00  5.02576E+00  4.53468E+00  3.92207E+00  3.40984E+00  3.18967E+00  3.33165E+00  3.83664E+00  4.61980E+00
   5.52184E+00  6.35050E+00  6.82677E+00  6.82839E+00  6.30322E+00  5.25009E+00  3.84011E+00  2.36682E+00  1.19497E+00  6.08126E-01
   7.44529E-01  1.68368E+00  3.30664E+00  5.24453E+00  6.95460E+00  7.96523E+00  8.08704E+00  7.32716E+00  5.79491E+00  3.80782E+00
   1.83787E+00  5.17433E-01  2.23206E-01  8.78788E-01  2.22648E+00  3.98392E+00  5.84992E+00  7.37059E+00  8.19774E+00  8.45004E+00
   8.45989E+00  8.48213E+00  8.59229E+00  8.81652E+00  9.21250E+00  9.71839E+00  1.02079E+01  1.05796E+01  1.07627E+01  1.07261E+01
   1.05330E+01  1.02784E+01  1.01043E+01  1.02075E+01  1.06905E+01  1.14977E+01  1.24439E+01  1.34377E+01  1.45194E+01  1.55810E+01
   1.66356E+01  1.80305E+01  2.07912E+01  2.52212E+01  3.03461E+01  3.58730E+01  4.18346E+01  4.79628E+01  5.35597E+01  5.77280E+01
   5.95483E+01  5.81516E+01  5.30219E+01  4.46096E+01  3.46769E+01  2.56828E+01  1.94006E+01  1.56928E+01  1.30753E+01  1.04625E+01
   8.42315E+00  7.43586E+00  6.80375E+00  6.29274E+00  5.85534E+00  5.44652E+00  5.01417E+00  4.55860E+00  4.09787E+00  3.66437E+00
   3.28666E+00  2.97276E+00  2.70879E+00  2.48525E+00  2.30575E+00  2.16889E+00  2.06665E+00  1.99642E+00  1.96847E+00  1.99622E+00
   2.08412E+00  2.22674E+00  2.42165E+00  2.66561E+00  2.95083E+00  3.26767E+00  3.61113E+00  3.97886E+00  4.36854E+00  4.77510E+00
   5.18953E+00  5.60035E+00  5.99631E+00  6.36349E+00  6.68744E+00  6.95610E+00  7.16118E+00  7.29803E+00  7.36399E+00  7.35784E+00
   7.28258E+00  7.14413E+00  6.95077E+00  6.71386E+00  6.44726E+00  6.16691E+00  5.89080E+00  5.63944E+00  5.43900E+00  5.32327E+00
   5.28206E+00  5.29071E+00  5.35839E+00  5.48496E+00  5.64539E+00  5.79757E+00  5.90077E+00  5.96341E+00  6.02902E+00  6.12489E+00
   6.31408E+00  6.68059E+00  7.26810E+00  8.03941E+00  8.88926E+00  9.69849E+00  1.03829E+01  1.08936E+01  1.11660E+01  1.11779E+01
   1.10052E+01  1.07593E+01  1.05336E+01  1.03728E+01  1.02986E+01  1.03771E+01  1.06922E+01  1.12698E+01  1.21018E+01  1.31386E+01
   1.42831E+01  1.53958E+01  1.63108E+01  1.68614E+01  1.69098E+01  1.63752E+01  1.52500E+01  1.36028E+01  1.15636E+01  9.30032E+00
   6.99011E+00  4.79090E+00  2.82130E+00  1.15161E+00 -1.94040E-01 -1.22771E+00 -1.98612E+00 -2.51835E+00 -2.87510E+00 -3.10192E+00
  -3.23584E+00 -3.30468E+00 -3.32801E+00 -3.31876E+00 -3.28507E+00 -3.23168E+00 -3.16119E+00 -3.07481E+00 -2.97288E+00 -2.85519E+00
  -2.72114E+00 -2.56978E+00 -2.39994E+00 -2.21022E+00 -1.99908E+00 -1.76485E+00 -1.50577E+00 -1.22002E+00 -9.05886E-01 -5.61755E-01
  -1.86333E-01  2.21311E-01  6.61569E-01  1.13418E+00  1.63802E+00  2.17103E+00  2.72998E+00  3.31055E+00  3.90714E+00  4.51300E+00
   5.12021E+00  5.71986E+00  6.30227E+00  6.85733E+00  7.37474E+00  7.84452E+00  8.25725E+00  8.60464E+00  8.87974E+00  9.07742E+00
   9.19448E+00  9.22989E+00  9.18474E+00  9.06225E+00  8.86758E+00  8.60761E+00  8.29055E+00  7.92562E+00  7.52260E+00  7.09150E+00
   6.64211E+00  6.18375E+00  5.72495E+00  5.27324E+00  4.83502E+00  4.41553E+00  4.01882E+00  3.64780E+00  3.30433E+00  2.98934E+00
   2.70294E+00  2.44465E+00  2.21345E+00  2.00796E+00  1.82653E+00  1.66735E+00  1.52855E+00  1.40828E+00  1.30472E+00  1.21615E+00
   1.14093E+00  1.07756E+00  1.02467E+00  9.81017E-01  9.45486E-01  9.17076E-01  8.94868E-01  8.78068E-01  8.65953E-01  8.57910E-01
   8.53365E-01  8.51819E-01  8.52804E-01  8.55949E-01  8.60960E-01  8.67608E-01  8.75663E-01  8.84942E-01  8.95263E-01  9.06495E-01
   9.18508E-01  9.31212E-01  9.44496E-01  9.58285E-01  9.72497E-01  9.87089E-01  1.00200E+00  1.01721E+00  1.03265E+00  1.04830E+00
   1.06414E+00  1.08016E+00  1.09634E+00  1.11268E+00  1.12916E+00  1.14578E+00  1.16254E+00  1.17946E+00  1.19653E+00  1.21377E+00
   1.23117E+00  1.24875E+00  1.26653E+00  1.28454E+00  1.30278E+00  1.32127E+00  1.34003E+00  1.35907E+00  1.37844E+00  1.39815E+00
   1.41823E+00  1.43869E+00  1.45956E+00  1.48087E+00  1.50265E+00  1.52494E+00  1.54775E+00  1.57112E+00
 NY background values follow
     4.510E+01    4.478E+01    4.445E+01    4.413E+01    4.380E+01    4.348E+01    4.315E+01    4.283E+01    4.250E+01    4.218E+01
     4.185E+01    4.153E+01    4.120E+01    4.088E+01    4.055E+01    4.023E+01    3.991E+01    3.958E+01    3.926E+01    3.893E+01
     3.861E+01    3.829E+01    3.796E+01    3.764E+01    3.732E+01    3.700E+01    3.667E+01    3.635E+01    3.603E+01    3.571E+01
     3.539E+01    3.508E+01    3.476E+01    3.444E+01    3.412E+01    3.381E+01    3.349E+01    3.318E+01    3.286E+01    3.255E+01
     3.224E+01    3.192E+01    3.161E+01    3.130E+01    3.100E+01    3.069E+01    3.038E+01    3.008E+01    2.977E+01    2.947E+01
     2.917E+01    2.886E+01    2.856E+01    2.827E+01    2.797E+01    2.767E+01    2.738E+01    2.708E+01    2.679E+01    2.650E+01
     2.621E+01    2.592E+01    2.563E+01    2.535E+01    2.506E+01    2.478E+01    2.450E+01    2.422E+01    2.394E+01    2.366E+01
     2.339E+01    2.312E+01    2.284E+01    2.257E+01    2.230E+01    2.204E+01    2.177E+01    2.151E+01    2.125E+01    2.099E+01
     2.073E+01    2.047E+01    2.022E+01    1.997E+01    1.972E+01    1.947E+01    1.922E+01    1.898E+01    1.873E+01    1.849E+01
     1.825E+01    1.802E+01    1.778E+01    1.755E+01    1.732E+01    1.709E+01    1.687E+01    1.664E+01    1.642E+01    1.620E+01
     1.598E+01    1.576E+01    1.555E+01    1.534E+01    1.513E+01    1.492E+01    1.471E+01    1.450E+01    1.430E+01    1.410E+01
     1.390E+01    1.370E+01    1.350E+01    1.331E+01    1.312E+01    1.293E+01    1.274E+01    1.255E+01    1.236E+01    1.218E+01
     1.199E+01    1.181E+01    1.163E+01    1.145E+01    1.128E+01    1.110E+01    1.093E+01    1.076E+01    1.059E+01    1.042E+01
     1.025E+01    1.008E+01    9.917E+00    9.754E+00    9.591E+00    9.430E+00    9.271E+00    9.113E+00    8.956E+00    8.800E+00
     8.646E+00    8.493E+00    8.342E+00    8.192E+00    8.043E+00    7.896E+00    7.750E+00    7.606E+00    7.463E+00    7.321E+00
     7.181E+00    7.042E+00    6.905E+00    6.769E+00    6.635E+00    6.502E+00    6.370E+00    6.240E+00    6.112E+00    5.985E+00
     5.860E+00    5.736E+00    5.613E+00    5.493E+00    5.373E+00    5.256E+00    5.139E+00    5.025E+00    4.912E+00    4.800E+00
     4.690E+00    4.582E+00    4.476E+00    4.370E+00    4.267E+00    4.165E+00    4.065E+00    3.966E+00    3.869E+00    3.774E+00
     3.681E+00    3.589E+00    3.498E+00    3.410E+00    3.323E+00    3.237E+00    3.153E+00    3.070E+00    2.989E+00    2.909E+00
     2.831E+00    2.754E+00    2.678E+00    2.603E+00    2.530E+00    2.457E+00    2.386E+00    2.316E+00    2.246E+00    2.178E+00
     2.111E+00    2.044E+00    1.979E+00    1.914E+00    1.850E+00    1.786E+00    1.723E+00    1.661E+00    1.600E+00    1.539E+00
     1.479E+00    1.419E+00    1.359E+00    1.300E+00    1.241E+00    1.183E+00    1.124E+00    1.066E+00    1.009E+00    9.509E-01
     8.933E-01    8.358E-01    7.783E-01    7.207E-01    6.631E-01    6.054E-01    5.476E-01    4.896E-01    4.314E-01    3.730E-01
     3.144E-01    2.557E-01    1.968E-01    1.378E-01    7.858E-02    1.924E-02   -4.025E-02   -9.988E-02   -1.596E-01   -2.195E-01
    -2.796E-01   -3.397E-01   -4.000E-01   -4.604E-01   -5.208E-01   -5.814E-01   -6.421E-01   -7.029E-01   -7.638E-01   -8.248E-01
    -8.859E-01   -9.470E-01   -1.008E+00   -1.069E+00   -1.131E+00   -1.192E+00   -1.254E+00   -1.315E+00   -1.377E+00   -1.438E+00
    -1.500E+00   -1.562E+00   -1.624E+00   -1.685E+00   -1.747E+00   -1.809E+00   -1.871E+00   -1.932E+00   -1.994E+00   -2.056E+00
    -2.118E+00   -2.180E+00   -2.242E+00   -2.303E+00   -2.365E+00   -2.427E+00   -2.488E+00   -2.550E+00   -2.612E+00   -2.673E+00
    -2.734E+00   -2.796E+00   -2.857E+00   -2.918E+00   -2.979E+00   -3.039E+00   -3.100E+00   -3.160E+00   -3.221E+00   -3.281E+00
    -3.341E+00   -3.401E+00   -3.460E+00   -3.519E+00   -3.578E+00   -3.637E+00   -3.696E+00   -3.754E+00   -3.812E+00   -3.870E+00
    -3.928E+00   -3.985E+00   -4.042E+00   -4.098E+00   -4.155E+00   -4.211E+00   -4.266E+00   -4.322E+00   -4.377E+00   -4.431E+00
    -4.485E+00   -4.539E+00   -4.592E+00   -4.645E+00   -4.698E+00   -4.750E+00   -4.802E+00   -4.853E+00   -4.904E+00   -4.954E+00
    -5.003E+00   -5.053E+00   -5.101E+00   -5.149E+00   -5.196E+00   -5.242E+00   -5.287E+00   -5.332E+00   -5.376E+00   -5.418E+00
    -5.460E+00   -5.501E+00   -5.541E+00   -5.579E+00   -5.617E+00   -5.653E+00   -5.688E+00   -5.722E+00   -5.754E+00   -5.785E+00
    -5.815E+00   -5.844E+00   -5.871E+00   -5.896E+00   -5.920E+00   -5.942E+00   -5.963E+00   -5.982E+00   -5.999E+00   -6.014E+00
    -6.028E+00   -6.040E+00   -6.050E+00   -6.058E+00   -6.064E+00   -6.068E+00   -6.070E+00   -6.070E+00   -6.068E+00   -6.064E+00
    -6.057E+00   -6.049E+00   -6.038E+00   -6.024E+00   -6.009E+00   -5.991E+00   -5.971E+00   -5.949E+00   -5.925E+00   -5.899E+00
    -5.871E+00   -5.841E+00   -5.809E+00   -5.775E+00   -5.739E+00   -5.702E+00   -5.662E+00   -5.621E+00   -5.579E+00   -5.534E+00
    -5.489E+00   -5.441E+00   -5.392E+00   -5.342E+00   -5.290E+00   -5.237E+00   -5.182E+00   -5.126E+00   -5.069E+00   -5.011E+00
    -4.951E+00   -4.891E+00   -4.829E+00   -4.766E+00   -4.702E+00   -4.637E+00   -4.572E+00   -4.505E+00   -4.437E+00   -4.369E+00
    -4.300E+00   -4.230E+00   -4.159E+00   -4.088E+00   -4.016E+00   -3.944E+00   -3.871E+00   -3.797E+00   -3.723E+00   -3.649E+00
    -3.574E+00   -3.499E+00   -3.424E+00   -3.349E+00   -3.273E+00   -3.197E+00   -3.121E+00   -3.045E+00   -2.968E+00   -2.892E+00
    -2.816E+00   -2.740E+00   -2.664E+00   -2.588E+00   -2.512E+00   -2.437E+00   -2.362E+00   -2.287E+00   -2.212E+00   -2.138E+00
    -2.065E+00   -1.992E+00   -1.919E+00   -1.847E+00   -1.775E+00   -1.704E+00   -1.634E+00   -1.565E+00   -1.496E+00   -1.428E+00
    -1.361E+00   -1.295E+00   -1.230E+00   -1.166E+00   -1.102E+00   -1.040E+00   -9.790E-01   -9.190E-01   -8.601E-01   -8.025E-01
    -7.461E-01   -6.910E-01   -6.372E-01   -5.848E-01   -5.337E-01   -4.838E-01   -4.352E-01   -3.878E-01   -3.416E-01   -2.964E-01
    -2.524E-01   -2.094E-01   -1.674E-01   -1.263E-01   -8.622E-02   -4.699E-02   -8.616E-03    2.895E-02    6.575E-02    1.018E-01
     1.372E-01    1.719E-01    2.060E-01    2.396E-01    2.726E-01    3.051E-01    3.371E-01    3.687E-01    3.999E-01    4.308E-01
     4.614E-01    4.918E-01    5.219E-01    5.518E-01    5.816E-01    6.112E-01    6.408E-01    6.704E-01    6.999E-01    7.296E-01
     7.593E-01    7.891E-01    8.191E-01    8.493E-01    8.797E-01    9.104E-01    9.414E-01    9.728E-01
 Ala      Conc. = 1.10E+02
