 LCModel (Version 6.3-1L) Copyright: S.W. Provencher.          Ref.: Magn. Reson. Med. 30:672-679 (1993).                
 Slice#1 Row#14 Col#8  PD_24_press_1_raw_act
 36 lines in following concentration table = NCONC+1
    Conc.  %SD /Cr+PCr  Metabolite                                         
  243.139  96%   1.758 Ala                                                 
   19.878  84%   0.144 Asp                                                 
  138.336  28%   1.000 Cr                                                  
    0.000 999%   0.000 PCr                                                 
   12.506  81% 9.0E-02 GABA                                                
   12.859  78% 9.3E-02 Glc                                                 
  380.418  94%   2.750 Gln                                                 
    0.000 999%   0.000 Glu                                                 
   63.937  22%   0.462 GPC                                                 
    0.000 999%   0.000 PCh                                                 
   22.269 281%   0.161 GSH                                                 
  252.511  58%   1.825 Ins                                                 
  320.050  78%   2.314 Lac                                                 
   87.334  50%   0.631 NAA                                                 
    0.000 999%   0.000 NAAG                                                
    4.189  80% 3.0E-02 Scyllo                                              
   22.660  73%   0.164 Tau                                                 
   52.543  82%   0.380 -CrCH2                                              
   63.937  22%   0.462 GPC+PCh                                             
   87.334  50%   0.631 NAA+NAAG                                            
  138.336  28%   1.000 Cr+PCr                                              
  380.418  94%   2.750 Glu+Gln                                             
    0.000 999%   0.000 Lip13a                                              
  211.420  67%   1.528 Lip13b                                              
   56.386  68%   0.408 Lip09                                               
   38.606 160%   0.279 MM09                                                
   32.050  68%   0.232 Lip20                                               
  126.452  88%   0.914 MM20                                                
    2.318 999% 1.7E-02 MM12                                                
   19.681 532%   0.142 MM14                                                
    0.000 999%   0.000 MM17                                                
  211.420  67%   1.528 Lip13a+Lip13b                                       
  233.419  71%   1.687 MM14+Lip13a+Lip13b+MM12                             
   94.992  60%   0.687 MM09+Lip09                                          
  158.502  66%   1.146 MM20+Lip20                                          
   6 lines in following misc. output table
  FWHM = 0.138 ppm    S/N =   1                                            
  Data shift = 0.008 ppm                                                   
  Ph:  55 deg     -32.8 deg/ppm                                            
  alphaB,S = 8.5E+01,   2.0E+02                                            
   14 spline knots.   Ns = 7(2)                                            
   2 inflections.     1 extrema                                            
  498 points on ppm-axis = NY
      4.000000     3.992357     3.984714     3.977070     3.969427     3.961784     3.954141     3.946497     3.938854     3.931211
      3.923568     3.915925     3.908281     3.900638     3.892995     3.885352     3.877708     3.870065     3.862422     3.854779
      3.847136     3.839492     3.831849     3.824206     3.816563     3.808919     3.801276     3.793633     3.785990     3.778347
      3.770703     3.763060     3.755417     3.747774     3.740130     3.732487     3.724844     3.717201     3.709558     3.701914
      3.694271     3.686628     3.678985     3.671341     3.663698     3.656055     3.648412     3.640769     3.633125     3.625482
      3.617839     3.610196     3.602552     3.594909     3.587266     3.579623     3.571980     3.564336     3.556693     3.549050
      3.541407     3.533763     3.526120     3.518477     3.510834     3.503191     3.495547     3.487904     3.480261     3.472618
      3.464974     3.457331     3.449688     3.442045     3.434402     3.426758     3.419115     3.411472     3.403829     3.396185
      3.388542     3.380899     3.373256     3.365613     3.357969     3.350326     3.342683     3.335040     3.327396     3.319753
      3.312110     3.304467     3.296824     3.289180     3.281537     3.273894     3.266251     3.258607     3.250964     3.243321
      3.235678     3.228034     3.220391     3.212748     3.205105     3.197462     3.189818     3.182175     3.174532     3.166889
      3.159245     3.151602     3.143959     3.136316     3.128673     3.121029     3.113386     3.105743     3.098100     3.090456
      3.082813     3.075170     3.067527     3.059884     3.052240     3.044597     3.036954     3.029311     3.021667     3.014024
      3.006381     2.998738     2.991095     2.983451     2.975808     2.968165     2.960522     2.952878     2.945235     2.937592
      2.929949     2.922306     2.914662     2.907019     2.899376     2.891733     2.884089     2.876446     2.868803     2.861160
      2.853517     2.845873     2.838230     2.830587     2.822944     2.815300     2.807657     2.800014     2.792371     2.784728
      2.777084     2.769441     2.761798     2.754155     2.746511     2.738868     2.731225     2.723582     2.715939     2.708295
      2.700652     2.693009     2.685366     2.677722     2.670079     2.662436     2.654793     2.647150     2.639506     2.631863
      2.624220     2.616577     2.608933     2.601290     2.593647     2.586004     2.578361     2.570717     2.563074     2.555431
      2.547788     2.540144     2.532501     2.524858     2.517215     2.509572     2.501928     2.494285     2.486642     2.478999
      2.471355     2.463712     2.456069     2.448426     2.440783     2.433139     2.425496     2.417853     2.410210     2.402566
      2.394923     2.387280     2.379637     2.371994     2.364350     2.356707     2.349064     2.341421     2.333777     2.326134
      2.318491     2.310848     2.303205     2.295561     2.287918     2.280275     2.272632     2.264988     2.257345     2.249702
      2.242059     2.234416     2.226772     2.219129     2.211486     2.203843     2.196199     2.188556     2.180913     2.173270
      2.165627     2.157983     2.150340     2.142697     2.135054     2.127410     2.119767     2.112124     2.104481     2.096838
      2.089194     2.081551     2.073908     2.066265     2.058621     2.050978     2.043335     2.035692     2.028049     2.020405
      2.012762     2.005119     1.997476     1.989833     1.982190     1.974546     1.966903     1.959260     1.951617     1.943974
      1.936331     1.928688     1.921045     1.913402     1.905759     1.898115     1.890472     1.882829     1.875186     1.867543
      1.859900     1.852257     1.844614     1.836971     1.829327     1.821684     1.814041     1.806398     1.798755     1.791112
      1.783469     1.775826     1.768183     1.760540     1.752896     1.745253     1.737610     1.729967     1.722324     1.714681
      1.707038     1.699395     1.691752     1.684108     1.676465     1.668822     1.661179     1.653536     1.645893     1.638250
      1.630607     1.622964     1.615321     1.607677     1.600034     1.592391     1.584748     1.577105     1.569462     1.561819
      1.554176     1.546533     1.538890     1.531246     1.523603     1.515960     1.508317     1.500674     1.493031     1.485388
      1.477745     1.470102     1.462458     1.454815     1.447172     1.439529     1.431886     1.424243     1.416600     1.408957
      1.401314     1.393671     1.386027     1.378384     1.370741     1.363098     1.355455     1.347812     1.340169     1.332526
      1.324883     1.317240     1.309596     1.301953     1.294310     1.286667     1.279024     1.271381     1.263738     1.256095
      1.248452     1.240808     1.233165     1.225522     1.217879     1.210236     1.202593     1.194950     1.187307     1.179664
      1.172021     1.164377     1.156734     1.149091     1.141448     1.133805     1.126162     1.118519     1.110876     1.103233
      1.095590     1.087946     1.080303     1.072660     1.065017     1.057374     1.049731     1.042088     1.034445     1.026802
      1.019158     1.011515     1.003872     0.996229     0.988586     0.980943     0.973300     0.965657     0.958014     0.950371
      0.942727     0.935084     0.927441     0.919798     0.912155     0.904512     0.896869     0.889226     0.881583     0.873940
      0.866296     0.858653     0.851010     0.843367     0.835724     0.828081     0.820438     0.812795     0.805152     0.797508
      0.789865     0.782222     0.774579     0.766936     0.759293     0.751650     0.744007     0.736364     0.728721     0.721077
      0.713434     0.705791     0.698148     0.690505     0.682862     0.675219     0.667576     0.659933     0.652290     0.644646
      0.637003     0.629360     0.621717     0.614074     0.606431     0.598788     0.591145     0.583502     0.575858     0.568215
      0.560572     0.552929     0.545286     0.537643     0.530000     0.522357     0.514714     0.507071     0.499427     0.491784
      0.484141     0.476498     0.468855     0.461212     0.453569     0.445925     0.438282     0.430639     0.422996     0.415353
      0.407710     0.400067     0.392424     0.384780     0.377137     0.369494     0.361851     0.354208     0.346565     0.338922
      0.331278     0.323635     0.315992     0.308349     0.300706     0.293063     0.285420     0.277777     0.270133     0.262490
      0.254847     0.247204     0.239561     0.231918     0.224275     0.216631     0.208988     0.201345
 NY phased data points follow
   1.25730E-01  6.32084E+00  4.61359E-01  7.72720E-01 -4.21733E-01 -1.75580E+00  1.84668E+00  1.73453E+00  1.27854E+00  1.05365E+00
   2.30344E+00  3.83675E+00 -1.01604E+00  2.49125E+00  2.09128E+00  6.57196E+00  1.65286E+00  3.91716E+00 -2.40171E+00  4.94269E+00
   9.49656E-01 -1.84808E+00  2.90660E+00  1.81286E+00  2.13948E+00  7.40152E-01  2.19231E-01  1.71760E+00  3.26851E+00  5.58519E+00
  -7.72941E-01 -2.64860E-01  1.49353E+00  1.78062E+00 -2.43876E-01  3.30175E+00  4.42953E-01  1.14409E-01  1.55529E+00  5.16832E+00
   3.06278E+00  1.48733E+00  1.13906E+00  5.02638E+00  4.37556E+00  1.92011E+00 -1.14298E+00  4.61447E+00  1.86407E+00  9.47309E-01
   2.49088E+00 -1.62087E+00 -2.37555E-01  3.43499E+00  2.73714E-01 -5.56502E-01  1.33221E+00  2.55935E+00  2.48963E+00  3.67379E+00
   1.80389E-01 -8.59208E-01  3.03525E+00  1.43631E+00  2.70237E+00  2.01185E+00  1.54892E+00  2.07803E+00  2.64346E+00  5.38303E-01
   3.24685E+00  1.45147E+00  2.23043E+00  1.53843E+00  2.88755E+00  3.11498E+00  1.22753E+00  1.98549E+00  2.93736E+00 -5.61686E-01
   7.72322E-01  2.34420E+00  1.76757E-02  1.21442E+00  7.92318E-01  1.15777E+00  8.88195E-01  9.27641E-01 -1.18620E-01  1.07727E+00
  -2.69273E-01  4.02735E+00  1.38408E+00  2.61418E+00  1.03680E+00  2.33209E-01  2.52024E+00  2.02125E+00  2.53257E+00  1.46828E+00
   3.07136E+00  3.66004E+00  3.61015E+00  6.85759E+00  1.96609E-01  4.84651E+00  4.30230E-01  5.40438E+00  3.37723E+00  1.67515E+00
   3.51855E+00  2.55529E+00  2.90128E-01  5.39305E+00 -7.63686E-01 -8.90780E-01  5.76552E+00  1.98534E+00  2.74364E-01  4.43849E+00
   1.89818E-01 -3.97785E-01  3.47852E-02  1.27709E+00 -3.03510E-01  1.62361E-01  4.56471E+00  6.85190E+00  1.93884E+00  3.27173E+00
   3.27255E+00  4.35490E+00  4.00899E+00  3.08621E+00 -1.07863E+00  2.39792E+00  3.80925E+00  4.82803E+00  2.29380E+00  8.21106E-01
  -8.81146E-02 -1.55031E+00  4.59243E-01  2.97094E-01  1.31216E+00  7.14749E-02  1.83126E+00  2.84829E+00 -2.97327E-01  1.86631E+00
   5.90631E-01  1.19151E+00 -9.91717E-01 -1.03015E+00 -1.60161E+00 -4.12885E-01 -3.23930E-01  3.44796E+00  1.60524E-02  2.51100E-03
   3.36735E+00  2.59560E+00  1.39098E+00  1.45502E+00  1.29064E+00  3.48864E+00 -3.00893E+00 -1.98913E-02 -4.39591E-02  3.07582E+00
   1.35030E+00 -1.03342E+00 -1.31646E+00  1.91963E+00 -1.49990E+00  1.33820E+00 -6.68426E-01  1.34668E+00  1.60294E-01  1.42680E+00
  -1.40761E+00 -3.24816E+00 -3.39278E+00  1.52662E+00 -7.68867E-01  1.14804E+00  1.86682E+00 -1.80890E-01  4.16772E+00 -1.31615E+00
   1.14773E-01  3.78947E+00  4.61510E-02  1.05404E+00  2.17778E-01 -1.68646E+00 -1.46533E+00  2.98792E+00  4.52916E-01  1.72268E+00
   2.29551E+00 -9.41863E-02  1.10738E+00  2.77876E+00 -5.17049E-01  3.54899E-01 -1.56407E+00 -7.64196E-01  1.09747E+00 -7.26177E-01
  -1.78658E+00  2.94970E+00 -3.81398E-01  1.90307E+00  4.01728E-01  7.81163E-01  1.67331E+00 -1.02504E+00  1.32353E+00 -6.22221E-01
   3.73545E+00  2.05130E-01  9.75624E-01  8.25712E-01  1.30460E-01  4.69542E+00  1.10199E+00  2.01052E+00  1.23465E-01  3.53979E+00
   1.51968E+00  2.40162E+00  2.10015E+00 -1.40433E+00  1.31227E+00  1.77327E-01  1.02895E+00  1.94219E+00  9.35333E-01  1.71045E+00
   1.59417E-01  2.63509E+00 -2.94621E-01  1.42973E+00 -1.53929E+00  2.02630E+00  1.88930E+00  4.86274E-01  1.16425E+00 -1.21572E+00
   1.64143E+00  4.63603E+00 -2.77122E-01 -1.63779E+00 -7.84435E-01  5.04606E-01  1.83466E+00  5.00220E+00  1.11730E+00  3.47747E+00
   2.54884E+00  2.58787E+00  4.69166E+00  3.31193E+00  1.23855E+00 -9.63967E-01 -1.30838E+00 -1.08720E-01  2.02706E+00 -1.34869E+00
   1.38956E+00  4.00986E+00  2.66792E+00  1.82317E+00  1.92875E+00  1.83938E+00 -2.82416E-02  2.40460E+00  3.24106E-01  4.01007E+00
   1.51919E+00 -2.69042E+00 -1.80237E+00 -1.01591E+00  1.26533E+00 -5.79173E-01  7.87579E-01  6.35939E-01  1.57419E+00  4.78530E+00
   1.52896E+00  1.31406E-01  2.59280E+00  5.94825E-01 -2.22922E+00  1.60049E+00 -2.27686E-01 -1.45924E-01  1.38902E+00  3.86982E+00
  -3.07815E-01 -1.68183E+00 -9.18926E-01  3.39934E-01  2.16879E+00 -6.11784E-01 -3.65662E+00  1.57460E-01 -2.31919E+00  2.36611E-01
   8.59479E-01  2.31886E+00 -2.08812E+00  4.32670E-02  4.91764E+00  9.77705E-01  3.79166E-01 -6.81793E-01 -1.34752E-01  4.82598E-01
   3.54586E-01  1.28898E+00 -2.50417E+00  5.95926E-01  2.91000E-01  1.99375E+00 -9.73874E-01 -8.26216E-01  1.26874E+00 -4.14289E-01
   2.28670E+00 -1.37107E+00  3.53845E+00  5.04829E+00 -8.40704E-01  4.84216E-01  2.27242E+00  9.08644E-01  7.06309E-01  2.26201E+00
  -4.52912E-01  1.03240E+00  1.63109E+00  2.33962E-01  1.73404E+00  4.55916E+00  3.02487E+00  4.30640E+00  3.01519E+00  5.57130E+00
   3.29572E+00  3.29538E+00 -2.39905E+00  1.57141E+00  1.38535E+00  2.73768E+00  3.46285E+00 -1.05895E-01  2.77271E+00  3.98088E+00
   4.70910E+00  3.80649E+00  2.94267E+00  1.27017E+00  3.02383E+00 -5.07539E-01  3.58388E+00  5.45825E-01 -6.91894E-02  6.67557E-01
   6.50654E-01 -1.46974E+00  1.02166E+00 -2.15029E+00  4.41781E-01 -5.17652E-01 -1.50312E+00 -1.93785E+00 -1.80280E+00 -5.09056E-01
  -1.01317E+00 -1.58745E+00 -2.51376E+00 -2.65455E+00  2.48242E-01 -1.04976E+00 -5.08258E-01 -1.29867E+00  1.24830E+00 -2.00736E+00
   8.70360E-01 -2.96216E+00  1.69540E+00 -1.02277E+00  1.06214E+00 -1.24693E+00 -1.03773E+00  8.28500E-01  8.51533E-02 -1.84996E+00
   2.95732E-01  1.86358E+00 -5.77236E-01  3.68548E+00  3.42374E+00 -2.00290E+00  2.03760E-01  5.77861E-01  3.91021E+00 -1.13831E+00
   1.71044E+00 -1.74889E+00  1.16073E+00  1.61387E+00 -6.04278E-01  1.29814E+00 -1.30588E+00  6.19960E-01 -4.52186E-01  1.43505E+00
   2.02009E+00  1.34226E+00 -1.34974E+00  9.41129E-01  3.06554E-02  3.11123E+00 -2.87498E-02 -2.15035E+00  3.17169E+00  2.60524E+00
   3.40122E+00 -1.59943E+00  2.21290E+00  7.07361E-01 -2.56259E+00  4.14319E-01  1.67412E+00 -3.36798E-01  5.36515E-01  1.27855E+00
   7.88606E-01 -5.79895E-01  1.72162E+00  3.32163E-01  9.82201E-01  3.96245E-01  1.15760E+00  3.40245E+00  1.66376E+00 -6.82301E-01
   8.11137E-01 -3.61518E+00  2.08982E+00  7.90041E-01 -1.16820E+00  1.45818E+00  9.84849E-01  1.05665E+00  9.41662E-01  2.57240E+00
  -2.36685E+00  2.70314E+00  3.04762E+00  2.16267E+00 -2.31499E+00  1.20761E+00 -1.32913E-01 -2.91518E+00 -1.30270E+00  6.63764E-01
  -2.77536E-01  4.71172E-01  5.91690E-01 -2.75858E+00 -4.91079E-01  7.35397E-02 -5.39015E-01 -1.14066E+00 -2.14899E-01  1.60305E+00
  -6.50142E-01 -7.66275E-02  7.43692E-01  1.40981E+00 -2.50801E+00 -1.68266E+00 -5.43511E-01 -1.40666E+00 -3.27465E+00 -2.83536E+00
  -6.65478E-01 -2.19853E+00  2.43148E+00 -2.91576E+00 -1.50753E+00 -2.26866E+00 -2.27929E+00  9.66214E-01
 NY points of the fit to the data follow
   1.89423E+00  2.04857E+00  1.94549E+00  2.07318E+00  1.95273E+00  2.07506E+00  1.95093E+00  2.09705E+00  1.98421E+00  2.18637E+00
   2.08289E+00  2.33063E+00  2.17176E+00  2.40928E+00  2.18653E+00  2.38885E+00  2.11154E+00  2.28573E+00  2.01167E+00  2.16349E+00
   1.91262E+00  2.02646E+00  1.80578E+00  1.86807E+00  1.69501E+00  1.72365E+00  1.60041E+00  1.60451E+00  1.55581E+00  1.59566E+00
   1.58258E+00  1.60144E+00  1.62048E+00  1.64343E+00  1.70034E+00  1.72306E+00  1.79151E+00  1.81050E+00  1.87977E+00  1.89353E+00
   1.95108E+00  1.96197E+00  1.99585E+00  2.00147E+00  1.98288E+00  1.97629E+00  1.94826E+00  1.94581E+00  1.93359E+00  1.92712E+00
   1.93405E+00  1.90545E+00  1.90289E+00  1.84093E+00  1.82274E+00  1.74201E+00  1.71282E+00  1.63469E+00  1.59778E+00  1.51904E+00
   1.49040E+00  1.42785E+00  1.41468E+00  1.37301E+00  1.38617E+00  1.37124E+00  1.40211E+00  1.38382E+00  1.40725E+00  1.37705E+00
   1.39390E+00  1.35672E+00  1.37149E+00  1.32463E+00  1.33237E+00  1.27498E+00  1.27735E+00  1.21635E+00  1.22015E+00  1.15070E+00
   1.15291E+00  1.06994E+00  1.07098E+00  9.80117E-01  9.81487E-01  8.93994E-01  8.99955E-01  8.34703E-01  9.17277E-01  1.00710E+00
   1.10612E+00  1.34375E+00  1.39818E+00  1.76642E+00  1.74028E+00  2.21390E+00  2.09085E+00  2.65577E+00  2.42761E+00  3.06285E+00
   2.72400E+00  3.39175E+00  2.93824E+00  3.58342E+00  3.02478E+00  3.58416E+00  2.94834E+00  3.38631E+00  2.72403E+00  3.01966E+00
   2.38823E+00  2.54791E+00  2.03963E+00  2.17145E+00  1.78071E+00  1.90611E+00  1.62147E+00  1.78457E+00  1.59444E+00  1.85307E+00
   1.74251E+00  2.15704E+00  1.99330E+00  2.45255E+00  2.21497E+00  2.68796E+00  2.37457E+00  2.82445E+00  2.44179E+00  2.82797E+00
   2.39725E+00  2.69117E+00  2.24029E+00  2.42236E+00  1.98502E+00  2.05514E+00  1.66213E+00  1.63099E+00  1.30993E+00  1.20380E+00
   9.79381E-01  8.43544E-01  7.26692E-01  6.17199E-01  6.02148E-01  5.73553E-01  5.72296E-01  5.49688E-01  5.47792E-01  5.28392E-01
   5.24236E-01  5.08159E-01  4.99671E-01  4.84196E-01  4.70090E-01  4.56710E-01  4.38781E-01  4.29674E-01  4.11443E-01  4.06348E-01
   3.88638E-01  3.85623E-01  3.66843E-01  3.65518E-01  3.47764E-01  3.47180E-01  3.30177E-01  3.27925E-01  3.12501E-01  3.08338E-01
   2.96182E-01  2.89734E-01  2.80395E-01  2.70682E-01  2.66008E-01  2.54873E-01  2.56540E-01  2.45807E-01  2.53728E-01  2.40661E-01
   2.46413E-01  2.33940E-01  2.23446E-01  2.12516E-01  1.80728E-01  1.76268E-01  1.30348E-01  1.54199E-01  1.11747E-01  1.70186E-01
   1.29843E-01  2.29851E-01  1.79615E-01  3.05029E-01  2.27067E-01  3.40338E-01  1.96453E-01  3.24517E-01  1.45230E-01  2.98251E-01
   1.02027E-01  2.83378E-01  8.01052E-02  2.78054E-01  6.78829E-02  2.72049E-01  6.22495E-02  2.67074E-01  6.80328E-02  2.72150E-01
   9.57859E-02  2.93650E-01  1.46288E-01  3.35829E-01  2.25496E-01  4.05573E-01  3.48037E-01  5.17797E-01  5.15297E-01  6.79268E-01
   7.23130E-01  8.45702E-01  8.74708E-01  9.59865E-01  9.52456E-01  9.98433E-01  9.50225E-01  9.86672E-01  8.82856E-01  9.38294E-01
   8.26807E-01  8.81005E-01  7.54463E-01  8.06020E-01  6.74032E-01  7.22773E-01  6.04204E-01  6.60766E-01  5.70721E-01  6.29404E-01
   5.72095E-01  6.22661E-01  5.95473E-01  6.25079E-01  6.28348E-01  6.41730E-01  7.28972E-01  7.55979E-01  8.94792E-01  9.34785E-01
   1.09034E+00  1.14522E+00  1.28921E+00  1.35765E+00  1.46852E+00  1.57684E+00  1.66709E+00  1.80469E+00  1.85408E+00  1.99662E+00
   1.96927E+00  2.06806E+00  1.96283E+00  2.01542E+00  1.84346E+00  1.85906E+00  1.64584E+00  1.63239E+00  1.40627E+00  1.37727E+00
   1.15478E+00  1.10820E+00  9.04768E-01  8.45220E-01  6.81311E-01  6.20494E-01  5.18809E-01  4.74008E-01  4.49033E-01  4.31702E-01
   4.14808E-01  4.01932E-01  3.88702E-01  3.78964E-01  3.68248E-01  3.60838E-01  3.52141E-01  3.46630E-01  3.39390E-01  3.35983E-01
   3.30466E-01  3.29098E-01  3.25407E-01  3.25957E-01  3.24139E-01  3.26460E-01  3.25981E-01  3.29574E-01  3.30532E-01  3.35413E-01
   3.37978E-01  3.44631E-01  3.49471E-01  3.58784E-01  3.67055E-01  3.80130E-01  3.93202E-01  4.11984E-01  4.32577E-01  4.61012E-01
   4.95524E-01  5.45893E-01  6.22457E-01  7.32656E-01  7.77597E-01  9.03247E-01  8.82763E-01  1.00134E+00  8.97096E-01  9.85455E-01
   7.87575E-01  9.22448E-01  6.87154E-01  8.71132E-01  6.12026E-01  8.28288E-01  5.53376E-01  7.80386E-01  5.05393E-01  7.37140E-01
   5.00226E-01  7.52770E-01  6.24578E-01  9.51103E-01  8.60293E-01  1.19666E+00  1.10714E+00  1.41059E+00  1.29402E+00  1.53013E+00
   1.39406E+00  1.69835E+00  1.53996E+00  1.94865E+00  1.72930E+00  2.23748E+00  1.87697E+00  2.41644E+00  1.95850E+00  2.55030E+00
   2.04316E+00  2.69571E+00  2.17415E+00  2.88631E+00  2.38733E+00  3.02810E+00  2.50652E+00  2.99343E+00  2.45747E+00  2.77354E+00
   2.27261E+00  2.44985E+00  2.03559E+00  2.12603E+00  1.81477E+00  1.84191E+00  1.54879E+00  1.45036E+00  1.20812E+00  1.03789E+00
   8.54717E-01  6.76253E-01  5.62480E-01  4.85501E-01  4.26591E-01  3.83340E-01  3.47685E-01  3.21492E-01  2.98955E-01  2.83272E-01
   2.69510E-01  2.61435E-01  2.54512E-01  2.52763E-01  2.51856E-01  2.55936E-01  2.60777E-01  2.70566E-01  2.81100E-01  2.96531E-01
   3.12611E-01  3.33401E-01  3.54554E-01  3.79978E-01  4.05173E-01  4.33861E-01  4.61369E-01  4.91239E-01  5.18658E-01  5.47034E-01
   5.71479E-01  5.95364E-01  6.13844E-01  6.30378E-01  6.40293E-01  6.47255E-01  6.46866E-01  6.43086E-01  6.31852E-01  6.17444E-01
   5.96123E-01  5.72439E-01  5.42902E-01  5.12237E-01  4.77084E-01  4.42224E-01  4.04304E-01  3.68036E-01  3.29973E-01  2.94680E-01
   2.58557E-01  2.25980E-01  1.93180E-01  1.64347E-01  1.35560E-01  1.10858E-01  8.62096E-02  6.55478E-02  4.47724E-02  2.77534E-02
   1.03646E-02 -3.55058E-03 -1.81147E-02 -2.94889E-02 -4.17769E-02 -5.11312E-02 -6.16273E-02 -6.94025E-02 -7.85031E-02 -8.50535E-02
  -9.30739E-02 -9.86776E-02 -1.05860E-01 -1.10727E-01 -1.17253E-01 -1.21542E-01 -1.27551E-01 -1.31383E-01 -1.36980E-01 -1.40445E-01
  -1.45707E-01 -1.48874E-01 -1.53864E-01 -1.56788E-01 -1.61552E-01 -1.64273E-01 -1.68847E-01 -1.71399E-01 -1.75814E-01 -1.78222E-01
  -1.82501E-01 -1.84786E-01 -1.88947E-01 -1.91128E-01 -1.95187E-01 -1.97277E-01 -2.01246E-01 -2.03256E-01 -2.07147E-01 -2.09088E-01
  -2.12910E-01 -2.14789E-01 -2.18550E-01 -2.20374E-01 -2.24080E-01 -2.25855E-01 -2.29512E-01 -2.31243E-01 -2.34854E-01 -2.36546E-01
  -2.40115E-01 -2.41771E-01 -2.45302E-01 -2.46923E-01 -2.50418E-01 -2.52007E-01 -2.55467E-01 -2.57026E-01 -2.60451E-01 -2.61979E-01
  -2.65370E-01 -2.66867E-01 -2.70222E-01 -2.71684E-01 -2.75000E-01 -2.76423E-01 -2.79693E-01 -2.81070E-01
 NY background values follow
     7.470E-01    7.449E-01    7.428E-01    7.407E-01    7.386E-01    7.364E-01    7.343E-01    7.322E-01    7.301E-01    7.280E-01
     7.259E-01    7.238E-01    7.217E-01    7.195E-01    7.174E-01    7.153E-01    7.132E-01    7.111E-01    7.090E-01    7.069E-01
     7.048E-01    7.026E-01    7.005E-01    6.984E-01    6.963E-01    6.942E-01    6.921E-01    6.900E-01    6.879E-01    6.857E-01
     6.836E-01    6.815E-01    6.794E-01    6.773E-01    6.752E-01    6.731E-01    6.710E-01    6.688E-01    6.667E-01    6.646E-01
     6.625E-01    6.604E-01    6.583E-01    6.562E-01    6.541E-01    6.519E-01    6.498E-01    6.477E-01    6.456E-01    6.435E-01
     6.414E-01    6.393E-01    6.372E-01    6.350E-01    6.329E-01    6.308E-01    6.287E-01    6.266E-01    6.245E-01    6.224E-01
     6.203E-01    6.181E-01    6.160E-01    6.139E-01    6.118E-01    6.097E-01    6.076E-01    6.055E-01    6.034E-01    6.012E-01
     5.991E-01    5.970E-01    5.949E-01    5.928E-01    5.907E-01    5.886E-01    5.865E-01    5.843E-01    5.822E-01    5.801E-01
     5.780E-01    5.759E-01    5.738E-01    5.717E-01    5.696E-01    5.674E-01    5.653E-01    5.632E-01    5.611E-01    5.590E-01
     5.569E-01    5.548E-01    5.527E-01    5.505E-01    5.484E-01    5.463E-01    5.442E-01    5.421E-01    5.400E-01    5.379E-01
     5.358E-01    5.336E-01    5.315E-01    5.294E-01    5.273E-01    5.252E-01    5.231E-01    5.210E-01    5.189E-01    5.167E-01
     5.146E-01    5.125E-01    5.104E-01    5.083E-01    5.062E-01    5.041E-01    5.020E-01    4.998E-01    4.977E-01    4.956E-01
     4.935E-01    4.914E-01    4.893E-01    4.872E-01    4.851E-01    4.829E-01    4.808E-01    4.787E-01    4.766E-01    4.745E-01
     4.724E-01    4.703E-01    4.682E-01    4.660E-01    4.639E-01    4.618E-01    4.597E-01    4.576E-01    4.555E-01    4.534E-01
     4.513E-01    4.491E-01    4.470E-01    4.449E-01    4.428E-01    4.407E-01    4.386E-01    4.365E-01    4.344E-01    4.322E-01
     4.301E-01    4.280E-01    4.259E-01    4.238E-01    4.217E-01    4.196E-01    4.175E-01    4.153E-01    4.132E-01    4.111E-01
     4.090E-01    4.069E-01    4.048E-01    4.027E-01    4.006E-01    3.984E-01    3.963E-01    3.942E-01    3.921E-01    3.900E-01
     3.879E-01    3.858E-01    3.836E-01    3.815E-01    3.794E-01    3.773E-01    3.752E-01    3.731E-01    3.710E-01    3.689E-01
     3.667E-01    3.646E-01    3.625E-01    3.604E-01    3.583E-01    3.562E-01    3.541E-01    3.520E-01    3.498E-01    3.477E-01
     3.456E-01    3.435E-01    3.414E-01    3.393E-01    3.372E-01    3.351E-01    3.329E-01    3.308E-01    3.287E-01    3.266E-01
     3.245E-01    3.224E-01    3.203E-01    3.182E-01    3.160E-01    3.139E-01    3.118E-01    3.097E-01    3.076E-01    3.055E-01
     3.034E-01    3.013E-01    2.991E-01    2.970E-01    2.949E-01    2.928E-01    2.907E-01    2.886E-01    2.865E-01    2.843E-01
     2.822E-01    2.801E-01    2.780E-01    2.759E-01    2.738E-01    2.717E-01    2.696E-01    2.674E-01    2.653E-01    2.632E-01
     2.611E-01    2.590E-01    2.569E-01    2.548E-01    2.527E-01    2.505E-01    2.484E-01    2.463E-01    2.442E-01    2.421E-01
     2.400E-01    2.379E-01    2.358E-01    2.336E-01    2.315E-01    2.294E-01    2.273E-01    2.252E-01    2.231E-01    2.210E-01
     2.189E-01    2.167E-01    2.146E-01    2.125E-01    2.104E-01    2.083E-01    2.062E-01    2.041E-01    2.019E-01    1.998E-01
     1.977E-01    1.956E-01    1.935E-01    1.914E-01    1.893E-01    1.872E-01    1.850E-01    1.829E-01    1.808E-01    1.787E-01
     1.766E-01    1.745E-01    1.724E-01    1.703E-01    1.681E-01    1.660E-01    1.639E-01    1.618E-01    1.597E-01    1.576E-01
     1.555E-01    1.534E-01    1.512E-01    1.491E-01    1.470E-01    1.449E-01    1.428E-01    1.407E-01    1.386E-01    1.364E-01
     1.343E-01    1.322E-01    1.301E-01    1.280E-01    1.259E-01    1.238E-01    1.217E-01    1.195E-01    1.174E-01    1.153E-01
     1.132E-01    1.111E-01    1.090E-01    1.069E-01    1.048E-01    1.026E-01    1.005E-01    9.842E-02    9.630E-02    9.419E-02
     9.208E-02    8.997E-02    8.785E-02    8.574E-02    8.363E-02    8.151E-02    7.940E-02    7.729E-02    7.518E-02    7.306E-02
     7.095E-02    6.884E-02    6.672E-02    6.461E-02    6.250E-02    6.038E-02    5.827E-02    5.616E-02    5.405E-02    5.193E-02
     4.982E-02    4.771E-02    4.559E-02    4.348E-02    4.137E-02    3.926E-02    3.714E-02    3.503E-02    3.292E-02    3.080E-02
     2.869E-02    2.658E-02    2.447E-02    2.235E-02    2.024E-02    1.813E-02    1.601E-02    1.390E-02    1.179E-02    9.675E-03
     7.562E-03    5.449E-03    3.336E-03    1.223E-03   -8.901E-04   -3.003E-03   -5.116E-03   -7.229E-03   -9.342E-03   -1.145E-02
    -1.357E-02   -1.568E-02   -1.779E-02   -1.991E-02   -2.202E-02   -2.413E-02   -2.625E-02   -2.836E-02   -3.047E-02   -3.258E-02
    -3.470E-02   -3.681E-02   -3.892E-02   -4.104E-02   -4.315E-02   -4.526E-02   -4.737E-02   -4.949E-02   -5.160E-02   -5.371E-02
    -5.583E-02   -5.794E-02   -6.005E-02   -6.216E-02   -6.428E-02   -6.639E-02   -6.850E-02   -7.062E-02   -7.273E-02   -7.484E-02
    -7.696E-02   -7.907E-02   -8.118E-02   -8.329E-02   -8.541E-02   -8.752E-02   -8.963E-02   -9.175E-02   -9.386E-02   -9.597E-02
    -9.808E-02   -1.002E-01   -1.023E-01   -1.044E-01   -1.065E-01   -1.086E-01   -1.108E-01   -1.129E-01   -1.150E-01   -1.171E-01
    -1.192E-01   -1.213E-01   -1.234E-01   -1.256E-01   -1.277E-01   -1.298E-01   -1.319E-01   -1.340E-01   -1.361E-01   -1.382E-01
    -1.403E-01   -1.425E-01   -1.446E-01   -1.467E-01   -1.488E-01   -1.509E-01   -1.530E-01   -1.551E-01   -1.572E-01   -1.594E-01
    -1.615E-01   -1.636E-01   -1.657E-01   -1.678E-01   -1.699E-01   -1.720E-01   -1.741E-01   -1.763E-01   -1.784E-01   -1.805E-01
    -1.826E-01   -1.847E-01   -1.868E-01   -1.889E-01   -1.911E-01   -1.932E-01   -1.953E-01   -1.974E-01   -1.995E-01   -2.016E-01
    -2.037E-01   -2.058E-01   -2.080E-01   -2.101E-01   -2.122E-01   -2.143E-01   -2.164E-01   -2.185E-01   -2.206E-01   -2.227E-01
    -2.249E-01   -2.270E-01   -2.291E-01   -2.312E-01   -2.333E-01   -2.354E-01   -2.375E-01   -2.397E-01   -2.418E-01   -2.439E-01
    -2.460E-01   -2.481E-01   -2.502E-01   -2.523E-01   -2.544E-01   -2.566E-01   -2.587E-01   -2.608E-01   -2.629E-01   -2.650E-01
    -2.671E-01   -2.692E-01   -2.713E-01   -2.735E-01   -2.756E-01   -2.777E-01   -2.798E-01   -2.819E-01   -2.840E-01   -2.861E-01
    -2.882E-01   -2.904E-01   -2.925E-01   -2.946E-01   -2.967E-01   -2.988E-01   -3.009E-01   -3.030E-01
 Ala      Conc. = 2.43E+02
