 LCModel (Version 6.3-1L) Copyright: S.W. Provencher.          Ref.: Magn. Reson. Med. 30:672-679 (1993).                
 Slice#1 Row#4 Col#10  PD_24_press_1_raw_act
 36 lines in following concentration table = NCONC+1
    Conc.  %SD /Cr+PCr  Metabolite                                         
  797.178  34%   0.634 Ala                                                 
    0.000 999%   0.000 Asp                                                 
  492.853  38%   0.392 Cr                                                  
  764.451  25%   0.608 PCr                                                 
    0.000 999%   0.000 GABA                                                
    0.000 999%   0.000 Glc                                                 
 1.32E+03  36%   1.052 Gln                                                 
 1.04E+03  55%   0.827 Glu                                                 
  672.125   4%   0.535 GPC                                                 
    0.000 999%   0.000 PCh                                                 
  474.354  21%   0.377 GSH                                                 
 2.34E+03  11%   1.864 Ins                                                 
  903.742  34%   0.719 Lac                                                 
 1.97E+03   5%   1.570 NAA                                                 
    0.000 999%   0.000 NAAG                                                
  146.137  20%   0.116 Scyllo                                              
    0.000 999%   0.000 Tau                                                 
    0.000 999%   0.000 -CrCH2                                              
  672.125   4%   0.535 GPC+PCh                                             
 1.97E+03   5%   1.570 NAA+NAAG                                            
 1.26E+03   5%   1.000 Cr+PCr                                              
 2.36E+03  39%   1.879 Glu+Gln                                             
  776.348  78%   0.617 Lip13a                                              
    0.000 999%   0.000 Lip13b                                              
  174.729 132%   0.139 Lip09                                               
 2.55E+03  12%   2.024 MM09                                                
  173.764  82%   0.138 Lip20                                               
 3.88E+03  11%   3.086 MM20                                                
  944.752  33%   0.751 MM12                                                
 4.13E+03  15%   3.286 MM14                                                
 1.59E+03  22%   1.266 MM17                                                
  776.348  78%   0.617 Lip13a+Lip13b                                       
 5.85E+03   7%   4.655 MM14+Lip13a+Lip13b+MM12                             
 2.72E+03   7%   2.163 MM09+Lip09                                          
 4.05E+03  10%   3.224 MM20+Lip20                                          
   6 lines in following misc. output table
  FWHM = 0.092 ppm    S/N =   9                                            
  Data shift = 0.054 ppm                                                   
  Ph: -19 deg      -3.5 deg/ppm                                            
  alphaB,S = 8.5E+01,   1.0E+02                                            
   14 spline knots.   Ns = 6(2)                                            
   2 inflections.     1 extrema                                            
  498 points on ppm-axis = NY
      4.000000     3.992357     3.984714     3.977070     3.969427     3.961784     3.954141     3.946497     3.938854     3.931211
      3.923568     3.915925     3.908281     3.900638     3.892995     3.885352     3.877708     3.870065     3.862422     3.854779
      3.847136     3.839492     3.831849     3.824206     3.816563     3.808919     3.801276     3.793633     3.785990     3.778347
      3.770703     3.763060     3.755417     3.747774     3.740130     3.732487     3.724844     3.717201     3.709558     3.701914
      3.694271     3.686628     3.678985     3.671341     3.663698     3.656055     3.648412     3.640769     3.633125     3.625482
      3.617839     3.610196     3.602552     3.594909     3.587266     3.579623     3.571980     3.564336     3.556693     3.549050
      3.541407     3.533763     3.526120     3.518477     3.510834     3.503191     3.495547     3.487904     3.480261     3.472618
      3.464974     3.457331     3.449688     3.442045     3.434402     3.426758     3.419115     3.411472     3.403829     3.396185
      3.388542     3.380899     3.373256     3.365613     3.357969     3.350326     3.342683     3.335040     3.327396     3.319753
      3.312110     3.304467     3.296824     3.289180     3.281537     3.273894     3.266251     3.258607     3.250964     3.243321
      3.235678     3.228034     3.220391     3.212748     3.205105     3.197462     3.189818     3.182175     3.174532     3.166889
      3.159245     3.151602     3.143959     3.136316     3.128673     3.121029     3.113386     3.105743     3.098100     3.090456
      3.082813     3.075170     3.067527     3.059884     3.052240     3.044597     3.036954     3.029311     3.021667     3.014024
      3.006381     2.998738     2.991095     2.983451     2.975808     2.968165     2.960522     2.952878     2.945235     2.937592
      2.929949     2.922306     2.914662     2.907019     2.899376     2.891733     2.884089     2.876446     2.868803     2.861160
      2.853517     2.845873     2.838230     2.830587     2.822944     2.815300     2.807657     2.800014     2.792371     2.784728
      2.777084     2.769441     2.761798     2.754155     2.746511     2.738868     2.731225     2.723582     2.715939     2.708295
      2.700652     2.693009     2.685366     2.677722     2.670079     2.662436     2.654793     2.647150     2.639506     2.631863
      2.624220     2.616577     2.608933     2.601290     2.593647     2.586004     2.578361     2.570717     2.563074     2.555431
      2.547788     2.540144     2.532501     2.524858     2.517215     2.509572     2.501928     2.494285     2.486642     2.478999
      2.471355     2.463712     2.456069     2.448426     2.440783     2.433139     2.425496     2.417853     2.410210     2.402566
      2.394923     2.387280     2.379637     2.371994     2.364350     2.356707     2.349064     2.341421     2.333777     2.326134
      2.318491     2.310848     2.303205     2.295561     2.287918     2.280275     2.272632     2.264988     2.257345     2.249702
      2.242059     2.234416     2.226772     2.219129     2.211486     2.203843     2.196199     2.188556     2.180913     2.173270
      2.165627     2.157983     2.150340     2.142697     2.135054     2.127410     2.119767     2.112124     2.104481     2.096838
      2.089194     2.081551     2.073908     2.066265     2.058621     2.050978     2.043335     2.035692     2.028049     2.020405
      2.012762     2.005119     1.997476     1.989833     1.982190     1.974546     1.966903     1.959260     1.951617     1.943974
      1.936331     1.928688     1.921045     1.913402     1.905759     1.898115     1.890472     1.882829     1.875186     1.867543
      1.859900     1.852257     1.844614     1.836971     1.829327     1.821684     1.814041     1.806398     1.798755     1.791112
      1.783469     1.775826     1.768183     1.760540     1.752896     1.745253     1.737610     1.729967     1.722324     1.714681
      1.707038     1.699395     1.691752     1.684108     1.676465     1.668822     1.661179     1.653536     1.645893     1.638250
      1.630607     1.622964     1.615321     1.607677     1.600034     1.592391     1.584748     1.577105     1.569462     1.561819
      1.554176     1.546533     1.538890     1.531246     1.523603     1.515960     1.508317     1.500674     1.493031     1.485388
      1.477745     1.470102     1.462458     1.454815     1.447172     1.439529     1.431886     1.424243     1.416600     1.408957
      1.401314     1.393671     1.386027     1.378384     1.370741     1.363098     1.355455     1.347812     1.340169     1.332526
      1.324883     1.317240     1.309596     1.301953     1.294310     1.286667     1.279024     1.271381     1.263738     1.256095
      1.248452     1.240808     1.233165     1.225522     1.217879     1.210236     1.202593     1.194950     1.187307     1.179664
      1.172021     1.164377     1.156734     1.149091     1.141448     1.133805     1.126162     1.118519     1.110876     1.103233
      1.095590     1.087946     1.080303     1.072660     1.065017     1.057374     1.049731     1.042088     1.034445     1.026802
      1.019158     1.011515     1.003872     0.996229     0.988586     0.980943     0.973300     0.965657     0.958014     0.950371
      0.942727     0.935084     0.927441     0.919798     0.912155     0.904512     0.896869     0.889226     0.881583     0.873940
      0.866296     0.858653     0.851010     0.843367     0.835724     0.828081     0.820438     0.812795     0.805152     0.797508
      0.789865     0.782222     0.774579     0.766936     0.759293     0.751650     0.744007     0.736364     0.728721     0.721077
      0.713434     0.705791     0.698148     0.690505     0.682862     0.675219     0.667576     0.659933     0.652290     0.644646
      0.637003     0.629360     0.621717     0.614074     0.606431     0.598788     0.591145     0.583502     0.575858     0.568215
      0.560572     0.552929     0.545286     0.537643     0.530000     0.522357     0.514714     0.507071     0.499427     0.491784
      0.484141     0.476498     0.468855     0.461212     0.453569     0.445925     0.438282     0.430639     0.422996     0.415353
      0.407710     0.400067     0.392424     0.384780     0.377137     0.369494     0.361851     0.354208     0.346565     0.338922
      0.331278     0.323635     0.315992     0.308349     0.300706     0.293063     0.285420     0.277777     0.270133     0.262490
      0.254847     0.247204     0.239561     0.231918     0.224275     0.216631     0.208988     0.201345
 NY phased data points follow
   9.85223E+00  8.68268E+00  6.66869E+00  1.55727E+01  1.38101E+01  2.29229E+01  1.34054E+01  2.23360E+01  1.90123E+01  2.14715E+01
   1.70218E+01  1.77436E+01  1.27820E+01  1.73031E+01  1.09272E+01  1.02659E+01  1.04352E+01  6.97379E+00  6.13085E+00  9.12880E+00
   6.02805E+00  7.77120E+00  6.88545E+00  1.48392E+01  7.92265E+00  7.49782E+00  6.57463E+00  4.85837E+00  7.98491E+00  9.51858E+00
   8.67661E+00  6.76019E+00  5.31152E+00  8.55407E+00  4.83036E+00  8.33511E+00  8.91189E+00  8.94618E+00  5.45087E+00  7.06229E+00
   3.92187E+00  8.38063E+00  9.48660E+00  1.68737E+01  1.41352E+01  1.12240E+01  1.61409E+01  1.21460E+01  9.72368E+00  1.19647E+01
   1.39723E+01  1.34942E+01  7.69279E+00  8.96551E+00  7.59465E+00  7.00457E+00  4.98095E+00  8.21874E+00  6.92434E+00  7.31701E+00
   8.44768E-01  2.54291E+00 -5.99254E-03  1.62229E-01  3.47644E+00  3.29872E+00  1.74076E+00 -1.54768E-01  1.65267E+00  3.25584E-01
   1.41377E+00  8.80114E-01  6.92034E+00  3.74659E+00  1.84756E+00  2.54153E-01  3.43578E+00  2.19148E+00  5.66617E+00 -2.68413E-02
   2.83869E+00  6.33250E+00  3.68269E+00  4.05579E+00  2.12275E+00  8.38750E+00  1.32861E+00 -6.54247E-01 -1.15418E+00  2.33508E+00
   2.15684E-01  6.25093E+00  7.41826E+00  1.38379E+01  1.38988E+01  1.80795E+01  2.05081E+01  2.53863E+01  2.73575E+01  3.07088E+01
   3.52384E+01  3.76154E+01  3.75477E+01  2.97752E+01  3.11514E+01  2.77269E+01  2.62792E+01  1.83781E+01  1.61768E+01  1.39634E+01
   8.19031E+00  4.10222E+00  3.92854E+00  3.71686E+00  3.78430E+00  5.72031E+00  8.30411E+00  7.82799E+00  6.34287E+00  1.44834E+01
   1.20886E+01  1.31253E+01  2.02604E+01  2.02674E+01  2.20935E+01  2.62849E+01  2.54942E+01  2.31152E+01  2.48171E+01  2.55970E+01
   2.17560E+01  1.69493E+01  1.51653E+01  8.39198E+00  1.42900E+01  1.25418E+01  8.67699E+00  9.10468E+00  5.68817E+00  6.37351E+00
   6.01486E+00  2.37720E+00  5.81077E-02  4.97114E+00 -2.02511E-01  5.06877E+00 -5.44639E-02  2.38749E+00  1.56558E+00  1.42665E+00
   1.07184E-01  1.29727E-01 -1.12316E+00  9.60617E-02  9.67568E-01  6.10070E+00  4.44068E-01 -5.88964E+00 -3.15492E+00  1.52843E-01
   1.63568E+00  1.08874E+00  3.19498E+00  1.14106E+00 -1.61301E+00  1.38985E+00 -5.17443E+00 -3.03452E+00 -2.76811E+00 -2.52448E+00
  -3.72527E+00 -4.85866E+00 -7.68340E+00 -8.46333E+00 -8.61907E+00 -4.08003E+00 -1.00320E+01 -1.23857E+01 -7.74824E+00 -9.04572E+00
  -1.18950E+00 -3.39785E+00 -6.30251E+00 -2.23981E+00 -2.81251E+00 -2.45608E+00 -8.71249E+00 -3.72211E+00 -3.58969E+00 -2.65212E+00
  -2.33272E+00 -2.73872E+00 -2.95587E+00  1.15590E-01 -3.18716E+00 -2.44484E+00 -6.39812E-01 -5.47945E+00 -5.19584E+00 -1.84994E+00
  -4.06860E+00 -2.28929E-01 -3.52706E+00  1.83615E+00 -1.26932E+00  8.99113E-01 -1.29834E+00  1.36559E+00  2.79009E-01  4.28941E+00
   3.31198E+00  4.26148E+00  5.62948E+00  4.13810E+00  2.46320E+00  4.20490E+00  6.96194E+00  7.61278E+00  4.95687E+00  3.47194E+00
   4.37512E+00  2.10107E-01  1.59759E+00  2.30044E+00  3.96994E+00  2.61397E+00  7.16263E+00  4.86375E+00  3.27532E+00  2.63253E+00
   8.87750E+00  4.02287E+00  4.50327E+00  6.04312E+00  9.92684E+00  9.15815E+00  4.89977E+00  8.37996E+00  1.18124E+00  7.87094E+00
   7.10954E+00  1.21959E+01  8.04614E+00  8.18011E+00  5.60473E+00  8.76925E+00  1.29545E+01  1.39752E+01  1.29891E+01  1.89191E+01
   2.15943E+01  2.62913E+01  2.70439E+01  2.66156E+01  2.83802E+01  4.00793E+01  4.73578E+01  5.28766E+01  5.11728E+01  5.26656E+01
   4.64386E+01  4.87040E+01  4.46835E+01  3.96808E+01  3.33087E+01  2.98876E+01  3.00353E+01  2.77051E+01  1.69449E+01  2.23422E+01
   1.51947E+01  1.37415E+01  1.00398E+01  9.41928E+00  8.25482E+00  6.27793E+00  1.97396E+00  5.77802E+00  9.88031E-01  6.12935E+00
   4.44896E+00  4.50943E+00  3.80824E+00  8.03654E+00  6.22348E+00  7.11190E+00  6.39585E+00  1.10434E+01  6.91357E+00  8.35059E+00
   6.20144E+00  8.68662E+00  9.53596E+00  6.44686E+00  6.80456E+00  1.01350E+01  6.36256E+00  6.73362E+00  3.40697E+00  5.30218E+00
   9.42064E+00  8.54564E+00  1.32811E+01  7.65256E+00  1.18867E+01  1.33668E+01  1.04530E+01  1.15855E+01  8.82556E+00  1.54185E+01
   1.17074E+01  1.38667E+01  1.41763E+01  1.09023E+01  1.30630E+01  1.47104E+01  1.45978E+01  1.24367E+01  1.93169E+01  2.10287E+01
   1.80476E+01  1.77743E+01  2.01833E+01  1.84779E+01  1.66484E+01  2.30851E+01  1.94557E+01  1.83116E+01  2.31935E+01  1.95516E+01
   1.78494E+01  1.94097E+01  2.28298E+01  2.39991E+01  2.32217E+01  2.56844E+01  2.23330E+01  2.65796E+01  2.76957E+01  2.83574E+01
   2.70520E+01  2.81585E+01  2.34899E+01  2.51400E+01  1.95411E+01  1.85099E+01  1.75893E+01  1.72656E+01  1.62821E+01  1.25662E+01
   1.26156E+01  9.23128E+00  1.50645E+01  1.70735E+01  1.19580E+01  8.82316E+00  1.63689E+01  1.28539E+01  1.15165E+01  1.11200E+01
   1.37343E+01  7.93654E+00  1.31420E+01  1.51241E+01  1.34854E+01  1.38589E+01  1.89842E+01  9.42995E+00  1.23085E+01  7.21767E+00
   9.18882E+00  1.07012E+01  6.93142E+00  8.25020E+00  1.06214E+01  1.09898E+01  7.81974E+00  5.26205E+00  7.29414E+00  5.67142E+00
   9.03995E+00  8.81449E+00  1.30186E+01  7.40265E+00  7.49006E+00  1.15047E+01  1.25826E+01  7.01801E+00  8.97335E+00  1.14170E+01
   9.16418E+00  8.56928E+00  1.07079E+01  1.32679E+01  1.54815E+01  1.64750E+01  1.66075E+01  1.35046E+01  1.62674E+01  1.50222E+01
   1.90501E+01  2.02696E+01  1.33439E+01  1.83680E+01  1.69486E+01  1.54321E+01  1.59420E+01  1.96256E+01  1.23432E+01  1.59933E+01
   1.94564E+01  1.38155E+01  1.71117E+01  1.19779E+01  1.49046E+01  1.38548E+01  1.14238E+01  9.18301E+00  1.37174E+01  1.26277E+01
   1.26334E+01  8.96770E+00  7.81896E+00  7.65364E+00  9.38197E+00  9.98342E+00  2.08472E+00  3.73702E+00  5.69567E+00  5.81042E+00
   2.25428E+00  2.42657E+00  6.56197E+00  8.68469E-01  2.05391E+00 -1.25571E+00  5.37753E+00  4.01873E+00  1.27331E+00  2.04270E+00
   3.41003E+00  4.42216E+00  2.11635E+00  2.62874E+00  1.74548E-01  8.85871E-01  2.05597E+00 -1.44883E+00  3.83544E-01  1.11895E+00
   4.33466E+00  3.71204E+00  7.75049E-01 -2.21058E+00  2.24306E+00  5.86185E-01  1.95144E+00 -5.14607E-01  3.92178E+00  3.95667E+00
  -2.62631E-02  1.47403E+00  1.21901E+00 -5.20950E-01 -2.95721E+00 -2.54048E-01 -3.43076E+00  2.14066E+00  4.83201E+00 -8.17635E-01
  -2.23086E+00  6.21366E-01  1.01361E+00 -2.15500E+00 -1.62501E+00  2.55543E+00 -1.23796E+00 -3.74067E+00 -1.24108E+00  1.89799E-01
   1.98841E+00 -5.44648E-01 -3.40886E+00 -4.46861E+00  1.87838E+00 -3.08206E+00  1.32120E+00 -6.74621E-03  6.04563E+00  3.14611E+00
   2.33287E+00 -1.58438E+00 -2.07290E+00 -1.06809E+00  1.33397E+00 -4.58975E-01 -1.87411E+00 -3.33387E+00
 NY points of the fit to the data follow
   8.97313E+00  1.07811E+01  1.11348E+01  1.37147E+01  1.39438E+01  1.69468E+01  1.66482E+01  1.90726E+01  1.81436E+01  1.94662E+01
   1.78771E+01  1.81631E+01  1.61252E+01  1.56892E+01  1.33916E+01  1.27405E+01  1.02707E+01  9.75091E+00  8.09485E+00  8.15394E+00
   6.90689E+00  7.26064E+00  6.27355E+00  6.69920E+00  6.28499E+00  7.11782E+00  7.41072E+00  8.46505E+00  8.92359E+00  9.57638E+00
   9.57233E+00  9.70564E+00  9.25555E+00  8.96200E+00  8.27540E+00  8.09296E+00  7.90730E+00  8.06362E+00  8.23525E+00  8.46647E+00
   9.10073E+00  9.41048E+00  1.03451E+01  1.06477E+01  1.15973E+01  1.14859E+01  1.18559E+01  1.10659E+01  1.08639E+01  9.78135E+00
   9.37001E+00  8.19699E+00  7.61709E+00  6.60623E+00  6.30597E+00  5.62349E+00  5.67184E+00  5.11399E+00  5.34475E+00  4.68462E+00
   4.79126E+00  3.94488E+00  3.99667E+00  3.29084E+00  3.60468E+00  3.11733E+00  3.60560E+00  3.23294E+00  3.75495E+00  3.47784E+00
   3.83696E+00  3.57996E+00  3.68682E+00  3.46794E+00  3.65222E+00  3.69037E+00  3.65950E+00  3.79443E+00  3.52277E+00  3.78012E+00
   3.40361E+00  3.87176E+00  3.26987E+00  3.88674E+00  2.71621E+00  3.31854E+00  1.73853E+00  2.29146E+00  8.14321E-01  1.55560E+00
   1.01324E+00  4.90001E+00  5.53086E+00  1.05659E+01  1.15148E+01  1.66269E+01  1.79658E+01  2.41510E+01  2.57996E+01  3.20190E+01
   3.29467E+01  3.56337E+01  3.51110E+01  3.38178E+01  3.19346E+01  2.84032E+01  2.58282E+01  2.10320E+01  1.84615E+01  1.43629E+01
   1.23031E+01  9.08298E+00  7.69757E+00  5.91637E+00  5.72890E+00  5.82922E+00  6.54214E+00  7.65437E+00  8.81693E+00  1.17840E+01
   1.33793E+01  1.73456E+01  1.89857E+01  2.32500E+01  2.36906E+01  2.64336E+01  2.49574E+01  2.56871E+01  2.30075E+01  2.23347E+01
   1.92459E+01  1.74602E+01  1.45763E+01  1.26226E+01  1.04365E+01  8.65938E+00  7.39521E+00  6.05731E+00  5.44613E+00  4.21389E+00
   3.83065E+00  2.60940E+00  2.54736E+00  1.91415E+00  2.01673E+00  1.50665E+00  1.47636E+00  1.05665E+00  9.29987E-01  5.33458E-01
   4.05969E-01  3.18666E-02 -6.04327E-02 -3.30607E-01 -4.74235E-01 -7.44742E-01 -9.26297E-01 -1.20587E+00 -1.35107E+00 -1.52499E+00
  -1.67227E+00 -1.75305E+00 -1.98377E+00 -2.12842E+00 -2.49265E+00 -2.69609E+00 -3.00981E+00 -3.25282E+00 -3.50015E+00 -3.87312E+00
  -4.05138E+00 -4.47515E+00 -4.50764E+00 -4.93564E+00 -4.79242E+00 -5.27019E+00 -4.98718E+00 -5.44018E+00 -5.02162E+00 -5.25167E+00
  -4.69817E+00 -4.74608E+00 -4.25149E+00 -4.15099E+00 -3.72550E+00 -3.34677E+00 -3.15937E+00 -2.57391E+00 -2.61605E+00 -1.82846E+00
  -2.14071E+00 -1.20799E+00 -1.72538E+00 -5.98790E-01 -1.11226E+00  1.59859E-01 -2.85055E-01  7.32176E-01  2.06526E-01  1.15208E+00
   4.63870E-01  1.09751E+00  5.88518E-02  3.37964E-01 -9.71015E-01 -5.29880E-01 -1.93736E+00 -8.78467E-01 -1.98437E+00 -4.55725E-01
  -1.15044E+00  5.11623E-01  2.97244E-02  1.72844E+00  1.08563E+00  2.37944E+00  1.49264E+00  2.36501E+00  1.48494E+00  2.01539E+00
   1.39149E+00  2.08067E+00  1.94735E+00  2.61384E+00  2.71168E+00  3.33591E+00  3.52420E+00  4.27048E+00  4.41602E+00  5.08368E+00
   5.00120E+00  5.65462E+00  5.50667E+00  6.35960E+00  6.27537E+00  7.23604E+00  7.06848E+00  7.81748E+00  7.39607E+00  7.87038E+00
   7.52296E+00  7.95115E+00  7.95860E+00  8.54699E+00  8.94943E+00  9.67219E+00  1.03859E+01  1.16621E+01  1.49302E+01  1.79699E+01
   2.16146E+01  2.55613E+01  2.84587E+01  3.31541E+01  3.60936E+01  4.18891E+01  4.39901E+01  5.00465E+01  4.82001E+01  5.25029E+01
   4.67259E+01  4.87424E+01  4.12618E+01  4.15523E+01  3.35779E+01  3.26154E+01  2.60653E+01  2.47859E+01  1.97202E+01  1.84334E+01
   1.51191E+01  1.40965E+01  1.15849E+01  1.05416E+01  8.51999E+00  7.54086E+00  6.99231E+00  6.58847E+00  6.24534E+00  5.95072E+00
   5.72892E+00  5.53018E+00  5.39581E+00  5.29555E+00  5.25965E+00  5.25870E+00  5.31766E+00  5.41078E+00  5.55622E+00  5.73911E+00
   5.97312E+00  6.24044E+00  6.54836E+00  6.88220E+00  7.24278E+00  7.61857E+00  8.00431E+00  8.38974E+00  8.77182E+00  9.14023E+00
   9.49296E+00  9.82106E+00  1.01256E+01  1.04011E+01  1.06523E+01  1.08783E+01  1.10882E+01  1.12863E+01  1.14861E+01  1.16976E+01
   1.19389E+01  1.22276E+01  1.25923E+01  1.30779E+01  1.37964E+01  1.47751E+01  1.53228E+01  1.64184E+01  1.66888E+01  1.78143E+01
   1.78413E+01  1.89631E+01  1.83858E+01  1.97761E+01  1.87252E+01  1.98869E+01  1.87205E+01  1.96139E+01  1.87379E+01  1.98436E+01
   1.95945E+01  2.10561E+01  2.16958E+01  2.31548E+01  2.42452E+01  2.55700E+01  2.64384E+01  2.69133E+01  2.72191E+01  2.65828E+01
   2.63402E+01  2.49984E+01  2.43331E+01  2.28330E+01  2.18636E+01  1.96515E+01  1.86857E+01  1.60954E+01  1.53416E+01  1.32879E+01
   1.30527E+01  1.21230E+01  1.27971E+01  1.25394E+01  1.35258E+01  1.32731E+01  1.41049E+01  1.37999E+01  1.43042E+01  1.36671E+01
   1.37621E+01  1.30880E+01  1.30374E+01  1.25794E+01  1.23479E+01  1.18977E+01  1.16171E+01  1.11409E+01  1.07930E+01  1.02254E+01
   9.77535E+00  9.40570E+00  9.08049E+00  8.78895E+00  8.52832E+00  8.29927E+00  8.10413E+00  7.94614E+00  7.82898E+00  7.75647E+00
   7.73242E+00  7.76045E+00  7.84389E+00  7.98563E+00  8.18795E+00  8.45242E+00  8.77972E+00  9.16950E+00  9.62014E+00  1.01287E+01
   1.06905E+01  1.12994E+01  1.19473E+01  1.26246E+01  1.33197E+01  1.40197E+01  1.47105E+01  1.53768E+01  1.60033E+01  1.65747E+01
   1.70760E+01  1.74940E+01  1.78170E+01  1.80356E+01  1.81432E+01  1.81363E+01  1.80142E+01  1.77797E+01  1.74382E+01  1.69981E+01
   1.64698E+01  1.58656E+01  1.51989E+01  1.44837E+01  1.37342E+01  1.29639E+01  1.21857E+01  1.14112E+01  1.06505E+01  9.91203E+00
   9.20267E+00  8.52759E+00  7.89043E+00  7.29340E+00  6.73750E+00  6.22269E+00  5.74809E+00  5.31218E+00  4.91296E+00  4.54814E+00
   4.21523E+00  3.91171E+00  3.63505E+00  3.38280E+00  3.15264E+00  2.94241E+00  2.75012E+00  2.57394E+00  2.41224E+00  2.26353E+00
   2.12647E+00  1.99990E+00  1.88277E+00  1.77415E+00  1.67321E+00  1.57923E+00  1.49153E+00  1.40956E+00  1.33280E+00  1.26081E+00
   1.19316E+00  1.12949E+00  1.06947E+00  1.01283E+00  9.59289E-01  9.08628E-01  8.60604E-01  8.15042E-01  7.71749E-01  7.30592E-01
   6.91407E-01  6.54071E-01  6.18446E-01  5.84427E-01  5.51912E-01  5.20817E-01  4.91047E-01  4.62521E-01  4.35155E-01  4.08891E-01
   3.83665E-01  3.59426E-01  3.36109E-01  3.13664E-01  2.92034E-01  2.71188E-01  2.51081E-01  2.31682E-01  2.12937E-01  1.94818E-01
   1.77285E-01  1.60322E-01  1.43896E-01  1.27980E-01  1.12537E-01  9.75433E-02  8.29778E-02  6.88250E-02  5.50606E-02  4.16574E-02
   2.85894E-02  1.58389E-02  3.39195E-03 -8.76647E-03 -2.06601E-02 -3.23130E-02 -4.37466E-02 -5.49718E-02
 NY background values follow
    -2.782E+00   -2.778E+00   -2.775E+00   -2.772E+00   -2.769E+00   -2.765E+00   -2.762E+00   -2.759E+00   -2.756E+00   -2.752E+00
    -2.749E+00   -2.746E+00   -2.743E+00   -2.740E+00   -2.736E+00   -2.733E+00   -2.730E+00   -2.727E+00   -2.723E+00   -2.720E+00
    -2.717E+00   -2.714E+00   -2.710E+00   -2.707E+00   -2.704E+00   -2.701E+00   -2.698E+00   -2.694E+00   -2.691E+00   -2.688E+00
    -2.685E+00   -2.681E+00   -2.678E+00   -2.675E+00   -2.672E+00   -2.668E+00   -2.665E+00   -2.662E+00   -2.659E+00   -2.655E+00
    -2.652E+00   -2.649E+00   -2.646E+00   -2.643E+00   -2.639E+00   -2.636E+00   -2.633E+00   -2.630E+00   -2.626E+00   -2.623E+00
    -2.620E+00   -2.617E+00   -2.613E+00   -2.610E+00   -2.607E+00   -2.604E+00   -2.601E+00   -2.597E+00   -2.594E+00   -2.591E+00
    -2.588E+00   -2.584E+00   -2.581E+00   -2.578E+00   -2.575E+00   -2.571E+00   -2.568E+00   -2.565E+00   -2.562E+00   -2.559E+00
    -2.555E+00   -2.552E+00   -2.549E+00   -2.546E+00   -2.542E+00   -2.539E+00   -2.536E+00   -2.533E+00   -2.529E+00   -2.526E+00
    -2.523E+00   -2.520E+00   -2.516E+00   -2.513E+00   -2.510E+00   -2.507E+00   -2.504E+00   -2.500E+00   -2.497E+00   -2.494E+00
    -2.491E+00   -2.487E+00   -2.484E+00   -2.481E+00   -2.478E+00   -2.474E+00   -2.471E+00   -2.468E+00   -2.465E+00   -2.462E+00
    -2.458E+00   -2.455E+00   -2.452E+00   -2.449E+00   -2.445E+00   -2.442E+00   -2.439E+00   -2.436E+00   -2.432E+00   -2.429E+00
    -2.426E+00   -2.423E+00   -2.419E+00   -2.416E+00   -2.413E+00   -2.410E+00   -2.407E+00   -2.403E+00   -2.400E+00   -2.397E+00
    -2.394E+00   -2.390E+00   -2.387E+00   -2.384E+00   -2.381E+00   -2.377E+00   -2.374E+00   -2.371E+00   -2.368E+00   -2.365E+00
    -2.361E+00   -2.358E+00   -2.355E+00   -2.352E+00   -2.348E+00   -2.345E+00   -2.342E+00   -2.339E+00   -2.335E+00   -2.332E+00
    -2.329E+00   -2.326E+00   -2.323E+00   -2.319E+00   -2.316E+00   -2.313E+00   -2.310E+00   -2.306E+00   -2.303E+00   -2.300E+00
    -2.297E+00   -2.293E+00   -2.290E+00   -2.287E+00   -2.284E+00   -2.280E+00   -2.277E+00   -2.274E+00   -2.271E+00   -2.268E+00
    -2.264E+00   -2.261E+00   -2.258E+00   -2.255E+00   -2.251E+00   -2.248E+00   -2.245E+00   -2.242E+00   -2.238E+00   -2.235E+00
    -2.232E+00   -2.229E+00   -2.226E+00   -2.222E+00   -2.219E+00   -2.216E+00   -2.213E+00   -2.209E+00   -2.206E+00   -2.203E+00
    -2.200E+00   -2.196E+00   -2.193E+00   -2.190E+00   -2.187E+00   -2.184E+00   -2.180E+00   -2.177E+00   -2.174E+00   -2.171E+00
    -2.167E+00   -2.164E+00   -2.161E+00   -2.158E+00   -2.154E+00   -2.151E+00   -2.148E+00   -2.145E+00   -2.142E+00   -2.138E+00
    -2.135E+00   -2.132E+00   -2.129E+00   -2.125E+00   -2.122E+00   -2.119E+00   -2.116E+00   -2.112E+00   -2.109E+00   -2.106E+00
    -2.103E+00   -2.100E+00   -2.096E+00   -2.093E+00   -2.090E+00   -2.087E+00   -2.083E+00   -2.080E+00   -2.077E+00   -2.074E+00
    -2.070E+00   -2.067E+00   -2.064E+00   -2.061E+00   -2.058E+00   -2.054E+00   -2.051E+00   -2.048E+00   -2.045E+00   -2.041E+00
    -2.038E+00   -2.035E+00   -2.032E+00   -2.029E+00   -2.025E+00   -2.022E+00   -2.019E+00   -2.016E+00   -2.012E+00   -2.009E+00
    -2.006E+00   -2.003E+00   -1.999E+00   -1.996E+00   -1.993E+00   -1.990E+00   -1.987E+00   -1.983E+00   -1.980E+00   -1.977E+00
    -1.974E+00   -1.970E+00   -1.967E+00   -1.964E+00   -1.961E+00   -1.957E+00   -1.954E+00   -1.951E+00   -1.948E+00   -1.945E+00
    -1.941E+00   -1.938E+00   -1.935E+00   -1.932E+00   -1.928E+00   -1.925E+00   -1.922E+00   -1.919E+00   -1.916E+00   -1.912E+00
    -1.909E+00   -1.906E+00   -1.903E+00   -1.899E+00   -1.896E+00   -1.893E+00   -1.890E+00   -1.886E+00   -1.883E+00   -1.880E+00
    -1.877E+00   -1.874E+00   -1.870E+00   -1.867E+00   -1.864E+00   -1.861E+00   -1.857E+00   -1.854E+00   -1.851E+00   -1.848E+00
    -1.845E+00   -1.841E+00   -1.838E+00   -1.835E+00   -1.832E+00   -1.828E+00   -1.825E+00   -1.822E+00   -1.819E+00   -1.816E+00
    -1.812E+00   -1.809E+00   -1.806E+00   -1.803E+00   -1.799E+00   -1.796E+00   -1.793E+00   -1.790E+00   -1.786E+00   -1.783E+00
    -1.780E+00   -1.777E+00   -1.774E+00   -1.770E+00   -1.767E+00   -1.764E+00   -1.761E+00   -1.757E+00   -1.754E+00   -1.751E+00
    -1.748E+00   -1.745E+00   -1.741E+00   -1.738E+00   -1.735E+00   -1.732E+00   -1.728E+00   -1.725E+00   -1.722E+00   -1.719E+00
    -1.716E+00   -1.712E+00   -1.709E+00   -1.706E+00   -1.703E+00   -1.699E+00   -1.696E+00   -1.693E+00   -1.690E+00   -1.687E+00
    -1.683E+00   -1.680E+00   -1.677E+00   -1.674E+00   -1.670E+00   -1.667E+00   -1.664E+00   -1.661E+00   -1.658E+00   -1.654E+00
    -1.651E+00   -1.648E+00   -1.645E+00   -1.641E+00   -1.638E+00   -1.635E+00   -1.632E+00   -1.629E+00   -1.625E+00   -1.622E+00
    -1.619E+00   -1.616E+00   -1.612E+00   -1.609E+00   -1.606E+00   -1.603E+00   -1.600E+00   -1.596E+00   -1.593E+00   -1.590E+00
    -1.587E+00   -1.583E+00   -1.580E+00   -1.577E+00   -1.574E+00   -1.571E+00   -1.567E+00   -1.564E+00   -1.561E+00   -1.558E+00
    -1.554E+00   -1.551E+00   -1.548E+00   -1.545E+00   -1.542E+00   -1.538E+00   -1.535E+00   -1.532E+00   -1.529E+00   -1.525E+00
    -1.522E+00   -1.519E+00   -1.516E+00   -1.513E+00   -1.509E+00   -1.506E+00   -1.503E+00   -1.500E+00   -1.497E+00   -1.493E+00
    -1.490E+00   -1.487E+00   -1.484E+00   -1.480E+00   -1.477E+00   -1.474E+00   -1.471E+00   -1.468E+00   -1.464E+00   -1.461E+00
    -1.458E+00   -1.455E+00   -1.451E+00   -1.448E+00   -1.445E+00   -1.442E+00   -1.439E+00   -1.435E+00   -1.432E+00   -1.429E+00
    -1.426E+00   -1.422E+00   -1.419E+00   -1.416E+00   -1.413E+00   -1.410E+00   -1.406E+00   -1.403E+00   -1.400E+00   -1.397E+00
    -1.394E+00   -1.390E+00   -1.387E+00   -1.384E+00   -1.381E+00   -1.377E+00   -1.374E+00   -1.371E+00   -1.368E+00   -1.365E+00
    -1.361E+00   -1.358E+00   -1.355E+00   -1.352E+00   -1.348E+00   -1.345E+00   -1.342E+00   -1.339E+00   -1.336E+00   -1.332E+00
    -1.329E+00   -1.326E+00   -1.323E+00   -1.320E+00   -1.316E+00   -1.313E+00   -1.310E+00   -1.307E+00   -1.303E+00   -1.300E+00
    -1.297E+00   -1.294E+00   -1.291E+00   -1.287E+00   -1.284E+00   -1.281E+00   -1.278E+00   -1.274E+00   -1.271E+00   -1.268E+00
    -1.265E+00   -1.262E+00   -1.258E+00   -1.255E+00   -1.252E+00   -1.249E+00   -1.246E+00   -1.242E+00   -1.239E+00   -1.236E+00
    -1.233E+00   -1.229E+00   -1.226E+00   -1.223E+00   -1.220E+00   -1.217E+00   -1.213E+00   -1.210E+00   -1.207E+00   -1.204E+00
    -1.201E+00   -1.197E+00   -1.194E+00   -1.191E+00   -1.188E+00   -1.184E+00   -1.181E+00   -1.178E+00
 Ala      Conc. = 7.97E+02
