 LCModel (Version 6.3-1L) Copyright: S.W. Provencher.          Ref.: Magn. Reson. Med. 30:672-679 (1993).                
 Slice#1 Row#6 Col#10  PD_24_press_1_raw_act
 36 lines in following concentration table = NCONC+1
    Conc.  %SD /Cr+PCr  Metabolite                                         
    0.000 999%   0.000 Ala                                                 
   14.951 999% 1.8E-02 Asp                                                 
  311.955  62%   0.384 Cr                                                  
  501.233  39%   0.616 PCr                                                 
    0.000 999%   0.000 GABA                                                
   66.402 173% 8.2E-02 Glc                                                 
  550.755  42%   0.677 Gln                                                 
 1.36E+03  19%   1.673 Glu                                                 
  447.335   4%   0.550 GPC                                                 
    0.000 999%   0.000 PCh                                                 
  138.929  47%   0.171 GSH                                                 
  910.389  23%   1.120 Ins                                                 
    0.000 999%   0.000 Lac                                                 
 1.74E+03   7%   2.143 NAA                                                 
   17.693 750% 2.2E-02 NAAG                                                
  115.424  20%   0.142 Scyllo                                              
    0.000 999%   0.000 Tau                                                 
  377.680  22%   0.464 -CrCH2                                              
  447.335   4%   0.550 GPC+PCh                                             
 1.76E+03   4%   2.165 NAA+NAAG                                            
  813.188   6%   1.000 Cr+PCr                                              
 1.91E+03  20%   2.350 Glu+Gln                                             
    0.000 999%   0.000 Lip13a                                              
    0.000 999%   0.000 Lip13b                                              
    0.000 999%   0.000 Lip09                                               
  959.459  13%   1.180 MM09                                                
    0.000 999%   0.000 Lip20                                               
 1.28E+03  19%   1.577 MM20                                                
  360.203  25%   0.443 MM12                                                
  833.221  23%   1.025 MM14                                                
  693.771  24%   0.853 MM17                                                
    0.000 999%   0.000 Lip13a+Lip13b                                       
 1.19E+03  18%   1.468 MM14+Lip13a+Lip13b+MM12                             
  959.459  13%   1.180 MM09+Lip09                                          
 1.28E+03  19%   1.577 MM20+Lip20                                          
   6 lines in following misc. output table
  FWHM = 0.069 ppm    S/N =   9                                            
  Data shift = 0.015 ppm                                                   
  Ph: -39 deg      -7.2 deg/ppm                                            
  alphaB,S = 8.5E+01,   3.1E+02                                            
   14 spline knots.   Ns = 7(1)                                            
   2 inflections.     1 extrema                                            
  498 points on ppm-axis = NY
      4.000000     3.992357     3.984714     3.977070     3.969427     3.961784     3.954141     3.946497     3.938854     3.931211
      3.923568     3.915925     3.908281     3.900638     3.892995     3.885352     3.877708     3.870065     3.862422     3.854779
      3.847136     3.839492     3.831849     3.824206     3.816563     3.808919     3.801276     3.793633     3.785990     3.778347
      3.770703     3.763060     3.755417     3.747774     3.740130     3.732487     3.724844     3.717201     3.709558     3.701914
      3.694271     3.686628     3.678985     3.671341     3.663698     3.656055     3.648412     3.640769     3.633125     3.625482
      3.617839     3.610196     3.602552     3.594909     3.587266     3.579623     3.571980     3.564336     3.556693     3.549050
      3.541407     3.533763     3.526120     3.518477     3.510834     3.503191     3.495547     3.487904     3.480261     3.472618
      3.464974     3.457331     3.449688     3.442045     3.434402     3.426758     3.419115     3.411472     3.403829     3.396185
      3.388542     3.380899     3.373256     3.365613     3.357969     3.350326     3.342683     3.335040     3.327396     3.319753
      3.312110     3.304467     3.296824     3.289180     3.281537     3.273894     3.266251     3.258607     3.250964     3.243321
      3.235678     3.228034     3.220391     3.212748     3.205105     3.197462     3.189818     3.182175     3.174532     3.166889
      3.159245     3.151602     3.143959     3.136316     3.128673     3.121029     3.113386     3.105743     3.098100     3.090456
      3.082813     3.075170     3.067527     3.059884     3.052240     3.044597     3.036954     3.029311     3.021667     3.014024
      3.006381     2.998738     2.991095     2.983451     2.975808     2.968165     2.960522     2.952878     2.945235     2.937592
      2.929949     2.922306     2.914662     2.907019     2.899376     2.891733     2.884089     2.876446     2.868803     2.861160
      2.853517     2.845873     2.838230     2.830587     2.822944     2.815300     2.807657     2.800014     2.792371     2.784728
      2.777084     2.769441     2.761798     2.754155     2.746511     2.738868     2.731225     2.723582     2.715939     2.708295
      2.700652     2.693009     2.685366     2.677722     2.670079     2.662436     2.654793     2.647150     2.639506     2.631863
      2.624220     2.616577     2.608933     2.601290     2.593647     2.586004     2.578361     2.570717     2.563074     2.555431
      2.547788     2.540144     2.532501     2.524858     2.517215     2.509572     2.501928     2.494285     2.486642     2.478999
      2.471355     2.463712     2.456069     2.448426     2.440783     2.433139     2.425496     2.417853     2.410210     2.402566
      2.394923     2.387280     2.379637     2.371994     2.364350     2.356707     2.349064     2.341421     2.333777     2.326134
      2.318491     2.310848     2.303205     2.295561     2.287918     2.280275     2.272632     2.264988     2.257345     2.249702
      2.242059     2.234416     2.226772     2.219129     2.211486     2.203843     2.196199     2.188556     2.180913     2.173270
      2.165627     2.157983     2.150340     2.142697     2.135054     2.127410     2.119767     2.112124     2.104481     2.096838
      2.089194     2.081551     2.073908     2.066265     2.058621     2.050978     2.043335     2.035692     2.028049     2.020405
      2.012762     2.005119     1.997476     1.989833     1.982190     1.974546     1.966903     1.959260     1.951617     1.943974
      1.936331     1.928688     1.921045     1.913402     1.905759     1.898115     1.890472     1.882829     1.875186     1.867543
      1.859900     1.852257     1.844614     1.836971     1.829327     1.821684     1.814041     1.806398     1.798755     1.791112
      1.783469     1.775826     1.768183     1.760540     1.752896     1.745253     1.737610     1.729967     1.722324     1.714681
      1.707038     1.699395     1.691752     1.684108     1.676465     1.668822     1.661179     1.653536     1.645893     1.638250
      1.630607     1.622964     1.615321     1.607677     1.600034     1.592391     1.584748     1.577105     1.569462     1.561819
      1.554176     1.546533     1.538890     1.531246     1.523603     1.515960     1.508317     1.500674     1.493031     1.485388
      1.477745     1.470102     1.462458     1.454815     1.447172     1.439529     1.431886     1.424243     1.416600     1.408957
      1.401314     1.393671     1.386027     1.378384     1.370741     1.363098     1.355455     1.347812     1.340169     1.332526
      1.324883     1.317240     1.309596     1.301953     1.294310     1.286667     1.279024     1.271381     1.263738     1.256095
      1.248452     1.240808     1.233165     1.225522     1.217879     1.210236     1.202593     1.194950     1.187307     1.179664
      1.172021     1.164377     1.156734     1.149091     1.141448     1.133805     1.126162     1.118519     1.110876     1.103233
      1.095590     1.087946     1.080303     1.072660     1.065017     1.057374     1.049731     1.042088     1.034445     1.026802
      1.019158     1.011515     1.003872     0.996229     0.988586     0.980943     0.973300     0.965657     0.958014     0.950371
      0.942727     0.935084     0.927441     0.919798     0.912155     0.904512     0.896869     0.889226     0.881583     0.873940
      0.866296     0.858653     0.851010     0.843367     0.835724     0.828081     0.820438     0.812795     0.805152     0.797508
      0.789865     0.782222     0.774579     0.766936     0.759293     0.751650     0.744007     0.736364     0.728721     0.721077
      0.713434     0.705791     0.698148     0.690505     0.682862     0.675219     0.667576     0.659933     0.652290     0.644646
      0.637003     0.629360     0.621717     0.614074     0.606431     0.598788     0.591145     0.583502     0.575858     0.568215
      0.560572     0.552929     0.545286     0.537643     0.530000     0.522357     0.514714     0.507071     0.499427     0.491784
      0.484141     0.476498     0.468855     0.461212     0.453569     0.445925     0.438282     0.430639     0.422996     0.415353
      0.407710     0.400067     0.392424     0.384780     0.377137     0.369494     0.361851     0.354208     0.346565     0.338922
      0.331278     0.323635     0.315992     0.308349     0.300706     0.293063     0.285420     0.277777     0.270133     0.262490
      0.254847     0.247204     0.239561     0.231918     0.224275     0.216631     0.208988     0.201345
 NY phased data points follow
   3.18235E+00 -2.47625E+00  4.81660E+00  2.66056E+00 -5.81867E-01  2.77680E+00  5.17665E+00  1.86650E+00  4.67166E+00  7.63985E+00
   8.19839E+00  6.04546E+00  9.10093E+00  2.66865E+00  8.45598E+00  1.71780E+00  2.48868E+00  2.75101E+00  2.38755E+00 -3.14185E-01
  -2.73802E+00  1.41378E+00 -2.69032E-03 -3.16536E-01  1.02713E+00  1.97263E+00  1.62454E+00 -2.56273E-01 -3.13278E+00 -4.80996E+00
   2.00061E+00 -6.14970E-01  2.76832E+00  1.22802E+00  6.36659E+00  8.21573E+00  5.55759E+00  4.53619E+00  2.95522E+00 -6.43568E-02
   2.07321E+00  2.93262E+00  1.66106E+00  8.45236E-01  5.85448E+00  7.63996E+00  6.43245E+00  2.60192E+00  2.93787E+00  5.13523E+00
   3.46926E+00  4.54037E+00 -6.81888E-01 -1.04775E+00  4.15176E+00  2.96852E+00  7.64355E-01  9.05678E-01 -7.79189E-01  6.67307E-01
   7.55814E-01 -1.20522E+00 -8.04331E+00  1.49765E+00 -1.58444E+00 -5.17520E+00 -5.97917E+00 -6.45365E+00  2.17698E+00 -5.49949E+00
  -1.27873E+00 -8.53543E+00 -5.92735E+00 -2.80029E+00 -5.13003E+00  2.16355E+00 -9.51324E-01 -2.04229E+00  7.61524E-01  1.03461E+00
  -4.24663E+00  1.54585E+00  1.00519E+00 -6.40876E-01  1.50383E+00  3.19546E+00  2.48046E+00  3.26369E+00  2.67866E+00 -2.17819E+00
   5.04075E+00  2.83203E+00  5.82619E-01  3.10679E+00  6.22081E+00  5.41071E+00  7.99321E+00  1.15039E+01  1.64797E+01  1.70489E+01
   2.46203E+01  2.64363E+01  3.42681E+01  3.58223E+01  3.15903E+01  2.57642E+01  1.97373E+01  1.20279E+01  2.76345E+00  1.30359E+00
  -1.47375E+00  8.16698E-01 -4.58560E+00 -3.86602E+00 -2.65743E+00 -3.31661E+00 -3.97511E+00 -4.75327E+00  2.33506E+00 -2.95616E-01
  -4.80760E-01  2.03035E+00  9.14096E+00  8.73516E+00  9.96487E+00  1.55748E+01  2.21208E+01  2.13861E+01  2.03051E+01  1.71218E+01
   1.76230E+01  7.28279E+00  8.01878E-01  5.89605E+00  3.68578E+00  2.57980E+00  1.99689E+00  1.57551E+00  1.32716E-01 -2.15198E-01
  -3.54361E+00 -3.41991E+00 -1.01646E+00 -4.11173E+00 -2.57529E+00 -1.14576E+00 -1.64609E+00 -5.02490E+00 -5.14578E+00 -6.20495E+00
  -1.10306E+00 -2.30172E+00 -5.96652E+00 -4.10943E+00 -3.09126E+00 -6.05188E+00 -3.37569E+00 -4.55378E+00 -1.64245E+00 -4.52701E+00
  -3.11639E+00 -3.68326E+00 -2.90839E+00 -8.94035E+00 -5.89015E+00 -5.52032E+00 -8.83604E+00 -1.20627E+01 -7.32286E+00 -1.07288E+01
  -8.05315E+00 -1.18512E+01 -1.14240E+01 -8.92705E+00 -8.56755E+00 -1.16983E+01 -1.14499E+01 -1.21120E+01 -1.21421E+01 -1.07878E+01
  -9.03574E+00 -9.81520E+00 -9.18360E+00 -6.52994E+00 -3.66142E+00 -8.52429E+00 -5.83743E+00 -7.24518E+00 -4.86318E+00 -6.10586E+00
  -4.01737E+00 -4.95026E+00 -9.01361E-01 -3.89402E+00 -2.00907E+00 -9.05046E+00 -4.83774E+00 -3.29574E+00 -9.53014E+00 -6.39706E+00
  -7.07161E+00 -5.79975E+00 -2.73870E+00 -3.14741E+00 -3.82481E+00 -2.01946E+00 -7.32867E-01 -7.18850E+00 -1.26973E+00 -3.86446E+00
  -1.84287E+00 -7.70428E+00 -3.64278E+00  1.64198E+00 -7.51567E-01  2.50947E-01  8.98764E+00  1.49680E+00 -1.77705E+00  1.36420E+00
   7.64664E-01 -4.03636E+00 -6.63094E+00 -6.45532E+00 -7.48858E+00 -4.06371E+00 -2.68736E+00  1.67991E+00  2.31766E+00 -4.20988E-01
   3.92851E+00 -2.53393E+00  2.26452E-02  3.26672E+00  4.35154E+00 -2.22551E+00 -1.53831E+00  3.08192E+00  2.63611E+00 -6.48598E-02
  -2.78770E+00 -2.11931E+00 -2.09216E-01 -5.22182E+00 -8.96918E-01 -1.29600E-01  2.98638E+00  2.68656E+00  1.73056E+00  3.79090E+00
   1.96403E+00  2.83498E+00  4.90330E+00  7.90588E+00  1.52075E+01  2.19126E+01  3.03078E+01  2.88933E+01  3.79571E+01  4.69287E+01
   5.98618E+01  5.84643E+01  5.01623E+01  3.83159E+01  2.89749E+01  2.20931E+01  1.37630E+01  6.47529E+00  4.94102E+00  1.31115E+00
   3.73169E+00  2.48798E+00 -8.04756E-01  1.03534E+00  1.45651E+00 -1.32642E+00 -7.63405E-02 -2.33585E+00  5.22750E-01 -2.48310E-01
  -6.49506E-01 -3.83266E+00 -8.94350E-02  4.16034E-01  1.50332E+00 -3.81718E+00  1.79204E-01  2.24378E+00 -4.25146E+00 -1.04015E+00
   3.20686E+00 -3.83534E+00  1.97731E+00 -2.81277E+00  2.14232E+00  7.40772E-01  6.77881E-01 -3.50670E+00  2.78183E+00 -2.18520E+00
   1.70542E+00  2.01956E+00  4.65353E+00 -9.51920E-01  4.03439E+00  1.85313E+00  2.37029E+00  6.13040E-01  2.02822E+00  5.66475E+00
   2.06631E+00  2.11423E+00  4.05574E+00  2.40110E+00  2.22613E+00  3.63446E+00  6.49907E+00  3.97327E+00  1.32295E+00  3.57693E+00
   1.89387E+00  7.24660E-01  6.74201E+00  2.81533E-01  3.06737E+00  2.06865E+00 -3.73026E-02  1.20771E+00  5.31093E+00  5.26424E+00
   2.57218E+00  3.38087E+00  2.90827E+00  7.66526E+00  3.44675E+00  9.08102E+00  6.26907E+00  1.09237E+00  2.50358E+00 -2.34823E+00
  -6.71700E-01 -5.12733E+00 -6.07834E+00 -2.28725E+00 -3.99607E+00 -3.44271E+00 -1.13870E+00 -3.28602E+00 -1.45122E+00 -2.90379E+00
   1.91528E+00  3.42755E+00  1.11115E+00  3.45910E-01 -4.43137E+00 -1.69088E+00 -3.71835E+00 -4.32326E-01 -6.47808E-01  5.29089E-01
  -2.33789E+00  4.15482E-01  1.95685E-01 -1.45903E-01  4.36556E+00 -2.11234E+00  2.90757E+00  2.38833E+00  1.43503E+00  1.91535E+00
   4.15556E+00  3.83814E+00  4.14727E+00  8.94203E-01 -2.46666E+00  4.37325E-01  2.32041E-01  6.16887E-01  2.44632E-02 -3.22516E+00
   1.15668E+00 -1.63490E-01 -6.99854E-02  2.93258E+00  1.50109E+00 -6.91160E-01  4.78350E+00  1.55610E+00  3.75180E+00 -1.19963E+00
   1.15352E+00  7.27239E-01 -4.65235E-01  1.06141E-01  5.01106E+00  2.82137E+00  6.05609E+00  1.45290E-01  3.70454E+00  1.70358E+00
   4.66709E+00  3.38648E+00  4.81405E+00  3.49024E+00  6.59897E+00  5.40891E+00  6.75943E+00  8.32526E+00  8.29743E+00  7.02856E+00
   6.83991E+00  6.53735E+00  6.09542E+00  4.55248E+00  2.61016E+00  4.42687E+00  1.10549E+00  4.12193E+00  2.12665E+00  2.52850E+00
  -3.36399E+00 -5.53200E+00 -2.51996E+00  1.39649E+00  6.73334E-01 -1.68740E+00 -2.13570E+00 -6.34055E+00  7.15278E-03 -3.01684E+00
  -3.05647E+00 -2.61605E+00 -4.63390E-01 -5.81582E+00 -1.21747E+00 -1.12843E+00 -1.92045E+00 -2.98448E+00 -2.09839E+00  2.96447E+00
  -1.79826E+00 -7.46253E-01 -3.00266E+00 -6.71978E+00  1.95740E-01 -9.77126E-01 -2.37989E+00 -4.74505E+00 -4.09177E+00 -5.02183E+00
  -9.39409E-01  1.59872E+00  4.22045E-01 -1.40523E+00  1.94643E+00 -2.34350E+00 -3.52077E+00 -5.50968E-01 -3.30042E+00 -3.53630E-01
   1.77774E+00 -5.70279E-01 -1.73240E+00  7.88025E-01  5.44348E-01 -4.33799E+00  1.24922E-01 -3.10054E-01 -1.86138E+00 -4.77324E+00
  -1.35760E-01  2.52608E+00 -2.77110E+00 -2.84722E+00 -2.09200E+00  4.95336E-01 -4.74607E+00 -1.80772E+00 -2.86133E+00 -3.34787E+00
  -2.72953E+00 -2.97064E+00 -1.47733E+00  1.45279E+00  3.37959E+00 -4.17530E+00  1.03434E+00 -2.98559E+00  2.81700E+00  2.44054E-01
   1.47217E+00 -4.83709E+00  4.34124E+00 -3.66604E-01 -4.34283E+00  2.43899E+00 -4.72399E-01  3.71562E+00
 NY points of the fit to the data follow
  -5.55768E-01 -5.25509E-01 -1.55642E-01  4.12163E-01  1.27795E+00  2.49740E+00  3.84660E+00  5.12344E+00  6.20468E+00  7.02982E+00
   7.53723E+00  7.63844E+00  7.26157E+00  6.42095E+00  5.24668E+00  3.92626E+00  2.64101E+00  1.53267E+00  6.49050E-01 -4.77134E-03
  -3.55827E-01 -5.54350E-01 -7.92147E-01 -9.92779E-01 -1.06942E+00 -9.93434E-01 -7.34800E-01 -3.03222E-01  3.26047E-01  1.11580E+00
   2.00757E+00  2.88582E+00  3.55273E+00  3.82462E+00  3.64349E+00  3.04994E+00  2.13826E+00  1.02632E+00 -8.89692E-03 -6.31543E-01
  -6.48216E-01 -4.38245E-02  1.01184E+00  2.21148E+00  3.33812E+00  4.25176E+00  4.87997E+00  5.13092E+00  4.89877E+00  4.17882E+00
   3.08738E+00  1.80005E+00  5.36721E-01 -5.11936E-01 -1.20470E+00 -1.50232E+00 -1.46367E+00 -1.20937E+00 -8.96280E-01 -6.61937E-01
  -5.70237E-01 -6.52493E-01 -8.99786E-01 -1.26414E+00 -1.65269E+00 -1.94964E+00 -2.09998E+00 -2.08901E+00 -1.91893E+00 -1.63678E+00
  -1.31442E+00 -1.02660E+00 -8.36543E-01 -7.68146E-01 -8.12301E-01 -9.34385E-01 -1.08594E+00 -1.22915E+00 -1.31991E+00 -1.24976E+00
  -8.71900E-01 -3.09680E-01  2.71411E-01  8.21879E-01  1.35071E+00  1.83408E+00  2.16741E+00  2.21639E+00  1.91285E+00  1.33077E+00
   6.20562E-01 -6.54037E-02 -5.89787E-01 -8.10259E-01 -3.66109E-01  1.80690E+00  5.87204E+00  1.07541E+01  1.58043E+01  2.08811E+01
   2.58970E+01  3.03441E+01  3.32217E+01  3.35328E+01  3.09280E+01  2.59088E+01  1.94815E+01  1.27383E+01  6.57977E+00  1.61890E+00
  -1.70481E+00 -3.13885E+00 -3.41372E+00 -3.41274E+00 -3.33932E+00 -3.22930E+00 -3.08717E+00 -2.89195E+00 -2.56382E+00 -1.75392E+00
   1.39521E-01  2.96731E+00  6.20650E+00  9.55860E+00  1.29286E+01  1.61696E+01  1.88552E+01  2.03431E+01  2.01025E+01  1.80610E+01
   1.46421E+01  1.05135E+01  6.33291E+00  2.60565E+00 -3.37423E-01 -2.23254E+00 -3.06020E+00 -3.35661E+00 -3.48211E+00 -3.50228E+00
  -3.44028E+00 -3.32907E+00 -3.20484E+00 -3.10547E+00 -3.06918E+00 -3.10626E+00 -3.19776E+00 -3.32010E+00 -3.44870E+00 -3.56072E+00
  -3.64671E+00 -3.70130E+00 -3.73485E+00 -3.78363E+00 -3.90033E+00 -4.06562E+00 -4.23895E+00 -4.37780E+00 -4.46326E+00 -4.55344E+00
  -4.66303E+00 -4.75027E+00 -4.77011E+00 -4.72565E+00 -4.67314E+00 -4.68360E+00 -4.79932E+00 -5.02088E+00 -5.33562E+00 -5.75451E+00
  -6.20524E+00 -6.56272E+00 -6.79239E+00 -6.92461E+00 -7.02889E+00 -7.10931E+00 -7.10087E+00 -6.97786E+00 -6.79005E+00 -6.63187E+00
  -6.56059E+00 -6.49842E+00 -6.37092E+00 -6.16250E+00 -5.89014E+00 -5.55531E+00 -5.09875E+00 -4.50720E+00 -3.82796E+00 -3.13494E+00
  -2.52780E+00 -2.09858E+00 -1.89045E+00 -1.88926E+00 -2.04070E+00 -2.26493E+00 -2.43721E+00 -2.43495E+00 -2.22303E+00 -1.78916E+00
  -1.17625E+00 -5.04128E-01  8.60750E-02  3.38286E-01  1.16077E-01 -5.58037E-01 -1.66013E+00 -3.03923E+00 -4.41151E+00 -5.39448E+00
  -5.68526E+00 -5.26788E+00 -4.20472E+00 -2.65905E+00 -9.06224E-01  6.14232E-01  1.38891E+00  1.17841E+00  9.92348E-02 -1.64809E+00
  -3.69536E+00 -5.60117E+00 -6.97716E+00 -7.46076E+00 -6.92094E+00 -5.50629E+00 -3.60578E+00 -1.69904E+00 -9.69922E-02  9.82579E-01
   1.48867E+00  1.51110E+00  1.22953E+00  9.04918E-01  7.17679E-01  7.00221E-01  7.66725E-01  8.78963E-01  1.01860E+00  1.14269E+00
   1.16335E+00  1.04655E+00  8.56192E-01  6.71406E-01  5.55461E-01  5.47222E-01  7.07244E-01  1.05261E+00  1.52179E+00  2.05799E+00
   2.63483E+00  3.30739E+00  4.57492E+00  8.15734E+00  1.40502E+01  2.09861E+01  2.81701E+01  3.54083E+01  4.25430E+01  4.87523E+01
   5.26185E+01  5.28399E+01  4.90750E+01  4.20847E+01  3.32421E+01  2.39844E+01  1.54605E+01  8.47786E+00  3.70669E+00  1.53711E+00
   7.47537E-01  3.23863E-01  7.26120E-02 -5.46584E-02 -1.06258E-01 -1.40048E-01 -1.73599E-01 -2.24974E-01 -3.07842E-01 -4.22557E-01
  -5.58906E-01 -7.02521E-01 -8.30912E-01 -9.23071E-01 -9.74470E-01 -9.92882E-01 -9.85303E-01 -9.56154E-01 -9.07961E-01 -8.42919E-01
  -7.62144E-01 -6.61949E-01 -5.39201E-01 -3.93536E-01 -2.25673E-01 -3.74939E-02  1.68563E-01  3.89121E-01  6.20314E-01  8.58424E-01
   1.09937E+00  1.33821E+00  1.57012E+00  1.78996E+00  1.99298E+00  2.17473E+00  2.33184E+00  2.46175E+00  2.56336E+00  2.63682E+00
   2.68378E+00  2.70676E+00  2.70943E+00  2.69578E+00  2.67021E+00  2.63717E+00  2.60126E+00  2.56645E+00  2.53616E+00  2.51272E+00
   2.49770E+00  2.49150E+00  2.49373E+00  2.50278E+00  2.51636E+00  2.53135E+00  2.54446E+00  2.55207E+00  2.55084E+00  2.53736E+00
   2.50889E+00  2.46307E+00  2.39856E+00  2.31460E+00  2.21144E+00  2.08984E+00  1.95146E+00  1.79844E+00  1.63371E+00  1.46033E+00
   1.28181E+00  1.10147E+00  9.22820E-01  7.49065E-01  5.83388E-01  4.28390E-01  2.86419E-01  1.59126E-01  4.79181E-02 -4.64513E-02
  -1.23500E-01 -1.83471E-01 -2.26891E-01 -2.54906E-01 -2.68771E-01 -2.70230E-01 -2.61079E-01 -2.43567E-01 -2.19879E-01 -1.92437E-01
  -1.63381E-01 -1.34942E-01 -1.08993E-01 -8.74206E-02 -7.16018E-02 -6.27340E-02 -6.13764E-02 -6.78873E-02 -8.20393E-02 -1.03431E-01
  -1.31048E-01 -1.63688E-01 -1.99600E-01 -2.36994E-01 -2.73692E-01 -3.07555E-01 -3.36072E-01 -3.56794E-01 -3.66988E-01 -3.64102E-01
  -3.45370E-01 -3.08206E-01 -2.49783E-01 -1.67495E-01 -5.86398E-02  7.90708E-02  2.47840E-01  4.49282E-01  6.84693E-01  9.54431E-01
   1.25810E+00  1.59397E+00  1.95924E+00  2.34952E+00  2.75924E+00  3.18115E+00  3.60684E+00  4.02659E+00  4.43008E+00  4.80640E+00
   5.14496E+00  5.43550E+00  5.66904E+00  5.83795E+00  5.93684E+00  5.96244E+00  5.91416E+00  5.79366E+00  5.60518E+00  5.35489E+00
   5.05093E+00  4.70256E+00  4.32003E+00  3.91361E+00  3.49357E+00  3.06935E+00  2.64968E+00  2.24182E+00  1.85189E+00  1.48434E+00
   1.14242E+00  8.27974E-01  5.41900E-01  2.83951E-01  5.32965E-02 -1.51662E-01 -3.32688E-01 -4.91937E-01 -6.31454E-01 -7.53493E-01
  -8.60051E-01 -9.53178E-01 -1.03453E+00 -1.10577E+00 -1.16817E+00 -1.22306E+00 -1.27141E+00 -1.31424E+00 -1.35219E+00 -1.38598E+00
  -1.41608E+00 -1.44305E+00 -1.46723E+00 -1.48903E+00 -1.50864E+00 -1.52636E+00 -1.54233E+00 -1.55685E+00 -1.56998E+00 -1.58196E+00
  -1.59277E+00 -1.60261E+00 -1.61149E+00 -1.61961E+00 -1.62694E+00 -1.63362E+00 -1.63961E+00 -1.64504E+00 -1.64988E+00 -1.65430E+00
  -1.65823E+00 -1.66176E+00 -1.66483E+00 -1.66758E+00 -1.66995E+00 -1.67206E+00 -1.67384E+00 -1.67536E+00 -1.67656E+00 -1.67757E+00
  -1.67833E+00 -1.67893E+00 -1.67928E+00 -1.67946E+00 -1.67942E+00 -1.67926E+00 -1.67892E+00 -1.67848E+00 -1.67784E+00 -1.67711E+00
  -1.67621E+00 -1.67526E+00 -1.67417E+00 -1.67303E+00 -1.67173E+00 -1.67038E+00 -1.66891E+00 -1.66744E+00 -1.66586E+00 -1.66426E+00
  -1.66253E+00 -1.66080E+00 -1.65900E+00 -1.65722E+00 -1.65536E+00 -1.65351E+00 -1.65158E+00 -1.64969E+00
 NY background values follow
    -4.775E+00   -4.769E+00   -4.764E+00   -4.759E+00   -4.754E+00   -4.748E+00   -4.743E+00   -4.738E+00   -4.732E+00   -4.727E+00
    -4.722E+00   -4.716E+00   -4.711E+00   -4.706E+00   -4.701E+00   -4.695E+00   -4.690E+00   -4.685E+00   -4.679E+00   -4.674E+00
    -4.669E+00   -4.663E+00   -4.658E+00   -4.653E+00   -4.647E+00   -4.642E+00   -4.637E+00   -4.631E+00   -4.626E+00   -4.621E+00
    -4.615E+00   -4.610E+00   -4.605E+00   -4.599E+00   -4.594E+00   -4.589E+00   -4.583E+00   -4.578E+00   -4.573E+00   -4.567E+00
    -4.562E+00   -4.557E+00   -4.551E+00   -4.546E+00   -4.541E+00   -4.535E+00   -4.530E+00   -4.525E+00   -4.519E+00   -4.514E+00
    -4.509E+00   -4.503E+00   -4.498E+00   -4.493E+00   -4.487E+00   -4.482E+00   -4.477E+00   -4.471E+00   -4.466E+00   -4.460E+00
    -4.455E+00   -4.450E+00   -4.444E+00   -4.439E+00   -4.434E+00   -4.428E+00   -4.423E+00   -4.417E+00   -4.412E+00   -4.407E+00
    -4.401E+00   -4.396E+00   -4.391E+00   -4.385E+00   -4.380E+00   -4.374E+00   -4.369E+00   -4.364E+00   -4.358E+00   -4.353E+00
    -4.348E+00   -4.342E+00   -4.337E+00   -4.331E+00   -4.326E+00   -4.321E+00   -4.315E+00   -4.310E+00   -4.304E+00   -4.299E+00
    -4.294E+00   -4.288E+00   -4.283E+00   -4.277E+00   -4.272E+00   -4.267E+00   -4.261E+00   -4.256E+00   -4.250E+00   -4.245E+00
    -4.240E+00   -4.234E+00   -4.229E+00   -4.223E+00   -4.218E+00   -4.212E+00   -4.207E+00   -4.202E+00   -4.196E+00   -4.191E+00
    -4.185E+00   -4.180E+00   -4.174E+00   -4.169E+00   -4.164E+00   -4.158E+00   -4.153E+00   -4.147E+00   -4.142E+00   -4.136E+00
    -4.131E+00   -4.126E+00   -4.120E+00   -4.115E+00   -4.109E+00   -4.104E+00   -4.098E+00   -4.093E+00   -4.088E+00   -4.082E+00
    -4.077E+00   -4.071E+00   -4.066E+00   -4.060E+00   -4.055E+00   -4.049E+00   -4.044E+00   -4.039E+00   -4.033E+00   -4.028E+00
    -4.022E+00   -4.017E+00   -4.011E+00   -4.006E+00   -4.000E+00   -3.995E+00   -3.989E+00   -3.984E+00   -3.979E+00   -3.973E+00
    -3.968E+00   -3.962E+00   -3.957E+00   -3.951E+00   -3.946E+00   -3.940E+00   -3.935E+00   -3.929E+00   -3.924E+00   -3.918E+00
    -3.913E+00   -3.907E+00   -3.902E+00   -3.896E+00   -3.891E+00   -3.885E+00   -3.880E+00   -3.875E+00   -3.869E+00   -3.864E+00
    -3.858E+00   -3.853E+00   -3.847E+00   -3.842E+00   -3.836E+00   -3.831E+00   -3.825E+00   -3.820E+00   -3.814E+00   -3.809E+00
    -3.803E+00   -3.798E+00   -3.792E+00   -3.787E+00   -3.781E+00   -3.776E+00   -3.770E+00   -3.765E+00   -3.759E+00   -3.754E+00
    -3.748E+00   -3.743E+00   -3.737E+00   -3.732E+00   -3.726E+00   -3.721E+00   -3.715E+00   -3.710E+00   -3.704E+00   -3.699E+00
    -3.693E+00   -3.688E+00   -3.682E+00   -3.677E+00   -3.671E+00   -3.666E+00   -3.660E+00   -3.655E+00   -3.649E+00   -3.644E+00
    -3.638E+00   -3.632E+00   -3.627E+00   -3.621E+00   -3.616E+00   -3.610E+00   -3.605E+00   -3.599E+00   -3.594E+00   -3.588E+00
    -3.583E+00   -3.577E+00   -3.572E+00   -3.566E+00   -3.561E+00   -3.555E+00   -3.550E+00   -3.544E+00   -3.538E+00   -3.533E+00
    -3.527E+00   -3.522E+00   -3.516E+00   -3.511E+00   -3.505E+00   -3.500E+00   -3.494E+00   -3.489E+00   -3.483E+00   -3.478E+00
    -3.472E+00   -3.466E+00   -3.461E+00   -3.455E+00   -3.450E+00   -3.444E+00   -3.439E+00   -3.433E+00   -3.428E+00   -3.422E+00
    -3.417E+00   -3.411E+00   -3.405E+00   -3.400E+00   -3.394E+00   -3.389E+00   -3.383E+00   -3.378E+00   -3.372E+00   -3.367E+00
    -3.361E+00   -3.355E+00   -3.350E+00   -3.344E+00   -3.339E+00   -3.333E+00   -3.328E+00   -3.322E+00   -3.317E+00   -3.311E+00
    -3.305E+00   -3.300E+00   -3.294E+00   -3.289E+00   -3.283E+00   -3.278E+00   -3.272E+00   -3.266E+00   -3.261E+00   -3.255E+00
    -3.250E+00   -3.244E+00   -3.239E+00   -3.233E+00   -3.227E+00   -3.222E+00   -3.216E+00   -3.211E+00   -3.205E+00   -3.200E+00
    -3.194E+00   -3.188E+00   -3.183E+00   -3.177E+00   -3.172E+00   -3.166E+00   -3.161E+00   -3.155E+00   -3.149E+00   -3.144E+00
    -3.138E+00   -3.133E+00   -3.127E+00   -3.121E+00   -3.116E+00   -3.110E+00   -3.105E+00   -3.099E+00   -3.094E+00   -3.088E+00
    -3.082E+00   -3.077E+00   -3.071E+00   -3.066E+00   -3.060E+00   -3.054E+00   -3.049E+00   -3.043E+00   -3.038E+00   -3.032E+00
    -3.026E+00   -3.021E+00   -3.015E+00   -3.010E+00   -3.004E+00   -2.998E+00   -2.993E+00   -2.987E+00   -2.982E+00   -2.976E+00
    -2.970E+00   -2.965E+00   -2.959E+00   -2.954E+00   -2.948E+00   -2.942E+00   -2.937E+00   -2.931E+00   -2.926E+00   -2.920E+00
    -2.914E+00   -2.909E+00   -2.903E+00   -2.898E+00   -2.892E+00   -2.886E+00   -2.881E+00   -2.875E+00   -2.870E+00   -2.864E+00
    -2.858E+00   -2.853E+00   -2.847E+00   -2.842E+00   -2.836E+00   -2.830E+00   -2.825E+00   -2.819E+00   -2.814E+00   -2.808E+00
    -2.802E+00   -2.797E+00   -2.791E+00   -2.786E+00   -2.780E+00   -2.774E+00   -2.769E+00   -2.763E+00   -2.757E+00   -2.752E+00
    -2.746E+00   -2.741E+00   -2.735E+00   -2.729E+00   -2.724E+00   -2.718E+00   -2.713E+00   -2.707E+00   -2.701E+00   -2.696E+00
    -2.690E+00   -2.685E+00   -2.679E+00   -2.673E+00   -2.668E+00   -2.662E+00   -2.656E+00   -2.651E+00   -2.645E+00   -2.640E+00
    -2.634E+00   -2.628E+00   -2.623E+00   -2.617E+00   -2.611E+00   -2.606E+00   -2.600E+00   -2.595E+00   -2.589E+00   -2.583E+00
    -2.578E+00   -2.572E+00   -2.566E+00   -2.561E+00   -2.555E+00   -2.550E+00   -2.544E+00   -2.538E+00   -2.533E+00   -2.527E+00
    -2.522E+00   -2.516E+00   -2.510E+00   -2.505E+00   -2.499E+00   -2.493E+00   -2.488E+00   -2.482E+00   -2.477E+00   -2.471E+00
    -2.465E+00   -2.460E+00   -2.454E+00   -2.448E+00   -2.443E+00   -2.437E+00   -2.432E+00   -2.426E+00   -2.420E+00   -2.415E+00
    -2.409E+00   -2.403E+00   -2.398E+00   -2.392E+00   -2.386E+00   -2.381E+00   -2.375E+00   -2.370E+00   -2.364E+00   -2.358E+00
    -2.353E+00   -2.347E+00   -2.341E+00   -2.336E+00   -2.330E+00   -2.325E+00   -2.319E+00   -2.313E+00   -2.308E+00   -2.302E+00
    -2.296E+00   -2.291E+00   -2.285E+00   -2.280E+00   -2.274E+00   -2.268E+00   -2.263E+00   -2.257E+00   -2.251E+00   -2.246E+00
    -2.240E+00   -2.234E+00   -2.229E+00   -2.223E+00   -2.218E+00   -2.212E+00   -2.206E+00   -2.201E+00   -2.195E+00   -2.189E+00
    -2.184E+00   -2.178E+00   -2.173E+00   -2.167E+00   -2.161E+00   -2.156E+00   -2.150E+00   -2.144E+00   -2.139E+00   -2.133E+00
    -2.127E+00   -2.122E+00   -2.116E+00   -2.111E+00   -2.105E+00   -2.099E+00   -2.094E+00   -2.088E+00   -2.082E+00   -2.077E+00
    -2.071E+00   -2.066E+00   -2.060E+00   -2.054E+00   -2.049E+00   -2.043E+00   -2.037E+00   -2.032E+00
 Asp      Conc. = 1.50E+01
