 LCModel (Version 6.3-1L) Copyright: S.W. Provencher.          Ref.: Magn. Reson. Med. 30:672-679 (1993).                
 Slice#1 Row#10 Col#3  PD_24_press_1_raw_act
 36 lines in following concentration table = NCONC+1
    Conc.  %SD /Cr+PCr  Metabolite                                         
    0.000 999%   0.000 Ala                                                 
   24.592 523% 4.8E-02 Asp                                                 
  259.129  67%   0.501 Cr                                                  
  257.634  69%   0.499 PCr                                                 
   42.165 199% 8.2E-02 GABA                                                
   96.772  85%   0.187 Glc                                                 
  637.437  33%   1.234 Gln                                                 
  849.329  29%   1.644 Glu                                                 
  244.880   7%   0.474 GPC                                                 
    0.000 999%   0.000 PCh                                                 
  149.496  41%   0.289 GSH                                                 
  424.082  50%   0.821 Ins                                                 
  123.640  89%   0.239 Lac                                                 
 1.40E+03   4%   2.712 NAA                                                 
    0.000 999%   0.000 NAAG                                                
   76.184  25%   0.147 Scyllo                                              
  392.862  31%   0.760 Tau                                                 
  460.276  18%   0.891 -CrCH2                                              
  244.880   7%   0.474 GPC+PCh                                             
 1.40E+03   4%   2.712 NAA+NAAG                                            
  516.763   8%   1.000 Cr+PCr                                              
 1.49E+03  25%   2.877 Glu+Gln                                             
  340.441  53%   0.659 Lip13a                                              
    0.000 999%   0.000 Lip13b                                              
    0.000 999%   0.000 Lip09                                               
  601.075  21%   1.163 MM09                                                
   71.965  94%   0.139 Lip20                                               
 1.24E+03  18%   2.392 MM20                                                
  199.716  36%   0.386 MM12                                                
  492.547  35%   0.953 MM14                                                
  272.630  45%   0.528 MM17                                                
  340.441  53%   0.659 Lip13a+Lip13b                                       
 1.03E+03  25%   1.998 MM14+Lip13a+Lip13b+MM12                             
  601.075  21%   1.163 MM09+Lip09                                          
 1.31E+03  17%   2.532 MM20+Lip20                                          
   6 lines in following misc. output table
  FWHM = 0.054 ppm    S/N =   9                                            
  Data shift =-0.031 ppm                                                   
  Ph: -71 deg     -20.8 deg/ppm                                            
  alphaB,S = 7.0E-01,   5.1E+01                                            
   14 spline knots.   Ns = 8(1)                                            
  (13) 7 infls.   (11) 1 extrs.                                            
  498 points on ppm-axis = NY
      4.000000     3.992357     3.984714     3.977070     3.969427     3.961784     3.954141     3.946497     3.938854     3.931211
      3.923568     3.915925     3.908281     3.900638     3.892995     3.885352     3.877708     3.870065     3.862422     3.854779
      3.847136     3.839492     3.831849     3.824206     3.816563     3.808919     3.801276     3.793633     3.785990     3.778347
      3.770703     3.763060     3.755417     3.747774     3.740130     3.732487     3.724844     3.717201     3.709558     3.701914
      3.694271     3.686628     3.678985     3.671341     3.663698     3.656055     3.648412     3.640769     3.633125     3.625482
      3.617839     3.610196     3.602552     3.594909     3.587266     3.579623     3.571980     3.564336     3.556693     3.549050
      3.541407     3.533763     3.526120     3.518477     3.510834     3.503191     3.495547     3.487904     3.480261     3.472618
      3.464974     3.457331     3.449688     3.442045     3.434402     3.426758     3.419115     3.411472     3.403829     3.396185
      3.388542     3.380899     3.373256     3.365613     3.357969     3.350326     3.342683     3.335040     3.327396     3.319753
      3.312110     3.304467     3.296824     3.289180     3.281537     3.273894     3.266251     3.258607     3.250964     3.243321
      3.235678     3.228034     3.220391     3.212748     3.205105     3.197462     3.189818     3.182175     3.174532     3.166889
      3.159245     3.151602     3.143959     3.136316     3.128673     3.121029     3.113386     3.105743     3.098100     3.090456
      3.082813     3.075170     3.067527     3.059884     3.052240     3.044597     3.036954     3.029311     3.021667     3.014024
      3.006381     2.998738     2.991095     2.983451     2.975808     2.968165     2.960522     2.952878     2.945235     2.937592
      2.929949     2.922306     2.914662     2.907019     2.899376     2.891733     2.884089     2.876446     2.868803     2.861160
      2.853517     2.845873     2.838230     2.830587     2.822944     2.815300     2.807657     2.800014     2.792371     2.784728
      2.777084     2.769441     2.761798     2.754155     2.746511     2.738868     2.731225     2.723582     2.715939     2.708295
      2.700652     2.693009     2.685366     2.677722     2.670079     2.662436     2.654793     2.647150     2.639506     2.631863
      2.624220     2.616577     2.608933     2.601290     2.593647     2.586004     2.578361     2.570717     2.563074     2.555431
      2.547788     2.540144     2.532501     2.524858     2.517215     2.509572     2.501928     2.494285     2.486642     2.478999
      2.471355     2.463712     2.456069     2.448426     2.440783     2.433139     2.425496     2.417853     2.410210     2.402566
      2.394923     2.387280     2.379637     2.371994     2.364350     2.356707     2.349064     2.341421     2.333777     2.326134
      2.318491     2.310848     2.303205     2.295561     2.287918     2.280275     2.272632     2.264988     2.257345     2.249702
      2.242059     2.234416     2.226772     2.219129     2.211486     2.203843     2.196199     2.188556     2.180913     2.173270
      2.165627     2.157983     2.150340     2.142697     2.135054     2.127410     2.119767     2.112124     2.104481     2.096838
      2.089194     2.081551     2.073908     2.066265     2.058621     2.050978     2.043335     2.035692     2.028049     2.020405
      2.012762     2.005119     1.997476     1.989833     1.982190     1.974546     1.966903     1.959260     1.951617     1.943974
      1.936331     1.928688     1.921045     1.913402     1.905759     1.898115     1.890472     1.882829     1.875186     1.867543
      1.859900     1.852257     1.844614     1.836971     1.829327     1.821684     1.814041     1.806398     1.798755     1.791112
      1.783469     1.775826     1.768183     1.760540     1.752896     1.745253     1.737610     1.729967     1.722324     1.714681
      1.707038     1.699395     1.691752     1.684108     1.676465     1.668822     1.661179     1.653536     1.645893     1.638250
      1.630607     1.622964     1.615321     1.607677     1.600034     1.592391     1.584748     1.577105     1.569462     1.561819
      1.554176     1.546533     1.538890     1.531246     1.523603     1.515960     1.508317     1.500674     1.493031     1.485388
      1.477745     1.470102     1.462458     1.454815     1.447172     1.439529     1.431886     1.424243     1.416600     1.408957
      1.401314     1.393671     1.386027     1.378384     1.370741     1.363098     1.355455     1.347812     1.340169     1.332526
      1.324883     1.317240     1.309596     1.301953     1.294310     1.286667     1.279024     1.271381     1.263738     1.256095
      1.248452     1.240808     1.233165     1.225522     1.217879     1.210236     1.202593     1.194950     1.187307     1.179664
      1.172021     1.164377     1.156734     1.149091     1.141448     1.133805     1.126162     1.118519     1.110876     1.103233
      1.095590     1.087946     1.080303     1.072660     1.065017     1.057374     1.049731     1.042088     1.034445     1.026802
      1.019158     1.011515     1.003872     0.996229     0.988586     0.980943     0.973300     0.965657     0.958014     0.950371
      0.942727     0.935084     0.927441     0.919798     0.912155     0.904512     0.896869     0.889226     0.881583     0.873940
      0.866296     0.858653     0.851010     0.843367     0.835724     0.828081     0.820438     0.812795     0.805152     0.797508
      0.789865     0.782222     0.774579     0.766936     0.759293     0.751650     0.744007     0.736364     0.728721     0.721077
      0.713434     0.705791     0.698148     0.690505     0.682862     0.675219     0.667576     0.659933     0.652290     0.644646
      0.637003     0.629360     0.621717     0.614074     0.606431     0.598788     0.591145     0.583502     0.575858     0.568215
      0.560572     0.552929     0.545286     0.537643     0.530000     0.522357     0.514714     0.507071     0.499427     0.491784
      0.484141     0.476498     0.468855     0.461212     0.453569     0.445925     0.438282     0.430639     0.422996     0.415353
      0.407710     0.400067     0.392424     0.384780     0.377137     0.369494     0.361851     0.354208     0.346565     0.338922
      0.331278     0.323635     0.315992     0.308349     0.300706     0.293063     0.285420     0.277777     0.270133     0.262490
      0.254847     0.247204     0.239561     0.231918     0.224275     0.216631     0.208988     0.201345
 NY phased data points follow
  -5.26254E+01 -5.29623E+01 -5.35306E+01 -5.02419E+01 -4.67118E+01 -5.24391E+01 -4.45396E+01 -4.61231E+01 -4.55326E+01 -3.92735E+01
  -3.95616E+01 -4.50248E+01 -3.50524E+01 -4.17510E+01 -4.04070E+01 -4.12188E+01 -4.02496E+01 -4.16951E+01 -3.69485E+01 -3.89980E+01
  -3.84742E+01 -4.14535E+01 -3.78078E+01 -3.93584E+01 -3.89943E+01 -3.99032E+01 -3.69018E+01 -4.12821E+01 -3.72996E+01 -3.39214E+01
  -3.59814E+01 -3.46527E+01 -3.43988E+01 -3.26385E+01 -2.65964E+01 -3.60314E+01 -3.40456E+01 -3.42418E+01 -2.91676E+01 -3.28687E+01
  -3.40955E+01 -2.99997E+01 -3.02737E+01 -3.27032E+01 -3.10609E+01 -3.03519E+01 -2.74323E+01 -2.81349E+01 -3.08174E+01 -2.94448E+01
  -3.14047E+01 -3.16740E+01 -2.74196E+01 -3.09184E+01 -2.73750E+01 -2.82781E+01 -2.84202E+01 -2.82123E+01 -2.98016E+01 -2.75328E+01
  -3.03250E+01 -2.78880E+01 -2.59698E+01 -3.02911E+01 -2.74099E+01 -2.57334E+01 -2.69632E+01 -3.02569E+01 -2.80351E+01 -2.84975E+01
  -2.76941E+01 -2.76018E+01 -2.71828E+01 -2.63654E+01 -2.40201E+01 -2.38893E+01 -2.09497E+01 -2.18307E+01 -2.20640E+01 -2.51527E+01
  -2.22583E+01 -2.42588E+01 -2.31040E+01 -2.36767E+01 -2.11457E+01 -2.55704E+01 -1.86300E+01 -2.24666E+01 -1.62459E+01 -2.30629E+01
  -1.73338E+01 -1.77364E+01 -1.78709E+01 -1.90329E+01 -1.97819E+01 -1.95838E+01 -1.58192E+01 -1.63536E+01 -1.22361E+01 -1.05700E+01
  -9.82941E+00 -2.92970E+00 -4.59146E+00 -1.37673E+00  1.54308E+00 -1.42935E+00 -6.73973E+00 -8.73051E+00 -1.44448E+01 -1.76733E+01
  -1.50242E+01 -1.46387E+01 -1.54970E+01 -1.85408E+01 -1.79728E+01 -1.66511E+01 -1.42536E+01 -1.46761E+01 -1.31950E+01 -1.71343E+01
  -1.66829E+01 -1.28042E+01 -1.18988E+01 -1.23245E+01 -1.09222E+01 -8.37015E+00 -4.66777E+00 -7.48748E-01  1.85387E+00 -3.03525E+00
  -4.44095E+00 -8.96863E+00 -1.03459E+01 -1.24401E+01 -1.32375E+01 -1.25109E+01 -1.19868E+01 -1.45742E+01 -1.54641E+01 -1.43608E+01
  -1.34032E+01 -1.79389E+01 -1.16259E+01 -1.83057E+01 -1.75609E+01 -1.75704E+01 -1.47602E+01 -1.52310E+01 -1.32462E+01 -1.20636E+01
  -1.29909E+01 -1.85744E+01 -1.43726E+01 -1.64167E+01 -1.02603E+01 -1.37134E+01 -1.21604E+01 -1.40039E+01 -1.57334E+01 -1.42094E+01
  -1.11229E+01 -1.13602E+01 -1.58754E+01 -1.55873E+01 -1.52765E+01 -1.30615E+01 -1.34046E+01 -1.82249E+01 -1.68271E+01 -1.53357E+01
  -1.73156E+01 -1.32079E+01 -1.45367E+01 -1.66586E+01 -1.80584E+01 -1.80243E+01 -2.02316E+01 -1.53888E+01 -2.16511E+01 -1.57425E+01
  -1.69329E+01 -1.08091E+01 -1.17834E+01 -1.19410E+01 -1.45430E+01 -1.53481E+01 -1.09957E+01 -1.47388E+01 -1.56424E+01 -1.49401E+01
  -1.86245E+01 -1.48015E+01 -1.14772E+01 -1.30762E+01 -1.27570E+01 -1.45597E+01 -1.12671E+01 -1.33596E+01 -1.38121E+01 -1.36197E+01
  -1.09768E+01 -8.04649E+00 -1.17942E+01 -1.10946E+01 -5.06178E+00 -9.19836E+00 -4.38751E+00 -6.73559E+00 -6.90530E+00 -1.09473E+01
  -1.11939E+01 -7.17340E+00 -6.85500E+00 -6.36582E+00 -5.23571E+00 -4.50046E+00 -1.98597E+00 -1.66831E+00 -8.88506E-01 -2.43909E+00
  -9.10487E+00 -4.69069E+00 -9.61066E+00 -7.32367E+00 -9.22484E+00 -3.99682E+00 -5.94962E+00 -5.02536E+00 -1.57366E+00 -3.60108E+00
  -5.06066E+00 -5.60799E+00 -4.35722E+00 -3.66691E+00 -2.08199E-01 -3.76125E+00 -1.19760E+00 -3.56503E+00 -3.61664E+00 -5.38143E+00
  -4.27751E+00 -4.31677E+00 -3.96369E+00 -2.11199E+00 -1.95599E+00 -1.26525E+00 -3.38868E-01 -8.59329E-01  1.89581E+00 -3.95797E+00
   1.33485E+00  1.64686E+00  6.45555E+00  6.95667E+00  9.68617E+00  1.16926E+01  1.80912E+01  2.50429E+01  2.80264E+01  3.29421E+01
   3.56659E+01  4.00495E+01  3.90899E+01  2.92574E+01  2.45062E+01  1.57252E+01  9.63184E+00  5.10294E+00  3.72063E+00 -4.20755E+00
   2.82836E+00  1.52670E+00  1.65559E+00 -1.37651E+00 -2.72727E+00 -2.05641E+00 -1.50456E+00 -3.48656E+00 -9.63152E-01 -4.24610E+00
  -5.00350E-01 -2.22101E+00 -3.35313E+00 -5.48277E+00 -3.62472E+00 -5.33185E+00 -6.08996E+00 -2.64012E+00 -4.70492E+00 -4.53396E+00
  -2.65634E-01 -5.49056E+00 -3.91090E+00 -6.96280E+00 -5.72142E+00 -2.11548E+00 -2.58184E+00 -1.02612E+00  8.96844E-02 -1.93252E+00
   1.84089E-01  1.76403E-01 -1.61033E+00 -3.09414E+00 -1.18920E+00  1.02299E+00 -5.48151E-01 -7.88424E-01  2.87001E-01  1.90520E+00
  -3.40221E-02  9.01505E-02  1.96420E+00  1.02490E+00  3.49004E-02  1.02282E+00  8.68815E-01 -3.08283E+00  2.61839E+00 -5.69679E-01
   2.11663E-01 -1.53247E+00 -5.27363E-01 -1.22697E+00 -8.96040E-01  9.65082E-01 -3.03777E+00 -1.91705E+00 -1.31281E+00  1.50244E+00
   5.83939E+00  3.22148E+00  1.58878E+00  9.55939E-01  1.39341E+00 -1.22260E-01 -3.59306E-02 -5.81317E-01  4.82705E+00  4.96716E+00
   3.93419E-01  3.83933E+00  1.81591E+00  3.35446E+00  2.95721E+00  5.87370E+00  2.23607E+00  6.54800E+00  4.15957E+00  3.10013E+00
  -7.72594E-01  2.09885E+00  2.94886E+00  3.89884E+00 -1.90171E+00  4.11812E-01  1.60732E+00  7.48655E-01  3.05244E+00  8.93326E-01
   4.06509E+00 -1.35745E+00  8.11482E-01  2.78811E+00  1.69332E+00  5.36064E+00  3.08681E+00  3.33691E+00  3.18746E+00  4.79441E+00
   3.98365E+00  6.17444E+00  4.40794E+00  4.90312E-01  3.03331E+00  1.88548E+00  3.82254E+00  3.74059E+00 -3.90017E-01  1.58907E+00
  -1.14894E-01  2.05898E+00  1.95287E+00  4.41435E-02  2.24539E+00 -4.78561E-01  4.28096E+00  3.69241E+00  7.69345E-01  3.38776E+00
   1.77160E+00  1.86975E+00  2.20441E+00  6.46261E+00  5.46502E+00  5.55780E+00  1.60846E+00 -6.70908E-02  2.77859E+00  1.49083E+00
   5.10498E+00  5.05328E+00  1.61807E+00  2.52367E-01  5.65867E+00  3.82468E+00  5.54873E+00  5.17688E+00  9.62741E-01  3.94620E+00
   8.51692E-01  2.64785E+00  7.36596E+00  2.83382E-01  2.16647E+00  5.31935E+00  4.49959E+00  4.06758E+00 -6.15953E-01  1.58317E+00
   3.13879E+00  4.25783E+00  4.41202E+00 -2.66487E+00  1.88936E-01  1.07883E+00  3.11763E+00  1.36145E+00  4.47898E+00  3.58266E+00
  -1.27398E+00  1.24987E+00  1.69958E+00  3.51354E+00  9.21870E-01  2.10112E+00 -3.50679E-01  8.09875E-01  5.82694E+00  1.20820E+00
   2.31714E-01  3.45835E+00  3.93640E+00  1.89599E+00 -1.11371E+00  2.49746E+00  3.90491E+00  2.12303E-01  3.67661E+00  7.62030E-01
   9.62662E-01  1.37929E+00  1.46351E-01 -5.64107E-01  1.17596E+00 -1.97175E+00  1.83368E+00 -7.13833E-01  2.43001E+00  2.52342E+00
   3.21855E+00  5.64451E+00 -8.48627E-01  3.41178E+00 -3.13253E+00  2.98311E+00  3.27163E+00  1.92198E+00  7.84514E-02  1.38803E+00
   1.25325E+00 -2.11868E+00  1.72072E+00  3.89806E-01  2.25529E+00  5.37931E+00  9.37076E-01 -5.78831E-01  2.35262E+00  2.37952E+00
   1.63968E+00  1.72727E+00  1.56311E+00  1.15376E+00 -1.99738E+00  5.62224E+00  1.45672E+00 -6.77669E-01 -9.81322E-01  1.17072E+00
   7.42934E-01  6.04490E-01  3.22295E+00  3.06931E+00  1.20088E+00  1.52639E+00  3.37393E+00  1.18809E+00
 NY points of the fit to the data follow
  -4.66935E+01 -4.69519E+01 -4.67473E+01 -4.62994E+01 -4.60163E+01 -4.58887E+01 -4.55944E+01 -4.51270E+01 -4.45753E+01 -4.37977E+01
  -4.24571E+01 -4.06888E+01 -3.91574E+01 -3.83585E+01 -3.83395E+01 -3.87980E+01 -3.92198E+01 -3.91897E+01 -3.90814E+01 -3.92100E+01
  -3.94383E+01 -3.94897E+01 -3.91770E+01 -3.87665E+01 -3.83711E+01 -3.79321E+01 -3.74739E+01 -3.69873E+01 -3.64435E+01 -3.57049E+01
  -3.46945E+01 -3.35399E+01 -3.25331E+01 -3.20031E+01 -3.20800E+01 -3.26690E+01 -3.35119E+01 -3.42561E+01 -3.46604E+01 -3.46620E+01
  -3.42715E+01 -3.36720E+01 -3.29744E+01 -3.22353E+01 -3.15533E+01 -3.09497E+01 -3.03881E+01 -2.98686E+01 -2.95457E+01 -2.95449E+01
  -2.97965E+01 -3.01576E+01 -3.04766E+01 -3.06217E+01 -3.06071E+01 -3.05155E+01 -3.03536E+01 -3.01071E+01 -2.97771E+01 -2.93911E+01
  -2.90281E+01 -2.86992E+01 -2.84590E+01 -2.83229E+01 -2.82005E+01 -2.80308E+01 -2.78043E+01 -2.74604E+01 -2.70188E+01 -2.66685E+01
  -2.64049E+01 -2.61220E+01 -2.57880E+01 -2.54247E+01 -2.50389E+01 -2.46868E+01 -2.44192E+01 -2.43020E+01 -2.43083E+01 -2.42275E+01
  -2.42016E+01 -2.40923E+01 -2.36066E+01 -2.28047E+01 -2.20148E+01 -2.13657E+01 -2.07989E+01 -2.03770E+01 -2.02502E+01 -2.05396E+01
  -2.10475E+01 -2.14842E+01 -2.17941E+01 -2.18292E+01 -2.10460E+01 -1.93391E+01 -1.79683E+01 -1.64358E+01 -1.40425E+01 -1.10072E+01
  -7.94089E+00 -5.09604E+00 -2.42271E+00 -3.32256E-01  2.71635E-02 -1.99620E+00 -5.47916E+00 -9.22009E+00 -1.23823E+01 -1.43568E+01
  -1.55129E+01 -1.68283E+01 -1.81514E+01 -1.86346E+01 -1.87343E+01 -1.87232E+01 -1.86427E+01 -1.84956E+01 -1.80248E+01 -1.67431E+01
  -1.54413E+01 -1.44160E+01 -1.30350E+01 -1.10923E+01 -8.93206E+00 -6.74253E+00 -4.52406E+00 -2.57772E+00 -1.65723E+00 -2.49833E+00
  -4.80077E+00 -7.57819E+00 -1.00801E+01 -1.18604E+01 -1.28960E+01 -1.38630E+01 -1.50541E+01 -1.57387E+01 -1.58917E+01 -1.58260E+01
  -1.56143E+01 -1.53301E+01 -1.50808E+01 -1.49172E+01 -1.48239E+01 -1.47904E+01 -1.47873E+01 -1.47892E+01 -1.47897E+01 -1.47830E+01
  -1.47670E+01 -1.47520E+01 -1.47340E+01 -1.47642E+01 -1.47825E+01 -1.47558E+01 -1.47093E+01 -1.46512E+01 -1.46547E+01 -1.47099E+01
  -1.47599E+01 -1.47976E+01 -1.47977E+01 -1.46907E+01 -1.44816E+01 -1.42767E+01 -1.42009E+01 -1.43364E+01 -1.46398E+01 -1.49079E+01
  -1.50001E+01 -1.50477E+01 -1.51284E+01 -1.52755E+01 -1.53915E+01 -1.53881E+01 -1.53300E+01 -1.52309E+01 -1.50386E+01 -1.48038E+01
  -1.45669E+01 -1.43712E+01 -1.42306E+01 -1.40445E+01 -1.37163E+01 -1.32853E+01 -1.28902E+01 -1.25170E+01 -1.20382E+01 -1.14109E+01
  -1.07883E+01 -1.03234E+01 -1.00587E+01 -9.98419E+00 -1.00290E+01 -1.00476E+01 -9.94972E+00 -9.76928E+00 -9.48036E+00 -9.07349E+00
  -8.53431E+00 -7.90774E+00 -7.45536E+00 -7.13325E+00 -6.99372E+00 -7.35392E+00 -8.14348E+00 -9.07582E+00 -9.92226E+00 -1.06694E+01
  -1.12081E+01 -1.11527E+01 -1.03022E+01 -8.96226E+00 -7.62973E+00 -6.47682E+00 -5.56111E+00 -5.19020E+00 -5.58168E+00 -6.46214E+00
  -7.55578E+00 -8.51762E+00 -9.03807E+00 -9.05792E+00 -8.55047E+00 -7.56560E+00 -6.28721E+00 -5.13149E+00 -4.43369E+00 -4.07922E+00
  -3.88476E+00 -3.77794E+00 -3.75256E+00 -3.74126E+00 -3.62883E+00 -3.51163E+00 -3.31879E+00 -2.97563E+00 -2.54305E+00 -2.17949E+00
  -1.92693E+00 -1.84810E+00 -2.02632E+00 -2.36177E+00 -2.58259E+00 -2.47121E+00 -2.14199E+00 -1.69662E+00 -1.13856E+00 -5.35671E-01
   8.03846E-02  1.16842E+00  4.19516E+00  8.04209E+00  1.07680E+01  1.37363E+01  1.80163E+01  2.29294E+01  2.77290E+01  3.24949E+01
   3.69241E+01  3.93964E+01  3.75974E+01  3.14188E+01  2.33436E+01  1.56562E+01  9.76681E+00  6.19979E+00  3.64697E+00  6.48122E-01
  -1.56816E+00 -2.23531E+00 -2.45807E+00 -2.56118E+00 -2.56741E+00 -2.52182E+00 -2.50684E+00 -2.53028E+00 -2.58509E+00 -2.66436E+00
  -2.74944E+00 -2.82002E+00 -2.87443E+00 -2.90843E+00 -2.91248E+00 -2.88937E+00 -2.84617E+00 -2.79020E+00 -2.72683E+00 -2.65501E+00
  -2.57258E+00 -2.48437E+00 -2.38823E+00 -2.28286E+00 -2.16865E+00 -2.04645E+00 -1.91467E+00 -1.77479E+00 -1.62948E+00 -1.48194E+00
  -1.33308E+00 -1.18635E+00 -1.04430E+00 -9.09258E-01 -7.83318E-01 -6.69118E-01 -5.67774E-01 -4.80602E-01 -4.07346E-01 -3.47970E-01
  -3.00744E-01 -2.64547E-01 -2.37074E-01 -2.16310E-01 -1.98996E-01 -1.82885E-01 -1.64615E-01 -1.41946E-01 -1.12076E-01 -7.35186E-02
  -2.42810E-02  3.62929E-02  1.09279E-01  1.94301E-01  2.91347E-01  3.99060E-01  5.16655E-01  6.42210E-01  7.74496E-01  9.11245E-01
   1.05104E+00  1.19172E+00  1.33227E+00  1.47121E+00  1.60844E+00  1.74382E+00  1.87944E+00  2.01935E+00  2.17613E+00  2.37427E+00
   2.55361E+00  2.63973E+00  2.72272E+00  2.82490E+00  2.88494E+00  2.85843E+00  2.75286E+00  2.63348E+00  2.45153E+00  2.09038E+00
   1.66501E+00  1.39021E+00  1.34044E+00  1.48762E+00  1.79624E+00  2.19221E+00  2.58706E+00  2.91824E+00  3.10788E+00  3.10694E+00
   2.98226E+00  2.81767E+00  2.68858E+00  2.58458E+00  2.43638E+00  2.27831E+00  2.16444E+00  2.07288E+00  1.99266E+00  1.91975E+00
   1.85336E+00  1.79298E+00  1.73945E+00  1.69308E+00  1.65508E+00  1.62589E+00  1.60672E+00  1.59807E+00  1.60115E+00  1.61639E+00
   1.64482E+00  1.68664E+00  1.74272E+00  1.81310E+00  1.89844E+00  1.99843E+00  2.11328E+00  2.24218E+00  2.38480E+00  2.53972E+00
   2.70588E+00  2.88101E+00  3.06314E+00  3.24913E+00  3.43618E+00  3.62046E+00  3.79854E+00  3.96611E+00  4.11954E+00  4.25464E+00
   4.36824E+00  4.45690E+00  4.51849E+00  4.55081E+00  4.55325E+00  4.52532E+00  4.46817E+00  4.38304E+00  4.27262E+00  4.13953E+00
   3.98758E+00  3.82029E+00  3.64202E+00  3.45642E+00  3.26766E+00  3.07896E+00  2.89386E+00  2.71476E+00  2.54427E+00  2.38374E+00
   2.23472E+00  2.09762E+00  1.97314E+00  1.86095E+00  1.76110E+00  1.67271E+00  1.59542E+00  1.52809E+00  1.47023E+00  1.42066E+00
   1.37884E+00  1.34358E+00  1.31446E+00  1.29042E+00  1.27118E+00  1.25583E+00  1.24417E+00  1.23538E+00  1.22941E+00  1.22560E+00
   1.22398E+00  1.22396E+00  1.22562E+00  1.22843E+00  1.23254E+00  1.23752E+00  1.24355E+00  1.25019E+00  1.25764E+00  1.26549E+00
   1.27402E+00  1.28283E+00  1.29221E+00  1.30175E+00  1.31173E+00  1.32179E+00  1.33225E+00  1.34277E+00  1.35362E+00  1.36447E+00
   1.37559E+00  1.38668E+00  1.39804E+00  1.40936E+00  1.42092E+00  1.43239E+00  1.44408E+00  1.45568E+00  1.46751E+00  1.47925E+00
   1.49119E+00  1.50301E+00  1.51503E+00  1.52696E+00  1.53910E+00  1.55115E+00  1.56338E+00  1.57551E+00  1.58784E+00  1.60009E+00
   1.61256E+00  1.62495E+00  1.63753E+00  1.65003E+00  1.66278E+00  1.67547E+00  1.68842E+00  1.70130E+00  1.71443E+00  1.72753E+00
   1.74093E+00  1.75433E+00  1.76804E+00  1.78175E+00  1.79579E+00  1.80991E+00  1.82441E+00  1.83903E+00
 NY background values follow
    -4.751E+01   -4.723E+01   -4.695E+01   -4.667E+01   -4.639E+01   -4.610E+01   -4.582E+01   -4.554E+01   -4.526E+01   -4.498E+01
    -4.470E+01   -4.442E+01   -4.413E+01   -4.385E+01   -4.357E+01   -4.329E+01   -4.301E+01   -4.273E+01   -4.245E+01   -4.218E+01
    -4.190E+01   -4.162E+01   -4.134E+01   -4.106E+01   -4.079E+01   -4.051E+01   -4.023E+01   -3.996E+01   -3.968E+01   -3.941E+01
    -3.914E+01   -3.886E+01   -3.859E+01   -3.832E+01   -3.805E+01   -3.778E+01   -3.751E+01   -3.724E+01   -3.698E+01   -3.671E+01
    -3.644E+01   -3.618E+01   -3.592E+01   -3.565E+01   -3.539E+01   -3.513E+01   -3.487E+01   -3.461E+01   -3.436E+01   -3.410E+01
    -3.385E+01   -3.359E+01   -3.334E+01   -3.309E+01   -3.284E+01   -3.259E+01   -3.234E+01   -3.210E+01   -3.185E+01   -3.161E+01
    -3.136E+01   -3.112E+01   -3.088E+01   -3.064E+01   -3.041E+01   -3.017E+01   -2.994E+01   -2.970E+01   -2.947E+01   -2.924E+01
    -2.901E+01   -2.878E+01   -2.856E+01   -2.833E+01   -2.811E+01   -2.789E+01   -2.766E+01   -2.745E+01   -2.723E+01   -2.701E+01
    -2.680E+01   -2.659E+01   -2.637E+01   -2.616E+01   -2.596E+01   -2.575E+01   -2.554E+01   -2.534E+01   -2.514E+01   -2.494E+01
    -2.474E+01   -2.454E+01   -2.435E+01   -2.416E+01   -2.396E+01   -2.377E+01   -2.359E+01   -2.340E+01   -2.321E+01   -2.303E+01
    -2.285E+01   -2.267E+01   -2.249E+01   -2.231E+01   -2.214E+01   -2.196E+01   -2.179E+01   -2.162E+01   -2.145E+01   -2.128E+01
    -2.112E+01   -2.095E+01   -2.079E+01   -2.063E+01   -2.047E+01   -2.031E+01   -2.015E+01   -2.000E+01   -1.984E+01   -1.969E+01
    -1.954E+01   -1.939E+01   -1.924E+01   -1.909E+01   -1.894E+01   -1.880E+01   -1.866E+01   -1.851E+01   -1.837E+01   -1.823E+01
    -1.810E+01   -1.796E+01   -1.782E+01   -1.769E+01   -1.756E+01   -1.743E+01   -1.730E+01   -1.717E+01   -1.704E+01   -1.691E+01
    -1.679E+01   -1.666E+01   -1.654E+01   -1.642E+01   -1.630E+01   -1.618E+01   -1.606E+01   -1.594E+01   -1.583E+01   -1.571E+01
    -1.559E+01   -1.548E+01   -1.537E+01   -1.526E+01   -1.514E+01   -1.503E+01   -1.492E+01   -1.481E+01   -1.471E+01   -1.460E+01
    -1.449E+01   -1.438E+01   -1.428E+01   -1.417E+01   -1.407E+01   -1.396E+01   -1.386E+01   -1.375E+01   -1.365E+01   -1.355E+01
    -1.345E+01   -1.335E+01   -1.324E+01   -1.314E+01   -1.304E+01   -1.294E+01   -1.284E+01   -1.274E+01   -1.264E+01   -1.254E+01
    -1.244E+01   -1.234E+01   -1.224E+01   -1.214E+01   -1.204E+01   -1.194E+01   -1.184E+01   -1.174E+01   -1.165E+01   -1.155E+01
    -1.145E+01   -1.135E+01   -1.125E+01   -1.115E+01   -1.106E+01   -1.096E+01   -1.086E+01   -1.076E+01   -1.067E+01   -1.057E+01
    -1.047E+01   -1.038E+01   -1.028E+01   -1.019E+01   -1.009E+01   -9.998E+00   -9.903E+00   -9.809E+00   -9.716E+00   -9.623E+00
    -9.530E+00   -9.438E+00   -9.346E+00   -9.255E+00   -9.164E+00   -9.074E+00   -8.984E+00   -8.895E+00   -8.806E+00   -8.717E+00
    -8.630E+00   -8.542E+00   -8.456E+00   -8.370E+00   -8.284E+00   -8.199E+00   -8.115E+00   -8.031E+00   -7.948E+00   -7.865E+00
    -7.783E+00   -7.702E+00   -7.621E+00   -7.541E+00   -7.461E+00   -7.382E+00   -7.304E+00   -7.226E+00   -7.149E+00   -7.072E+00
    -6.996E+00   -6.920E+00   -6.845E+00   -6.770E+00   -6.696E+00   -6.623E+00   -6.549E+00   -6.477E+00   -6.405E+00   -6.333E+00
    -6.262E+00   -6.192E+00   -6.122E+00   -6.052E+00   -5.983E+00   -5.914E+00   -5.846E+00   -5.778E+00   -5.711E+00   -5.644E+00
    -5.578E+00   -5.512E+00   -5.446E+00   -5.381E+00   -5.316E+00   -5.252E+00   -5.188E+00   -5.125E+00   -5.062E+00   -4.999E+00
    -4.937E+00   -4.875E+00   -4.813E+00   -4.752E+00   -4.691E+00   -4.631E+00   -4.571E+00   -4.511E+00   -4.452E+00   -4.393E+00
    -4.334E+00   -4.276E+00   -4.218E+00   -4.161E+00   -4.103E+00   -4.046E+00   -3.990E+00   -3.934E+00   -3.878E+00   -3.822E+00
    -3.767E+00   -3.712E+00   -3.658E+00   -3.604E+00   -3.550E+00   -3.496E+00   -3.443E+00   -3.390E+00   -3.338E+00   -3.285E+00
    -3.233E+00   -3.182E+00   -3.130E+00   -3.079E+00   -3.028E+00   -2.978E+00   -2.928E+00   -2.878E+00   -2.828E+00   -2.779E+00
    -2.730E+00   -2.681E+00   -2.633E+00   -2.585E+00   -2.537E+00   -2.489E+00   -2.442E+00   -2.395E+00   -2.348E+00   -2.301E+00
    -2.255E+00   -2.209E+00   -2.163E+00   -2.118E+00   -2.072E+00   -2.028E+00   -1.983E+00   -1.939E+00   -1.895E+00   -1.851E+00
    -1.807E+00   -1.764E+00   -1.721E+00   -1.679E+00   -1.637E+00   -1.595E+00   -1.553E+00   -1.512E+00   -1.471E+00   -1.430E+00
    -1.389E+00   -1.349E+00   -1.310E+00   -1.270E+00   -1.231E+00   -1.192E+00   -1.154E+00   -1.116E+00   -1.078E+00   -1.040E+00
    -1.003E+00   -9.662E-01   -9.297E-01   -8.936E-01   -8.578E-01   -8.223E-01   -7.872E-01   -7.524E-01   -7.180E-01   -6.840E-01
    -6.503E-01   -6.169E-01   -5.839E-01   -5.513E-01   -5.190E-01   -4.871E-01   -4.555E-01   -4.242E-01   -3.933E-01   -3.627E-01
    -3.324E-01   -3.024E-01   -2.727E-01   -2.434E-01   -2.143E-01   -1.856E-01   -1.571E-01   -1.289E-01   -1.010E-01   -7.333E-02
    -4.596E-02   -1.885E-02    8.007E-03    3.461E-02    6.096E-02    8.707E-02    1.129E-01    1.386E-01    1.640E-01    1.892E-01
     2.142E-01    2.390E-01    2.635E-01    2.879E-01    3.121E-01    3.360E-01    3.598E-01    3.835E-01    4.069E-01    4.302E-01
     4.533E-01    4.762E-01    4.990E-01    5.217E-01    5.442E-01    5.666E-01    5.888E-01    6.109E-01    6.329E-01    6.548E-01
     6.765E-01    6.981E-01    7.196E-01    7.409E-01    7.621E-01    7.832E-01    8.042E-01    8.250E-01    8.457E-01    8.662E-01
     8.866E-01    9.069E-01    9.270E-01    9.470E-01    9.669E-01    9.866E-01    1.006E+00    1.026E+00    1.045E+00    1.064E+00
     1.083E+00    1.102E+00    1.121E+00    1.139E+00    1.157E+00    1.176E+00    1.194E+00    1.212E+00    1.230E+00    1.247E+00
     1.265E+00    1.282E+00    1.299E+00    1.316E+00    1.333E+00    1.350E+00    1.366E+00    1.382E+00    1.399E+00    1.415E+00
     1.430E+00    1.446E+00    1.462E+00    1.477E+00    1.492E+00    1.507E+00    1.522E+00    1.537E+00    1.551E+00    1.566E+00
     1.580E+00    1.594E+00    1.608E+00    1.622E+00    1.636E+00    1.650E+00    1.663E+00    1.677E+00    1.690E+00    1.704E+00
     1.717E+00    1.730E+00    1.743E+00    1.756E+00    1.769E+00    1.782E+00    1.794E+00    1.807E+00    1.820E+00    1.832E+00
     1.845E+00    1.858E+00    1.870E+00    1.883E+00    1.895E+00    1.908E+00    1.920E+00    1.932E+00    1.945E+00    1.957E+00
     1.970E+00    1.982E+00    1.995E+00    2.007E+00    2.020E+00    2.032E+00    2.045E+00    2.057E+00
 Asp      Conc. = 2.46E+01
