 LCModel (Version 6.3-1L) Copyright: S.W. Provencher.          Ref.: Magn. Reson. Med. 30:672-679 (1993).                
 Slice#1 Row#7 Col#2  PD_24_press_1_raw_act
 36 lines in following concentration table = NCONC+1
    Conc.  %SD /Cr+PCr  Metabolite                                         
   55.602  79%   0.251 Ala                                                 
   37.049 106%   0.167 Asp                                                 
  186.485  39%   0.842 Cr                                                  
   34.987 212%   0.158 PCr                                                 
   19.579 121% 8.8E-02 GABA                                                
   31.724  76%   0.143 Glc                                                 
  160.666  54%   0.725 Gln                                                 
  390.674  26%   1.764 Glu                                                 
   97.213  12%   0.439 GPC                                                 
    0.000 999%   0.000 PCh                                                 
  108.824  31%   0.491 GSH                                                 
  452.928  26%   2.045 Ins                                                 
    0.000 999%   0.000 Lac                                                 
  264.014  12%   1.192 NAA                                                 
    0.000 999%   0.000 NAAG                                                
   13.233  55% 6.0E-02 Scyllo                                              
   63.808  60%   0.288 Tau                                                 
   67.382  64%   0.304 -CrCH2                                              
   97.213  12%   0.439 GPC+PCh                                             
  264.014  12%   1.192 NAA+NAAG                                            
  221.472  13%   1.000 Cr+PCr                                              
  551.340  24%   2.489 Glu+Gln                                             
    0.000 999%   0.000 Lip13a                                              
  160.270  68%   0.724 Lip13b                                              
   42.924  79%   0.194 Lip09                                               
   65.655  84%   0.296 MM09                                                
   25.498  80%   0.115 Lip20                                               
  127.694  71%   0.577 MM20                                                
   18.527 111% 8.4E-02 MM12                                                
    0.000 999%   0.000 MM14                                                
    9.655 421% 4.4E-02 MM17                                                
  160.270  68%   0.724 Lip13a+Lip13b                                       
  178.796  61%   0.807 MM14+Lip13a+Lip13b+MM12                             
  108.580  58%   0.490 MM09+Lip09                                          
  153.193  61%   0.692 MM20+Lip20                                          
   6 lines in following misc. output table
  FWHM = 0.031 ppm    S/N =   3                                            
  Data shift = 0.008 ppm                                                   
  Ph: -94 deg     -17.0 deg/ppm                                            
  alphaB,S = 5.7E-01,   1.3E+01                                            
   14 spline knots.   Ns = 5(1)                                            
  ( 7) 4 infls.   ( 6) 1 extrs.                                            
  498 points on ppm-axis = NY
      4.000000     3.992357     3.984714     3.977070     3.969427     3.961784     3.954141     3.946497     3.938854     3.931211
      3.923568     3.915925     3.908281     3.900638     3.892995     3.885352     3.877708     3.870065     3.862422     3.854779
      3.847136     3.839492     3.831849     3.824206     3.816563     3.808919     3.801276     3.793633     3.785990     3.778347
      3.770703     3.763060     3.755417     3.747774     3.740130     3.732487     3.724844     3.717201     3.709558     3.701914
      3.694271     3.686628     3.678985     3.671341     3.663698     3.656055     3.648412     3.640769     3.633125     3.625482
      3.617839     3.610196     3.602552     3.594909     3.587266     3.579623     3.571980     3.564336     3.556693     3.549050
      3.541407     3.533763     3.526120     3.518477     3.510834     3.503191     3.495547     3.487904     3.480261     3.472618
      3.464974     3.457331     3.449688     3.442045     3.434402     3.426758     3.419115     3.411472     3.403829     3.396185
      3.388542     3.380899     3.373256     3.365613     3.357969     3.350326     3.342683     3.335040     3.327396     3.319753
      3.312110     3.304467     3.296824     3.289180     3.281537     3.273894     3.266251     3.258607     3.250964     3.243321
      3.235678     3.228034     3.220391     3.212748     3.205105     3.197462     3.189818     3.182175     3.174532     3.166889
      3.159245     3.151602     3.143959     3.136316     3.128673     3.121029     3.113386     3.105743     3.098100     3.090456
      3.082813     3.075170     3.067527     3.059884     3.052240     3.044597     3.036954     3.029311     3.021667     3.014024
      3.006381     2.998738     2.991095     2.983451     2.975808     2.968165     2.960522     2.952878     2.945235     2.937592
      2.929949     2.922306     2.914662     2.907019     2.899376     2.891733     2.884089     2.876446     2.868803     2.861160
      2.853517     2.845873     2.838230     2.830587     2.822944     2.815300     2.807657     2.800014     2.792371     2.784728
      2.777084     2.769441     2.761798     2.754155     2.746511     2.738868     2.731225     2.723582     2.715939     2.708295
      2.700652     2.693009     2.685366     2.677722     2.670079     2.662436     2.654793     2.647150     2.639506     2.631863
      2.624220     2.616577     2.608933     2.601290     2.593647     2.586004     2.578361     2.570717     2.563074     2.555431
      2.547788     2.540144     2.532501     2.524858     2.517215     2.509572     2.501928     2.494285     2.486642     2.478999
      2.471355     2.463712     2.456069     2.448426     2.440783     2.433139     2.425496     2.417853     2.410210     2.402566
      2.394923     2.387280     2.379637     2.371994     2.364350     2.356707     2.349064     2.341421     2.333777     2.326134
      2.318491     2.310848     2.303205     2.295561     2.287918     2.280275     2.272632     2.264988     2.257345     2.249702
      2.242059     2.234416     2.226772     2.219129     2.211486     2.203843     2.196199     2.188556     2.180913     2.173270
      2.165627     2.157983     2.150340     2.142697     2.135054     2.127410     2.119767     2.112124     2.104481     2.096838
      2.089194     2.081551     2.073908     2.066265     2.058621     2.050978     2.043335     2.035692     2.028049     2.020405
      2.012762     2.005119     1.997476     1.989833     1.982190     1.974546     1.966903     1.959260     1.951617     1.943974
      1.936331     1.928688     1.921045     1.913402     1.905759     1.898115     1.890472     1.882829     1.875186     1.867543
      1.859900     1.852257     1.844614     1.836971     1.829327     1.821684     1.814041     1.806398     1.798755     1.791112
      1.783469     1.775826     1.768183     1.760540     1.752896     1.745253     1.737610     1.729967     1.722324     1.714681
      1.707038     1.699395     1.691752     1.684108     1.676465     1.668822     1.661179     1.653536     1.645893     1.638250
      1.630607     1.622964     1.615321     1.607677     1.600034     1.592391     1.584748     1.577105     1.569462     1.561819
      1.554176     1.546533     1.538890     1.531246     1.523603     1.515960     1.508317     1.500674     1.493031     1.485388
      1.477745     1.470102     1.462458     1.454815     1.447172     1.439529     1.431886     1.424243     1.416600     1.408957
      1.401314     1.393671     1.386027     1.378384     1.370741     1.363098     1.355455     1.347812     1.340169     1.332526
      1.324883     1.317240     1.309596     1.301953     1.294310     1.286667     1.279024     1.271381     1.263738     1.256095
      1.248452     1.240808     1.233165     1.225522     1.217879     1.210236     1.202593     1.194950     1.187307     1.179664
      1.172021     1.164377     1.156734     1.149091     1.141448     1.133805     1.126162     1.118519     1.110876     1.103233
      1.095590     1.087946     1.080303     1.072660     1.065017     1.057374     1.049731     1.042088     1.034445     1.026802
      1.019158     1.011515     1.003872     0.996229     0.988586     0.980943     0.973300     0.965657     0.958014     0.950371
      0.942727     0.935084     0.927441     0.919798     0.912155     0.904512     0.896869     0.889226     0.881583     0.873940
      0.866296     0.858653     0.851010     0.843367     0.835724     0.828081     0.820438     0.812795     0.805152     0.797508
      0.789865     0.782222     0.774579     0.766936     0.759293     0.751650     0.744007     0.736364     0.728721     0.721077
      0.713434     0.705791     0.698148     0.690505     0.682862     0.675219     0.667576     0.659933     0.652290     0.644646
      0.637003     0.629360     0.621717     0.614074     0.606431     0.598788     0.591145     0.583502     0.575858     0.568215
      0.560572     0.552929     0.545286     0.537643     0.530000     0.522357     0.514714     0.507071     0.499427     0.491784
      0.484141     0.476498     0.468855     0.461212     0.453569     0.445925     0.438282     0.430639     0.422996     0.415353
      0.407710     0.400067     0.392424     0.384780     0.377137     0.369494     0.361851     0.354208     0.346565     0.338922
      0.331278     0.323635     0.315992     0.308349     0.300706     0.293063     0.285420     0.277777     0.270133     0.262490
      0.254847     0.247204     0.239561     0.231918     0.224275     0.216631     0.208988     0.201345
 NY phased data points follow
  -5.29845E+01 -4.76843E+01 -5.34009E+01 -4.83495E+01 -4.96833E+01 -4.50031E+01 -4.30440E+01 -4.70392E+01 -4.41249E+01 -3.93406E+01
  -3.87128E+01 -3.40591E+01 -4.04530E+01 -3.52213E+01 -3.80335E+01 -3.88512E+01 -3.62140E+01 -3.69977E+01 -4.02683E+01 -4.02779E+01
  -4.29008E+01 -3.75426E+01 -3.81444E+01 -3.54756E+01 -3.88341E+01 -3.36022E+01 -3.66660E+01 -3.42611E+01 -3.63776E+01 -3.43606E+01
  -3.14491E+01 -3.15534E+01 -3.09964E+01 -3.09946E+01 -3.19424E+01 -3.20203E+01 -3.36399E+01 -2.94193E+01 -3.42532E+01 -2.69957E+01
  -3.45901E+01 -3.16955E+01 -3.52433E+01 -2.94785E+01 -3.40827E+01 -3.27793E+01 -2.80920E+01 -2.39719E+01 -2.55724E+01 -2.70742E+01
  -2.82017E+01 -2.67208E+01 -2.96634E+01 -2.78318E+01 -2.66695E+01 -3.29350E+01 -2.88910E+01 -2.96024E+01 -2.65774E+01 -3.02481E+01
  -2.96759E+01 -2.92516E+01 -2.93815E+01 -2.30519E+01 -2.64035E+01 -2.57638E+01 -2.54125E+01 -2.45837E+01 -2.43618E+01 -2.46713E+01
  -2.48356E+01 -2.32890E+01 -2.53469E+01 -2.50362E+01 -2.10034E+01 -2.29254E+01 -2.52304E+01 -1.86407E+01 -2.48278E+01 -2.23128E+01
  -2.34669E+01 -2.21741E+01 -1.80211E+01 -2.19151E+01 -2.04994E+01 -1.96942E+01 -2.29183E+01 -2.04240E+01 -2.32581E+01 -2.01625E+01
  -2.50625E+01 -2.31724E+01 -1.67464E+01 -1.69577E+01 -1.61907E+01 -1.84998E+01 -2.36551E+01 -2.13621E+01 -2.18156E+01 -2.02788E+01
  -2.03311E+01 -1.28302E+01 -7.96455E+00 -4.94524E+00 -1.10502E+01 -6.62769E+00 -1.45863E+01 -1.59138E+01 -1.41962E+01 -1.75910E+01
  -2.34079E+01 -1.64617E+01 -1.86191E+01 -1.88708E+01 -1.88313E+01 -1.92844E+01 -1.77032E+01 -1.61975E+01 -1.46776E+01 -1.22164E+01
  -1.59099E+01 -1.81304E+01 -2.01355E+01 -1.89847E+01 -1.33294E+01 -1.24646E+01 -7.88892E+00 -6.12352E+00 -6.01002E+00 -5.67650E+00
  -9.15463E+00 -1.21801E+01 -1.06446E+01 -1.18809E+01 -1.45886E+01 -1.73979E+01 -1.58355E+01 -1.30304E+01 -1.29568E+01 -1.05609E+01
  -1.57649E+01 -1.44621E+01 -1.92644E+01 -1.39482E+01 -1.41524E+01 -1.67406E+01 -1.49217E+01 -1.73788E+01 -1.44786E+01 -1.20417E+01
  -1.26929E+01 -1.53447E+01 -1.52747E+01 -1.33776E+01 -1.31583E+01 -1.37077E+01 -1.38839E+01 -1.14394E+01 -1.31595E+01 -1.07807E+01
  -9.83045E+00 -1.59080E+01 -1.42118E+01 -9.14966E+00 -1.05923E+01 -1.23562E+01 -1.25559E+01 -1.23113E+01 -1.19219E+01 -1.49612E+01
  -1.26439E+01 -1.20906E+01 -1.41039E+01 -1.35654E+01 -1.47654E+01 -1.41491E+01 -1.37768E+01 -1.53373E+01 -1.83790E+01 -8.80841E+00
  -1.32388E+01 -1.10988E+01 -1.58283E+01 -1.01040E+01 -1.01470E+01 -1.13655E+01 -1.26039E+01 -8.57725E+00 -7.53388E+00 -1.40410E+01
  -9.30313E+00 -1.02900E+01 -1.10062E+01 -9.02648E+00 -7.27376E+00 -1.33463E+01 -8.18344E+00 -1.07994E+01 -1.01982E+01 -8.71288E+00
  -9.43819E+00 -6.07473E+00 -7.40373E+00 -8.17082E+00 -9.44867E+00 -9.59009E+00 -5.22661E+00 -6.30257E+00 -8.43558E+00 -8.65297E+00
  -9.89920E+00 -1.34198E+01 -8.82493E+00 -8.18027E+00 -7.34568E+00 -2.17739E+00 -3.63539E+00 -1.15763E+00 -1.49789E+00 -5.94853E+00
  -9.07983E+00 -7.41776E+00 -8.89360E+00 -1.17199E+01 -5.23742E+00 -5.31993E+00 -7.63026E+00 -4.99250E+00 -4.70736E+00 -4.78348E+00
  -4.59011E+00 -4.45932E+00 -6.17252E+00 -5.48056E+00 -3.64134E+00 -4.79327E+00 -6.63592E+00 -4.27930E+00 -1.65978E+00 -5.57217E+00
  -8.33252E+00 -6.55277E+00 -2.54762E+00 -7.31277E+00 -6.40826E+00 -8.40520E+00 -2.15437E+00 -7.92207E+00 -3.47731E+00 -5.46008E+00
  -6.53226E+00 -1.78401E+00 -4.39962E+00 -7.58051E+00 -4.01408E+00 -8.01057E+00 -3.73659E+00 -5.69692E+00 -5.42897E+00  7.44162E-01
   5.60421E+00  7.56608E+00  7.72919E+00  4.31781E+00 -1.88784E+00 -6.03600E+00 -4.00997E+00 -1.55611E+00 -5.53541E+00 -2.04210E+00
  -4.69007E+00 -4.03360E+00 -9.33594E+00 -6.20997E+00 -3.09138E+00 -3.69747E+00 -5.27606E+00 -5.25856E+00 -8.31372E+00 -6.59985E+00
  -6.70890E+00 -2.10619E+00 -2.80529E+00 -6.23599E+00 -4.37870E+00 -4.69702E+00 -5.11595E+00 -3.21686E+00 -2.88340E+00 -5.43758E+00
  -4.09610E+00  1.62893E-01 -7.49719E+00 -7.66830E+00 -6.62007E+00 -4.72207E+00 -1.02766E+01 -5.09478E+00 -6.66907E+00 -8.49634E+00
  -9.03427E+00 -4.01102E+00 -8.13534E+00 -8.60116E+00 -4.85709E+00 -5.98814E+00 -9.57856E+00 -8.79538E+00 -5.73532E+00 -4.57601E+00
  -5.54782E+00 -8.36112E+00 -8.52343E+00 -4.49646E+00 -8.73215E+00 -7.58846E+00 -5.81918E+00 -8.60375E+00 -9.82684E+00 -1.01918E+01
  -8.36561E+00 -9.40898E+00 -5.52032E+00 -7.78033E+00 -1.01561E+01 -6.87184E+00 -7.47113E+00 -6.18848E+00 -9.77218E+00 -8.34337E+00
  -9.44820E+00 -1.02327E+01 -1.00883E+01 -1.10800E+01 -5.82283E+00 -7.88655E+00 -6.69877E+00 -6.67143E+00 -6.34226E+00 -7.95633E+00
  -6.53063E+00 -8.88178E+00 -5.69780E+00 -5.25754E+00 -6.69927E+00 -7.64429E+00 -6.57979E+00 -3.32774E+00 -5.44009E+00 -1.50955E+00
  -4.12173E+00 -3.61922E+00 -4.72215E+00 -6.25651E+00 -4.06856E+00 -6.15446E+00 -5.65670E+00 -1.95530E+00 -4.56096E+00 -4.92176E+00
  -6.94554E+00 -5.91641E+00 -4.77191E+00 -3.48514E+00 -5.19164E+00 -4.27084E+00 -7.41293E+00 -5.36317E+00 -9.06441E+00 -8.86450E+00
  -6.62998E+00 -7.31670E+00 -1.97296E+00 -9.53727E+00 -2.33668E+00 -5.94699E+00 -6.93198E+00 -4.27483E+00 -4.66391E+00 -7.61074E+00
  -1.09102E+01 -4.96343E+00 -7.27469E+00 -1.12148E+01 -3.63006E+00 -8.12075E+00  8.74488E-02 -5.09655E+00 -5.56823E+00 -5.89493E+00
  -5.27415E+00 -5.91046E+00 -4.94369E+00 -6.50018E+00 -5.33953E+00 -7.48063E+00 -4.02866E+00 -5.04035E+00 -3.04010E+00 -4.65545E+00
  -5.86152E+00 -5.32800E+00 -2.48463E+00 -3.78936E+00 -5.19580E+00 -4.01770E+00 -2.19458E+00 -4.79399E+00 -1.52407E+00 -4.72491E+00
  -6.26513E-01 -6.38366E+00 -7.70881E+00 -5.52829E+00 -3.67211E+00 -2.08029E+00 -3.96758E+00 -4.44222E+00 -3.05399E+00 -4.72410E-01
  -3.32460E+00 -3.80467E+00 -1.90296E+00 -5.57070E+00 -2.34856E+00 -3.37645E+00 -1.69706E+00 -2.29649E+00 -1.11431E+00 -6.53670E+00
   1.07424E+00 -1.84329E+00 -3.29361E+00 -1.23834E+00 -1.64032E+00 -7.73353E+00 -3.19319E+00 -1.93174E+00 -3.62105E+00 -7.10489E+00
  -3.21370E+00 -1.32222E+00 -2.16353E+00  3.92504E-01 -5.03800E+00 -2.95371E+00 -2.93749E-01 -3.06796E+00 -7.55516E-01 -2.85956E+00
  -8.31868E-01 -4.80353E+00  6.99176E-01 -4.09520E+00 -1.00678E-01 -5.68275E+00  1.09732E+00 -2.37805E+00 -1.74491E+00  1.54501E+00
  -4.72569E-01 -5.10220E+00 -2.40225E+00 -2.16712E+00 -4.02457E+00 -2.71146E+00 -2.64438E+00 -3.38582E+00 -2.52620E+00 -3.89736E+00
  -1.01872E+00 -3.34926E+00 -2.76716E+00 -3.82882E+00 -8.54603E-01 -3.02319E+00 -4.29093E+00 -1.47097E-01  2.73590E+00 -3.36359E+00
  -4.14489E-01 -2.97760E+00 -3.22310E+00 -1.12966E+00 -8.10937E-01 -1.37832E+00  1.12940E-01 -1.82830E+00 -7.74059E-01 -1.70663E+00
  -1.33856E+00 -3.42976E+00 -2.91051E+00 -1.68433E+00 -5.67824E+00 -3.22924E+00 -2.33263E+00 -2.23713E+00
 NY points of the fit to the data follow
  -4.43690E+01 -4.42872E+01 -4.41745E+01 -4.39080E+01 -4.34917E+01 -4.31554E+01 -4.31968E+01 -4.33009E+01 -4.26589E+01 -4.08297E+01
  -3.82834E+01 -3.62488E+01 -3.55027E+01 -3.59549E+01 -3.70767E+01 -3.79529E+01 -3.82518E+01 -3.86542E+01 -3.90193E+01 -3.89332E+01
  -3.86529E+01 -3.82686E+01 -3.78569E+01 -3.74344E+01 -3.71625E+01 -3.72352E+01 -3.72850E+01 -3.69260E+01 -3.59485E+01 -3.45493E+01
  -3.31879E+01 -3.20841E+01 -3.14603E+01 -3.14644E+01 -3.16197E+01 -3.20822E+01 -3.29444E+01 -3.34822E+01 -3.37624E+01 -3.38175E+01
  -3.36518E+01 -3.33571E+01 -3.30187E+01 -3.27233E+01 -3.20195E+01 -3.05161E+01 -2.85093E+01 -2.67295E+01 -2.59681E+01 -2.64505E+01
  -2.76744E+01 -2.89384E+01 -2.97381E+01 -3.00912E+01 -3.02281E+01 -3.01260E+01 -2.97649E+01 -2.91552E+01 -2.82962E+01 -2.73445E+01
  -2.65704E+01 -2.61904E+01 -2.63181E+01 -2.67303E+01 -2.70652E+01 -2.72010E+01 -2.70743E+01 -2.67541E+01 -2.63562E+01 -2.58744E+01
  -2.53731E+01 -2.48825E+01 -2.44651E+01 -2.41383E+01 -2.38302E+01 -2.36421E+01 -2.35446E+01 -2.35165E+01 -2.36325E+01 -2.37362E+01
  -2.36803E+01 -2.35169E+01 -2.32525E+01 -2.28156E+01 -2.23118E+01 -2.20136E+01 -2.21107E+01 -2.25233E+01 -2.29729E+01 -2.32027E+01
  -2.30234E+01 -2.25490E+01 -2.20959E+01 -2.16780E+01 -2.12874E+01 -2.09582E+01 -2.07637E+01 -2.09032E+01 -2.14580E+01 -2.09910E+01
  -1.83439E+01 -1.35607E+01 -8.73210E+00 -6.35700E+00 -6.94074E+00 -9.60617E+00 -1.30743E+01 -1.52355E+01 -1.62613E+01 -1.77134E+01
  -1.83386E+01 -1.83699E+01 -1.83009E+01 -1.81755E+01 -1.80521E+01 -1.79166E+01 -1.77844E+01 -1.76748E+01 -1.75895E+01 -1.75130E+01
  -1.74324E+01 -1.74302E+01 -1.77126E+01 -1.74432E+01 -1.56214E+01 -1.20722E+01 -8.00816E+00 -5.51177E+00 -5.46027E+00 -7.17566E+00
  -9.70844E+00 -1.15153E+01 -1.22227E+01 -1.33352E+01 -1.44363E+01 -1.50991E+01 -1.55977E+01 -1.57820E+01 -1.55364E+01 -1.50634E+01
  -1.45396E+01 -1.40634E+01 -1.37975E+01 -1.36883E+01 -1.36388E+01 -1.36318E+01 -1.35992E+01 -1.35794E+01 -1.35645E+01 -1.35265E+01
  -1.34818E+01 -1.34362E+01 -1.33966E+01 -1.33368E+01 -1.32406E+01 -1.31135E+01 -1.29565E+01 -1.28142E+01 -1.27437E+01 -1.27682E+01
  -1.28447E+01 -1.28606E+01 -1.27514E+01 -1.25266E+01 -1.22578E+01 -1.20550E+01 -1.19625E+01 -1.19160E+01 -1.18869E+01 -1.18489E+01
  -1.17724E+01 -1.16968E+01 -1.16222E+01 -1.15979E+01 -1.16436E+01 -1.16978E+01 -1.16584E+01 -1.14970E+01 -1.13114E+01 -1.11901E+01
  -1.11374E+01 -1.11181E+01 -1.10339E+01 -1.09049E+01 -1.08662E+01 -1.08940E+01 -1.08951E+01 -1.06866E+01 -1.01978E+01 -9.58520E+00
  -9.04098E+00 -8.72173E+00 -8.70911E+00 -8.90560E+00 -9.24375E+00 -9.65884E+00 -9.98640E+00 -1.00898E+01 -9.91137E+00 -9.46182E+00
  -8.83841E+00 -8.18859E+00 -7.58598E+00 -7.04708E+00 -6.68186E+00 -6.59940E+00 -6.91163E+00 -7.67627E+00 -8.74766E+00 -9.77543E+00
  -1.03375E+01 -1.03516E+01 -9.76023E+00 -8.39856E+00 -6.65253E+00 -5.16401E+00 -4.24468E+00 -4.25247E+00 -5.13123E+00 -6.63163E+00
  -8.39315E+00 -9.89172E+00 -1.08405E+01 -1.07290E+01 -9.63171E+00 -8.17178E+00 -6.84351E+00 -6.02998E+00 -5.71687E+00 -5.72230E+00
  -6.04924E+00 -6.45324E+00 -6.62507E+00 -6.60368E+00 -6.41596E+00 -6.11418E+00 -5.80180E+00 -5.53908E+00 -5.38459E+00 -5.47782E+00
  -5.88127E+00 -6.47383E+00 -6.91453E+00 -7.09416E+00 -6.96387E+00 -6.58677E+00 -6.10544E+00 -5.79947E+00 -5.82387E+00 -5.91695E+00
  -6.03494E+00 -6.10737E+00 -6.00824E+00 -5.70593E+00 -5.46716E+00 -5.70885E+00 -6.27362E+00 -5.64976E+00 -2.86979E+00  1.67068E+00
   5.78960E+00  7.38938E+00  6.30331E+00  3.39886E+00  6.47777E-02 -1.88963E+00 -3.17970E+00 -4.76351E+00 -5.45167E+00 -5.72205E+00
  -5.94153E+00 -6.08301E+00 -6.07183E+00 -5.98617E+00 -5.86799E+00 -5.75994E+00 -5.70050E+00 -5.71300E+00 -5.76381E+00 -5.84302E+00
  -5.94470E+00 -6.03435E+00 -6.09642E+00 -6.13287E+00 -6.14436E+00 -6.14776E+00 -6.15245E+00 -6.15452E+00 -6.16379E+00 -6.17875E+00
  -6.19494E+00 -6.21201E+00 -6.23134E+00 -6.25222E+00 -6.27115E+00 -6.28754E+00 -6.30379E+00 -6.31824E+00 -6.33110E+00 -6.34460E+00
  -6.35740E+00 -6.36934E+00 -6.38036E+00 -6.39097E+00 -6.40190E+00 -6.41348E+00 -6.42570E+00 -6.43811E+00 -6.44993E+00 -6.46139E+00
  -6.47251E+00 -6.48281E+00 -6.49221E+00 -6.50044E+00 -6.50724E+00 -6.51238E+00 -6.51550E+00 -6.51615E+00 -6.51377E+00 -6.50784E+00
  -6.49839E+00 -6.48863E+00 -6.47379E+00 -6.35722E+00 -6.10145E+00 -5.81530E+00 -5.70268E+00 -5.91949E+00 -6.38728E+00 -6.90564E+00
  -7.39732E+00 -7.74851E+00 -7.87675E+00 -7.80113E+00 -7.37497E+00 -6.74506E+00 -6.23350E+00 -5.94744E+00 -5.91391E+00 -6.02552E+00
  -6.07856E+00 -6.13087E+00 -6.21876E+00 -6.23677E+00 -6.20141E+00 -6.12388E+00 -6.00528E+00 -5.84522E+00 -5.64530E+00 -5.41121E+00
  -5.15395E+00 -4.88992E+00 -4.63974E+00 -4.42585E+00 -4.26917E+00 -4.18559E+00 -4.18302E+00 -4.25999E+00 -4.40586E+00 -4.60288E+00
  -4.82934E+00 -5.06321E+00 -5.28521E+00 -5.48107E+00 -5.64238E+00 -5.76627E+00 -5.85429E+00 -5.91084E+00 -5.94170E+00 -5.95279E+00
  -5.94941E+00 -5.93586E+00 -5.91534E+00 -5.89007E+00 -5.86145E+00 -5.83032E+00 -5.79712E+00 -5.76206E+00 -5.72517E+00 -5.68641E+00
  -5.64564E+00 -5.60275E+00 -5.55754E+00 -5.50989E+00 -5.45960E+00 -5.40653E+00 -5.35053E+00 -5.29149E+00 -5.22932E+00 -5.16405E+00
  -5.09571E+00 -5.02448E+00 -4.95057E+00 -4.87435E+00 -4.79629E+00 -4.71699E+00 -4.63716E+00 -4.55758E+00 -4.47911E+00 -4.40268E+00
  -4.32919E+00 -4.25956E+00 -4.19460E+00 -4.13502E+00 -4.08137E+00 -4.03404E+00 -3.99324E+00 -3.95896E+00 -3.93097E+00 -3.90888E+00
  -3.89208E+00 -3.87989E+00 -3.87149E+00 -3.86602E+00 -3.86259E+00 -3.86033E+00 -3.85841E+00 -3.85612E+00 -3.85282E+00 -3.84799E+00
  -3.84120E+00 -3.83217E+00 -3.82070E+00 -3.80671E+00 -3.79019E+00 -3.77120E+00 -3.74984E+00 -3.72625E+00 -3.70062E+00 -3.67315E+00
  -3.64401E+00 -3.61341E+00 -3.58150E+00 -3.54848E+00 -3.51449E+00 -3.47971E+00 -3.44424E+00 -3.40821E+00 -3.37170E+00 -3.33483E+00
  -3.29767E+00 -3.26031E+00 -3.22279E+00 -3.18516E+00 -3.14747E+00 -3.10978E+00 -3.07212E+00 -3.03455E+00 -2.99707E+00 -2.95972E+00
  -2.92252E+00 -2.88551E+00 -2.84871E+00 -2.81214E+00 -2.77578E+00 -2.73964E+00 -2.70372E+00 -2.66803E+00 -2.63257E+00 -2.59733E+00
  -2.56229E+00 -2.52746E+00 -2.49284E+00 -2.45843E+00 -2.42422E+00 -2.39020E+00 -2.35635E+00 -2.32269E+00 -2.28920E+00 -2.25590E+00
  -2.22276E+00 -2.18976E+00 -2.15690E+00 -2.12419E+00 -2.09162E+00 -2.05919E+00 -2.02686E+00 -1.99464E+00 -1.96251E+00 -1.93050E+00
  -1.89859E+00 -1.86677E+00 -1.83500E+00 -1.80329E+00 -1.77164E+00 -1.74006E+00 -1.70852E+00 -1.67701E+00 -1.64551E+00 -1.61402E+00
  -1.58255E+00 -1.55110E+00 -1.51964E+00 -1.48814E+00 -1.45659E+00 -1.42502E+00 -1.39341E+00 -1.36176E+00
 NY background values follow
    -4.551E+01   -4.522E+01   -4.493E+01   -4.464E+01   -4.435E+01   -4.407E+01   -4.378E+01   -4.349E+01   -4.320E+01   -4.291E+01
    -4.262E+01   -4.234E+01   -4.205E+01   -4.176E+01   -4.147E+01   -4.119E+01   -4.090E+01   -4.062E+01   -4.033E+01   -4.005E+01
    -3.976E+01   -3.948E+01   -3.919E+01   -3.891E+01   -3.863E+01   -3.835E+01   -3.807E+01   -3.779E+01   -3.751E+01   -3.723E+01
    -3.695E+01   -3.667E+01   -3.640E+01   -3.612E+01   -3.585E+01   -3.557E+01   -3.530E+01   -3.503E+01   -3.476E+01   -3.449E+01
    -3.422E+01   -3.395E+01   -3.369E+01   -3.342E+01   -3.316E+01   -3.290E+01   -3.263E+01   -3.237E+01   -3.212E+01   -3.186E+01
    -3.160E+01   -3.135E+01   -3.109E+01   -3.084E+01   -3.059E+01   -3.034E+01   -3.009E+01   -2.985E+01   -2.960E+01   -2.936E+01
    -2.911E+01   -2.887E+01   -2.863E+01   -2.840E+01   -2.816E+01   -2.792E+01   -2.769E+01   -2.746E+01   -2.723E+01   -2.700E+01
    -2.677E+01   -2.654E+01   -2.632E+01   -2.610E+01   -2.588E+01   -2.566E+01   -2.544E+01   -2.522E+01   -2.501E+01   -2.479E+01
    -2.458E+01   -2.437E+01   -2.416E+01   -2.396E+01   -2.375E+01   -2.355E+01   -2.335E+01   -2.315E+01   -2.295E+01   -2.276E+01
    -2.256E+01   -2.237E+01   -2.218E+01   -2.199E+01   -2.180E+01   -2.162E+01   -2.143E+01   -2.125E+01   -2.107E+01   -2.089E+01
    -2.072E+01   -2.054E+01   -2.037E+01   -2.020E+01   -2.003E+01   -1.986E+01   -1.969E+01   -1.953E+01   -1.936E+01   -1.920E+01
    -1.904E+01   -1.888E+01   -1.872E+01   -1.857E+01   -1.841E+01   -1.826E+01   -1.810E+01   -1.795E+01   -1.780E+01   -1.766E+01
    -1.751E+01   -1.736E+01   -1.722E+01   -1.708E+01   -1.693E+01   -1.679E+01   -1.666E+01   -1.652E+01   -1.638E+01   -1.625E+01
    -1.611E+01   -1.598E+01   -1.585E+01   -1.572E+01   -1.559E+01   -1.546E+01   -1.533E+01   -1.520E+01   -1.508E+01   -1.495E+01
    -1.483E+01   -1.471E+01   -1.459E+01   -1.447E+01   -1.435E+01   -1.423E+01   -1.411E+01   -1.400E+01   -1.388E+01   -1.377E+01
    -1.365E+01   -1.354E+01   -1.343E+01   -1.332E+01   -1.321E+01   -1.310E+01   -1.299E+01   -1.288E+01   -1.278E+01   -1.267E+01
    -1.257E+01   -1.246E+01   -1.236E+01   -1.226E+01   -1.215E+01   -1.205E+01   -1.195E+01   -1.185E+01   -1.175E+01   -1.166E+01
    -1.156E+01   -1.146E+01   -1.137E+01   -1.127E+01   -1.118E+01   -1.108E+01   -1.099E+01   -1.089E+01   -1.080E+01   -1.071E+01
    -1.062E+01   -1.053E+01   -1.044E+01   -1.035E+01   -1.026E+01   -1.017E+01   -1.009E+01   -9.998E+00   -9.912E+00   -9.827E+00
    -9.742E+00   -9.658E+00   -9.574E+00   -9.491E+00   -9.410E+00   -9.328E+00   -9.248E+00   -9.169E+00   -9.090E+00   -9.012E+00
    -8.935E+00   -8.859E+00   -8.784E+00   -8.710E+00   -8.637E+00   -8.564E+00   -8.493E+00   -8.423E+00   -8.353E+00   -8.285E+00
    -8.217E+00   -8.151E+00   -8.086E+00   -8.022E+00   -7.959E+00   -7.897E+00   -7.836E+00   -7.776E+00   -7.718E+00   -7.661E+00
    -7.605E+00   -7.550E+00   -7.496E+00   -7.444E+00   -7.393E+00   -7.343E+00   -7.295E+00   -7.247E+00   -7.201E+00   -7.157E+00
    -7.114E+00   -7.072E+00   -7.031E+00   -6.991E+00   -6.953E+00   -6.916E+00   -6.880E+00   -6.846E+00   -6.812E+00   -6.780E+00
    -6.749E+00   -6.719E+00   -6.690E+00   -6.663E+00   -6.636E+00   -6.611E+00   -6.587E+00   -6.564E+00   -6.542E+00   -6.521E+00
    -6.501E+00   -6.482E+00   -6.465E+00   -6.448E+00   -6.432E+00   -6.418E+00   -6.404E+00   -6.392E+00   -6.380E+00   -6.369E+00
    -6.360E+00   -6.351E+00   -6.343E+00   -6.336E+00   -6.331E+00   -6.326E+00   -6.322E+00   -6.318E+00   -6.316E+00   -6.315E+00
    -6.314E+00   -6.314E+00   -6.315E+00   -6.317E+00   -6.320E+00   -6.324E+00   -6.328E+00   -6.333E+00   -6.338E+00   -6.344E+00
    -6.351E+00   -6.358E+00   -6.366E+00   -6.375E+00   -6.383E+00   -6.393E+00   -6.402E+00   -6.412E+00   -6.423E+00   -6.433E+00
    -6.444E+00   -6.455E+00   -6.467E+00   -6.478E+00   -6.490E+00   -6.502E+00   -6.514E+00   -6.526E+00   -6.538E+00   -6.550E+00
    -6.562E+00   -6.574E+00   -6.586E+00   -6.598E+00   -6.609E+00   -6.621E+00   -6.632E+00   -6.643E+00   -6.654E+00   -6.664E+00
    -6.674E+00   -6.683E+00   -6.693E+00   -6.701E+00   -6.710E+00   -6.717E+00   -6.725E+00   -6.731E+00   -6.738E+00   -6.743E+00
    -6.748E+00   -6.752E+00   -6.756E+00   -6.759E+00   -6.762E+00   -6.764E+00   -6.765E+00   -6.766E+00   -6.766E+00   -6.766E+00
    -6.765E+00   -6.763E+00   -6.760E+00   -6.757E+00   -6.754E+00   -6.750E+00   -6.745E+00   -6.739E+00   -6.733E+00   -6.726E+00
    -6.719E+00   -6.710E+00   -6.702E+00   -6.692E+00   -6.682E+00   -6.671E+00   -6.659E+00   -6.647E+00   -6.634E+00   -6.621E+00
    -6.606E+00   -6.591E+00   -6.575E+00   -6.559E+00   -6.542E+00   -6.524E+00   -6.505E+00   -6.486E+00   -6.466E+00   -6.445E+00
    -6.424E+00   -6.402E+00   -6.379E+00   -6.355E+00   -6.330E+00   -6.305E+00   -6.279E+00   -6.253E+00   -6.226E+00   -6.198E+00
    -6.169E+00   -6.140E+00   -6.110E+00   -6.080E+00   -6.049E+00   -6.018E+00   -5.986E+00   -5.953E+00   -5.920E+00   -5.886E+00
    -5.852E+00   -5.817E+00   -5.782E+00   -5.746E+00   -5.710E+00   -5.674E+00   -5.637E+00   -5.599E+00   -5.562E+00   -5.524E+00
    -5.485E+00   -5.446E+00   -5.407E+00   -5.367E+00   -5.327E+00   -5.287E+00   -5.247E+00   -5.206E+00   -5.165E+00   -5.124E+00
    -5.082E+00   -5.040E+00   -4.999E+00   -4.956E+00   -4.914E+00   -4.872E+00   -4.829E+00   -4.786E+00   -4.743E+00   -4.700E+00
    -4.657E+00   -4.614E+00   -4.570E+00   -4.527E+00   -4.483E+00   -4.440E+00   -4.396E+00   -4.353E+00   -4.309E+00   -4.265E+00
    -4.222E+00   -4.178E+00   -4.134E+00   -4.091E+00   -4.047E+00   -4.003E+00   -3.960E+00   -3.916E+00   -3.873E+00   -3.830E+00
    -3.786E+00   -3.743E+00   -3.700E+00   -3.658E+00   -3.615E+00   -3.572E+00   -3.530E+00   -3.488E+00   -3.446E+00   -3.404E+00
    -3.362E+00   -3.321E+00   -3.279E+00   -3.238E+00   -3.198E+00   -3.157E+00   -3.117E+00   -3.077E+00   -3.037E+00   -2.998E+00
    -2.959E+00   -2.920E+00   -2.882E+00   -2.843E+00   -2.806E+00   -2.768E+00   -2.731E+00   -2.694E+00   -2.657E+00   -2.621E+00
    -2.585E+00   -2.549E+00   -2.514E+00   -2.479E+00   -2.444E+00   -2.409E+00   -2.374E+00   -2.340E+00   -2.306E+00   -2.272E+00
    -2.238E+00   -2.204E+00   -2.171E+00   -2.138E+00   -2.105E+00   -2.072E+00   -2.039E+00   -2.006E+00   -1.974E+00   -1.941E+00
    -1.909E+00   -1.877E+00   -1.845E+00   -1.813E+00   -1.781E+00   -1.749E+00   -1.717E+00   -1.686E+00   -1.654E+00   -1.622E+00
    -1.590E+00   -1.559E+00   -1.527E+00   -1.496E+00   -1.464E+00   -1.432E+00   -1.401E+00   -1.369E+00
 Ala      Conc. = 5.56E+01
