 LCModel (Version 6.3-1L) Copyright: S.W. Provencher.          Ref.: Magn. Reson. Med. 30:672-679 (1993).                
 Slice#3 Row#7 Col#9  PD_24_press_1_raw_act
 36 lines in following concentration table = NCONC+1
    Conc.  %SD /Cr+PCr  Metabolite                                         
   71.392 182% 3.3E-02 Ala                                                 
  154.220 174% 7.2E-02 Asp                                                 
  411.976  67%   0.191 Cr                                                  
 1.74E+03  16%   0.809 PCr                                                 
    0.000 999%   0.000 GABA                                                
    0.000 999%   0.000 Glc                                                 
 1.33E+03  21%   0.618 Gln                                                 
 1.68E+03  18%   0.782 Glu                                                 
  811.521   3%   0.377 GPC                                                 
    0.000 999%   0.000 PCh                                                 
  399.734  21%   0.186 GSH                                                 
  618.774  47%   0.287 Ins                                                 
    0.000 999%   0.000 Lac                                                 
 2.59E+03   3%   1.202 NAA                                                 
    0.000 999%   0.000 NAAG                                                
   65.497  48% 3.0E-02 Scyllo                                              
    0.000 999%   0.000 Tau                                                 
    0.000 999%   0.000 -CrCH2                                              
  811.521   3%   0.377 GPC+PCh                                             
 2.59E+03   3%   1.202 NAA+NAAG                                            
 2.15E+03   3%   1.000 Cr+PCr                                              
 3.01E+03  15%   1.400 Glu+Gln                                             
    0.000 999%   0.000 Lip13a                                              
  287.432  43%   0.133 Lip13b                                              
   41.583 197% 1.9E-02 Lip09                                               
 1.24E+03  18%   0.578 MM09                                                
   55.123 101% 2.6E-02 Lip20                                               
 2.63E+03  15%   1.223 MM20                                                
  338.764  41%   0.157 MM12                                                
 1.49E+03  22%   0.694 MM14                                                
  745.920  33%   0.346 MM17                                                
  287.432  43%   0.133 Lip13a+Lip13b                                       
 2.12E+03  18%   0.985 MM14+Lip13a+Lip13b+MM12                             
 1.29E+03  17%   0.597 MM09+Lip09                                          
 2.69E+03  15%   1.249 MM20+Lip20                                          
   6 lines in following misc. output table
  FWHM = 0.061 ppm    S/N =  11                                            
  Data shift = 0.015 ppm                                                   
  Ph: -31 deg      -7.3 deg/ppm                                            
  alphaB,S = 5.8E-01,   1.9E+02                                            
   14 spline knots.   Ns = 7(1)                                            
  (13) 2 infls.   ( 3) 1 extrs.                                            
  498 points on ppm-axis = NY
      4.000000     3.992357     3.984714     3.977070     3.969427     3.961784     3.954141     3.946497     3.938854     3.931211
      3.923568     3.915925     3.908281     3.900638     3.892995     3.885352     3.877708     3.870065     3.862422     3.854779
      3.847136     3.839492     3.831849     3.824206     3.816563     3.808919     3.801276     3.793633     3.785990     3.778347
      3.770703     3.763060     3.755417     3.747774     3.740130     3.732487     3.724844     3.717201     3.709558     3.701914
      3.694271     3.686628     3.678985     3.671341     3.663698     3.656055     3.648412     3.640769     3.633125     3.625482
      3.617839     3.610196     3.602552     3.594909     3.587266     3.579623     3.571980     3.564336     3.556693     3.549050
      3.541407     3.533763     3.526120     3.518477     3.510834     3.503191     3.495547     3.487904     3.480261     3.472618
      3.464974     3.457331     3.449688     3.442045     3.434402     3.426758     3.419115     3.411472     3.403829     3.396185
      3.388542     3.380899     3.373256     3.365613     3.357969     3.350326     3.342683     3.335040     3.327396     3.319753
      3.312110     3.304467     3.296824     3.289180     3.281537     3.273894     3.266251     3.258607     3.250964     3.243321
      3.235678     3.228034     3.220391     3.212748     3.205105     3.197462     3.189818     3.182175     3.174532     3.166889
      3.159245     3.151602     3.143959     3.136316     3.128673     3.121029     3.113386     3.105743     3.098100     3.090456
      3.082813     3.075170     3.067527     3.059884     3.052240     3.044597     3.036954     3.029311     3.021667     3.014024
      3.006381     2.998738     2.991095     2.983451     2.975808     2.968165     2.960522     2.952878     2.945235     2.937592
      2.929949     2.922306     2.914662     2.907019     2.899376     2.891733     2.884089     2.876446     2.868803     2.861160
      2.853517     2.845873     2.838230     2.830587     2.822944     2.815300     2.807657     2.800014     2.792371     2.784728
      2.777084     2.769441     2.761798     2.754155     2.746511     2.738868     2.731225     2.723582     2.715939     2.708295
      2.700652     2.693009     2.685366     2.677722     2.670079     2.662436     2.654793     2.647150     2.639506     2.631863
      2.624220     2.616577     2.608933     2.601290     2.593647     2.586004     2.578361     2.570717     2.563074     2.555431
      2.547788     2.540144     2.532501     2.524858     2.517215     2.509572     2.501928     2.494285     2.486642     2.478999
      2.471355     2.463712     2.456069     2.448426     2.440783     2.433139     2.425496     2.417853     2.410210     2.402566
      2.394923     2.387280     2.379637     2.371994     2.364350     2.356707     2.349064     2.341421     2.333777     2.326134
      2.318491     2.310848     2.303205     2.295561     2.287918     2.280275     2.272632     2.264988     2.257345     2.249702
      2.242059     2.234416     2.226772     2.219129     2.211486     2.203843     2.196199     2.188556     2.180913     2.173270
      2.165627     2.157983     2.150340     2.142697     2.135054     2.127410     2.119767     2.112124     2.104481     2.096838
      2.089194     2.081551     2.073908     2.066265     2.058621     2.050978     2.043335     2.035692     2.028049     2.020405
      2.012762     2.005119     1.997476     1.989833     1.982190     1.974546     1.966903     1.959260     1.951617     1.943974
      1.936331     1.928688     1.921045     1.913402     1.905759     1.898115     1.890472     1.882829     1.875186     1.867543
      1.859900     1.852257     1.844614     1.836971     1.829327     1.821684     1.814041     1.806398     1.798755     1.791112
      1.783469     1.775826     1.768183     1.760540     1.752896     1.745253     1.737610     1.729967     1.722324     1.714681
      1.707038     1.699395     1.691752     1.684108     1.676465     1.668822     1.661179     1.653536     1.645893     1.638250
      1.630607     1.622964     1.615321     1.607677     1.600034     1.592391     1.584748     1.577105     1.569462     1.561819
      1.554176     1.546533     1.538890     1.531246     1.523603     1.515960     1.508317     1.500674     1.493031     1.485388
      1.477745     1.470102     1.462458     1.454815     1.447172     1.439529     1.431886     1.424243     1.416600     1.408957
      1.401314     1.393671     1.386027     1.378384     1.370741     1.363098     1.355455     1.347812     1.340169     1.332526
      1.324883     1.317240     1.309596     1.301953     1.294310     1.286667     1.279024     1.271381     1.263738     1.256095
      1.248452     1.240808     1.233165     1.225522     1.217879     1.210236     1.202593     1.194950     1.187307     1.179664
      1.172021     1.164377     1.156734     1.149091     1.141448     1.133805     1.126162     1.118519     1.110876     1.103233
      1.095590     1.087946     1.080303     1.072660     1.065017     1.057374     1.049731     1.042088     1.034445     1.026802
      1.019158     1.011515     1.003872     0.996229     0.988586     0.980943     0.973300     0.965657     0.958014     0.950371
      0.942727     0.935084     0.927441     0.919798     0.912155     0.904512     0.896869     0.889226     0.881583     0.873940
      0.866296     0.858653     0.851010     0.843367     0.835724     0.828081     0.820438     0.812795     0.805152     0.797508
      0.789865     0.782222     0.774579     0.766936     0.759293     0.751650     0.744007     0.736364     0.728721     0.721077
      0.713434     0.705791     0.698148     0.690505     0.682862     0.675219     0.667576     0.659933     0.652290     0.644646
      0.637003     0.629360     0.621717     0.614074     0.606431     0.598788     0.591145     0.583502     0.575858     0.568215
      0.560572     0.552929     0.545286     0.537643     0.530000     0.522357     0.514714     0.507071     0.499427     0.491784
      0.484141     0.476498     0.468855     0.461212     0.453569     0.445925     0.438282     0.430639     0.422996     0.415353
      0.407710     0.400067     0.392424     0.384780     0.377137     0.369494     0.361851     0.354208     0.346565     0.338922
      0.331278     0.323635     0.315992     0.308349     0.300706     0.293063     0.285420     0.277777     0.270133     0.262490
      0.254847     0.247204     0.239561     0.231918     0.224275     0.216631     0.208988     0.201345
 NY phased data points follow
   4.19629E+01  3.91510E+01  4.73049E+01  4.11645E+01  5.04315E+01  6.08739E+01  6.11337E+01  7.41392E+01  8.34237E+01  8.44584E+01
   8.54579E+01  8.81798E+01  8.12198E+01  7.63366E+01  6.98026E+01  6.16304E+01  5.05146E+01  5.12512E+01  4.21980E+01  3.52385E+01
   3.76660E+01  3.91739E+01  3.05755E+01  3.76271E+01  3.63828E+01  3.15740E+01  3.75131E+01  3.90203E+01  4.06748E+01  3.96248E+01
   3.85111E+01  3.65364E+01  3.89956E+01  3.26201E+01  4.16622E+01  3.30422E+01  3.50298E+01  2.96122E+01  3.59411E+01  3.36616E+01
   2.71920E+01  3.18162E+01  2.90994E+01  3.36663E+01  3.43786E+01  4.14669E+01  3.39745E+01  3.51548E+01  3.56614E+01  3.75899E+01
   2.93026E+01  2.77606E+01  2.95967E+01  2.46344E+01  2.64013E+01  2.85092E+01  2.69422E+01  2.38887E+01  2.10474E+01  2.54091E+01
   2.01058E+01  1.85777E+01  1.36596E+01  1.64959E+01  1.49049E+01  8.73828E+00  6.88381E+00  1.01329E+01  3.64477E+00  8.06292E+00
   1.17565E+01  1.38851E+01  1.33002E+01  1.44294E+01  1.78272E+01  1.45300E+01  9.32288E+00  1.05829E+01  7.61132E+00  1.08928E+01
   1.13847E+01  1.80399E+01  1.34053E+01  7.49007E+00  1.32214E+01  1.53261E+01  1.60534E+01  1.51292E+01  1.96984E+01  9.69960E+00
   9.90468E+00  1.36710E+01  1.33032E+01  1.16622E+01  1.56360E+01  9.73678E+00  9.32659E+00  1.65006E+01  2.51018E+01  4.36840E+01
   5.93508E+01  7.04985E+01  7.56197E+01  7.61871E+01  7.82417E+01  6.67151E+01  5.98671E+01  4.89573E+01  3.99954E+01  3.18292E+01
   2.01792E+01  2.00682E+01  1.74725E+01  1.27721E+01  1.10791E+01  8.20389E+00  8.75312E+00  8.18716E-01  4.30908E+00  1.77327E-01
   3.26955E+00  9.16999E+00  1.92068E+01  3.43540E+01  4.31660E+01  5.85803E+01  6.32114E+01  7.23969E+01  6.25954E+01  5.90101E+01
   5.96599E+01  4.67015E+01  3.31221E+01  2.78681E+01  2.38528E+01  1.45789E+01  1.07653E+01  1.37528E+01  9.65609E+00  1.25888E+01
   7.32114E+00  9.33869E+00  8.64183E+00  8.56281E+00  8.70743E+00  4.87660E+00  1.51715E-01  5.45650E+00  7.58593E+00  4.12543E+00
   5.50141E+00  6.46561E-01  2.47045E+00  1.69406E+00  3.98493E+00  1.18062E+00  6.14349E+00  6.79595E+00  2.69891E+00  4.71681E-01
  -2.68971E+00 -2.07962E-01  8.81207E-01 -1.00856E+00 -3.81612E+00 -1.89860E+00  1.13133E+00 -1.14410E+00  3.35044E+00 -1.26226E+00
   1.02312E+00  1.33419E+00 -6.67605E-01 -5.32300E+00 -3.71346E+00 -4.95903E+00 -5.56890E+00 -3.87964E+00 -2.48110E+00 -5.39276E+00
  -5.49904E+00 -5.73839E+00 -5.61838E+00 -3.98862E+00 -4.93558E+00 -1.40187E+01 -6.97480E+00  7.30788E-02  3.21953E-01  1.02514E+00
  -8.25640E-01  2.03371E+00  1.18187E+01  1.15872E+01  1.06984E+01  8.43411E+00  3.12627E+00  4.40696E+00  2.25314E+00  4.62954E+00
   1.05473E+01  7.96251E+00  1.06314E+01  6.51026E+00  7.95003E+00  7.57172E+00  2.77874E+00  3.37716E+00 -7.31854E-01 -3.76341E+00
  -3.28601E+00 -1.56198E+00  4.09857E+00  9.72671E+00  1.94774E+01  1.51763E+01  1.78782E+01  1.67270E+01  1.28488E+01  9.00081E+00
   7.69088E+00  4.28659E+00  5.19806E+00  7.07470E+00  6.66069E+00  1.20366E+01  1.08226E+01  1.30424E+01  1.31854E+01  1.10895E+01
   1.02367E+01  1.30718E+01  1.02362E+01  1.50608E+01  1.26823E+01  1.37986E+01  1.60123E+01  1.54874E+01  1.00512E+01  8.61055E+00
   8.00942E+00  1.02033E+01  5.49880E+00  8.49988E+00  1.19293E+01  1.60961E+01  1.08456E+01  1.27512E+01  1.62389E+01  1.34474E+01
   1.01773E+01  1.21797E+01  1.65906E+01  1.87301E+01  2.05596E+01  2.68846E+01  4.34566E+01  5.52697E+01  8.28176E+01  9.21788E+01
   9.43818E+01  9.14075E+01  8.28356E+01  6.91220E+01  5.60821E+01  3.87038E+01  3.24965E+01  3.01459E+01  2.08183E+01  1.62855E+01
   1.47143E+01  1.19505E+01  1.39867E+01  1.11051E+01  7.14842E+00  1.00726E+01  1.11366E+01  1.20147E+01  1.29796E+01  6.62018E+00
   7.04350E+00  1.27693E+01  8.93935E+00  6.92285E+00  7.43832E+00  7.51781E+00  8.00775E+00  8.40888E+00  5.13246E+00  7.77863E+00
   1.03048E+01  6.01037E+00  7.62585E+00  9.33018E+00  5.69701E+00  4.95813E+00  2.56333E+00  5.53703E+00  6.23569E+00  6.61984E+00
   1.00638E+01  8.19603E+00  7.19581E+00  7.89920E+00  7.69592E+00  4.75451E+00  1.10571E+01  9.67465E+00  8.01526E+00  9.74624E+00
   6.43814E+00  1.25266E+01  1.30343E+01  9.12501E+00  7.29356E+00  1.67883E+01  8.74668E+00  6.27290E+00  1.20590E+01  1.59643E+01
   1.40879E+01  1.46460E+01  5.75510E+00  7.37199E+00  1.07538E+01  5.84523E+00  8.27044E+00  7.27206E+00  1.10163E+01  8.58860E+00
   6.66163E+00  9.74920E+00  1.05664E+01  1.15095E+01  1.38254E+01  4.70730E+00  1.26640E+01  1.57134E+01  1.42208E+01  5.78575E+00
   9.23426E+00  1.01684E+01  6.78984E+00  1.41887E+01  1.09473E+01  1.23567E+01  7.40796E+00  1.37012E+01  1.12991E+01  1.20398E+01
   9.13388E+00  1.41052E+01  1.29304E+01  6.07347E+00  7.94695E+00  1.55070E+01  1.03555E+01  1.10820E+01  1.14693E+01  6.47490E+00
   1.88477E+00  3.70549E+00  1.52277E+00  3.35344E+00  5.97319E+00  6.18739E+00  7.33869E+00  3.95001E+00  5.18833E+00  6.98944E+00
   3.31363E+00  2.08983E+00  2.71364E+00  1.36328E+01  5.98636E-01  3.85073E+00  4.97609E+00  5.26572E+00 -9.17452E-01  1.31963E+00
  -3.45543E+00  1.59636E+00  4.88794E+00  3.70588E+00  6.85998E+00  7.28987E+00  9.35953E-01  3.96134E+00 -2.01226E+00  5.02154E+00
   2.39621E+00  3.95191E+00  1.72314E+00  1.39682E+00  6.65583E+00  2.49954E+00  8.33666E+00  6.90747E+00  1.34633E+01  4.68434E+00
   9.53487E+00  7.07140E+00  9.82646E+00  1.14901E+01  1.03738E+01  1.24666E+01  1.18007E+01  1.46130E+01  3.83542E+00  9.85426E+00
   2.88690E+00  7.76986E+00  9.42546E+00  3.76252E+00  7.08444E+00  1.22004E+01  5.64093E+00  7.18677E+00  3.99482E+00  4.77474E+00
   5.40833E+00  6.29360E+00  9.29382E+00  1.76003E+00  6.02258E+00  4.06509E+00  2.62513E+00  5.68847E+00 -1.05263E+00  6.88561E+00
  -9.35990E-01  1.08139E-01 -1.09410E+00  6.10059E+00  7.17805E-01  8.38651E-01  4.03923E+00 -2.16716E+00 -1.57258E+00 -1.61567E+00
   1.41925E+00 -1.43791E+00 -3.51043E-01  6.93147E+00  1.29410E+00 -2.71431E-01  1.95490E-01  1.48353E+00  7.01538E-01  2.74563E+00
   1.11099E-01  5.44570E+00 -4.74918E-01 -2.01160E+00  4.27531E+00 -2.04747E+00 -4.05648E+00 -4.44000E+00  9.94879E-01  3.18876E-01
  -2.83840E+00  1.16391E-01 -2.47435E-01  1.62195E+00  1.46510E+00 -1.57817E+00 -2.07077E+00 -1.81902E+00  1.88329E+00 -4.11511E+00
   6.21894E-01 -1.65495E+00 -1.69257E+00  3.18337E-01  1.25517E+00 -1.38844E+00  2.30695E+00  2.32642E+00  2.35331E+00 -1.24563E+00
  -1.22937E+00 -2.21425E+00 -2.72874E+00  2.25393E+00 -3.56807E+00 -2.05296E+00  5.07170E+00 -3.99242E+00  5.34777E+00 -9.55374E-01
   1.74338E+00  2.85501E+00  2.17399E+00  1.07056E+00 -2.84548E+00 -3.27067E+00  1.52254E+00 -2.58232E-01
 NY points of the fit to the data follow
   3.99091E+01  3.98784E+01  4.04219E+01  4.22404E+01  4.63155E+01  5.30439E+01  6.16979E+01  7.06651E+01  7.79805E+01  8.21811E+01
   8.28666E+01  8.04913E+01  7.58555E+01  6.98277E+01  6.33259E+01  5.71751E+01  5.16988E+01  4.67659E+01  4.25804E+01  3.99260E+01
   3.84153E+01  3.72282E+01  3.59901E+01  3.47768E+01  3.39462E+01  3.38782E+01  3.47593E+01  3.64432E+01  3.84799E+01  4.03065E+01
   4.14279E+01  4.15419E+01  4.05986E+01  3.88159E+01  3.66290E+01  3.44580E+01  3.26216E+01  3.11525E+01  3.01149E+01  2.96702E+01
   2.96827E+01  3.00716E+01  3.06938E+01  3.14288E+01  3.21365E+01  3.25573E+01  3.25356E+01  3.20748E+01  3.12730E+01  3.02687E+01
   2.90881E+01  2.77952E+01  2.65916E+01  2.55549E+01  2.45927E+01  2.37742E+01  2.32349E+01  2.28734E+01  2.24852E+01  2.19966E+01
   2.14148E+01  2.07453E+01  2.00292E+01  1.93182E+01  1.86845E+01  1.81823E+01  1.78115E+01  1.75424E+01  1.73540E+01  1.72148E+01
   1.70713E+01  1.68877E+01  1.66390E+01  1.63296E+01  1.59740E+01  1.55889E+01  1.52009E+01  1.48330E+01  1.45035E+01  1.42581E+01
   1.41876E+01  1.43471E+01  1.46545E+01  1.49529E+01  1.50803E+01  1.49351E+01  1.45285E+01  1.39519E+01  1.33102E+01  1.26872E+01
   1.21519E+01  1.17492E+01  1.14656E+01  1.12461E+01  1.11132E+01  1.13837E+01  1.31615E+01  1.83602E+01  2.82058E+01  4.19337E+01
   5.70330E+01  7.01202E+01  7.82827E+01  8.04414E+01  7.72057E+01  6.99076E+01  6.00150E+01  4.91196E+01  3.88307E+01  2.99592E+01
   2.21761E+01  1.53600E+01  1.10278E+01  9.54987E+00  8.96982E+00  8.63348E+00  8.41476E+00  8.29543E+00  8.31475E+00  8.62789E+00
   9.89082E+00  1.36748E+01  2.14072E+01  3.29614E+01  4.65071E+01  5.92088E+01  6.82541E+01  7.21660E+01  7.10729E+01  6.59354E+01
   5.79168E+01  4.82825E+01  3.84531E+01  2.95266E+01  2.16691E+01  1.47530E+01  9.73005E+00  7.66673E+00  7.14336E+00  7.04729E+00
   7.05760E+00  7.05109E+00  7.01599E+00  6.93687E+00  6.75076E+00  6.45728E+00  6.08675E+00  5.65863E+00  5.21493E+00  4.79231E+00
   4.43075E+00  4.15442E+00  3.94334E+00  3.78553E+00  3.62986E+00  3.38796E+00  2.99370E+00  2.46746E+00  1.93666E+00  1.56223E+00
   1.43277E+00  1.51273E+00  1.68439E+00  1.81368E+00  1.81698E+00  1.68387E+00  1.42994E+00  1.09055E+00  7.18738E-01  3.18942E-01
  -2.07107E-01 -8.70783E-01 -1.54912E+00 -2.08646E+00 -2.34526E+00 -2.38577E+00 -2.35396E+00 -2.30941E+00 -2.25832E+00 -2.18030E+00
  -2.09604E+00 -2.07300E+00 -2.09702E+00 -2.01758E+00 -1.66479E+00 -9.83502E-01 -1.74992E-02  1.17683E+00  2.39236E+00  3.38594E+00
   3.94451E+00  4.01504E+00  3.71639E+00  3.22139E+00  2.76834E+00  2.57946E+00  2.76692E+00  3.44659E+00  4.70230E+00  6.38616E+00
   8.21609E+00  9.80697E+00  1.06780E+01  1.03961E+01  8.84575E+00  6.31333E+00  3.38388E+00  6.03332E-01 -1.46831E+00 -2.34516E+00
  -1.72297E+00  3.23575E-01  3.34687E+00  6.73082E+00  9.68811E+00  1.15283E+01  1.19136E+01  1.07989E+01  8.41817E+00  5.35426E+00
   2.64754E+00  1.01177E+00  5.94608E-01  1.24040E+00  2.68315E+00  4.64904E+00  6.73193E+00  8.40770E+00  9.47934E+00  9.97375E+00
   1.00714E+01  9.93108E+00  9.71506E+00  9.76960E+00  1.03652E+01  1.13365E+01  1.22845E+01  1.28464E+01  1.28411E+01  1.22996E+01
   1.13701E+01  1.03381E+01  9.58096E+00  9.27446E+00  9.31907E+00  9.62511E+00  1.02320E+01  1.10350E+01  1.18998E+01  1.28223E+01
   1.38084E+01  1.47287E+01  1.55674E+01  1.72385E+01  2.20612E+01  3.19000E+01  4.63676E+01  6.30086E+01  7.81891E+01  8.84002E+01
   9.19977E+01  8.93867E+01  8.19737E+01  7.13413E+01  5.92053E+01  4.74260E+01  3.71600E+01  2.80994E+01  1.98500E+01  1.40200E+01
   1.18380E+01  1.09584E+01  1.04354E+01  1.00985E+01  9.85798E+00  9.61316E+00  9.35172E+00  9.06858E+00  8.76496E+00  8.45962E+00
   8.16956E+00  7.89267E+00  7.63521E+00  7.41632E+00  7.24193E+00  7.10273E+00  6.99022E+00  6.90218E+00  6.84016E+00  6.80259E+00
   6.78355E+00  6.78625E+00  6.81469E+00  6.86953E+00  6.95018E+00  7.05575E+00  7.18506E+00  7.33575E+00  7.50463E+00  7.68927E+00
   7.88610E+00  8.09015E+00  8.29618E+00  8.49891E+00  8.69296E+00  8.87328E+00  9.03539E+00  9.17563E+00  9.29146E+00  9.38151E+00
   9.44552E+00  9.48444E+00  9.50076E+00  9.49845E+00  9.48230E+00  9.45806E+00  9.43233E+00  9.41264E+00  9.40787E+00  9.43028E+00
   9.49844E+00  9.62076E+00  9.77557E+00  9.91896E+00  1.00068E+01  1.00107E+01  9.93044E+00  9.78962E+00  9.62793E+00  9.50113E+00
   9.46558E+00  9.55625E+00  9.77115E+00  1.00632E+01  1.03646E+01  1.06316E+01  1.08484E+01  1.09759E+01  1.09897E+01  1.09052E+01
   1.07519E+01  1.05584E+01  1.03383E+01  1.01026E+01  9.89633E+00  9.76086E+00  9.69934E+00  9.71456E+00  9.80492E+00  9.95859E+00
   1.01513E+01  1.03476E+01  1.05042E+01  1.05775E+01  1.05303E+01  1.03393E+01  9.99965E+00  9.52583E+00  8.94887E+00  8.31023E+00
   7.65435E+00  7.02144E+00  6.44235E+00  5.93589E+00  5.50909E+00  5.15923E+00  4.87710E+00  4.65029E+00  4.46595E+00  4.31266E+00
   4.18141E+00  4.06577E+00  3.96168E+00  3.86698E+00  3.78097E+00  3.70394E+00  3.63686E+00  3.58111E+00  3.53833E+00  3.51035E+00
   3.49915E+00  3.50679E+00  3.53545E+00  3.58733E+00  3.66463E+00  3.76957E+00  3.90426E+00  4.07064E+00  4.27033E+00  4.50451E+00
   4.77373E+00  5.07778E+00  5.41548E+00  5.78453E+00  6.18133E+00  6.60092E+00  7.03691E+00  7.48158E+00  7.92597E+00  8.36008E+00
   8.77323E+00  9.15441E+00  9.49275E+00  9.77802E+00  1.00011E+01  1.01545E+01  1.02326E+01  1.02320E+01  1.01520E+01  9.99405E+00
   9.76218E+00  9.46249E+00  9.10291E+00  8.69278E+00  8.24235E+00  7.76233E+00  7.26336E+00  6.75562E+00  6.24842E+00  5.75002E+00
   5.26737E+00  4.80604E+00  4.37022E+00  3.96274E+00  3.58525E+00  3.23831E+00  2.92166E+00  2.63431E+00  2.37474E+00  2.14109E+00
   1.93130E+00  1.74322E+00  1.57470E+00  1.42365E+00  1.28811E+00  1.16625E+00  1.05645E+00  9.57243E-01  8.67332E-01  7.85573E-01
   7.10963E-01  6.42638E-01  5.79855E-01  5.21979E-01  4.68451E-01  4.18782E-01  3.72547E-01  3.29386E-01  2.88994E-01  2.51107E-01
   2.15483E-01  1.81906E-01  1.50191E-01  1.20183E-01  9.17479E-02  6.47615E-02  3.91025E-02  1.46609E-02 -8.65416E-03 -3.09153E-02
  -5.21885E-02 -7.25418E-02 -9.20437E-02 -1.10755E-01 -1.28724E-01 -1.45990E-01 -1.62594E-01 -1.78581E-01 -1.93996E-01 -2.08875E-01
  -2.23238E-01 -2.37109E-01 -2.50513E-01 -2.63482E-01 -2.76045E-01 -2.88224E-01 -3.00031E-01 -3.11482E-01 -3.22600E-01 -3.33412E-01
  -3.43937E-01 -3.54184E-01 -3.64161E-01 -3.73880E-01 -3.83361E-01 -3.92623E-01 -4.01677E-01 -4.10527E-01 -4.19178E-01 -4.27643E-01
  -4.35939E-01 -4.44080E-01 -4.52069E-01 -4.59906E-01 -4.67594E-01 -4.75144E-01 -4.82569E-01 -4.89871E-01
 NY background values follow
     3.705E+01    3.671E+01    3.638E+01    3.604E+01    3.571E+01    3.537E+01    3.504E+01    3.470E+01    3.436E+01    3.403E+01
     3.369E+01    3.336E+01    3.302E+01    3.268E+01    3.235E+01    3.201E+01    3.168E+01    3.134E+01    3.101E+01    3.068E+01
     3.034E+01    3.001E+01    2.968E+01    2.935E+01    2.902E+01    2.869E+01    2.836E+01    2.803E+01    2.770E+01    2.737E+01
     2.704E+01    2.672E+01    2.639E+01    2.607E+01    2.575E+01    2.542E+01    2.510E+01    2.478E+01    2.446E+01    2.415E+01
     2.383E+01    2.352E+01    2.320E+01    2.289E+01    2.258E+01    2.227E+01    2.196E+01    2.165E+01    2.135E+01    2.104E+01
     2.074E+01    2.044E+01    2.014E+01    1.984E+01    1.955E+01    1.925E+01    1.896E+01    1.867E+01    1.838E+01    1.809E+01
     1.781E+01    1.752E+01    1.724E+01    1.696E+01    1.669E+01    1.641E+01    1.614E+01    1.587E+01    1.560E+01    1.533E+01
     1.507E+01    1.481E+01    1.455E+01    1.429E+01    1.404E+01    1.378E+01    1.353E+01    1.329E+01    1.304E+01    1.280E+01
     1.256E+01    1.232E+01    1.209E+01    1.186E+01    1.163E+01    1.140E+01    1.118E+01    1.096E+01    1.074E+01    1.052E+01
     1.031E+01    1.010E+01    9.898E+00    9.695E+00    9.494E+00    9.297E+00    9.103E+00    8.912E+00    8.724E+00    8.538E+00
     8.356E+00    8.176E+00    7.999E+00    7.826E+00    7.655E+00    7.487E+00    7.321E+00    7.159E+00    6.999E+00    6.843E+00
     6.689E+00    6.538E+00    6.389E+00    6.244E+00    6.101E+00    5.961E+00    5.824E+00    5.690E+00    5.558E+00    5.429E+00
     5.303E+00    5.179E+00    5.059E+00    4.940E+00    4.825E+00    4.712E+00    4.602E+00    4.495E+00    4.390E+00    4.288E+00
     4.189E+00    4.092E+00    3.998E+00    3.907E+00    3.818E+00    3.731E+00    3.648E+00    3.566E+00    3.488E+00    3.412E+00
     3.338E+00    3.267E+00    3.198E+00    3.132E+00    3.068E+00    3.007E+00    2.948E+00    2.891E+00    2.836E+00    2.784E+00
     2.734E+00    2.686E+00    2.641E+00    2.597E+00    2.556E+00    2.517E+00    2.479E+00    2.444E+00    2.411E+00    2.380E+00
     2.351E+00    2.324E+00    2.299E+00    2.276E+00    2.254E+00    2.235E+00    2.217E+00    2.201E+00    2.187E+00    2.174E+00
     2.164E+00    2.155E+00    2.147E+00    2.142E+00    2.138E+00    2.135E+00    2.134E+00    2.135E+00    2.137E+00    2.141E+00
     2.146E+00    2.153E+00    2.160E+00    2.170E+00    2.180E+00    2.192E+00    2.205E+00    2.220E+00    2.235E+00    2.252E+00
     2.269E+00    2.288E+00    2.307E+00    2.327E+00    2.348E+00    2.370E+00    2.393E+00    2.416E+00    2.440E+00    2.465E+00
     2.490E+00    2.515E+00    2.541E+00    2.568E+00    2.595E+00    2.622E+00    2.649E+00    2.677E+00    2.705E+00    2.732E+00
     2.760E+00    2.788E+00    2.816E+00    2.844E+00    2.872E+00    2.899E+00    2.927E+00    2.954E+00    2.980E+00    3.007E+00
     3.033E+00    3.058E+00    3.083E+00    3.108E+00    3.132E+00    3.155E+00    3.177E+00    3.199E+00    3.220E+00    3.240E+00
     3.260E+00    3.279E+00    3.297E+00    3.314E+00    3.331E+00    3.347E+00    3.362E+00    3.377E+00    3.391E+00    3.404E+00
     3.416E+00    3.428E+00    3.439E+00    3.450E+00    3.459E+00    3.469E+00    3.477E+00    3.485E+00    3.492E+00    3.498E+00
     3.504E+00    3.509E+00    3.514E+00    3.518E+00    3.521E+00    3.524E+00    3.526E+00    3.527E+00    3.528E+00    3.528E+00
     3.528E+00    3.527E+00    3.525E+00    3.523E+00    3.520E+00    3.517E+00    3.513E+00    3.508E+00    3.503E+00    3.498E+00
     3.491E+00    3.484E+00    3.477E+00    3.469E+00    3.461E+00    3.452E+00    3.442E+00    3.432E+00    3.421E+00    3.410E+00
     3.398E+00    3.386E+00    3.373E+00    3.360E+00    3.346E+00    3.332E+00    3.317E+00    3.302E+00    3.286E+00    3.270E+00
     3.253E+00    3.236E+00    3.218E+00    3.200E+00    3.181E+00    3.162E+00    3.142E+00    3.122E+00    3.102E+00    3.080E+00
     3.059E+00    3.037E+00    3.015E+00    2.992E+00    2.969E+00    2.945E+00    2.921E+00    2.896E+00    2.871E+00    2.846E+00
     2.820E+00    2.794E+00    2.767E+00    2.740E+00    2.713E+00    2.685E+00    2.657E+00    2.628E+00    2.599E+00    2.570E+00
     2.540E+00    2.510E+00    2.480E+00    2.449E+00    2.418E+00    2.386E+00    2.355E+00    2.323E+00    2.291E+00    2.258E+00
     2.226E+00    2.193E+00    2.160E+00    2.127E+00    2.093E+00    2.060E+00    2.026E+00    1.992E+00    1.958E+00    1.924E+00
     1.889E+00    1.855E+00    1.820E+00    1.786E+00    1.751E+00    1.716E+00    1.682E+00    1.647E+00    1.612E+00    1.577E+00
     1.542E+00    1.507E+00    1.473E+00    1.438E+00    1.403E+00    1.368E+00    1.334E+00    1.299E+00    1.265E+00    1.231E+00
     1.197E+00    1.163E+00    1.129E+00    1.095E+00    1.061E+00    1.028E+00    9.948E-01    9.617E-01    9.289E-01    8.962E-01
     8.637E-01    8.315E-01    7.995E-01    7.676E-01    7.360E-01    7.047E-01    6.735E-01    6.427E-01    6.120E-01    5.817E-01
     5.516E-01    5.217E-01    4.922E-01    4.629E-01    4.339E-01    4.053E-01    3.769E-01    3.488E-01    3.211E-01    2.936E-01
     2.665E-01    2.398E-01    2.134E-01    1.873E-01    1.616E-01    1.362E-01    1.113E-01    8.665E-02    6.243E-02    3.859E-02
     1.515E-02   -7.889E-03   -3.052E-02   -5.274E-02   -7.453E-02   -9.590E-02   -1.168E-01   -1.373E-01   -1.574E-01   -1.770E-01
    -1.962E-01   -2.150E-01   -2.333E-01   -2.512E-01   -2.688E-01   -2.859E-01   -3.026E-01   -3.190E-01   -3.349E-01   -3.505E-01
    -3.657E-01   -3.806E-01   -3.951E-01   -4.092E-01   -4.230E-01   -4.364E-01   -4.495E-01   -4.623E-01   -4.748E-01   -4.869E-01
    -4.988E-01   -5.103E-01   -5.215E-01   -5.325E-01   -5.431E-01   -5.535E-01   -5.636E-01   -5.734E-01   -5.830E-01   -5.923E-01
    -6.013E-01   -6.101E-01   -6.187E-01   -6.270E-01   -6.351E-01   -6.430E-01   -6.507E-01   -6.581E-01   -6.654E-01   -6.725E-01
    -6.793E-01   -6.860E-01   -6.925E-01   -6.988E-01   -7.050E-01   -7.110E-01   -7.168E-01   -7.225E-01   -7.280E-01   -7.333E-01
    -7.386E-01   -7.436E-01   -7.486E-01   -7.534E-01   -7.581E-01   -7.626E-01   -7.670E-01   -7.713E-01   -7.755E-01   -7.796E-01
    -7.836E-01   -7.875E-01   -7.913E-01   -7.950E-01   -7.986E-01   -8.021E-01   -8.055E-01   -8.089E-01   -8.122E-01   -8.154E-01
    -8.185E-01   -8.216E-01   -8.247E-01   -8.276E-01   -8.306E-01   -8.335E-01   -8.363E-01   -8.391E-01   -8.419E-01   -8.446E-01
    -8.474E-01   -8.501E-01   -8.528E-01   -8.554E-01   -8.581E-01   -8.608E-01   -8.634E-01   -8.661E-01
 Ala      Conc. = 7.14E+01
