 LCModel (Version 6.3-1L) Copyright: S.W. Provencher.          Ref.: Magn. Reson. Med. 30:672-679 (1993).                
 Slice#2 Row#3 Col#12  PD_24_press_1_raw_act
 36 lines in following concentration table = NCONC+1
    Conc.  %SD /Cr+PCr  Metabolite                                         
 1.02E+04  17%   0.000 Ala                                                 
   27.116  90%   0.000 Asp                                                 
    0.000 999%   0.000 Cr                                                  
    0.000 999%   0.000 PCr                                                 
   16.402  89%   0.000 GABA                                                
   17.213  85%   0.000 Glc                                                 
 2.37E+03  27%   0.000 Gln                                                 
 2.11E+03  37%   0.000 Glu                                                 
    0.000 999%   0.000 GPC                                                 
   58.313  40%   0.000 PCh                                                 
    0.000 999%   0.000 GSH                                                 
  185.252 140%   0.000 Ins                                                 
 6.08E+03  39%   0.000 Lac                                                 
  359.444  48%   0.000 NAA                                                 
   11.168 999%   0.000 NAAG                                                
    7.349  65%   0.000 Scyllo                                              
   31.628  76%   0.000 Tau                                                 
    0.000 999%   0.000 -CrCH2                                              
   58.313  40%   0.000 GPC+PCh                                             
  370.612  32%   0.000 NAA+NAAG                                            
    0.000 999%   0.000 Cr+PCr                                              
 4.48E+03  27%   0.000 Glu+Gln                                             
 1.15E+05   6%   0.000 Lip13a                                              
 1.48E+03 112%   0.000 Lip13b                                              
 3.24E+04   9%   0.000 Lip09                                               
 2.72E+03  25%   0.000 MM09                                                
    0.000 999%   0.000-Lip20                                               
 1.96E+03  24%   0.000 MM20                                                
  261.858 431%   0.000 MM12                                                
 4.03E+03  74%   0.000 MM14                                                
 2.17E+03  37%   0.000 MM17                                                
 1.16E+05   5%   0.000 Lip13a+Lip13b                                       
 1.21E+05   3%   0.000 MM14+Lip13a+Lip13b+MM12                             
 3.51E+04   8%   0.000 MM09+Lip09                                          
 1.96E+03  24%   0.000 MM20+Lip20                                          
   6 lines in following misc. output table
  FWHM = 0.153 ppm    S/N =  65                                            
  Data shift =-0.008 ppm                                                   
  Ph:-165 deg     -64.8 deg/ppm                                            
  alphaB,S = 2.4E+01,   2.1E+02                                            
    6 spline knots.   Ns = 9(2)                                            
  ( 8) 2 infls.   ( 6) 1 extrs.                                            
  498 points on ppm-axis = NY
      4.000000     3.992357     3.984714     3.977070     3.969427     3.961784     3.954141     3.946497     3.938854     3.931211
      3.923568     3.915925     3.908281     3.900638     3.892995     3.885352     3.877708     3.870065     3.862422     3.854779
      3.847136     3.839492     3.831849     3.824206     3.816563     3.808919     3.801276     3.793633     3.785990     3.778347
      3.770703     3.763060     3.755417     3.747774     3.740130     3.732487     3.724844     3.717201     3.709558     3.701914
      3.694271     3.686628     3.678985     3.671341     3.663698     3.656055     3.648412     3.640769     3.633125     3.625482
      3.617839     3.610196     3.602552     3.594909     3.587266     3.579623     3.571980     3.564336     3.556693     3.549050
      3.541407     3.533763     3.526120     3.518477     3.510834     3.503191     3.495547     3.487904     3.480261     3.472618
      3.464974     3.457331     3.449688     3.442045     3.434402     3.426758     3.419115     3.411472     3.403829     3.396185
      3.388542     3.380899     3.373256     3.365613     3.357969     3.350326     3.342683     3.335040     3.327396     3.319753
      3.312110     3.304467     3.296824     3.289180     3.281537     3.273894     3.266251     3.258607     3.250964     3.243321
      3.235678     3.228034     3.220391     3.212748     3.205105     3.197462     3.189818     3.182175     3.174532     3.166889
      3.159245     3.151602     3.143959     3.136316     3.128673     3.121029     3.113386     3.105743     3.098100     3.090456
      3.082813     3.075170     3.067527     3.059884     3.052240     3.044597     3.036954     3.029311     3.021667     3.014024
      3.006381     2.998738     2.991095     2.983451     2.975808     2.968165     2.960522     2.952878     2.945235     2.937592
      2.929949     2.922306     2.914662     2.907019     2.899376     2.891733     2.884089     2.876446     2.868803     2.861160
      2.853517     2.845873     2.838230     2.830587     2.822944     2.815300     2.807657     2.800014     2.792371     2.784728
      2.777084     2.769441     2.761798     2.754155     2.746511     2.738868     2.731225     2.723582     2.715939     2.708295
      2.700652     2.693009     2.685366     2.677722     2.670079     2.662436     2.654793     2.647150     2.639506     2.631863
      2.624220     2.616577     2.608933     2.601290     2.593647     2.586004     2.578361     2.570717     2.563074     2.555431
      2.547788     2.540144     2.532501     2.524858     2.517215     2.509572     2.501928     2.494285     2.486642     2.478999
      2.471355     2.463712     2.456069     2.448426     2.440783     2.433139     2.425496     2.417853     2.410210     2.402566
      2.394923     2.387280     2.379637     2.371994     2.364350     2.356707     2.349064     2.341421     2.333777     2.326134
      2.318491     2.310848     2.303205     2.295561     2.287918     2.280275     2.272632     2.264988     2.257345     2.249702
      2.242059     2.234416     2.226772     2.219129     2.211486     2.203843     2.196199     2.188556     2.180913     2.173270
      2.165627     2.157983     2.150340     2.142697     2.135054     2.127410     2.119767     2.112124     2.104481     2.096838
      2.089194     2.081551     2.073908     2.066265     2.058621     2.050978     2.043335     2.035692     2.028049     2.020405
      2.012762     2.005119     1.997476     1.989833     1.982190     1.974546     1.966903     1.959260     1.951617     1.943974
      1.936331     1.928688     1.921045     1.913402     1.905759     1.898115     1.890472     1.882829     1.875186     1.867543
      1.859900     1.852257     1.844614     1.836971     1.829327     1.821684     1.814041     1.806398     1.798755     1.791112
      1.783469     1.775826     1.768183     1.760540     1.752896     1.745253     1.737610     1.729967     1.722324     1.714681
      1.707038     1.699395     1.691752     1.684108     1.676465     1.668822     1.661179     1.653536     1.645893     1.638250
      1.630607     1.622964     1.615321     1.607677     1.600034     1.592391     1.584748     1.577105     1.569462     1.561819
      1.554176     1.546533     1.538890     1.531246     1.523603     1.515960     1.508317     1.500674     1.493031     1.485388
      1.477745     1.470102     1.462458     1.454815     1.447172     1.439529     1.431886     1.424243     1.416600     1.408957
      1.401314     1.393671     1.386027     1.378384     1.370741     1.363098     1.355455     1.347812     1.340169     1.332526
      1.324883     1.317240     1.309596     1.301953     1.294310     1.286667     1.279024     1.271381     1.263738     1.256095
      1.248452     1.240808     1.233165     1.225522     1.217879     1.210236     1.202593     1.194950     1.187307     1.179664
      1.172021     1.164377     1.156734     1.149091     1.141448     1.133805     1.126162     1.118519     1.110876     1.103233
      1.095590     1.087946     1.080303     1.072660     1.065017     1.057374     1.049731     1.042088     1.034445     1.026802
      1.019158     1.011515     1.003872     0.996229     0.988586     0.980943     0.973300     0.965657     0.958014     0.950371
      0.942727     0.935084     0.927441     0.919798     0.912155     0.904512     0.896869     0.889226     0.881583     0.873940
      0.866296     0.858653     0.851010     0.843367     0.835724     0.828081     0.820438     0.812795     0.805152     0.797508
      0.789865     0.782222     0.774579     0.766936     0.759293     0.751650     0.744007     0.736364     0.728721     0.721077
      0.713434     0.705791     0.698148     0.690505     0.682862     0.675219     0.667576     0.659933     0.652290     0.644646
      0.637003     0.629360     0.621717     0.614074     0.606431     0.598788     0.591145     0.583502     0.575858     0.568215
      0.560572     0.552929     0.545286     0.537643     0.530000     0.522357     0.514714     0.507071     0.499427     0.491784
      0.484141     0.476498     0.468855     0.461212     0.453569     0.445925     0.438282     0.430639     0.422996     0.415353
      0.407710     0.400067     0.392424     0.384780     0.377137     0.369494     0.361851     0.354208     0.346565     0.338922
      0.331278     0.323635     0.315992     0.308349     0.300706     0.293063     0.285420     0.277777     0.270133     0.262490
      0.254847     0.247204     0.239561     0.231918     0.224275     0.216631     0.208988     0.201345
 NY phased data points follow
   3.53939E+01  3.43689E+01  3.66060E+01  3.50476E+01  3.68988E+01  3.65160E+01  3.68141E+01  3.84024E+01  3.92056E+01  3.87380E+01
   3.95437E+01  3.87647E+01  3.98407E+01  4.11611E+01  4.18334E+01  3.82477E+01  3.85269E+01  4.45955E+01  3.78615E+01  4.23813E+01
   4.21350E+01  4.02365E+01  3.87256E+01  4.16554E+01  4.14533E+01  4.23895E+01  4.44881E+01  4.60328E+01  4.20896E+01  4.31999E+01
   4.62244E+01  4.55366E+01  4.45087E+01  4.40298E+01  4.41894E+01  4.28319E+01  4.45161E+01  4.33596E+01  4.79592E+01  4.51461E+01
   4.40732E+01  4.58330E+01  4.72380E+01  4.49945E+01  4.69191E+01  4.53158E+01  5.00574E+01  5.14828E+01  4.79675E+01  4.69718E+01
   5.06334E+01  4.87645E+01  5.12094E+01  4.87962E+01  5.31054E+01  4.61254E+01  4.82080E+01  5.09557E+01  5.07996E+01  5.23758E+01
   4.88965E+01  5.22171E+01  5.26467E+01  5.04242E+01  5.21994E+01  5.25879E+01  5.29923E+01  5.56088E+01  5.29725E+01  5.28974E+01
   5.39019E+01  5.81079E+01  5.61336E+01  5.44117E+01  5.59460E+01  5.73792E+01  5.90709E+01  5.31494E+01  5.60367E+01  5.87200E+01
   5.85727E+01  5.80163E+01  5.89300E+01  6.28035E+01  5.90608E+01  6.28549E+01  5.71136E+01  6.15537E+01  6.20201E+01  6.13327E+01
   6.24637E+01  6.39005E+01  6.03955E+01  6.67425E+01  6.32360E+01  6.55060E+01  6.42383E+01  6.42445E+01  6.19916E+01  6.21886E+01
   6.72496E+01  6.82169E+01  6.73512E+01  6.85299E+01  7.02569E+01  6.54587E+01  6.68488E+01  6.53864E+01  6.76633E+01  6.41355E+01
   7.17170E+01  6.96555E+01  7.29597E+01  6.88642E+01  7.41641E+01  7.32561E+01  7.15660E+01  7.23969E+01  7.09515E+01  6.93819E+01
   7.54362E+01  6.95180E+01  7.02887E+01  7.20092E+01  7.39214E+01  7.48302E+01  7.65588E+01  7.52360E+01  7.70625E+01  7.74711E+01
   7.84563E+01  7.85391E+01  7.48949E+01  7.70790E+01  7.72566E+01  7.34032E+01  7.89021E+01  7.98148E+01  7.89591E+01  8.16101E+01
   7.68959E+01  7.78052E+01  8.13014E+01  8.16309E+01  7.95402E+01  8.35285E+01  8.17412E+01  8.43179E+01  8.51004E+01  8.37044E+01
   8.27392E+01  8.72535E+01  8.57079E+01  8.50426E+01  8.78334E+01  8.44478E+01  8.73498E+01  8.66080E+01  8.83221E+01  9.03098E+01
   9.04178E+01  9.12257E+01  8.80536E+01  9.37013E+01  9.31223E+01  9.19276E+01  9.48913E+01  9.17914E+01  9.49523E+01  9.57944E+01
   9.64415E+01  9.77661E+01  9.57853E+01  9.72105E+01  9.65878E+01  9.57184E+01  9.56614E+01  9.79932E+01  9.88142E+01  9.93599E+01
   1.03112E+02  1.02153E+02  1.01526E+02  1.01592E+02  1.01136E+02  1.05671E+02  1.00731E+02  1.06755E+02  1.06709E+02  1.05198E+02
   1.05262E+02  1.07617E+02  1.08118E+02  1.12323E+02  1.11266E+02  1.10127E+02  1.09105E+02  1.12677E+02  1.11413E+02  1.14725E+02
   1.13151E+02  1.17385E+02  1.17068E+02  1.19211E+02  1.20194E+02  1.19716E+02  1.22342E+02  1.20685E+02  1.23712E+02  1.22806E+02
   1.22949E+02  1.25328E+02  1.25099E+02  1.27006E+02  1.25382E+02  1.30525E+02  1.30284E+02  1.29935E+02  1.30373E+02  1.31754E+02
   1.31051E+02  1.35473E+02  1.36394E+02  1.36992E+02  1.38917E+02  1.41273E+02  1.38989E+02  1.42373E+02  1.43845E+02  1.45383E+02
   1.45724E+02  1.46540E+02  1.48176E+02  1.48140E+02  1.50898E+02  1.48476E+02  1.50483E+02  1.54024E+02  1.53937E+02  1.56943E+02
   1.57924E+02  1.57444E+02  1.58457E+02  1.60637E+02  1.61214E+02  1.64827E+02  1.62685E+02  1.68409E+02  1.68959E+02  1.70513E+02
   1.73859E+02  1.71302E+02  1.72946E+02  1.76118E+02  1.76739E+02  1.77242E+02  1.78296E+02  1.81211E+02  1.80387E+02  1.84108E+02
   1.84800E+02  1.87515E+02  1.87425E+02  1.89165E+02  1.88775E+02  1.89188E+02  1.90220E+02  1.88589E+02  1.93120E+02  1.96938E+02
   1.93231E+02  1.96851E+02  1.98463E+02  1.99521E+02  1.99723E+02  2.03887E+02  2.01319E+02  2.07642E+02  2.08590E+02  2.07181E+02
   2.09954E+02  2.14983E+02  2.13381E+02  2.19391E+02  2.17974E+02  2.21274E+02  2.18276E+02  2.22642E+02  2.29559E+02  2.33092E+02
   2.30944E+02  2.34078E+02  2.37904E+02  2.39596E+02  2.40270E+02  2.43807E+02  2.47089E+02  2.52439E+02  2.54692E+02  2.59529E+02
   2.64599E+02  2.67572E+02  2.72056E+02  2.78111E+02  2.80151E+02  2.86935E+02  2.88354E+02  2.96428E+02  2.98104E+02  2.99139E+02
   3.11245E+02  3.12141E+02  3.18039E+02  3.22217E+02  3.24396E+02  3.32352E+02  3.32529E+02  3.39836E+02  3.49687E+02  3.48640E+02
   3.55769E+02  3.65199E+02  3.64846E+02  3.75697E+02  3.80215E+02  3.85097E+02  3.91340E+02  3.94815E+02  4.03439E+02  4.09705E+02
   4.14743E+02  4.15030E+02  4.24634E+02  4.35247E+02  4.37659E+02  4.47238E+02  4.49916E+02  4.64079E+02  4.66546E+02  4.78714E+02
   4.79520E+02  4.87247E+02  4.91542E+02  4.95452E+02  4.96567E+02  4.96587E+02  4.97277E+02  4.93223E+02  4.87246E+02  4.81894E+02
   4.70706E+02  4.66977E+02  4.54149E+02  4.48218E+02  4.37890E+02  4.24284E+02  4.21161E+02  4.11325E+02  4.00832E+02  3.90943E+02
   3.78672E+02  3.71676E+02  3.60833E+02  3.49415E+02  3.38026E+02  3.26015E+02  3.11656E+02  3.00498E+02  2.92180E+02  2.77702E+02
   2.68842E+02  2.60243E+02  2.52184E+02  2.46714E+02  2.34763E+02  2.31109E+02  2.27296E+02  2.20922E+02  2.18111E+02  2.14130E+02
   2.12729E+02  2.08488E+02  2.04406E+02  2.03089E+02  1.99932E+02  1.98808E+02  1.97173E+02  1.94686E+02  1.92070E+02  1.90957E+02
   1.83892E+02  1.81510E+02  1.81549E+02  1.77680E+02  1.76134E+02  1.73699E+02  1.72776E+02  1.69809E+02  1.67871E+02  1.65981E+02
   1.66028E+02  1.62905E+02  1.61066E+02  1.58582E+02  1.56246E+02  1.54500E+02  1.51240E+02  1.51313E+02  1.47460E+02  1.46732E+02
   1.41794E+02  1.40722E+02  1.41244E+02  1.33441E+02  1.33901E+02  1.32748E+02  1.29347E+02  1.25111E+02  1.25934E+02  1.26442E+02
   1.21907E+02  1.18981E+02  1.18366E+02  1.16188E+02  1.16381E+02  1.13602E+02  1.09278E+02  1.05588E+02  1.06658E+02  1.01217E+02
   1.04264E+02  1.01056E+02  1.01645E+02  9.83384E+01  9.60743E+01  9.55227E+01  8.99267E+01  9.12956E+01  8.59837E+01  8.51774E+01
   8.50829E+01  7.98919E+01  8.38589E+01  7.89813E+01  8.16884E+01  8.30933E+01  7.85482E+01  7.65853E+01  7.46660E+01  7.72217E+01
   7.26960E+01  7.31861E+01  7.04300E+01  6.96888E+01  7.08815E+01  7.18238E+01  6.58795E+01  6.63421E+01  6.48981E+01  6.70969E+01
   6.37661E+01  6.51207E+01  6.46615E+01  6.38870E+01  5.89639E+01  6.23245E+01  6.17411E+01  6.03680E+01  5.98176E+01  6.12738E+01
   5.92173E+01  6.08492E+01  5.79493E+01  5.68255E+01  5.65506E+01  5.41955E+01  5.55251E+01  5.50347E+01  5.64670E+01  5.70393E+01
   5.32896E+01  5.50867E+01  5.58787E+01  5.20899E+01  5.34412E+01  5.06738E+01  4.87524E+01  5.26940E+01  5.37410E+01  5.07430E+01
   5.21934E+01  4.99771E+01  4.97149E+01  4.88477E+01  5.05328E+01  5.03315E+01  5.17638E+01  4.92203E+01
 NY points of the fit to the data follow
   3.41833E+01  3.55422E+01  3.49807E+01  3.59474E+01  3.55429E+01  3.61651E+01  3.59895E+01  3.68070E+01  3.68989E+01  3.75149E+01
   3.76461E+01  3.80881E+01  3.82801E+01  3.85738E+01  3.87177E+01  3.88859E+01  3.94112E+01  3.95452E+01  4.03235E+01  4.02013E+01
   4.11544E+01  4.09326E+01  4.22774E+01  4.17614E+01  4.33134E+01  4.23714E+01  4.41496E+01  4.27815E+01  4.46565E+01  4.26581E+01
   4.47311E+01  4.25725E+01  4.49905E+01  4.27314E+01  4.53542E+01  4.31705E+01  4.59881E+01  4.39339E+01  4.66398E+01  4.48287E+01
   4.74585E+01  4.61401E+01  4.85848E+01  4.75291E+01  4.95216E+01  4.86636E+01  5.00757E+01  4.93105E+01  5.01255E+01  4.94233E+01
   4.99416E+01  4.94794E+01  4.98902E+01  4.97122E+01  5.01219E+01  5.02514E+01  5.07135E+01  5.09702E+01  5.13640E+01  5.16353E+01
   5.19539E+01  5.22162E+01  5.24953E+01  5.27182E+01  5.29951E+01  5.32212E+01  5.35085E+01  5.37433E+01  5.40480E+01  5.42911E+01
   5.46032E+01  5.48459E+01  5.51576E+01  5.53992E+01  5.57123E+01  5.59563E+01  5.62674E+01  5.65136E+01  5.68265E+01  5.70743E+01
   5.73827E+01  5.76319E+01  5.79338E+01  5.81831E+01  5.84832E+01  5.87894E+01  5.91552E+01  5.94645E+01  5.98731E+01  6.01808E+01
   6.06365E+01  6.09482E+01  6.14698E+01  6.17712E+01  6.23542E+01  6.26492E+01  6.33022E+01  6.35750E+01  6.42909E+01  6.45382E+01
   6.53157E+01  6.55330E+01  6.63671E+01  6.65300E+01  6.73890E+01  6.74959E+01  6.83521E+01  6.83708E+01  6.91612E+01  6.91382E+01
   6.98550E+01  6.98151E+01  7.04440E+01  7.04200E+01  7.09585E+01  7.09851E+01  7.14442E+01  7.15515E+01  7.19587E+01  7.21820E+01
   7.25834E+01  7.29064E+01  7.33194E+01  7.37158E+01  7.41487E+01  7.45947E+01  7.50497E+01  7.55022E+01  7.59585E+01  7.64078E+01
   7.68586E+01  7.73001E+01  7.77423E+01  7.81742E+01  7.86062E+01  7.90281E+01  7.94495E+01  7.98628E+01  8.02759E+01  8.06833E+01
   8.10905E+01  8.14955E+01  8.18996E+01  8.23004E+01  8.27047E+01  8.31092E+01  8.35206E+01  8.39364E+01  8.43546E+01  8.47786E+01
   8.52050E+01  8.56401E+01  8.60768E+01  8.65235E+01  8.69710E+01  8.74302E+01  8.78890E+01  8.83607E+01  8.88266E+01  8.93091E+01
   8.97904E+01  9.02870E+01  9.07827E+01  9.12877E+01  9.17981E+01  9.23181E+01  9.28481E+01  9.33809E+01  9.39254E+01  9.44642E+01
   9.50320E+01  9.55853E+01  9.61773E+01  9.67434E+01  9.73606E+01  9.79291E+01  9.85411E+01  9.91183E+01  9.96874E+01  1.00278E+02
   1.00825E+02  1.01449E+02  1.01980E+02  1.02720E+02  1.03286E+02  1.04140E+02  1.04702E+02  1.05716E+02  1.06233E+02  1.07329E+02
   1.07739E+02  1.08805E+02  1.08893E+02  1.10155E+02  1.10129E+02  1.11578E+02  1.11472E+02  1.13186E+02  1.13137E+02  1.15033E+02
   1.14982E+02  1.16961E+02  1.16842E+02  1.18834E+02  1.18587E+02  1.20449E+02  1.20169E+02  1.21996E+02  1.21732E+02  1.23500E+02
   1.23333E+02  1.25063E+02  1.25090E+02  1.26829E+02  1.27180E+02  1.28785E+02  1.29389E+02  1.30836E+02  1.31607E+02  1.32957E+02
   1.33859E+02  1.35221E+02  1.36256E+02  1.37655E+02  1.38565E+02  1.39881E+02  1.40661E+02  1.42036E+02  1.42602E+02  1.44089E+02
   1.44576E+02  1.46213E+02  1.46740E+02  1.48556E+02  1.49178E+02  1.51067E+02  1.51799E+02  1.53609E+02  1.54366E+02  1.56024E+02
   1.56841E+02  1.58316E+02  1.59410E+02  1.60809E+02  1.62038E+02  1.63340E+02  1.64825E+02  1.66114E+02  1.67744E+02  1.69037E+02
   1.70713E+02  1.72001E+02  1.73636E+02  1.75005E+02  1.76512E+02  1.78019E+02  1.79374E+02  1.81016E+02  1.82144E+02  1.83871E+02
   1.84752E+02  1.86469E+02  1.87131E+02  1.88757E+02  1.89132E+02  1.90607E+02  1.90911E+02  1.92309E+02  1.92623E+02  1.94008E+02
   1.94442E+02  1.95845E+02  1.96474E+02  1.97941E+02  1.98826E+02  2.00408E+02  2.01645E+02  2.03373E+02  2.04921E+02  2.06803E+02
   2.08634E+02  2.10671E+02  2.12763E+02  2.14952E+02  2.17212E+02  2.19540E+02  2.21964E+02  2.24438E+02  2.27021E+02  2.29660E+02
   2.32407E+02  2.35213E+02  2.38122E+02  2.41094E+02  2.44157E+02  2.47289E+02  2.50502E+02  2.53784E+02  2.57143E+02  2.60580E+02
   2.64101E+02  2.67716E+02  2.71439E+02  2.75291E+02  2.79301E+02  2.83514E+02  2.87991E+02  2.92849E+02  2.98286E+02  3.04081E+02
   3.08510E+02  3.13903E+02  3.17727E+02  3.23092E+02  3.26338E+02  3.31649E+02  3.34212E+02  3.41217E+02  3.44413E+02  3.52220E+02
   3.55116E+02  3.63357E+02  3.66073E+02  3.75024E+02  3.77614E+02  3.86838E+02  3.89075E+02  3.98796E+02  4.01685E+02  4.10701E+02
   4.12651E+02  4.21233E+02  4.24246E+02  4.33314E+02  4.37400E+02  4.46191E+02  4.52354E+02  4.61269E+02  4.68334E+02  4.75268E+02
   4.81666E+02  4.86820E+02  4.92237E+02  4.95092E+02  4.97500E+02  4.97091E+02  4.95701E+02  4.92297E+02  4.87040E+02  4.80944E+02
   4.72053E+02  4.65199E+02  4.55276E+02  4.48146E+02  4.37418E+02  4.30050E+02  4.19101E+02  4.11553E+02  3.99846E+02  3.91305E+02
   3.79365E+02  3.70147E+02  3.58266E+02  3.48224E+02  3.36133E+02  3.25573E+02  3.13478E+02  3.02870E+02  2.91187E+02  2.80966E+02
   2.70437E+02  2.61449E+02  2.52589E+02  2.45046E+02  2.37927E+02  2.31831E+02  2.26439E+02  2.21607E+02  2.17272E+02  2.13384E+02
   2.09898E+02  2.06769E+02  2.03947E+02  2.01386E+02  1.99037E+02  1.96851E+02  1.94782E+02  1.92788E+02  1.90830E+02  1.88874E+02
   1.86893E+02  1.84867E+02  1.82782E+02  1.80632E+02  1.78416E+02  1.76141E+02  1.73817E+02  1.71456E+02  1.69075E+02  1.66691E+02
   1.64318E+02  1.61971E+02  1.59661E+02  1.57397E+02  1.55184E+02  1.53023E+02  1.50914E+02  1.48852E+02  1.46831E+02  1.44843E+02
   1.42879E+02  1.40931E+02  1.38990E+02  1.37047E+02  1.35097E+02  1.33133E+02  1.31152E+02  1.29151E+02  1.27129E+02  1.25087E+02
   1.23026E+02  1.20949E+02  1.18860E+02  1.16763E+02  1.14664E+02  1.12567E+02  1.10478E+02  1.08402E+02  1.06346E+02  1.04313E+02
   1.02310E+02  1.00341E+02  9.84097E+01  9.65204E+01  9.46763E+01  9.28803E+01  9.11348E+01  8.94416E+01  8.78024E+01  8.62180E+01
   8.46892E+01  8.32161E+01  8.17987E+01  8.04367E+01  7.91292E+01  7.78754E+01  7.66741E+01  7.55240E+01  7.44236E+01  7.33713E+01
   7.23654E+01  7.14042E+01  7.04856E+01  6.96079E+01  6.87693E+01  6.79677E+01  6.72014E+01  6.64685E+01  6.57671E+01  6.50955E+01
   6.44520E+01  6.38347E+01  6.32423E+01  6.26729E+01  6.21252E+01  6.15978E+01  6.10891E+01  6.05980E+01  6.01232E+01  5.96633E+01
   5.92175E+01  5.87845E+01  5.83633E+01  5.79531E+01  5.75529E+01  5.71618E+01  5.67791E+01  5.64040E+01  5.60359E+01  5.56741E+01
   5.53179E+01  5.49669E+01  5.46204E+01  5.42782E+01  5.39396E+01  5.36044E+01  5.32723E+01  5.29428E+01  5.26158E+01  5.22910E+01
   5.19684E+01  5.16478E+01  5.13292E+01  5.10127E+01  5.06985E+01  5.03867E+01  5.00779E+01  4.97727E+01
 NY background values follow
     5.752E+01    5.771E+01    5.790E+01    5.810E+01    5.829E+01    5.848E+01    5.867E+01    5.886E+01    5.905E+01    5.924E+01
     5.943E+01    5.961E+01    5.980E+01    5.999E+01    6.017E+01    6.036E+01    6.054E+01    6.073E+01    6.091E+01    6.110E+01
     6.128E+01    6.146E+01    6.165E+01    6.183E+01    6.201E+01    6.219E+01    6.237E+01    6.255E+01    6.273E+01    6.291E+01
     6.309E+01    6.327E+01    6.345E+01    6.363E+01    6.381E+01    6.399E+01    6.417E+01    6.435E+01    6.453E+01    6.470E+01
     6.488E+01    6.506E+01    6.524E+01    6.542E+01    6.559E+01    6.577E+01    6.595E+01    6.613E+01    6.631E+01    6.648E+01
     6.666E+01    6.684E+01    6.702E+01    6.720E+01    6.737E+01    6.755E+01    6.773E+01    6.791E+01    6.809E+01    6.827E+01
     6.845E+01    6.863E+01    6.881E+01    6.899E+01    6.917E+01    6.935E+01    6.953E+01    6.971E+01    6.989E+01    7.007E+01
     7.026E+01    7.044E+01    7.062E+01    7.081E+01    7.099E+01    7.117E+01    7.136E+01    7.155E+01    7.173E+01    7.192E+01
     7.211E+01    7.229E+01    7.248E+01    7.267E+01    7.286E+01    7.305E+01    7.324E+01    7.344E+01    7.363E+01    7.382E+01
     7.402E+01    7.421E+01    7.441E+01    7.460E+01    7.480E+01    7.500E+01    7.520E+01    7.540E+01    7.560E+01    7.580E+01
     7.601E+01    7.621E+01    7.642E+01    7.662E+01    7.683E+01    7.704E+01    7.725E+01    7.746E+01    7.767E+01    7.788E+01
     7.809E+01    7.831E+01    7.852E+01    7.874E+01    7.896E+01    7.918E+01    7.940E+01    7.962E+01    7.984E+01    8.007E+01
     8.029E+01    8.052E+01    8.075E+01    8.098E+01    8.121E+01    8.144E+01    8.167E+01    8.191E+01    8.215E+01    8.238E+01
     8.262E+01    8.286E+01    8.311E+01    8.335E+01    8.360E+01    8.384E+01    8.409E+01    8.434E+01    8.459E+01    8.485E+01
     8.510E+01    8.536E+01    8.562E+01    8.588E+01    8.614E+01    8.640E+01    8.667E+01    8.693E+01    8.720E+01    8.747E+01
     8.774E+01    8.801E+01    8.829E+01    8.857E+01    8.885E+01    8.913E+01    8.941E+01    8.969E+01    8.998E+01    9.027E+01
     9.056E+01    9.085E+01    9.114E+01    9.144E+01    9.173E+01    9.203E+01    9.233E+01    9.264E+01    9.294E+01    9.325E+01
     9.356E+01    9.387E+01    9.418E+01    9.449E+01    9.481E+01    9.513E+01    9.544E+01    9.576E+01    9.609E+01    9.641E+01
     9.673E+01    9.706E+01    9.739E+01    9.772E+01    9.805E+01    9.838E+01    9.871E+01    9.905E+01    9.939E+01    9.972E+01
     1.001E+02    1.004E+02    1.007E+02    1.011E+02    1.014E+02    1.018E+02    1.021E+02    1.025E+02    1.028E+02    1.032E+02
     1.035E+02    1.038E+02    1.042E+02    1.045E+02    1.049E+02    1.052E+02    1.056E+02    1.060E+02    1.063E+02    1.067E+02
     1.070E+02    1.074E+02    1.077E+02    1.081E+02    1.084E+02    1.088E+02    1.091E+02    1.095E+02    1.099E+02    1.102E+02
     1.106E+02    1.109E+02    1.113E+02    1.116E+02    1.120E+02    1.123E+02    1.127E+02    1.131E+02    1.134E+02    1.138E+02
     1.141E+02    1.145E+02    1.148E+02    1.152E+02    1.155E+02    1.159E+02    1.162E+02    1.166E+02    1.169E+02    1.173E+02
     1.176E+02    1.180E+02    1.183E+02    1.187E+02    1.190E+02    1.194E+02    1.197E+02    1.201E+02    1.204E+02    1.207E+02
     1.211E+02    1.214E+02    1.218E+02    1.221E+02    1.224E+02    1.228E+02    1.231E+02    1.234E+02    1.238E+02    1.241E+02
     1.244E+02    1.247E+02    1.251E+02    1.254E+02    1.257E+02    1.260E+02    1.263E+02    1.266E+02    1.269E+02    1.273E+02
     1.276E+02    1.279E+02    1.282E+02    1.285E+02    1.288E+02    1.291E+02    1.294E+02    1.297E+02    1.300E+02    1.302E+02
     1.305E+02    1.308E+02    1.311E+02    1.314E+02    1.317E+02    1.319E+02    1.322E+02    1.325E+02    1.327E+02    1.330E+02
     1.333E+02    1.335E+02    1.338E+02    1.340E+02    1.343E+02    1.345E+02    1.348E+02    1.350E+02    1.353E+02    1.355E+02
     1.357E+02    1.360E+02    1.362E+02    1.364E+02    1.366E+02    1.368E+02    1.371E+02    1.373E+02    1.375E+02    1.377E+02
     1.379E+02    1.381E+02    1.383E+02    1.385E+02    1.387E+02    1.388E+02    1.390E+02    1.392E+02    1.394E+02    1.395E+02
     1.397E+02    1.399E+02    1.400E+02    1.402E+02    1.403E+02    1.405E+02    1.406E+02    1.407E+02    1.409E+02    1.410E+02
     1.411E+02    1.413E+02    1.414E+02    1.415E+02    1.416E+02    1.417E+02    1.418E+02    1.419E+02    1.420E+02    1.421E+02
     1.422E+02    1.423E+02    1.423E+02    1.424E+02    1.425E+02    1.425E+02    1.426E+02    1.427E+02    1.427E+02    1.428E+02
     1.428E+02    1.428E+02    1.429E+02    1.429E+02    1.429E+02    1.430E+02    1.430E+02    1.430E+02    1.430E+02    1.430E+02
     1.430E+02    1.430E+02    1.430E+02    1.430E+02    1.430E+02    1.429E+02    1.429E+02    1.429E+02    1.429E+02    1.428E+02
     1.428E+02    1.427E+02    1.427E+02    1.426E+02    1.426E+02    1.425E+02    1.424E+02    1.424E+02    1.423E+02    1.422E+02
     1.421E+02    1.420E+02    1.419E+02    1.419E+02    1.418E+02    1.416E+02    1.415E+02    1.414E+02    1.413E+02    1.412E+02
     1.410E+02    1.409E+02    1.408E+02    1.406E+02    1.405E+02    1.403E+02    1.402E+02    1.400E+02    1.399E+02    1.397E+02
     1.395E+02    1.394E+02    1.392E+02    1.390E+02    1.388E+02    1.386E+02    1.384E+02    1.382E+02    1.380E+02    1.378E+02
     1.376E+02    1.373E+02    1.371E+02    1.369E+02    1.367E+02    1.364E+02    1.362E+02    1.359E+02    1.357E+02    1.354E+02
     1.352E+02    1.349E+02    1.346E+02    1.344E+02    1.341E+02    1.338E+02    1.335E+02    1.332E+02    1.329E+02    1.326E+02
     1.323E+02    1.320E+02    1.317E+02    1.314E+02    1.311E+02    1.307E+02    1.304E+02    1.301E+02    1.297E+02    1.294E+02
     1.291E+02    1.287E+02    1.283E+02    1.280E+02    1.276E+02    1.272E+02    1.269E+02    1.265E+02    1.261E+02    1.257E+02
     1.253E+02    1.249E+02    1.245E+02    1.241E+02    1.237E+02    1.233E+02    1.229E+02    1.225E+02    1.220E+02    1.216E+02
     1.212E+02    1.207E+02    1.203E+02    1.198E+02    1.194E+02    1.189E+02    1.185E+02    1.180E+02    1.175E+02    1.171E+02
     1.166E+02    1.161E+02    1.156E+02    1.151E+02    1.146E+02    1.141E+02    1.136E+02    1.131E+02    1.126E+02    1.121E+02
     1.116E+02    1.110E+02    1.105E+02    1.100E+02    1.094E+02    1.089E+02    1.083E+02    1.078E+02    1.072E+02    1.067E+02
     1.061E+02    1.055E+02    1.050E+02    1.044E+02    1.038E+02    1.032E+02    1.026E+02    1.020E+02
 Ala      Conc. = 1.02E+04
