 LCModel (Version 6.3-1L) Copyright: S.W. Provencher.          Ref.: Magn. Reson. Med. 30:672-679 (1993).                
 Slice#3 Row#9 Col#12  PD_24_press_1_raw_act
 36 lines in following concentration table = NCONC+1
    Conc.  %SD /Cr+PCr  Metabolite                                         
  119.417  62%   0.301 Ala                                                 
   35.179 254% 8.9E-02 Asp                                                 
   72.380 150%   0.182 Cr                                                  
  324.561  36%   0.818 PCr                                                 
    0.000 999%   0.000 GABA                                                
   85.224  66%   0.215 Glc                                                 
  297.754  43%   0.750 Gln                                                 
  662.059  22%   1.668 Glu                                                 
  118.969  11%   0.300 GPC                                                 
    0.000 999%   0.000 PCh                                                 
  122.120  35%   0.308 GSH                                                 
  318.908  50%   0.803 Ins                                                 
  344.894  39%   0.869 Lac                                                 
  940.075   9%   2.368 NAA                                                 
   33.907 251% 8.5E-02 NAAG                                                
   40.304  34%   0.102 Scyllo                                              
    0.000 999%   0.000 Tau                                                 
  117.510  49%   0.296 -CrCH2                                              
  118.969  11%   0.300 GPC+PCh                                             
  973.982   5%   2.454 NAA+NAAG                                            
  396.941  10%   1.000 Cr+PCr                                              
  959.813  23%   2.418 Glu+Gln                                             
 4.83E+04   9% 121.560 Lip13a                                              
 3.62E+03  40%   9.127 Lip13b                                              
 1.77E+03  35%   4.456 Lip09                                               
    0.000 999%   0.000 MM09                                                
 1.61E+03  25%   4.060 Lip20                                               
    0.000 999%   0.000 MM20                                                
    0.000 999%   0.000 MM12                                                
 4.57E+03  33%  11.521 MM14                                                
 5.10E+03  21%  12.858 MM17                                                
 5.19E+04   8% 130.688 Lip13a+Lip13b                                       
 5.64E+04   6% 142.209 MM14+Lip13a+Lip13b+MM12                             
 1.77E+03  35%   4.456 MM09+Lip09                                          
 1.61E+03  25%   4.060 MM20+Lip20                                          
   6 lines in following misc. output table
  FWHM = 0.054 ppm    S/N =  38                                            
  Data shift = 0.023 ppm                                                   
  Ph: -66 deg     -46.8 deg/ppm                                            
  alphaB,S = 5.9E-01,   1.0E+02                                            
   14 spline knots.   Ns = 9(1)                                            
  (11) 3 infls.   ( 6) 1 extrs.                                            
  498 points on ppm-axis = NY
      4.000000     3.992357     3.984714     3.977070     3.969427     3.961784     3.954141     3.946497     3.938854     3.931211
      3.923568     3.915925     3.908281     3.900638     3.892995     3.885352     3.877708     3.870065     3.862422     3.854779
      3.847136     3.839492     3.831849     3.824206     3.816563     3.808919     3.801276     3.793633     3.785990     3.778347
      3.770703     3.763060     3.755417     3.747774     3.740130     3.732487     3.724844     3.717201     3.709558     3.701914
      3.694271     3.686628     3.678985     3.671341     3.663698     3.656055     3.648412     3.640769     3.633125     3.625482
      3.617839     3.610196     3.602552     3.594909     3.587266     3.579623     3.571980     3.564336     3.556693     3.549050
      3.541407     3.533763     3.526120     3.518477     3.510834     3.503191     3.495547     3.487904     3.480261     3.472618
      3.464974     3.457331     3.449688     3.442045     3.434402     3.426758     3.419115     3.411472     3.403829     3.396185
      3.388542     3.380899     3.373256     3.365613     3.357969     3.350326     3.342683     3.335040     3.327396     3.319753
      3.312110     3.304467     3.296824     3.289180     3.281537     3.273894     3.266251     3.258607     3.250964     3.243321
      3.235678     3.228034     3.220391     3.212748     3.205105     3.197462     3.189818     3.182175     3.174532     3.166889
      3.159245     3.151602     3.143959     3.136316     3.128673     3.121029     3.113386     3.105743     3.098100     3.090456
      3.082813     3.075170     3.067527     3.059884     3.052240     3.044597     3.036954     3.029311     3.021667     3.014024
      3.006381     2.998738     2.991095     2.983451     2.975808     2.968165     2.960522     2.952878     2.945235     2.937592
      2.929949     2.922306     2.914662     2.907019     2.899376     2.891733     2.884089     2.876446     2.868803     2.861160
      2.853517     2.845873     2.838230     2.830587     2.822944     2.815300     2.807657     2.800014     2.792371     2.784728
      2.777084     2.769441     2.761798     2.754155     2.746511     2.738868     2.731225     2.723582     2.715939     2.708295
      2.700652     2.693009     2.685366     2.677722     2.670079     2.662436     2.654793     2.647150     2.639506     2.631863
      2.624220     2.616577     2.608933     2.601290     2.593647     2.586004     2.578361     2.570717     2.563074     2.555431
      2.547788     2.540144     2.532501     2.524858     2.517215     2.509572     2.501928     2.494285     2.486642     2.478999
      2.471355     2.463712     2.456069     2.448426     2.440783     2.433139     2.425496     2.417853     2.410210     2.402566
      2.394923     2.387280     2.379637     2.371994     2.364350     2.356707     2.349064     2.341421     2.333777     2.326134
      2.318491     2.310848     2.303205     2.295561     2.287918     2.280275     2.272632     2.264988     2.257345     2.249702
      2.242059     2.234416     2.226772     2.219129     2.211486     2.203843     2.196199     2.188556     2.180913     2.173270
      2.165627     2.157983     2.150340     2.142697     2.135054     2.127410     2.119767     2.112124     2.104481     2.096838
      2.089194     2.081551     2.073908     2.066265     2.058621     2.050978     2.043335     2.035692     2.028049     2.020405
      2.012762     2.005119     1.997476     1.989833     1.982190     1.974546     1.966903     1.959260     1.951617     1.943974
      1.936331     1.928688     1.921045     1.913402     1.905759     1.898115     1.890472     1.882829     1.875186     1.867543
      1.859900     1.852257     1.844614     1.836971     1.829327     1.821684     1.814041     1.806398     1.798755     1.791112
      1.783469     1.775826     1.768183     1.760540     1.752896     1.745253     1.737610     1.729967     1.722324     1.714681
      1.707038     1.699395     1.691752     1.684108     1.676465     1.668822     1.661179     1.653536     1.645893     1.638250
      1.630607     1.622964     1.615321     1.607677     1.600034     1.592391     1.584748     1.577105     1.569462     1.561819
      1.554176     1.546533     1.538890     1.531246     1.523603     1.515960     1.508317     1.500674     1.493031     1.485388
      1.477745     1.470102     1.462458     1.454815     1.447172     1.439529     1.431886     1.424243     1.416600     1.408957
      1.401314     1.393671     1.386027     1.378384     1.370741     1.363098     1.355455     1.347812     1.340169     1.332526
      1.324883     1.317240     1.309596     1.301953     1.294310     1.286667     1.279024     1.271381     1.263738     1.256095
      1.248452     1.240808     1.233165     1.225522     1.217879     1.210236     1.202593     1.194950     1.187307     1.179664
      1.172021     1.164377     1.156734     1.149091     1.141448     1.133805     1.126162     1.118519     1.110876     1.103233
      1.095590     1.087946     1.080303     1.072660     1.065017     1.057374     1.049731     1.042088     1.034445     1.026802
      1.019158     1.011515     1.003872     0.996229     0.988586     0.980943     0.973300     0.965657     0.958014     0.950371
      0.942727     0.935084     0.927441     0.919798     0.912155     0.904512     0.896869     0.889226     0.881583     0.873940
      0.866296     0.858653     0.851010     0.843367     0.835724     0.828081     0.820438     0.812795     0.805152     0.797508
      0.789865     0.782222     0.774579     0.766936     0.759293     0.751650     0.744007     0.736364     0.728721     0.721077
      0.713434     0.705791     0.698148     0.690505     0.682862     0.675219     0.667576     0.659933     0.652290     0.644646
      0.637003     0.629360     0.621717     0.614074     0.606431     0.598788     0.591145     0.583502     0.575858     0.568215
      0.560572     0.552929     0.545286     0.537643     0.530000     0.522357     0.514714     0.507071     0.499427     0.491784
      0.484141     0.476498     0.468855     0.461212     0.453569     0.445925     0.438282     0.430639     0.422996     0.415353
      0.407710     0.400067     0.392424     0.384780     0.377137     0.369494     0.361851     0.354208     0.346565     0.338922
      0.331278     0.323635     0.315992     0.308349     0.300706     0.293063     0.285420     0.277777     0.270133     0.262490
      0.254847     0.247204     0.239561     0.231918     0.224275     0.216631     0.208988     0.201345
 NY phased data points follow
   3.00235E+01  2.70203E+01  3.01659E+01  2.76190E+01  2.73155E+01  2.98198E+01  3.11885E+01  3.14105E+01  3.34690E+01  3.44982E+01
   3.29630E+01  3.53053E+01  3.36065E+01  3.15435E+01  3.08739E+01  2.83603E+01  2.76952E+01  2.93957E+01  2.85133E+01  3.06845E+01
   3.18955E+01  3.06854E+01  2.98574E+01  2.90009E+01  3.15222E+01  3.19063E+01  3.04093E+01  3.30877E+01  3.41423E+01  3.23922E+01
   3.35819E+01  3.08784E+01  3.35968E+01  3.40907E+01  3.17713E+01  3.12529E+01  3.37362E+01  3.13780E+01  3.21415E+01  3.47152E+01
   3.32482E+01  2.98657E+01  3.38742E+01  3.51817E+01  3.50295E+01  3.56808E+01  3.39693E+01  3.71475E+01  3.19209E+01  3.50406E+01
   3.41203E+01  3.31919E+01  3.58754E+01  3.30715E+01  3.44962E+01  3.43528E+01  3.56955E+01  3.34374E+01  3.55644E+01  3.33978E+01
   3.41018E+01  3.41898E+01  3.49019E+01  3.49388E+01  3.54768E+01  3.39758E+01  3.29952E+01  3.08725E+01  3.60533E+01  3.44512E+01
   3.62870E+01  3.53979E+01  3.64745E+01  3.38202E+01  3.68477E+01  3.58122E+01  3.70887E+01  3.57625E+01  3.91781E+01  3.71958E+01
   3.52761E+01  3.75947E+01  3.83985E+01  3.62108E+01  3.62645E+01  3.83887E+01  3.85933E+01  3.88081E+01  3.74785E+01  3.75297E+01
   3.83213E+01  4.05873E+01  3.94111E+01  3.85203E+01  3.65532E+01  3.78074E+01  3.54243E+01  3.45776E+01  3.56827E+01  3.89726E+01
   4.26553E+01  4.99853E+01  4.87647E+01  4.84208E+01  4.76323E+01  4.74862E+01  4.35407E+01  4.10886E+01  3.91152E+01  3.73958E+01
   3.76658E+01  3.73713E+01  3.97107E+01  3.99243E+01  3.83244E+01  3.90429E+01  3.94657E+01  3.82869E+01  4.12537E+01  3.96388E+01
   4.07259E+01  3.65276E+01  3.92096E+01  4.23626E+01  4.65412E+01  5.13780E+01  5.22999E+01  5.40669E+01  4.88704E+01  4.78607E+01
   4.87243E+01  4.61786E+01  4.28673E+01  4.33965E+01  4.25040E+01  4.38918E+01  4.27664E+01  3.93945E+01  4.27630E+01  4.06194E+01
   4.22989E+01  4.20514E+01  4.16856E+01  4.14612E+01  4.29366E+01  4.30320E+01  4.42155E+01  4.08106E+01  4.51428E+01  4.49910E+01
   4.41678E+01  4.28625E+01  4.49744E+01  4.18310E+01  4.29913E+01  4.24006E+01  4.47281E+01  4.48803E+01  4.40455E+01  4.39652E+01
   4.50981E+01  4.32226E+01  4.52012E+01  4.46522E+01  4.73969E+01  4.45129E+01  4.66478E+01  4.45213E+01  4.33036E+01  4.42714E+01
   4.26498E+01  4.59232E+01  4.54014E+01  4.43159E+01  4.38297E+01  4.34566E+01  4.53696E+01  4.33446E+01  4.67128E+01  4.56043E+01
   4.72477E+01  4.96981E+01  4.79786E+01  4.92499E+01  4.67612E+01  4.72367E+01  4.98916E+01  4.55037E+01  5.26287E+01  4.98373E+01
   5.30019E+01  5.29281E+01  5.35710E+01  5.58622E+01  5.69210E+01  5.32965E+01  5.45291E+01  5.55636E+01  5.44918E+01  5.39005E+01
   5.64126E+01  5.81020E+01  5.84191E+01  5.80000E+01  6.14935E+01  6.18101E+01  6.09251E+01  6.04143E+01  6.00598E+01  6.22560E+01
   6.31256E+01  6.48470E+01  6.47751E+01  6.61141E+01  6.98803E+01  7.12376E+01  7.66036E+01  7.17965E+01  7.13771E+01  6.84271E+01
   7.10017E+01  6.73303E+01  7.00792E+01  6.87392E+01  7.14590E+01  7.02359E+01  7.38848E+01  7.45505E+01  7.76026E+01  7.70159E+01
   7.47441E+01  7.60343E+01  7.64012E+01  7.72249E+01  7.75774E+01  7.65553E+01  7.83561E+01  7.68652E+01  7.75866E+01  8.04664E+01
   7.80434E+01  7.81330E+01  7.75417E+01  7.50135E+01  8.03472E+01  8.13941E+01  7.66628E+01  8.16338E+01  8.13792E+01  8.12247E+01
   8.33201E+01  8.40761E+01  8.48168E+01  8.55953E+01  8.84314E+01  8.91802E+01  9.41402E+01  9.77199E+01  1.04305E+02  1.13154E+02
   1.17604E+02  1.19929E+02  1.17308E+02  1.10523E+02  1.06285E+02  1.03437E+02  1.01267E+02  9.84828E+01  9.61759E+01  9.51552E+01
   9.27335E+01  9.43434E+01  9.07806E+01  9.50966E+01  9.12885E+01  8.95975E+01  9.29392E+01  9.20761E+01  9.00807E+01  9.21848E+01
   9.02377E+01  9.12979E+01  9.24142E+01  9.33327E+01  9.32292E+01  9.73540E+01  9.54539E+01  9.54190E+01  9.55391E+01  9.81758E+01
   9.88443E+01  1.02394E+02  9.96288E+01  9.86865E+01  1.02641E+02  1.06566E+02  1.08918E+02  1.06158E+02  1.10138E+02  1.13171E+02
   1.12854E+02  1.18070E+02  1.19455E+02  1.23116E+02  1.23333E+02  1.24031E+02  1.25997E+02  1.28239E+02  1.30675E+02  1.34445E+02
   1.35575E+02  1.37412E+02  1.36715E+02  1.42801E+02  1.41313E+02  1.44592E+02  1.47142E+02  1.49136E+02  1.51279E+02  1.52613E+02
   1.53826E+02  1.55701E+02  1.53112E+02  1.55863E+02  1.56786E+02  1.60027E+02  1.56860E+02  1.60005E+02  1.61331E+02  1.65139E+02
   1.64256E+02  1.67288E+02  1.68378E+02  1.70215E+02  1.74605E+02  1.74846E+02  1.81823E+02  1.82903E+02  1.85024E+02  1.90580E+02
   1.93607E+02  1.97799E+02  2.02289E+02  2.04520E+02  2.10393E+02  2.17404E+02  2.21501E+02  2.23223E+02  2.25432E+02  2.25163E+02
   2.28634E+02  2.28240E+02  2.25003E+02  2.27102E+02  2.24273E+02  2.25319E+02  2.21729E+02  2.17577E+02  2.16149E+02  2.13087E+02
   2.09362E+02  2.05895E+02  2.01652E+02  1.99734E+02  1.95512E+02  1.92206E+02  1.85448E+02  1.84742E+02  1.82289E+02  1.77821E+02
   1.76787E+02  1.70399E+02  1.67582E+02  1.66737E+02  1.60329E+02  1.59477E+02  1.58997E+02  1.52583E+02  1.49786E+02  1.49635E+02
   1.47586E+02  1.42832E+02  1.43463E+02  1.43247E+02  1.40229E+02  1.37085E+02  1.31975E+02  1.33073E+02  1.32289E+02  1.28608E+02
   1.25310E+02  1.25477E+02  1.23056E+02  1.23223E+02  1.19032E+02  1.19153E+02  1.18424E+02  1.16598E+02  1.13891E+02  1.13095E+02
   1.13199E+02  1.09304E+02  1.10824E+02  1.09225E+02  1.05419E+02  1.03937E+02  1.04227E+02  1.03074E+02  1.02398E+02  1.00470E+02
   1.01556E+02  1.01012E+02  9.87870E+01  9.61979E+01  9.60280E+01  9.40347E+01  9.20507E+01  9.16486E+01  9.20265E+01  8.92344E+01
   9.15976E+01  8.87125E+01  8.48430E+01  8.45736E+01  8.42217E+01  8.14824E+01  8.26232E+01  8.16874E+01  8.06045E+01  8.02013E+01
   8.07538E+01  8.02465E+01  7.58531E+01  7.84440E+01  7.43642E+01  7.32844E+01  7.41066E+01  7.32997E+01  7.37360E+01  7.08143E+01
   6.91421E+01  6.82452E+01  6.71579E+01  6.77902E+01  6.77437E+01  6.75342E+01  6.35609E+01  6.61783E+01  6.30298E+01  6.65975E+01
   6.48656E+01  6.17963E+01  6.37516E+01  6.26210E+01  6.20763E+01  6.16387E+01  5.91555E+01  5.92923E+01  6.07898E+01  5.96185E+01
   5.84891E+01  5.85480E+01  5.82949E+01  5.68260E+01  5.54814E+01  5.59410E+01  5.37473E+01  5.41197E+01  5.42893E+01  5.51548E+01
   5.35164E+01  5.26971E+01  5.46647E+01  5.16643E+01  5.15939E+01  5.38429E+01  5.02630E+01  5.10469E+01  4.93497E+01  4.85397E+01
   4.73641E+01  4.71572E+01  4.71470E+01  4.79470E+01  4.67711E+01  4.61734E+01  4.76084E+01  4.52847E+01  4.55446E+01  4.60379E+01
   4.67894E+01  4.50074E+01  4.45722E+01  4.47320E+01  4.64370E+01  4.36477E+01  4.27195E+01  4.43149E+01
 NY points of the fit to the data follow
   2.74007E+01  2.74974E+01  2.76671E+01  2.80398E+01  2.87202E+01  2.97396E+01  3.10546E+01  3.24489E+01  3.35665E+01  3.41179E+01
   3.40406E+01  3.34926E+01  3.27169E+01  3.19241E+01  3.12484E+01  3.07400E+01  3.03941E+01  3.01611E+01  2.99912E+01  2.99075E+01
   3.00241E+01  3.02468E+01  3.04572E+01  3.05822E+01  3.05999E+01  3.06101E+01  3.07782E+01  3.12525E+01  3.20467E+01  3.30035E+01
   3.38912E+01  3.44981E+01  3.46964E+01  3.44565E+01  3.38642E+01  3.31201E+01  3.24692E+01  3.20723E+01  3.19551E+01  3.19899E+01
   3.21280E+01  3.24042E+01  3.27663E+01  3.32328E+01  3.38102E+01  3.44278E+01  3.49244E+01  3.51388E+01  3.50513E+01  3.47502E+01
   3.43655E+01  3.40266E+01  3.37877E+01  3.36725E+01  3.36844E+01  3.37767E+01  3.39068E+01  3.40820E+01  3.43050E+01  3.45114E+01
   3.46178E+01  3.46078E+01  3.45248E+01  3.44357E+01  3.43936E+01  3.44274E+01  3.45459E+01  3.47340E+01  3.49510E+01  3.51640E+01
   3.53675E+01  3.55544E+01  3.57211E+01  3.58668E+01  3.59910E+01  3.60944E+01  3.61739E+01  3.62342E+01  3.62792E+01  3.63100E+01
   3.63707E+01  3.65286E+01  3.68426E+01  3.72983E+01  3.77751E+01  3.81044E+01  3.81717E+01  3.79918E+01  3.76833E+01  3.73883E+01
   3.71962E+01  3.71293E+01  3.71636E+01  3.72598E+01  3.73669E+01  3.73695E+01  3.73383E+01  3.76577E+01  3.87621E+01  4.07924E+01
   4.35242E+01  4.62623E+01  4.81123E+01  4.85333E+01  4.76032E+01  4.58840E+01  4.39964E+01  4.23437E+01  4.10933E+01  4.02536E+01
   3.97159E+01  3.92576E+01  3.86796E+01  3.81100E+01  3.79543E+01  3.80399E+01  3.81644E+01  3.83152E+01  3.85023E+01  3.86699E+01
   3.89034E+01  3.95228E+01  4.09417E+01  4.33481E+01  4.64816E+01  4.95620E+01  5.16243E+01  5.21228E+01  5.11922E+01  4.94632E+01
   4.75806E+01  4.59071E+01  4.45574E+01  4.35129E+01  4.26881E+01  4.19315E+01  4.11386E+01  4.05296E+01  4.05195E+01  4.08519E+01
   4.12395E+01  4.15842E+01  4.18500E+01  4.20503E+01  4.22328E+01  4.24258E+01  4.26187E+01  4.28068E+01  4.29839E+01  4.31400E+01
   4.32804E+01  4.34151E+01  4.35598E+01  4.37308E+01  4.39260E+01  4.41258E+01  4.42899E+01  4.43737E+01  4.43624E+01  4.43046E+01
   4.42965E+01  4.44151E+01  4.46673E+01  4.49811E+01  4.52479E+01  4.53951E+01  4.54216E+01  4.53812E+01  4.53376E+01  4.53368E+01
   4.53853E+01  4.54477E+01  4.54626E+01  4.54268E+01  4.54123E+01  4.55017E+01  4.57460E+01  4.60927E+01  4.64430E+01  4.67568E+01
   4.70558E+01  4.73693E+01  4.76988E+01  4.80340E+01  4.83963E+01  4.88598E+01  4.95031E+01  5.03210E+01  5.12330E+01  5.21535E+01
   5.29776E+01  5.36333E+01  5.40964E+01  5.44070E+01  5.46687E+01  5.49784E+01  5.53991E+01  5.59597E+01  5.66487E+01  5.74659E+01
   5.84181E+01  5.94408E+01  6.04406E+01  6.12716E+01  6.17649E+01  6.18322E+01  6.15411E+01  6.10756E+01  6.06813E+01  6.05728E+01
   6.09269E+01  6.18456E+01  6.33064E+01  6.51193E+01  6.69624E+01  6.84881E+01  6.94075E+01  6.95969E+01  6.91612E+01  6.83746E+01
   6.75747E+01  6.70880E+01  6.72608E+01  6.81597E+01  6.95226E+01  7.09960E+01  7.23319E+01  7.34650E+01  7.43491E+01  7.49416E+01
   7.53439E+01  7.57103E+01  7.61478E+01  7.66381E+01  7.71403E+01  7.77039E+01  7.83339E+01  7.88951E+01  7.92582E+01  7.93893E+01
   7.93602E+01  7.93178E+01  7.93997E+01  7.96960E+01  8.02336E+01  8.09282E+01  8.16290E+01  8.22323E+01  8.27549E+01  8.32459E+01
   8.37919E+01  8.45351E+01  8.54906E+01  8.64109E+01  8.73869E+01  8.91420E+01  9.26593E+01  9.84052E+01  1.05770E+02  1.12921E+02
   1.17651E+02  1.18734E+02  1.16481E+02  1.12293E+02  1.07624E+02  1.03394E+02  1.00044E+02  9.76685E+01  9.59841E+01  9.43794E+01
   9.24649E+01  9.08582E+01  9.03987E+01  9.04653E+01  9.06695E+01  9.09330E+01  9.12226E+01  9.15119E+01  9.18158E+01  9.21474E+01
   9.25186E+01  9.29389E+01  9.34091E+01  9.39191E+01  9.44664E+01  9.50592E+01  9.57040E+01  9.64042E+01  9.71652E+01  9.79964E+01
   9.89075E+01  9.99051E+01  1.00992E+02  1.02175E+02  1.03463E+02  1.04860E+02  1.06372E+02  1.08003E+02  1.09755E+02  1.11626E+02
   1.13611E+02  1.15702E+02  1.17886E+02  1.20147E+02  1.22463E+02  1.24814E+02  1.27175E+02  1.29520E+02  1.31824E+02  1.34063E+02
   1.36215E+02  1.38261E+02  1.40189E+02  1.41990E+02  1.43662E+02  1.45211E+02  1.46648E+02  1.47989E+02  1.49258E+02  1.50475E+02
   1.51675E+02  1.52919E+02  1.54263E+02  1.55717E+02  1.57229E+02  1.58697E+02  1.60034E+02  1.61227E+02  1.62344E+02  1.63512E+02
   1.64875E+02  1.66553E+02  1.68630E+02  1.71129E+02  1.73971E+02  1.76996E+02  1.80061E+02  1.83138E+02  1.86321E+02  1.89662E+02
   1.93186E+02  1.97033E+02  2.01352E+02  2.06164E+02  2.11233E+02  2.16105E+02  2.20300E+02  2.23491E+02  2.25526E+02  2.26531E+02
   2.26815E+02  2.26701E+02  2.26432E+02  2.26111E+02  2.25602E+02  2.24565E+02  2.22674E+02  2.19880E+02  2.16501E+02  2.12884E+02
   2.09098E+02  2.05288E+02  2.01600E+02  1.98086E+02  1.94671E+02  1.91220E+02  1.87771E+02  1.84484E+02  1.81313E+02  1.78209E+02
   1.75151E+02  1.72129E+02  1.69140E+02  1.66187E+02  1.63274E+02  1.60406E+02  1.57589E+02  1.54831E+02  1.52138E+02  1.49516E+02
   1.46969E+02  1.44503E+02  1.42120E+02  1.39823E+02  1.37614E+02  1.35494E+02  1.33462E+02  1.31517E+02  1.29657E+02  1.27881E+02
   1.26183E+02  1.24560E+02  1.23008E+02  1.21521E+02  1.20092E+02  1.18717E+02  1.17388E+02  1.16098E+02  1.14842E+02  1.13613E+02
   1.12403E+02  1.11209E+02  1.10023E+02  1.08843E+02  1.07663E+02  1.06481E+02  1.05295E+02  1.04103E+02  1.02904E+02  1.01700E+02
   1.00490E+02  9.92774E+01  9.80631E+01  9.68499E+01  9.56404E+01  9.44374E+01  9.32436E+01  9.20618E+01  9.08945E+01  8.97439E+01
   8.86120E+01  8.75004E+01  8.64106E+01  8.53435E+01  8.42998E+01  8.32798E+01  8.22838E+01  8.13115E+01  8.03627E+01  7.94369E+01
   7.85335E+01  7.76517E+01  7.67910E+01  7.59504E+01  7.51291E+01  7.43262E+01  7.35411E+01  7.27728E+01  7.20205E+01  7.12837E+01
   7.05615E+01  6.98534E+01  6.91587E+01  6.84768E+01  6.78073E+01  6.71496E+01  6.65033E+01  6.58680E+01  6.52433E+01  6.46289E+01
   6.40245E+01  6.34297E+01  6.28444E+01  6.22683E+01  6.17009E+01  6.11420E+01  6.05913E+01  6.00485E+01  5.95133E+01  5.89854E+01
   5.84646E+01  5.79506E+01  5.74433E+01  5.69424E+01  5.64477E+01  5.59590E+01  5.54761E+01  5.49989E+01  5.45272E+01  5.40608E+01
   5.35996E+01  5.31435E+01  5.26922E+01  5.22456E+01  5.18037E+01  5.13663E+01  5.09333E+01  5.05045E+01  5.00799E+01  4.96593E+01
   4.92427E+01  4.88298E+01  4.84208E+01  4.80153E+01  4.76134E+01  4.72150E+01  4.68199E+01  4.64281E+01  4.60395E+01  4.56540E+01
   4.52716E+01  4.48921E+01  4.45155E+01  4.41417E+01  4.37706E+01  4.34022E+01  4.30364E+01  4.26730E+01
 NY background values follow
     2.226E+01    2.237E+01    2.248E+01    2.260E+01    2.271E+01    2.282E+01    2.294E+01    2.306E+01    2.318E+01    2.330E+01
     2.342E+01    2.354E+01    2.367E+01    2.379E+01    2.392E+01    2.404E+01    2.417E+01    2.430E+01    2.443E+01    2.456E+01
     2.469E+01    2.482E+01    2.495E+01    2.508E+01    2.521E+01    2.535E+01    2.548E+01    2.561E+01    2.574E+01    2.588E+01
     2.601E+01    2.614E+01    2.628E+01    2.641E+01    2.654E+01    2.667E+01    2.680E+01    2.693E+01    2.706E+01    2.719E+01
     2.732E+01    2.745E+01    2.758E+01    2.771E+01    2.783E+01    2.796E+01    2.808E+01    2.820E+01    2.833E+01    2.845E+01
     2.857E+01    2.869E+01    2.880E+01    2.892E+01    2.904E+01    2.915E+01    2.927E+01    2.938E+01    2.949E+01    2.960E+01
     2.971E+01    2.982E+01    2.993E+01    3.003E+01    3.014E+01    3.024E+01    3.035E+01    3.045E+01    3.055E+01    3.065E+01
     3.075E+01    3.085E+01    3.095E+01    3.104E+01    3.114E+01    3.123E+01    3.132E+01    3.142E+01    3.151E+01    3.160E+01
     3.169E+01    3.177E+01    3.186E+01    3.194E+01    3.203E+01    3.211E+01    3.219E+01    3.227E+01    3.235E+01    3.243E+01
     3.251E+01    3.259E+01    3.266E+01    3.274E+01    3.281E+01    3.288E+01    3.295E+01    3.303E+01    3.310E+01    3.317E+01
     3.323E+01    3.330E+01    3.337E+01    3.344E+01    3.351E+01    3.357E+01    3.364E+01    3.371E+01    3.377E+01    3.384E+01
     3.390E+01    3.397E+01    3.404E+01    3.410E+01    3.417E+01    3.424E+01    3.431E+01    3.437E+01    3.444E+01    3.451E+01
     3.458E+01    3.465E+01    3.472E+01    3.480E+01    3.487E+01    3.494E+01    3.502E+01    3.509E+01    3.517E+01    3.525E+01
     3.533E+01    3.541E+01    3.549E+01    3.557E+01    3.566E+01    3.574E+01    3.583E+01    3.592E+01    3.601E+01    3.610E+01
     3.620E+01    3.630E+01    3.640E+01    3.650E+01    3.661E+01    3.672E+01    3.683E+01    3.695E+01    3.707E+01    3.720E+01
     3.732E+01    3.746E+01    3.760E+01    3.774E+01    3.789E+01    3.804E+01    3.820E+01    3.836E+01    3.853E+01    3.870E+01
     3.888E+01    3.907E+01    3.927E+01    3.947E+01    3.967E+01    3.989E+01    4.011E+01    4.034E+01    4.057E+01    4.082E+01
     4.107E+01    4.133E+01    4.160E+01    4.188E+01    4.216E+01    4.246E+01    4.276E+01    4.308E+01    4.340E+01    4.373E+01
     4.408E+01    4.443E+01    4.479E+01    4.517E+01    4.555E+01    4.594E+01    4.634E+01    4.675E+01    4.716E+01    4.758E+01
     4.801E+01    4.845E+01    4.889E+01    4.934E+01    4.979E+01    5.025E+01    5.071E+01    5.118E+01    5.165E+01    5.213E+01
     5.260E+01    5.308E+01    5.356E+01    5.405E+01    5.453E+01    5.502E+01    5.550E+01    5.599E+01    5.647E+01    5.696E+01
     5.744E+01    5.793E+01    5.841E+01    5.888E+01    5.936E+01    5.983E+01    6.030E+01    6.077E+01    6.123E+01    6.168E+01
     6.213E+01    6.258E+01    6.302E+01    6.345E+01    6.388E+01    6.430E+01    6.471E+01    6.511E+01    6.551E+01    6.590E+01
     6.628E+01    6.665E+01    6.702E+01    6.738E+01    6.773E+01    6.808E+01    6.842E+01    6.875E+01    6.908E+01    6.940E+01
     6.971E+01    7.002E+01    7.032E+01    7.062E+01    7.091E+01    7.120E+01    7.148E+01    7.175E+01    7.202E+01    7.229E+01
     7.255E+01    7.281E+01    7.306E+01    7.331E+01    7.355E+01    7.379E+01    7.403E+01    7.426E+01    7.449E+01    7.471E+01
     7.494E+01    7.516E+01    7.537E+01    7.559E+01    7.580E+01    7.601E+01    7.621E+01    7.641E+01    7.662E+01    7.682E+01
     7.701E+01    7.721E+01    7.740E+01    7.760E+01    7.779E+01    7.797E+01    7.816E+01    7.835E+01    7.853E+01    7.871E+01
     7.889E+01    7.907E+01    7.924E+01    7.941E+01    7.958E+01    7.974E+01    7.991E+01    8.007E+01    8.022E+01    8.038E+01
     8.053E+01    8.068E+01    8.082E+01    8.096E+01    8.110E+01    8.123E+01    8.136E+01    8.149E+01    8.161E+01    8.173E+01
     8.184E+01    8.195E+01    8.206E+01    8.216E+01    8.226E+01    8.235E+01    8.244E+01    8.252E+01    8.260E+01    8.267E+01
     8.274E+01    8.280E+01    8.286E+01    8.292E+01    8.296E+01    8.301E+01    8.304E+01    8.307E+01    8.310E+01    8.312E+01
     8.313E+01    8.314E+01    8.315E+01    8.314E+01    8.314E+01    8.312E+01    8.311E+01    8.308E+01    8.305E+01    8.302E+01
     8.298E+01    8.294E+01    8.289E+01    8.283E+01    8.277E+01    8.271E+01    8.264E+01    8.256E+01    8.248E+01    8.240E+01
     8.230E+01    8.221E+01    8.211E+01    8.200E+01    8.189E+01    8.178E+01    8.166E+01    8.154E+01    8.141E+01    8.127E+01
     8.114E+01    8.099E+01    8.085E+01    8.069E+01    8.054E+01    8.037E+01    8.021E+01    8.004E+01    7.986E+01    7.969E+01
     7.950E+01    7.931E+01    7.912E+01    7.893E+01    7.872E+01    7.852E+01    7.831E+01    7.810E+01    7.788E+01    7.766E+01
     7.743E+01    7.720E+01    7.697E+01    7.673E+01    7.649E+01    7.624E+01    7.599E+01    7.574E+01    7.548E+01    7.522E+01
     7.496E+01    7.469E+01    7.441E+01    7.414E+01    7.386E+01    7.358E+01    7.329E+01    7.300E+01    7.270E+01    7.241E+01
     7.210E+01    7.180E+01    7.149E+01    7.118E+01    7.087E+01    7.055E+01    7.023E+01    6.990E+01    6.957E+01    6.924E+01
     6.891E+01    6.857E+01    6.823E+01    6.789E+01    6.754E+01    6.719E+01    6.684E+01    6.648E+01    6.612E+01    6.576E+01
     6.540E+01    6.503E+01    6.466E+01    6.429E+01    6.392E+01    6.354E+01    6.317E+01    6.279E+01    6.240E+01    6.202E+01
     6.164E+01    6.125E+01    6.087E+01    6.048E+01    6.009E+01    5.970E+01    5.931E+01    5.892E+01    5.853E+01    5.813E+01
     5.774E+01    5.735E+01    5.695E+01    5.656E+01    5.617E+01    5.578E+01    5.538E+01    5.499E+01    5.460E+01    5.421E+01
     5.382E+01    5.343E+01    5.305E+01    5.266E+01    5.228E+01    5.189E+01    5.151E+01    5.113E+01    5.075E+01    5.038E+01
     5.000E+01    4.963E+01    4.926E+01    4.889E+01    4.853E+01    4.816E+01    4.780E+01    4.744E+01    4.709E+01    4.673E+01
     4.638E+01    4.603E+01    4.568E+01    4.534E+01    4.499E+01    4.465E+01    4.431E+01    4.398E+01    4.364E+01    4.331E+01
     4.297E+01    4.264E+01    4.232E+01    4.199E+01    4.167E+01    4.134E+01    4.102E+01    4.070E+01    4.038E+01    4.007E+01
     3.976E+01    3.944E+01    3.913E+01    3.882E+01    3.851E+01    3.821E+01    3.790E+01    3.760E+01    3.730E+01    3.700E+01
     3.670E+01    3.640E+01    3.611E+01    3.581E+01    3.552E+01    3.523E+01    3.494E+01    3.465E+01
 Ala      Conc. = 1.19E+02
