 LCModel (Version 6.3-1L) Copyright: S.W. Provencher.          Ref.: Magn. Reson. Med. 30:672-679 (1993).                
 Slice#1 Row#11 Col#11  PD_24_press_1_raw_act
 36 lines in following concentration table = NCONC+1
    Conc.  %SD /Cr+PCr  Metabolite                                         
  289.694  36%   0.476 Ala                                                 
   59.741 222% 9.8E-02 Asp                                                 
  265.575  67%   0.436 Cr                                                  
  343.365  53%   0.564 PCr                                                 
   38.902 233% 6.4E-02 GABA                                                
   72.595 120%   0.119 Glc                                                 
  811.555  30%   1.333 Gln                                                 
  705.555  39%   1.159 Glu                                                 
  226.725   7%   0.372 GPC                                                 
    0.000 999%   0.000 PCh                                                 
  181.657  32%   0.298 GSH                                                 
  877.696  20%   1.441 Ins                                                 
  179.452  66%   0.295 Lac                                                 
 1.24E+03   9%   2.030 NAA                                                 
  202.866  61%   0.333 NAAG                                                
   88.818  20%   0.146 Scyllo                                              
  203.449  59%   0.334 Tau                                                 
  323.552  23%   0.531 -CrCH2                                              
  226.725   7%   0.372 GPC+PCh                                             
 1.44E+03   4%   2.363 NAA+NAAG                                            
  608.940   6%   1.000 Cr+PCr                                              
 1.52E+03  29%   2.491 Glu+Gln                                             
 1.27E+03  26%   2.089 Lip13a                                              
    0.000 999%   0.000 Lip13b                                              
  190.946  82%   0.314 Lip09                                               
  633.500  27%   1.040 MM09                                                
  246.429  45%   0.405 Lip20                                               
 1.25E+03  18%   2.052 MM20                                                
  265.418  39%   0.436 MM12                                                
  412.962  47%   0.678 MM14                                                
  487.564  24%   0.801 MM17                                                
 1.27E+03  26%   2.089 Lip13a+Lip13b                                       
 1.95E+03  12%   3.203 MM14+Lip13a+Lip13b+MM12                             
  824.446  12%   1.354 MM09+Lip09                                          
 1.50E+03  14%   2.456 MM20+Lip20                                          
   6 lines in following misc. output table
  FWHM = 0.076 ppm    S/N =   9                                            
  Data shift =-0.031 ppm                                                   
  Ph: -34 deg      -7.5 deg/ppm                                            
  alphaB,S = 8.5E+01,   4.1E+02                                            
   14 spline knots.   Ns = 9(1)                                            
   2 inflections.     1 extrema                                            
  498 points on ppm-axis = NY
      4.000000     3.992357     3.984714     3.977070     3.969427     3.961784     3.954141     3.946497     3.938854     3.931211
      3.923568     3.915925     3.908281     3.900638     3.892995     3.885352     3.877708     3.870065     3.862422     3.854779
      3.847136     3.839492     3.831849     3.824206     3.816563     3.808919     3.801276     3.793633     3.785990     3.778347
      3.770703     3.763060     3.755417     3.747774     3.740130     3.732487     3.724844     3.717201     3.709558     3.701914
      3.694271     3.686628     3.678985     3.671341     3.663698     3.656055     3.648412     3.640769     3.633125     3.625482
      3.617839     3.610196     3.602552     3.594909     3.587266     3.579623     3.571980     3.564336     3.556693     3.549050
      3.541407     3.533763     3.526120     3.518477     3.510834     3.503191     3.495547     3.487904     3.480261     3.472618
      3.464974     3.457331     3.449688     3.442045     3.434402     3.426758     3.419115     3.411472     3.403829     3.396185
      3.388542     3.380899     3.373256     3.365613     3.357969     3.350326     3.342683     3.335040     3.327396     3.319753
      3.312110     3.304467     3.296824     3.289180     3.281537     3.273894     3.266251     3.258607     3.250964     3.243321
      3.235678     3.228034     3.220391     3.212748     3.205105     3.197462     3.189818     3.182175     3.174532     3.166889
      3.159245     3.151602     3.143959     3.136316     3.128673     3.121029     3.113386     3.105743     3.098100     3.090456
      3.082813     3.075170     3.067527     3.059884     3.052240     3.044597     3.036954     3.029311     3.021667     3.014024
      3.006381     2.998738     2.991095     2.983451     2.975808     2.968165     2.960522     2.952878     2.945235     2.937592
      2.929949     2.922306     2.914662     2.907019     2.899376     2.891733     2.884089     2.876446     2.868803     2.861160
      2.853517     2.845873     2.838230     2.830587     2.822944     2.815300     2.807657     2.800014     2.792371     2.784728
      2.777084     2.769441     2.761798     2.754155     2.746511     2.738868     2.731225     2.723582     2.715939     2.708295
      2.700652     2.693009     2.685366     2.677722     2.670079     2.662436     2.654793     2.647150     2.639506     2.631863
      2.624220     2.616577     2.608933     2.601290     2.593647     2.586004     2.578361     2.570717     2.563074     2.555431
      2.547788     2.540144     2.532501     2.524858     2.517215     2.509572     2.501928     2.494285     2.486642     2.478999
      2.471355     2.463712     2.456069     2.448426     2.440783     2.433139     2.425496     2.417853     2.410210     2.402566
      2.394923     2.387280     2.379637     2.371994     2.364350     2.356707     2.349064     2.341421     2.333777     2.326134
      2.318491     2.310848     2.303205     2.295561     2.287918     2.280275     2.272632     2.264988     2.257345     2.249702
      2.242059     2.234416     2.226772     2.219129     2.211486     2.203843     2.196199     2.188556     2.180913     2.173270
      2.165627     2.157983     2.150340     2.142697     2.135054     2.127410     2.119767     2.112124     2.104481     2.096838
      2.089194     2.081551     2.073908     2.066265     2.058621     2.050978     2.043335     2.035692     2.028049     2.020405
      2.012762     2.005119     1.997476     1.989833     1.982190     1.974546     1.966903     1.959260     1.951617     1.943974
      1.936331     1.928688     1.921045     1.913402     1.905759     1.898115     1.890472     1.882829     1.875186     1.867543
      1.859900     1.852257     1.844614     1.836971     1.829327     1.821684     1.814041     1.806398     1.798755     1.791112
      1.783469     1.775826     1.768183     1.760540     1.752896     1.745253     1.737610     1.729967     1.722324     1.714681
      1.707038     1.699395     1.691752     1.684108     1.676465     1.668822     1.661179     1.653536     1.645893     1.638250
      1.630607     1.622964     1.615321     1.607677     1.600034     1.592391     1.584748     1.577105     1.569462     1.561819
      1.554176     1.546533     1.538890     1.531246     1.523603     1.515960     1.508317     1.500674     1.493031     1.485388
      1.477745     1.470102     1.462458     1.454815     1.447172     1.439529     1.431886     1.424243     1.416600     1.408957
      1.401314     1.393671     1.386027     1.378384     1.370741     1.363098     1.355455     1.347812     1.340169     1.332526
      1.324883     1.317240     1.309596     1.301953     1.294310     1.286667     1.279024     1.271381     1.263738     1.256095
      1.248452     1.240808     1.233165     1.225522     1.217879     1.210236     1.202593     1.194950     1.187307     1.179664
      1.172021     1.164377     1.156734     1.149091     1.141448     1.133805     1.126162     1.118519     1.110876     1.103233
      1.095590     1.087946     1.080303     1.072660     1.065017     1.057374     1.049731     1.042088     1.034445     1.026802
      1.019158     1.011515     1.003872     0.996229     0.988586     0.980943     0.973300     0.965657     0.958014     0.950371
      0.942727     0.935084     0.927441     0.919798     0.912155     0.904512     0.896869     0.889226     0.881583     0.873940
      0.866296     0.858653     0.851010     0.843367     0.835724     0.828081     0.820438     0.812795     0.805152     0.797508
      0.789865     0.782222     0.774579     0.766936     0.759293     0.751650     0.744007     0.736364     0.728721     0.721077
      0.713434     0.705791     0.698148     0.690505     0.682862     0.675219     0.667576     0.659933     0.652290     0.644646
      0.637003     0.629360     0.621717     0.614074     0.606431     0.598788     0.591145     0.583502     0.575858     0.568215
      0.560572     0.552929     0.545286     0.537643     0.530000     0.522357     0.514714     0.507071     0.499427     0.491784
      0.484141     0.476498     0.468855     0.461212     0.453569     0.445925     0.438282     0.430639     0.422996     0.415353
      0.407710     0.400067     0.392424     0.384780     0.377137     0.369494     0.361851     0.354208     0.346565     0.338922
      0.331278     0.323635     0.315992     0.308349     0.300706     0.293063     0.285420     0.277777     0.270133     0.262490
      0.254847     0.247204     0.239561     0.231918     0.224275     0.216631     0.208988     0.201345
 NY phased data points follow
   1.14905E+00  3.57887E+00  1.64930E+00  8.37267E-01  3.62865E+00  3.85178E+00  5.62346E+00  4.07962E+00  4.02014E+00  4.50164E+00
   3.27123E+00  6.03649E+00  2.62261E+00  6.75195E+00  7.71233E+00  6.44208E+00  5.17354E+00  4.24690E+00  5.24147E+00  5.30524E+00
   3.57570E+00  6.18108E+00  2.77451E+00  5.01296E+00  1.32999E+00  4.23839E+00  3.78137E+00  1.49016E+00  4.90686E+00  6.19401E+00
   2.38108E+00  6.68178E+00  3.08960E+00  4.56346E+00  4.11489E+00  4.38086E+00  4.08584E+00  3.62433E+00  5.32487E+00  2.75166E+00
   2.85870E+00  2.29695E+00  3.13423E+00  3.24922E+00  4.41429E+00  5.26516E+00  6.28823E+00  6.36783E+00  7.02919E+00  8.02517E+00
   6.47354E+00  2.58530E+00  5.40786E+00  4.23159E+00  6.82472E+00  5.45181E+00  2.99190E+00  5.24577E+00  3.16313E+00  5.28412E+00
   1.89175E+00  5.97013E+00  1.92490E+00 -2.09426E-01  4.38968E+00 -8.65079E-02  2.19960E+00  3.56892E-01  2.83362E+00  7.60850E-01
   1.42500E+00  2.79087E+00  4.10002E+00  5.06856E+00  1.32577E+00  1.69151E+00  5.34824E+00  4.51770E+00  3.20367E+00  1.42672E+00
   3.54649E+00  3.28708E+00  4.45078E+00  2.42642E+00  3.65289E+00  5.42761E+00  1.51962E+00  4.71967E+00  4.06060E+00  2.23384E+00
   3.26798E+00  5.86324E+00  5.70114E+00  5.07511E+00  5.85615E+00  4.32959E+00  6.13931E+00  3.99542E+00  5.35547E+00  8.12755E+00
   7.99254E+00  1.11590E+01  1.47878E+01  1.98797E+01  1.70821E+01  1.75129E+01  1.51872E+01  1.41822E+01  9.32390E+00  9.14562E+00
   6.67624E+00  7.88034E+00  7.36129E+00  3.10485E+00  1.75677E+00  1.97177E+00  3.94385E+00  5.68766E+00  4.67709E-01 -3.00649E-01
   1.14579E-02  2.10209E+00  4.43375E+00  2.58652E+00  1.16715E+01  1.30108E+01  1.73212E+01  1.81698E+01  1.81320E+01  1.85342E+01
   1.37179E+01  1.72677E+01  9.28102E+00  1.02569E+01  9.02621E+00  5.14579E+00  5.57489E+00  3.81462E+00  1.58227E+00  1.43249E+00
   4.24496E-01  2.54869E+00  1.70728E+00  6.34925E-01  1.90284E+00  2.02105E-01  4.08017E+00  1.08608E+00  3.04464E+00  2.85440E+00
   1.20396E+00 -9.67493E-01  4.53891E+00  6.43191E-01  9.26396E-01 -1.32595E+00  2.81928E+00  3.62081E+00  4.63148E+00  2.64100E+00
  -2.74280E+00  1.70467E+00  5.03126E-01  7.77941E-01 -2.18503E+00 -1.20146E+00  1.10356E+00 -1.18274E+00  5.11500E-01 -1.55459E+00
  -1.88713E+00 -2.85607E+00  2.69551E-01 -2.43981E+00 -3.01653E+00 -4.94003E+00 -3.39693E+00 -4.59571E+00 -8.22502E+00 -2.54428E+00
  -4.65025E+00 -4.51556E+00 -4.98246E+00  1.29280E-01  9.89357E-01 -2.07108E+00 -4.73684E-01 -6.27085E-01 -3.82294E-01 -1.22124E+00
  -2.22860E+00 -8.16415E-01 -1.54457E+00 -1.09215E+00 -4.52567E-01 -4.37694E+00 -2.28553E+00 -5.66379E+00 -3.01978E+00 -4.26197E+00
  -9.05022E-02 -9.49517E-01 -6.67593E-01  1.67368E+00  2.88894E+00  5.82369E-01 -2.28034E-01 -5.35400E-01  2.91676E+00  2.52253E+00
  -1.35278E-01  1.92896E+00  2.23671E+00  8.87602E-01  6.27951E+00  7.78337E+00  5.23602E+00  4.60609E+00  4.63827E+00  6.87377E-01
   4.21055E+00  2.70748E+00  4.17861E+00  2.32668E+00  2.88918E+00  4.64683E+00  5.17783E+00  4.65106E+00  2.21151E+00  4.84513E+00
   6.41021E+00  6.91359E+00  3.84070E+00  5.67793E+00  5.24984E+00  2.90278E+00  5.34702E+00  5.84244E+00  6.91588E+00  3.48965E+00
   2.47535E+00  3.49719E+00  5.00824E-01  2.48156E+00  3.13412E+00  4.75512E+00  4.81144E+00  4.91519E+00  3.70899E+00  8.40163E+00
   9.52315E+00  1.01196E+01  9.14536E+00  1.32623E+01  1.87813E+01  2.19282E+01  2.60101E+01  3.41023E+01  3.93400E+01  4.31473E+01
   4.04729E+01  3.97977E+01  3.71305E+01  3.09512E+01  2.62763E+01  2.15390E+01  1.90537E+01  1.43227E+01  1.17064E+01  9.35074E+00
   5.90756E+00  5.26964E+00  5.28985E+00  4.59122E+00  2.25839E+00  3.54749E+00  1.07478E+00  2.54272E+00  3.71494E+00  4.78128E+00
   3.99287E+00  3.51649E+00  2.28218E+00  6.13713E+00  3.17945E+00  5.87167E+00  2.44414E+00  3.13043E+00  6.33624E+00  1.54830E+00
   2.11729E+00  1.27406E+00  4.10954E+00  3.09864E+00  4.62769E+00  4.34398E+00  1.32043E+00  3.17003E-01  2.24455E+00  1.73677E+00
   4.19841E+00  4.12604E+00  3.11293E+00  2.97776E+00  4.42923E+00  4.10929E+00  4.18168E+00  6.06682E+00  5.37287E+00  6.96875E+00
   7.83336E+00  6.57589E+00  5.22720E+00  8.83324E+00  3.05582E+00  4.32835E+00  1.47495E+00  5.95934E+00  3.86441E+00  5.51249E+00
   5.63564E+00  5.25741E+00  4.04030E+00  3.13928E+00  4.94060E+00  3.10095E+00  3.84541E+00 -5.20707E-02  3.02321E+00  1.05947E+00
   3.21528E+00  3.93974E+00  1.25739E+00  6.38405E+00  1.50360E+00  8.83603E+00  4.09096E+00  6.60672E+00  8.51049E+00  6.67361E+00
   8.38263E+00  9.32689E+00  7.03254E+00  8.71686E+00  9.66687E+00  8.81583E+00  7.93732E+00  9.00520E+00  4.74384E+00  7.13254E+00
   3.75665E+00  7.13144E+00  5.84083E+00  7.17125E+00  4.67824E+00  4.77465E+00  4.76266E+00  3.92281E+00  3.93545E+00  3.75604E+00
   5.56014E+00  5.91150E+00  5.37338E+00  8.08619E+00  6.88019E+00  8.27746E+00  6.78041E+00  9.93890E+00  1.05767E+01  7.39425E+00
   7.93429E+00  1.04073E+01  6.98003E+00  1.07854E+01  7.16777E+00  5.91135E+00  6.24587E+00  6.74774E+00  3.96605E+00  3.23080E+00
   4.30622E+00  2.71977E+00  3.42161E+00  2.27249E+00 -3.62987E-01  2.60685E-01  2.48182E+00  5.79086E+00  2.66772E+00  5.15433E+00
   3.36457E+00  3.72443E+00  1.39040E+00  3.44381E+00  2.69360E+00  4.48961E+00  4.31413E+00  7.22410E+00  8.17842E+00  4.95159E+00
   4.63545E+00  4.63526E+00  5.77934E+00  7.08871E+00  5.92130E+00  8.95007E+00  7.61015E+00  7.82559E+00  6.76475E+00  6.56768E+00
   5.65087E+00  3.53952E+00  4.50398E+00  5.67059E+00  4.16965E+00  8.27609E+00  3.94101E+00  4.02912E+00  4.74036E+00  4.58839E+00
   3.14710E+00  1.12278E+00  1.27278E+00  2.18518E+00  2.69991E+00  3.21207E+00  2.23177E+00  1.00394E+00  2.39033E+00  3.87815E+00
   1.08931E+00  1.06302E+00  3.58565E+00  2.44406E+00 -1.13746E+00  7.68029E-01  1.80008E+00  5.96432E-01 -1.38137E+00  4.88658E-01
   1.44850E+00  2.99779E-01 -7.55952E-01  1.46991E-01  2.47919E+00  1.20400E+00  8.06229E-01  1.48476E+00  2.28403E+00 -7.21850E-01
   1.94744E-01  3.69461E+00  4.70983E+00  4.81316E-01  2.58200E+00  4.93449E-01  9.04057E-01  2.09934E+00  5.29657E-01 -9.68562E-01
  -6.42026E-01 -1.02807E+00 -6.12885E-01  2.18718E+00 -2.34014E+00  2.79357E+00 -1.78734E-01  1.49988E+00  1.42190E+00  1.10858E+00
  -8.47058E-01 -1.70054E+00  7.39703E-01  5.52202E-03 -2.79400E+00 -9.97175E-01  1.59889E+00  1.73935E+00 -1.71602E+00  2.40004E-01
   8.49196E-01  5.63214E-01  6.28893E-01  1.64436E+00 -1.40830E+00  1.35650E+00 -6.44059E-01  2.89899E+00 -1.50867E+00 -4.52006E+00
   2.57748E+00  9.22222E-01  1.22664E-01  4.18055E-01  2.60233E+00 -2.24218E+00  2.47442E+00  4.89206E-01
 NY points of the fit to the data follow
   2.53589E+00  2.13262E+00  1.82874E+00  1.71474E+00  1.84255E+00  2.18134E+00  2.71043E+00  3.41767E+00  4.23420E+00  5.05548E+00
   5.77009E+00  6.28254E+00  6.53539E+00  6.52769E+00  6.30078E+00  5.92961E+00  5.49779E+00  5.06009E+00  4.62561E+00  4.17730E+00
   3.70043E+00  3.25486E+00  2.89041E+00  2.67935E+00  2.61025E+00  2.68798E+00  2.96155E+00  3.44202E+00  4.08439E+00  4.78431E+00
   5.41910E+00  5.87014E+00  6.05780E+00  5.96429E+00  5.64183E+00  5.18181E+00  4.66173E+00  4.10869E+00  3.58499E+00  3.17956E+00
   2.99621E+00  3.10098E+00  3.46890E+00  4.08041E+00  4.85205E+00  5.62459E+00  6.23173E+00  6.54975E+00  6.53843E+00  6.22694E+00
   5.70628E+00  5.08694E+00  4.46115E+00  3.90446E+00  3.46253E+00  3.13975E+00  2.91958E+00  2.81458E+00  2.85322E+00  2.98897E+00
   3.11149E+00  3.14461E+00  3.08395E+00  2.96443E+00  2.82877E+00  2.71009E+00  2.63720E+00  2.62774E+00  2.67472E+00  2.76422E+00
   2.89821E+00  3.06468E+00  3.22735E+00  3.34983E+00  3.39385E+00  3.34366E+00  3.21063E+00  3.04147E+00  2.91921E+00  2.88610E+00
   2.95721E+00  3.12333E+00  3.36712E+00  3.66538E+00  3.94960E+00  4.14188E+00  4.20087E+00  4.11458E+00  3.88665E+00  3.54834E+00
   3.15045E+00  2.73415E+00  2.33567E+00  1.99738E+00  1.84813E+00  2.09586E+00  2.83981E+00  4.15253E+00  6.03855E+00  8.34303E+00
   1.08462E+01  1.32599E+01  1.52417E+01  1.65017E+01  1.68925E+01  1.64349E+01  1.52823E+01  1.36643E+01  1.18066E+01  9.87696E+00
   7.96724E+00  6.11305E+00  4.38646E+00  2.94583E+00  2.02586E+00  1.63132E+00  1.43714E+00  1.33884E+00  1.43351E+00  1.91041E+00
   2.84122E+00  4.24996E+00  6.12277E+00  8.38394E+00  1.08618E+01  1.32708E+01  1.52658E+01  1.65587E+01  1.70079E+01  1.66277E+01
   1.55530E+01  1.39863E+01  1.21398E+01  1.01846E+01  8.22738E+00  6.34852E+00  4.64855E+00  3.28821E+00  2.48231E+00  2.20672E+00
   2.13251E+00  2.11024E+00  2.09955E+00  2.08854E+00  2.07653E+00  2.05157E+00  1.99120E+00  1.89213E+00  1.76093E+00  1.60961E+00
   1.46115E+00  1.32783E+00  1.20612E+00  1.09054E+00  9.70639E-01  8.44702E-01  7.17647E-01  5.87510E-01  4.57108E-01  3.37857E-01
   2.42650E-01  1.72228E-01  1.15632E-01  5.50614E-02 -2.79529E-02 -1.45980E-01 -3.00769E-01 -4.87249E-01 -6.90758E-01 -8.92117E-01
  -1.08636E+00 -1.28924E+00 -1.51535E+00 -1.73543E+00 -1.91410E+00 -2.02529E+00 -2.06999E+00 -2.08680E+00 -2.09922E+00 -2.10428E+00
  -2.08910E+00 -2.03674E+00 -1.92375E+00 -1.72878E+00 -1.44609E+00 -1.09013E+00 -6.89470E-01 -2.81864E-01  1.12149E-01  4.53056E-01
   6.85069E-01  7.72352E-01  7.22270E-01  6.01834E-01  4.93741E-01  4.73008E-01  5.92875E-01  8.75291E-01  1.30953E+00  1.86810E+00
   2.45762E+00  2.92457E+00  3.15155E+00  3.06547E+00  2.62533E+00  1.86932E+00  9.27030E-01 -1.28460E-02 -7.68596E-01 -1.20700E+00
  -1.24284E+00 -8.79768E-01 -2.03005E-01  6.23479E-01  1.41421E+00  2.03084E+00  2.40862E+00  2.53158E+00  2.43063E+00  2.18228E+00
   1.86613E+00  1.57098E+00  1.43658E+00  1.50066E+00  1.71299E+00  2.04250E+00  2.44790E+00  2.86686E+00  3.21571E+00  3.47326E+00
   3.66210E+00  3.80442E+00  3.91636E+00  4.00569E+00  4.10226E+00  4.25576E+00  4.45898E+00  4.65536E+00  4.79575E+00  4.84276E+00
   4.78380E+00  4.63504E+00  4.43675E+00  4.25502E+00  4.15797E+00  4.17642E+00  4.31858E+00  4.63311E+00  5.19469E+00  6.02422E+00
   7.17445E+00  8.96238E+00  1.16078E+01  1.50379E+01  1.91121E+01  2.36867E+01  2.85021E+01  3.31144E+01  3.69330E+01  3.93825E+01
   4.00950E+01  3.90326E+01  3.64396E+01  3.27362E+01  2.84140E+01  2.39165E+01  1.95666E+01  1.55350E+01  1.18366E+01  8.57673E+00
   6.11259E+00  4.83677E+00  4.33937E+00  4.04802E+00  3.82820E+00  3.64414E+00  3.47319E+00  3.30866E+00  3.15571E+00  3.01461E+00
   2.88579E+00  2.76968E+00  2.66741E+00  2.58146E+00  2.51714E+00  2.47791E+00  2.46274E+00  2.46921E+00  2.49543E+00  2.54105E+00
   2.60532E+00  2.68587E+00  2.78058E+00  2.88898E+00  3.01071E+00  3.14420E+00  3.28737E+00  3.43885E+00  3.59616E+00  3.75582E+00
   3.91423E+00  4.06719E+00  4.21067E+00  4.34183E+00  4.45721E+00  4.55322E+00  4.62767E+00  4.67944E+00  4.70852E+00  4.71567E+00
   4.70293E+00  4.67438E+00  4.63539E+00  4.59202E+00  4.55180E+00  4.52402E+00  4.52215E+00  4.57024E+00  4.69348E+00  4.87340E+00
   5.07927E+00  5.27557E+00  5.41747E+00  5.44874E+00  5.30670E+00  4.95148E+00  4.42334E+00  3.80981E+00  3.21567E+00  2.74713E+00
   2.49516E+00  2.51649E+00  2.81503E+00  3.33794E+00  3.99999E+00  4.71900E+00  5.44026E+00  6.13640E+00  6.77178E+00  7.28019E+00
   7.65966E+00  7.92902E+00  8.08521E+00  8.10902E+00  7.98014E+00  7.71208E+00  7.37930E+00  7.01159E+00  6.62719E+00  6.27632E+00
   6.01612E+00  5.89362E+00  5.92983E+00  6.10919E+00  6.38476E+00  6.69925E+00  7.00705E+00  7.28309E+00  7.51572E+00  7.67389E+00
   7.71664E+00  7.65913E+00  7.52158E+00  7.31458E+00  7.04755E+00  6.74206E+00  6.44719E+00  6.19277E+00  5.95798E+00  5.73094E+00
   5.50842E+00  5.29011E+00  5.07705E+00  4.87080E+00  4.67326E+00  4.48637E+00  4.31214E+00  4.15240E+00  4.00899E+00  3.88349E+00
   3.77744E+00  3.69213E+00  3.62884E+00  3.58861E+00  3.57247E+00  3.58115E+00  3.61536E+00  3.67544E+00  3.76161E+00  3.87362E+00
   4.01089E+00  4.17223E+00  4.35592E+00  4.55949E+00  4.77982E+00  5.01292E+00  5.25417E+00  5.49813E+00  5.73888E+00  5.97002E+00
   6.18499E+00  6.37721E+00  6.54046E+00  6.66903E+00  6.75815E+00  6.80405E+00  6.80433E+00  6.75790E+00  6.66520E+00  6.52802E+00
   6.34955E+00  6.13406E+00  5.88681E+00  5.61364E+00  5.32084E+00  5.01472E+00  4.70150E+00  4.38694E+00  4.07626E+00  3.77390E+00
   3.48359E+00  3.20816E+00  2.94972E+00  2.70952E+00  2.48825E+00  2.28590E+00  2.10212E+00  1.93608E+00  1.78680E+00  1.65302E+00
   1.53349E+00  1.42682E+00  1.33176E+00  1.24702E+00  1.17146E+00  1.10397E+00  1.04361E+00  9.89474E-01  9.40837E-01  8.96983E-01
   8.57365E-01  8.21427E-01  7.88762E-01  7.58947E-01  7.31692E-01  7.06673E-01  6.83680E-01  6.62452E-01  6.42843E-01  6.24651E-01
   6.07777E-01  5.92057E-01  5.77420E-01  5.63727E-01  5.50933E-01  5.38925E-01  5.27677E-01  5.17089E-01  5.07145E-01  4.97756E-01
   4.88919E-01  4.80559E-01  4.72683E-01  4.65216E-01  4.58165E-01  4.51467E-01  4.45137E-01  4.39117E-01  4.33427E-01  4.28007E-01
   4.22878E-01  4.17986E-01  4.13360E-01  4.08951E-01  4.04783E-01  4.00806E-01  3.97047E-01  3.93462E-01  3.90084E-01  3.86868E-01
   3.83842E-01  3.80962E-01  3.78261E-01  3.75701E-01  3.73316E-01  3.71067E-01  3.68985E-01  3.67031E-01  3.65245E-01  3.63591E-01
   3.62109E-01  3.60762E-01  3.59589E-01  3.58558E-01  3.57716E-01  3.57035E-01  3.56562E-01  3.56271E-01
 NY background values follow
     1.073E-01    1.079E-01    1.085E-01    1.091E-01    1.096E-01    1.102E-01    1.108E-01    1.114E-01    1.120E-01    1.125E-01
     1.131E-01    1.137E-01    1.143E-01    1.149E-01    1.154E-01    1.160E-01    1.166E-01    1.172E-01    1.178E-01    1.183E-01
     1.189E-01    1.195E-01    1.201E-01    1.207E-01    1.212E-01    1.218E-01    1.224E-01    1.230E-01    1.236E-01    1.241E-01
     1.247E-01    1.253E-01    1.259E-01    1.265E-01    1.270E-01    1.276E-01    1.282E-01    1.288E-01    1.294E-01    1.299E-01
     1.305E-01    1.311E-01    1.317E-01    1.323E-01    1.328E-01    1.334E-01    1.340E-01    1.346E-01    1.352E-01    1.358E-01
     1.363E-01    1.369E-01    1.375E-01    1.381E-01    1.387E-01    1.392E-01    1.398E-01    1.404E-01    1.410E-01    1.416E-01
     1.422E-01    1.427E-01    1.433E-01    1.439E-01    1.445E-01    1.451E-01    1.456E-01    1.462E-01    1.468E-01    1.474E-01
     1.480E-01    1.486E-01    1.491E-01    1.497E-01    1.503E-01    1.509E-01    1.515E-01    1.520E-01    1.526E-01    1.532E-01
     1.538E-01    1.544E-01    1.550E-01    1.555E-01    1.561E-01    1.567E-01    1.573E-01    1.579E-01    1.584E-01    1.590E-01
     1.596E-01    1.602E-01    1.608E-01    1.614E-01    1.619E-01    1.625E-01    1.631E-01    1.637E-01    1.643E-01    1.649E-01
     1.654E-01    1.660E-01    1.666E-01    1.672E-01    1.678E-01    1.684E-01    1.689E-01    1.695E-01    1.701E-01    1.707E-01
     1.713E-01    1.719E-01    1.724E-01    1.730E-01    1.736E-01    1.742E-01    1.748E-01    1.753E-01    1.759E-01    1.765E-01
     1.771E-01    1.777E-01    1.783E-01    1.788E-01    1.794E-01    1.800E-01    1.806E-01    1.812E-01    1.818E-01    1.823E-01
     1.829E-01    1.835E-01    1.841E-01    1.847E-01    1.853E-01    1.858E-01    1.864E-01    1.870E-01    1.876E-01    1.882E-01
     1.888E-01    1.893E-01    1.899E-01    1.905E-01    1.911E-01    1.917E-01    1.923E-01    1.928E-01    1.934E-01    1.940E-01
     1.946E-01    1.952E-01    1.958E-01    1.963E-01    1.969E-01    1.975E-01    1.981E-01    1.987E-01    1.993E-01    1.998E-01
     2.004E-01    2.010E-01    2.016E-01    2.022E-01    2.028E-01    2.033E-01    2.039E-01    2.045E-01    2.051E-01    2.057E-01
     2.063E-01    2.068E-01    2.074E-01    2.080E-01    2.086E-01    2.092E-01    2.098E-01    2.103E-01    2.109E-01    2.115E-01
     2.121E-01    2.127E-01    2.133E-01    2.138E-01    2.144E-01    2.150E-01    2.156E-01    2.162E-01    2.168E-01    2.173E-01
     2.179E-01    2.185E-01    2.191E-01    2.197E-01    2.203E-01    2.208E-01    2.214E-01    2.220E-01    2.226E-01    2.232E-01
     2.238E-01    2.243E-01    2.249E-01    2.255E-01    2.261E-01    2.267E-01    2.273E-01    2.278E-01    2.284E-01    2.290E-01
     2.296E-01    2.302E-01    2.308E-01    2.313E-01    2.319E-01    2.325E-01    2.331E-01    2.337E-01    2.343E-01    2.348E-01
     2.354E-01    2.360E-01    2.366E-01    2.372E-01    2.378E-01    2.383E-01    2.389E-01    2.395E-01    2.401E-01    2.407E-01
     2.412E-01    2.418E-01    2.424E-01    2.430E-01    2.436E-01    2.442E-01    2.447E-01    2.453E-01    2.459E-01    2.465E-01
     2.471E-01    2.477E-01    2.482E-01    2.488E-01    2.494E-01    2.500E-01    2.506E-01    2.511E-01    2.517E-01    2.523E-01
     2.529E-01    2.535E-01    2.541E-01    2.546E-01    2.552E-01    2.558E-01    2.564E-01    2.570E-01    2.575E-01    2.581E-01
     2.587E-01    2.593E-01    2.599E-01    2.604E-01    2.610E-01    2.616E-01    2.622E-01    2.628E-01    2.634E-01    2.639E-01
     2.645E-01    2.651E-01    2.657E-01    2.663E-01    2.668E-01    2.674E-01    2.680E-01    2.686E-01    2.692E-01    2.697E-01
     2.703E-01    2.709E-01    2.715E-01    2.721E-01    2.726E-01    2.732E-01    2.738E-01    2.744E-01    2.750E-01    2.755E-01
     2.761E-01    2.767E-01    2.773E-01    2.779E-01    2.784E-01    2.790E-01    2.796E-01    2.802E-01    2.808E-01    2.813E-01
     2.819E-01    2.825E-01    2.831E-01    2.836E-01    2.842E-01    2.848E-01    2.854E-01    2.860E-01    2.865E-01    2.871E-01
     2.877E-01    2.883E-01    2.889E-01    2.894E-01    2.900E-01    2.906E-01    2.912E-01    2.917E-01    2.923E-01    2.929E-01
     2.935E-01    2.940E-01    2.946E-01    2.952E-01    2.958E-01    2.964E-01    2.969E-01    2.975E-01    2.981E-01    2.987E-01
     2.992E-01    2.998E-01    3.004E-01    3.010E-01    3.015E-01    3.021E-01    3.027E-01    3.033E-01    3.039E-01    3.044E-01
     3.050E-01    3.056E-01    3.062E-01    3.067E-01    3.073E-01    3.079E-01    3.085E-01    3.090E-01    3.096E-01    3.102E-01
     3.108E-01    3.113E-01    3.119E-01    3.125E-01    3.131E-01    3.136E-01    3.142E-01    3.148E-01    3.154E-01    3.159E-01
     3.165E-01    3.171E-01    3.177E-01    3.182E-01    3.188E-01    3.194E-01    3.199E-01    3.205E-01    3.211E-01    3.217E-01
     3.222E-01    3.228E-01    3.234E-01    3.240E-01    3.245E-01    3.251E-01    3.257E-01    3.263E-01    3.268E-01    3.274E-01
     3.280E-01    3.285E-01    3.291E-01    3.297E-01    3.303E-01    3.308E-01    3.314E-01    3.320E-01    3.325E-01    3.331E-01
     3.337E-01    3.343E-01    3.348E-01    3.354E-01    3.360E-01    3.365E-01    3.371E-01    3.377E-01    3.382E-01    3.388E-01
     3.394E-01    3.400E-01    3.405E-01    3.411E-01    3.417E-01    3.422E-01    3.428E-01    3.434E-01    3.439E-01    3.445E-01
     3.451E-01    3.457E-01    3.462E-01    3.468E-01    3.474E-01    3.479E-01    3.485E-01    3.491E-01    3.496E-01    3.502E-01
     3.508E-01    3.513E-01    3.519E-01    3.525E-01    3.530E-01    3.536E-01    3.542E-01    3.547E-01    3.553E-01    3.559E-01
     3.564E-01    3.570E-01    3.576E-01    3.581E-01    3.587E-01    3.593E-01    3.598E-01    3.604E-01    3.610E-01    3.615E-01
     3.621E-01    3.627E-01    3.632E-01    3.638E-01    3.644E-01    3.649E-01    3.655E-01    3.661E-01    3.666E-01    3.672E-01
     3.677E-01    3.683E-01    3.689E-01    3.694E-01    3.700E-01    3.706E-01    3.711E-01    3.717E-01    3.723E-01    3.728E-01
     3.734E-01    3.739E-01    3.745E-01    3.751E-01    3.756E-01    3.762E-01    3.768E-01    3.773E-01    3.779E-01    3.784E-01
     3.790E-01    3.796E-01    3.801E-01    3.807E-01    3.813E-01    3.818E-01    3.824E-01    3.829E-01    3.835E-01    3.841E-01
     3.846E-01    3.852E-01    3.857E-01    3.863E-01    3.869E-01    3.874E-01    3.880E-01    3.885E-01    3.891E-01    3.897E-01
     3.902E-01    3.908E-01    3.913E-01    3.919E-01    3.924E-01    3.930E-01    3.936E-01    3.941E-01
 Ala      Conc. = 2.90E+02
