 LCModel (Version 6.3-1L) Copyright: S.W. Provencher.          Ref.: Magn. Reson. Med. 30:672-679 (1993).                
 Slice#1 Row#5 Col#13  PD_24_press_1_raw_act
 36 lines in following concentration table = NCONC+1
    Conc.  %SD /Cr+PCr  Metabolite                                         
  169.299  50%   3.883 Ala                                                 
   15.453  46%   0.354 Asp                                                 
    0.000 999%   0.000 Cr                                                  
   43.595  61%   1.000 PCr                                                 
    8.978  47%   0.206 GABA                                                
    9.124  47%   0.209 Glc                                                 
    0.000 999%   0.000 Gln                                                 
  239.046  65%   5.483 Glu                                                 
   27.838  38%   0.639 GPC                                                 
    0.000 999%   0.000 PCh                                                 
    0.000 999%   0.000 GSH                                                 
    0.000 999%   0.000 Ins                                                 
   99.344 102%   2.279 Lac                                                 
  178.159  23%   4.087 NAA                                                 
    0.000 999%   0.000 NAAG                                                
    3.015  47% 6.9E-02 Scyllo                                              
   15.186  46%   0.348 Tau                                                 
    4.046 129% 9.3E-02 -CrCH2                                              
   27.838  38%   0.639 GPC+PCh                                             
  178.159  23%   4.087 NAA+NAAG                                            
   43.595  61%   1.000 Cr+PCr                                              
  239.046  65%   5.483 Glu+Gln                                             
 4.67E+04  14% 1.1E+03 Lip13a                                              
  831.592 138%  19.076 Lip13b                                              
 2.34E+04  11% 536.245 Lip09                                               
 1.22E+04  19% 280.756 MM09                                                
 1.79E+03  25%  41.146 Lip20                                               
    0.000 999%   0.000 MM20                                                
 1.03E+04  25% 236.930 MM12                                                
  808.419 172%  18.544 MM14                                                
 1.30E+03  38%  29.761 MM17                                                
 4.75E+04  13% 1.1E+03 Lip13a+Lip13b                                       
 5.86E+04   8% 1.3E+03 MM14+Lip13a+Lip13b+MM12                             
 3.56E+04   7% 817.000 MM09+Lip09                                          
 1.79E+03  25%  41.146 MM20+Lip20                                          
   6 lines in following misc. output table
  FWHM = 0.061 ppm    S/N =  39                                            
  Data shift = 0.054 ppm                                                   
  Ph: -13 deg      -8.8 deg/ppm                                            
  alphaB,S = 6.5E+00,   1.2E+01                                            
   14 spline knots.   Ns = 8(1)                                            
  (12) 5 infls.   (12) 4 extrs.                                            
  498 points on ppm-axis = NY
      4.000000     3.992357     3.984714     3.977070     3.969427     3.961784     3.954141     3.946497     3.938854     3.931211
      3.923568     3.915925     3.908281     3.900638     3.892995     3.885352     3.877708     3.870065     3.862422     3.854779
      3.847136     3.839492     3.831849     3.824206     3.816563     3.808919     3.801276     3.793633     3.785990     3.778347
      3.770703     3.763060     3.755417     3.747774     3.740130     3.732487     3.724844     3.717201     3.709558     3.701914
      3.694271     3.686628     3.678985     3.671341     3.663698     3.656055     3.648412     3.640769     3.633125     3.625482
      3.617839     3.610196     3.602552     3.594909     3.587266     3.579623     3.571980     3.564336     3.556693     3.549050
      3.541407     3.533763     3.526120     3.518477     3.510834     3.503191     3.495547     3.487904     3.480261     3.472618
      3.464974     3.457331     3.449688     3.442045     3.434402     3.426758     3.419115     3.411472     3.403829     3.396185
      3.388542     3.380899     3.373256     3.365613     3.357969     3.350326     3.342683     3.335040     3.327396     3.319753
      3.312110     3.304467     3.296824     3.289180     3.281537     3.273894     3.266251     3.258607     3.250964     3.243321
      3.235678     3.228034     3.220391     3.212748     3.205105     3.197462     3.189818     3.182175     3.174532     3.166889
      3.159245     3.151602     3.143959     3.136316     3.128673     3.121029     3.113386     3.105743     3.098100     3.090456
      3.082813     3.075170     3.067527     3.059884     3.052240     3.044597     3.036954     3.029311     3.021667     3.014024
      3.006381     2.998738     2.991095     2.983451     2.975808     2.968165     2.960522     2.952878     2.945235     2.937592
      2.929949     2.922306     2.914662     2.907019     2.899376     2.891733     2.884089     2.876446     2.868803     2.861160
      2.853517     2.845873     2.838230     2.830587     2.822944     2.815300     2.807657     2.800014     2.792371     2.784728
      2.777084     2.769441     2.761798     2.754155     2.746511     2.738868     2.731225     2.723582     2.715939     2.708295
      2.700652     2.693009     2.685366     2.677722     2.670079     2.662436     2.654793     2.647150     2.639506     2.631863
      2.624220     2.616577     2.608933     2.601290     2.593647     2.586004     2.578361     2.570717     2.563074     2.555431
      2.547788     2.540144     2.532501     2.524858     2.517215     2.509572     2.501928     2.494285     2.486642     2.478999
      2.471355     2.463712     2.456069     2.448426     2.440783     2.433139     2.425496     2.417853     2.410210     2.402566
      2.394923     2.387280     2.379637     2.371994     2.364350     2.356707     2.349064     2.341421     2.333777     2.326134
      2.318491     2.310848     2.303205     2.295561     2.287918     2.280275     2.272632     2.264988     2.257345     2.249702
      2.242059     2.234416     2.226772     2.219129     2.211486     2.203843     2.196199     2.188556     2.180913     2.173270
      2.165627     2.157983     2.150340     2.142697     2.135054     2.127410     2.119767     2.112124     2.104481     2.096838
      2.089194     2.081551     2.073908     2.066265     2.058621     2.050978     2.043335     2.035692     2.028049     2.020405
      2.012762     2.005119     1.997476     1.989833     1.982190     1.974546     1.966903     1.959260     1.951617     1.943974
      1.936331     1.928688     1.921045     1.913402     1.905759     1.898115     1.890472     1.882829     1.875186     1.867543
      1.859900     1.852257     1.844614     1.836971     1.829327     1.821684     1.814041     1.806398     1.798755     1.791112
      1.783469     1.775826     1.768183     1.760540     1.752896     1.745253     1.737610     1.729967     1.722324     1.714681
      1.707038     1.699395     1.691752     1.684108     1.676465     1.668822     1.661179     1.653536     1.645893     1.638250
      1.630607     1.622964     1.615321     1.607677     1.600034     1.592391     1.584748     1.577105     1.569462     1.561819
      1.554176     1.546533     1.538890     1.531246     1.523603     1.515960     1.508317     1.500674     1.493031     1.485388
      1.477745     1.470102     1.462458     1.454815     1.447172     1.439529     1.431886     1.424243     1.416600     1.408957
      1.401314     1.393671     1.386027     1.378384     1.370741     1.363098     1.355455     1.347812     1.340169     1.332526
      1.324883     1.317240     1.309596     1.301953     1.294310     1.286667     1.279024     1.271381     1.263738     1.256095
      1.248452     1.240808     1.233165     1.225522     1.217879     1.210236     1.202593     1.194950     1.187307     1.179664
      1.172021     1.164377     1.156734     1.149091     1.141448     1.133805     1.126162     1.118519     1.110876     1.103233
      1.095590     1.087946     1.080303     1.072660     1.065017     1.057374     1.049731     1.042088     1.034445     1.026802
      1.019158     1.011515     1.003872     0.996229     0.988586     0.980943     0.973300     0.965657     0.958014     0.950371
      0.942727     0.935084     0.927441     0.919798     0.912155     0.904512     0.896869     0.889226     0.881583     0.873940
      0.866296     0.858653     0.851010     0.843367     0.835724     0.828081     0.820438     0.812795     0.805152     0.797508
      0.789865     0.782222     0.774579     0.766936     0.759293     0.751650     0.744007     0.736364     0.728721     0.721077
      0.713434     0.705791     0.698148     0.690505     0.682862     0.675219     0.667576     0.659933     0.652290     0.644646
      0.637003     0.629360     0.621717     0.614074     0.606431     0.598788     0.591145     0.583502     0.575858     0.568215
      0.560572     0.552929     0.545286     0.537643     0.530000     0.522357     0.514714     0.507071     0.499427     0.491784
      0.484141     0.476498     0.468855     0.461212     0.453569     0.445925     0.438282     0.430639     0.422996     0.415353
      0.407710     0.400067     0.392424     0.384780     0.377137     0.369494     0.361851     0.354208     0.346565     0.338922
      0.331278     0.323635     0.315992     0.308349     0.300706     0.293063     0.285420     0.277777     0.270133     0.262490
      0.254847     0.247204     0.239561     0.231918     0.224275     0.216631     0.208988     0.201345
 NY phased data points follow
   1.07318E+01  1.08978E+01  1.27966E+01  1.55048E+01  1.42681E+01  1.40498E+01  1.24557E+01  1.45990E+01  1.53713E+01  1.36985E+01
   1.77325E+01  1.21274E+01  1.25376E+01  1.34820E+01  1.57950E+01  1.53055E+01  1.09512E+01  1.30759E+01  1.51446E+01  1.08854E+01
   1.24982E+01  1.46089E+01  1.38438E+01  1.09899E+01  1.32589E+01  1.22628E+01  1.37083E+01  1.30353E+01  1.12273E+01  1.48351E+01
   1.21750E+01  1.56357E+01  1.28049E+01  1.22909E+01  1.04517E+01  1.43567E+01  1.01731E+01  1.03950E+01  1.25688E+01  1.17320E+01
   1.07165E+01  1.28261E+01  1.34587E+01  1.31208E+01  1.37440E+01  1.24691E+01  1.34460E+01  1.28720E+01  1.22707E+01  1.38839E+01
   1.49737E+01  9.96151E+00  1.46722E+01  1.36625E+01  1.17035E+01  1.01493E+01  1.36131E+01  1.29748E+01  1.82153E+01  1.32730E+01
   1.48807E+01  1.24450E+01  1.82167E+01  1.22351E+01  1.29783E+01  1.46847E+01  9.93936E+00  1.11041E+01  1.42941E+01  1.37942E+01
   1.42239E+01  1.28526E+01  1.50711E+01  1.23330E+01  1.35203E+01  1.15471E+01  1.46415E+01  1.41442E+01  1.19824E+01  1.27549E+01
   1.35498E+01  1.33097E+01  1.58710E+01  1.01488E+01  1.32576E+01  1.14694E+01  1.38612E+01  1.35686E+01  1.50764E+01  1.42119E+01
   1.33415E+01  1.50400E+01  1.18617E+01  9.58683E+00  1.21434E+01  1.13659E+01  1.24480E+01  1.41009E+01  1.53897E+01  1.40237E+01
   1.72938E+01  1.49171E+01  1.71294E+01  1.54964E+01  1.71821E+01  1.59277E+01  1.44868E+01  1.38662E+01  1.41606E+01  1.67217E+01
   1.48366E+01  1.62425E+01  1.64915E+01  1.33441E+01  1.54630E+01  1.36560E+01  1.23964E+01  1.10743E+01  1.28628E+01  1.00084E+01
   1.59728E+01  1.82388E+01  1.27962E+01  1.41183E+01  1.80055E+01  1.57220E+01  1.40102E+01  1.65543E+01  1.38482E+01  1.62181E+01
   1.39762E+01  1.33874E+01  1.44052E+01  1.53284E+01  1.64068E+01  1.80990E+01  1.26241E+01  1.48217E+01  1.71183E+01  1.48532E+01
   1.51273E+01  1.34788E+01  1.63312E+01  1.43686E+01  1.59060E+01  1.35326E+01  1.69891E+01  1.54999E+01  1.49106E+01  1.35428E+01
   1.69381E+01  1.64414E+01  1.77637E+01  1.64381E+01  1.70701E+01  1.49263E+01  1.59247E+01  1.47182E+01  1.44520E+01  2.01451E+01
   1.54359E+01  1.45635E+01  1.81994E+01  1.62592E+01  1.53565E+01  1.67542E+01  1.47864E+01  1.38582E+01  1.70369E+01  1.63135E+01
   1.55540E+01  1.57363E+01  1.50563E+01  1.46324E+01  1.74341E+01  1.72754E+01  1.75738E+01  1.54066E+01  1.36903E+01  1.65870E+01
   1.86948E+01  1.42103E+01  2.08632E+01  1.65721E+01  1.64430E+01  1.39985E+01  1.81639E+01  1.44239E+01  1.66505E+01  1.65558E+01
   1.37999E+01  1.58177E+01  1.85294E+01  1.61774E+01  1.63085E+01  1.50154E+01  1.80102E+01  1.50153E+01  1.94337E+01  1.97727E+01
   1.59443E+01  1.76199E+01  1.66105E+01  1.96004E+01  1.82590E+01  1.71484E+01  1.55688E+01  1.67631E+01  1.79931E+01  1.64250E+01
   1.75152E+01  1.81701E+01  2.01437E+01  1.77397E+01  2.09997E+01  2.08964E+01  1.99912E+01  1.96810E+01  1.79524E+01  2.09521E+01
   2.22312E+01  1.80413E+01  1.91763E+01  1.64465E+01  1.79729E+01  1.74574E+01  1.95622E+01  2.02127E+01  1.86323E+01  1.92891E+01
   1.88110E+01  1.78596E+01  1.93064E+01  1.91941E+01  2.03588E+01  2.12339E+01  2.06794E+01  2.01241E+01  2.08122E+01  1.86467E+01
   1.64876E+01  2.09395E+01  1.99889E+01  1.84808E+01  2.22780E+01  2.25831E+01  2.17510E+01  2.00485E+01  2.37167E+01  2.20631E+01
   2.31776E+01  2.31679E+01  1.93797E+01  1.73035E+01  2.22451E+01  2.15509E+01  2.40151E+01  2.78596E+01  2.81944E+01  2.90268E+01
   2.79923E+01  2.69192E+01  3.02201E+01  2.96028E+01  2.71792E+01  2.79099E+01  2.58577E+01  2.30142E+01  2.50926E+01  2.65797E+01
   2.66428E+01  2.42109E+01  2.35189E+01  2.32930E+01  2.80206E+01  2.43375E+01  2.42292E+01  2.63982E+01  2.55884E+01  2.70220E+01
   2.58159E+01  2.60187E+01  2.48759E+01  2.48890E+01  2.68610E+01  2.52493E+01  2.74452E+01  2.89257E+01  2.79849E+01  2.64513E+01
   2.80584E+01  3.03678E+01  3.07340E+01  2.96648E+01  3.32612E+01  3.59804E+01  3.39208E+01  3.16634E+01  3.49185E+01  3.75560E+01
   3.77514E+01  3.83248E+01  3.61299E+01  4.11770E+01  4.15421E+01  4.37840E+01  4.47472E+01  4.62973E+01  4.60550E+01  4.88864E+01
   4.78262E+01  5.23814E+01  5.09285E+01  4.98746E+01  5.11130E+01  5.56592E+01  5.54880E+01  5.47913E+01  5.70957E+01  5.89691E+01
   6.34521E+01  6.16925E+01  6.89665E+01  6.65551E+01  6.57363E+01  7.46589E+01  7.11653E+01  7.46693E+01  7.62028E+01  8.04580E+01
   7.85669E+01  8.11803E+01  8.30032E+01  8.60325E+01  8.86197E+01  9.58898E+01  9.68082E+01  9.81322E+01  1.04095E+02  1.07331E+02
   1.11442E+02  1.15562E+02  1.18996E+02  1.20799E+02  1.25148E+02  1.23891E+02  1.30741E+02  1.34146E+02  1.36962E+02  1.41783E+02
   1.41401E+02  1.46159E+02  1.45761E+02  1.49235E+02  1.50124E+02  1.51570E+02  1.57778E+02  1.61721E+02  1.59348E+02  1.64822E+02
   1.60071E+02  1.65073E+02  1.66458E+02  1.69967E+02  1.70052E+02  1.71230E+02  1.71948E+02  1.70288E+02  1.72718E+02  1.73972E+02
   1.76158E+02  1.73492E+02  1.78035E+02  1.79277E+02  1.81165E+02  1.79048E+02  1.81521E+02  1.81934E+02  1.83853E+02  1.83493E+02
   1.82999E+02  1.81231E+02  1.81261E+02  1.83427E+02  1.80071E+02  1.79663E+02  1.80843E+02  1.76326E+02  1.79129E+02  1.72019E+02
   1.74966E+02  1.69497E+02  1.66410E+02  1.69993E+02  1.69066E+02  1.66410E+02  1.65027E+02  1.58799E+02  1.61233E+02  1.59179E+02
   1.54782E+02  1.52752E+02  1.53121E+02  1.49231E+02  1.44695E+02  1.41004E+02  1.42873E+02  1.37034E+02  1.36705E+02  1.30742E+02
   1.27313E+02  1.24022E+02  1.24327E+02  1.21069E+02  1.15673E+02  1.16884E+02  1.13005E+02  1.07976E+02  1.06387E+02  9.91590E+01
   9.88913E+01  9.75790E+01  9.27658E+01  9.18901E+01  9.00056E+01  8.47912E+01  8.15372E+01  7.89884E+01  7.90771E+01  7.04765E+01
   7.39405E+01  7.09516E+01  6.76904E+01  6.55735E+01  6.42643E+01  6.32077E+01  6.20561E+01  5.61832E+01  5.60240E+01  5.18233E+01
   5.26078E+01  4.92342E+01  4.73754E+01  4.80671E+01  4.32259E+01  4.15406E+01  4.00364E+01  3.77349E+01  4.04195E+01  3.54545E+01
   3.77491E+01  3.29157E+01  3.03594E+01  3.22235E+01  2.85112E+01  3.08114E+01  2.96438E+01  2.64561E+01  2.64278E+01  2.48023E+01
   2.21617E+01  2.38398E+01  1.97134E+01  1.97848E+01  1.74102E+01  1.57373E+01  1.70474E+01  1.77816E+01  1.63038E+01  1.70259E+01
   1.49048E+01  1.59270E+01  1.56855E+01  1.46019E+01  1.43040E+01  1.45714E+01  1.35275E+01  1.41925E+01  9.40661E+00  1.06422E+01
   1.13349E+01  9.07446E+00  8.18211E+00  1.16369E+01  6.91493E+00  9.68227E+00  1.04248E+01  7.36725E+00  7.09119E+00  2.95884E+00
   6.46103E+00  4.37299E+00  6.31540E+00  5.13401E+00  4.65073E+00  8.96458E-01  2.93348E+00  4.67738E+00
 NY points of the fit to the data follow
   1.26411E+01  1.24892E+01  1.25928E+01  1.28789E+01  1.31514E+01  1.33552E+01  1.35126E+01  1.36233E+01  1.36944E+01  1.38039E+01
   1.39658E+01  1.39940E+01  1.38180E+01  1.35668E+01  1.33439E+01  1.31977E+01  1.31221E+01  1.30084E+01  1.29327E+01  1.31079E+01
   1.34287E+01  1.36607E+01  1.37239E+01  1.36557E+01  1.34718E+01  1.31396E+01  1.27626E+01  1.26152E+01  1.26668E+01  1.27397E+01
   1.28269E+01  1.29411E+01  1.30159E+01  1.31272E+01  1.32692E+01  1.34297E+01  1.35584E+01  1.35720E+01  1.34250E+01  1.32547E+01
   1.32026E+01  1.32547E+01  1.32564E+01  1.31866E+01  1.31731E+01  1.32045E+01  1.32329E+01  1.32758E+01  1.33060E+01  1.32911E+01
   1.33031E+01  1.33138E+01  1.33081E+01  1.33038E+01  1.32922E+01  1.32630E+01  1.32441E+01  1.32414E+01  1.32325E+01  1.32124E+01
   1.32074E+01  1.32091E+01  1.32201E+01  1.32342E+01  1.32391E+01  1.32382E+01  1.32403E+01  1.32340E+01  1.32212E+01  1.32327E+01
   1.32670E+01  1.33032E+01  1.33318E+01  1.33507E+01  1.33535E+01  1.33496E+01  1.33594E+01  1.33764E+01  1.33534E+01  1.33297E+01
   1.33545E+01  1.34032E+01  1.34550E+01  1.35070E+01  1.35400E+01  1.35607E+01  1.35978E+01  1.36445E+01  1.36720E+01  1.36604E+01
   1.36102E+01  1.35433E+01  1.35064E+01  1.34757E+01  1.32215E+01  1.26814E+01  1.27610E+01  1.34908E+01  1.43153E+01  1.49624E+01
   1.54035E+01  1.56362E+01  1.57857E+01  1.60617E+01  1.64293E+01  1.65023E+01  1.61285E+01  1.55521E+01  1.50286E+01  1.47285E+01
   1.46526E+01  1.45071E+01  1.41487E+01  1.40007E+01  1.39798E+01  1.39865E+01  1.39981E+01  1.39780E+01  1.38040E+01  1.35799E+01
   1.37413E+01  1.41849E+01  1.46284E+01  1.49689E+01  1.52099E+01  1.53626E+01  1.55047E+01  1.57283E+01  1.59599E+01  1.59989E+01
   1.58173E+01  1.55621E+01  1.53625E+01  1.52903E+01  1.53212E+01  1.52774E+01  1.51567E+01  1.51643E+01  1.52252E+01  1.53028E+01
   1.53962E+01  1.54965E+01  1.55937E+01  1.56853E+01  1.57727E+01  1.58583E+01  1.59484E+01  1.60398E+01  1.61222E+01  1.61924E+01
   1.62548E+01  1.63186E+01  1.63917E+01  1.64864E+01  1.65548E+01  1.65594E+01  1.65252E+01  1.64741E+01  1.64635E+01  1.64997E+01
   1.65337E+01  1.65338E+01  1.64976E+01  1.64505E+01  1.64231E+01  1.64213E+01  1.64262E+01  1.64028E+01  1.63471E+01  1.62629E+01
   1.61365E+01  1.60107E+01  1.59292E+01  1.58984E+01  1.58523E+01  1.57773E+01  1.56905E+01  1.56051E+01  1.55617E+01  1.55902E+01
   1.56083E+01  1.55501E+01  1.54669E+01  1.54135E+01  1.54185E+01  1.54879E+01  1.55643E+01  1.55837E+01  1.55679E+01  1.55664E+01
   1.56643E+01  1.58127E+01  1.59271E+01  1.59912E+01  1.60155E+01  1.60185E+01  1.60161E+01  1.60447E+01  1.61077E+01  1.62213E+01
   1.63386E+01  1.64247E+01  1.65499E+01  1.66596E+01  1.67262E+01  1.67655E+01  1.66944E+01  1.65138E+01  1.62243E+01  1.61954E+01
   1.65595E+01  1.70444E+01  1.74652E+01  1.78285E+01  1.82075E+01  1.84850E+01  1.84919E+01  1.82726E+01  1.79997E+01  1.77072E+01
   1.74326E+01  1.73001E+01  1.73282E+01  1.74395E+01  1.76088E+01  1.78368E+01  1.82798E+01  1.88021E+01  1.92052E+01  1.94598E+01
   1.96445E+01  1.98720E+01  2.01294E+01  2.02986E+01  2.03702E+01  2.04764E+01  2.05249E+01  2.05094E+01  2.05151E+01  2.06017E+01
   2.07270E+01  2.08673E+01  2.10549E+01  2.12831E+01  2.14732E+01  2.16048E+01  2.17390E+01  2.18912E+01  2.20407E+01  2.22026E+01
   2.23813E+01  2.23604E+01  2.15680E+01  2.06508E+01  2.14016E+01  2.32641E+01  2.50598E+01  2.63868E+01  2.72630E+01  2.77104E+01
   2.81192E+01  2.89047E+01  2.96860E+01  2.95978E+01  2.86063E+01  2.73264E+01  2.62342E+01  2.56714E+01  2.55030E+01  2.49847E+01
   2.42574E+01  2.40818E+01  2.40992E+01  2.41556E+01  2.42585E+01  2.44115E+01  2.45723E+01  2.47407E+01  2.49167E+01  2.51064E+01
   2.53194E+01  2.55644E+01  2.58310E+01  2.61210E+01  2.64485E+01  2.68147E+01  2.72186E+01  2.76614E+01  2.81427E+01  2.86661E+01
   2.92359E+01  2.98501E+01  3.05119E+01  3.12238E+01  3.19861E+01  3.27980E+01  3.36595E+01  3.45707E+01  3.55281E+01  3.65268E+01
   3.75626E+01  3.86296E+01  3.97209E+01  4.08303E+01  4.19511E+01  4.30772E+01  4.42027E+01  4.53232E+01  4.64359E+01  4.75399E+01
   4.86364E+01  4.97286E+01  5.08213E+01  5.19211E+01  5.30364E+01  5.41755E+01  5.53455E+01  5.65462E+01  5.77479E+01  5.89026E+01
   6.05361E+01  6.29378E+01  6.53649E+01  6.74293E+01  6.92561E+01  7.10260E+01  7.28619E+01  7.45446E+01  7.58710E+01  7.74039E+01
   7.92751E+01  8.15023E+01  8.41650E+01  8.72073E+01  9.04333E+01  9.36543E+01  9.69004E+01  1.00542E+02  1.04356E+02  1.07706E+02
   1.10943E+02  1.14428E+02  1.17941E+02  1.21400E+02  1.24600E+02  1.27453E+02  1.30344E+02  1.33058E+02  1.35708E+02  1.38518E+02
   1.41343E+02  1.44134E+02  1.46945E+02  1.49716E+02  1.52331E+02  1.54714E+02  1.56880E+02  1.58975E+02  1.60896E+02  1.62432E+02
   1.63695E+02  1.64859E+02  1.66103E+02  1.67470E+02  1.68750E+02  1.70006E+02  1.71365E+02  1.72769E+02  1.74168E+02  1.75521E+02
   1.76790E+02  1.77945E+02  1.78958E+02  1.79810E+02  1.80490E+02  1.80993E+02  1.81322E+02  1.81485E+02  1.81496E+02  1.81371E+02
   1.81129E+02  1.80786E+02  1.80360E+02  1.79861E+02  1.79298E+02  1.78673E+02  1.77984E+02  1.77222E+02  1.76378E+02  1.75436E+02
   1.74381E+02  1.73198E+02  1.71873E+02  1.70393E+02  1.68753E+02  1.66949E+02  1.64983E+02  1.62862E+02  1.60596E+02  1.58200E+02
   1.55690E+02  1.53087E+02  1.50408E+02  1.47674E+02  1.44900E+02  1.42103E+02  1.39295E+02  1.36487E+02  1.33684E+02  1.30892E+02
   1.28113E+02  1.25345E+02  1.22587E+02  1.19836E+02  1.17088E+02  1.14341E+02  1.11590E+02  1.08834E+02  1.06071E+02  1.03299E+02
   1.00521E+02  9.77378E+01  9.49523E+01  9.21685E+01  8.93913E+01  8.66260E+01  8.38786E+01  8.11550E+01  7.84615E+01  7.58041E+01
   7.31886E+01  7.06206E+01  6.81048E+01  6.56459E+01  6.32475E+01  6.09129E+01  5.86448E+01  5.64450E+01  5.43149E+01  5.22554E+01
   5.02667E+01  4.83487E+01  4.65008E+01  4.47222E+01  4.30114E+01  4.13671E+01  3.97875E+01  3.82707E+01  3.68147E+01  3.54174E+01
   3.40767E+01  3.27902E+01  3.15560E+01  3.03716E+01  2.92350E+01  2.81440E+01  2.70966E+01  2.60907E+01  2.51243E+01  2.41956E+01
   2.33028E+01  2.24442E+01  2.16180E+01  2.08227E+01  2.00567E+01  1.93187E+01  1.86073E+01  1.79211E+01  1.72590E+01  1.66197E+01
   1.60022E+01  1.54054E+01  1.48282E+01  1.42699E+01  1.37295E+01  1.32061E+01  1.26989E+01  1.22072E+01  1.17303E+01  1.12675E+01
   1.08182E+01  1.03817E+01  9.95749E+00  9.54502E+00  9.14379E+00  8.75329E+00  8.37305E+00  8.00264E+00  7.64167E+00  7.28972E+00
   6.94644E+00  6.61143E+00  6.28438E+00  5.96497E+00  5.65290E+00  5.34789E+00  5.04964E+00  4.75789E+00
 NY background values follow
     1.171E+01    1.171E+01    1.171E+01    1.171E+01    1.171E+01    1.171E+01    1.171E+01    1.170E+01    1.170E+01    1.170E+01
     1.170E+01    1.170E+01    1.170E+01    1.169E+01    1.169E+01    1.169E+01    1.169E+01    1.169E+01    1.169E+01    1.169E+01
     1.168E+01    1.168E+01    1.168E+01    1.168E+01    1.168E+01    1.168E+01    1.167E+01    1.167E+01    1.167E+01    1.167E+01
     1.167E+01    1.167E+01    1.167E+01    1.166E+01    1.166E+01    1.166E+01    1.166E+01    1.166E+01    1.166E+01    1.166E+01
     1.165E+01    1.165E+01    1.165E+01    1.165E+01    1.165E+01    1.165E+01    1.165E+01    1.165E+01    1.164E+01    1.164E+01
     1.164E+01    1.164E+01    1.164E+01    1.164E+01    1.164E+01    1.164E+01    1.163E+01    1.163E+01    1.163E+01    1.163E+01
     1.163E+01    1.163E+01    1.163E+01    1.163E+01    1.162E+01    1.162E+01    1.162E+01    1.162E+01    1.162E+01    1.162E+01
     1.162E+01    1.161E+01    1.161E+01    1.161E+01    1.161E+01    1.161E+01    1.161E+01    1.161E+01    1.160E+01    1.160E+01
     1.160E+01    1.160E+01    1.160E+01    1.160E+01    1.159E+01    1.159E+01    1.159E+01    1.159E+01    1.159E+01    1.158E+01
     1.158E+01    1.158E+01    1.158E+01    1.158E+01    1.157E+01    1.157E+01    1.157E+01    1.157E+01    1.156E+01    1.156E+01
     1.156E+01    1.156E+01    1.155E+01    1.155E+01    1.155E+01    1.155E+01    1.154E+01    1.154E+01    1.154E+01    1.153E+01
     1.153E+01    1.153E+01    1.152E+01    1.152E+01    1.152E+01    1.151E+01    1.151E+01    1.151E+01    1.150E+01    1.150E+01
     1.149E+01    1.149E+01    1.149E+01    1.148E+01    1.148E+01    1.147E+01    1.147E+01    1.146E+01    1.146E+01    1.145E+01
     1.145E+01    1.144E+01    1.144E+01    1.143E+01    1.143E+01    1.142E+01    1.142E+01    1.141E+01    1.141E+01    1.140E+01
     1.139E+01    1.139E+01    1.138E+01    1.137E+01    1.137E+01    1.136E+01    1.135E+01    1.135E+01    1.134E+01    1.133E+01
     1.132E+01    1.132E+01    1.131E+01    1.130E+01    1.129E+01    1.128E+01    1.127E+01    1.126E+01    1.126E+01    1.125E+01
     1.124E+01    1.123E+01    1.122E+01    1.121E+01    1.120E+01    1.119E+01    1.117E+01    1.116E+01    1.115E+01    1.114E+01
     1.113E+01    1.112E+01    1.110E+01    1.109E+01    1.108E+01    1.106E+01    1.105E+01    1.104E+01    1.102E+01    1.101E+01
     1.099E+01    1.098E+01    1.096E+01    1.095E+01    1.093E+01    1.092E+01    1.090E+01    1.088E+01    1.087E+01    1.085E+01
     1.083E+01    1.081E+01    1.079E+01    1.078E+01    1.076E+01    1.074E+01    1.072E+01    1.070E+01    1.068E+01    1.066E+01
     1.064E+01    1.062E+01    1.059E+01    1.057E+01    1.055E+01    1.053E+01    1.050E+01    1.048E+01    1.046E+01    1.043E+01
     1.041E+01    1.039E+01    1.036E+01    1.034E+01    1.031E+01    1.029E+01    1.026E+01    1.023E+01    1.021E+01    1.018E+01
     1.015E+01    1.012E+01    1.010E+01    1.007E+01    1.004E+01    1.001E+01    9.980E+00    9.951E+00    9.921E+00    9.890E+00
     9.860E+00    9.829E+00    9.797E+00    9.765E+00    9.733E+00    9.701E+00    9.668E+00    9.635E+00    9.602E+00    9.568E+00
     9.535E+00    9.500E+00    9.466E+00    9.431E+00    9.396E+00    9.360E+00    9.324E+00    9.288E+00    9.252E+00    9.215E+00
     9.178E+00    9.141E+00    9.103E+00    9.065E+00    9.027E+00    8.989E+00    8.950E+00    8.911E+00    8.872E+00    8.832E+00
     8.792E+00    8.752E+00    8.712E+00    8.671E+00    8.630E+00    8.589E+00    8.548E+00    8.506E+00    8.464E+00    8.422E+00
     8.379E+00    8.336E+00    8.293E+00    8.250E+00    8.206E+00    8.163E+00    8.118E+00    8.074E+00    8.030E+00    7.985E+00
     7.940E+00    7.894E+00    7.849E+00    7.803E+00    7.757E+00    7.711E+00    7.664E+00    7.617E+00    7.570E+00    7.523E+00
     7.475E+00    7.428E+00    7.380E+00    7.331E+00    7.283E+00    7.234E+00    7.185E+00    7.136E+00    7.087E+00    7.037E+00
     6.987E+00    6.937E+00    6.886E+00    6.836E+00    6.785E+00    6.734E+00    6.683E+00    6.631E+00    6.579E+00    6.527E+00
     6.475E+00    6.422E+00    6.370E+00    6.317E+00    6.264E+00    6.210E+00    6.157E+00    6.103E+00    6.049E+00    5.995E+00
     5.940E+00    5.885E+00    5.830E+00    5.775E+00    5.720E+00    5.664E+00    5.609E+00    5.552E+00    5.496E+00    5.440E+00
     5.383E+00    5.326E+00    5.269E+00    5.212E+00    5.155E+00    5.097E+00    5.039E+00    4.981E+00    4.923E+00    4.864E+00
     4.805E+00    4.746E+00    4.687E+00    4.628E+00    4.569E+00    4.509E+00    4.449E+00    4.389E+00    4.329E+00    4.268E+00
     4.208E+00    4.147E+00    4.086E+00    4.025E+00    3.963E+00    3.902E+00    3.840E+00    3.778E+00    3.716E+00    3.654E+00
     3.591E+00    3.528E+00    3.466E+00    3.403E+00    3.339E+00    3.276E+00    3.212E+00    3.149E+00    3.085E+00    3.021E+00
     2.957E+00    2.892E+00    2.828E+00    2.763E+00    2.698E+00    2.633E+00    2.568E+00    2.502E+00    2.437E+00    2.371E+00
     2.305E+00    2.239E+00    2.173E+00    2.107E+00    2.040E+00    1.973E+00    1.907E+00    1.840E+00    1.772E+00    1.705E+00
     1.638E+00    1.570E+00    1.502E+00    1.434E+00    1.366E+00    1.298E+00    1.230E+00    1.161E+00    1.093E+00    1.024E+00
     9.550E-01    8.859E-01    8.167E-01    7.473E-01    6.778E-01    6.082E-01    5.384E-01    4.685E-01    3.985E-01    3.283E-01
     2.579E-01    1.875E-01    1.169E-01    4.617E-02   -2.469E-02   -9.568E-02   -1.668E-01   -2.381E-01   -3.094E-01   -3.809E-01
    -4.526E-01   -5.243E-01   -5.962E-01   -6.682E-01   -7.404E-01   -8.126E-01   -8.850E-01   -9.575E-01   -1.030E+00   -1.103E+00
    -1.176E+00   -1.249E+00   -1.322E+00   -1.395E+00   -1.468E+00   -1.542E+00   -1.615E+00   -1.689E+00   -1.763E+00   -1.837E+00
    -1.911E+00   -1.985E+00   -2.059E+00   -2.133E+00   -2.208E+00   -2.282E+00   -2.357E+00   -2.432E+00   -2.507E+00   -2.582E+00
    -2.657E+00   -2.732E+00   -2.807E+00   -2.883E+00   -2.958E+00   -3.034E+00   -3.109E+00   -3.185E+00   -3.261E+00   -3.337E+00
    -3.413E+00   -3.489E+00   -3.565E+00   -3.641E+00   -3.718E+00   -3.794E+00   -3.870E+00   -3.947E+00   -4.024E+00   -4.100E+00
    -4.177E+00   -4.254E+00   -4.330E+00   -4.407E+00   -4.484E+00   -4.561E+00   -4.638E+00   -4.715E+00   -4.792E+00   -4.869E+00
    -4.946E+00   -5.024E+00   -5.101E+00   -5.178E+00   -5.255E+00   -5.332E+00   -5.410E+00   -5.487E+00   -5.564E+00   -5.642E+00
    -5.719E+00   -5.796E+00   -5.874E+00   -5.951E+00   -6.028E+00   -6.105E+00   -6.183E+00   -6.260E+00
 Ala      Conc. = 1.69E+02
