 LCModel (Version 6.3-1L) Copyright: S.W. Provencher.          Ref.: Magn. Reson. Med. 30:672-679 (1993).                
 Slice#1 Row#12 Col#2  PD_24_press_1_raw_act
 36 lines in following concentration table = NCONC+1
    Conc.  %SD /Cr+PCr  Metabolite                                         
    0.000 999%   0.000 Ala                                                 
    9.648 102%   0.132 Asp                                                 
   18.729 223%   0.256 Cr                                                  
   54.422  85%   0.744 PCr                                                 
    6.551  89% 9.0E-02 GABA                                                
    6.243  95% 8.5E-02 Glc                                                 
    1.990 999% 2.7E-02 Gln                                                 
   13.122 416%   0.179 Glu                                                 
   15.826  48%   0.216 GPC                                                 
    0.000 999%   0.000 PCh                                                 
    0.000 999%   0.000 GSH                                                 
   57.303 119%   0.783 Ins                                                 
    0.000 999%   0.000 Lac                                                 
   71.303  37%   0.975 NAA                                                 
    0.000 999%   0.000 NAAG                                                
    1.605 121% 2.2E-02 Scyllo                                              
    8.485 115%   0.116 Tau                                                 
    0.000 999%   0.000 -CrCH2                                              
   15.826  48%   0.216 GPC+PCh                                             
   71.303  34%   0.975 NAA+NAAG                                            
   73.151  32%   1.000 Cr+PCr                                              
   15.112 439%   0.207 Glu+Gln                                             
  341.574  66%   4.669 Lip13a                                              
    2.304 999% 3.1E-02 Lip13b                                              
   75.738  65%   1.035 Lip09                                               
    0.000 999%   0.000 MM09                                                
   55.995  55%   0.765 Lip20                                               
 2.46E-03 999% 3.4E-05 MM20                                                
 1.24E-04 999% 1.7E-06 MM12                                                
 1.56E-03 999% 2.1E-05 MM14                                                
    0.000 999%   0.000 MM17                                                
  343.878  47%   4.701 Lip13a+Lip13b                                       
  343.880  47%   4.701 MM14+Lip13a+Lip13b+MM12                             
   75.738  65%   1.035 MM09+Lip09                                          
   55.998  55%   0.766 MM20+Lip20                                          
   6 lines in following misc. output table
  FWHM = 0.038 ppm    S/N =   1                                            
  Data shift =-0.008 ppm                                                   
  Ph: 176 deg     -38.7 deg/ppm                                            
  alphaB,S = 1.3E+00,   5.6E+00                                            
   14 spline knots.   Ns = 5(1)                                            
   2 inflections.     2 extrema                                            
  498 points on ppm-axis = NY
      4.000000     3.992357     3.984714     3.977070     3.969427     3.961784     3.954141     3.946497     3.938854     3.931211
      3.923568     3.915925     3.908281     3.900638     3.892995     3.885352     3.877708     3.870065     3.862422     3.854779
      3.847136     3.839492     3.831849     3.824206     3.816563     3.808919     3.801276     3.793633     3.785990     3.778347
      3.770703     3.763060     3.755417     3.747774     3.740130     3.732487     3.724844     3.717201     3.709558     3.701914
      3.694271     3.686628     3.678985     3.671341     3.663698     3.656055     3.648412     3.640769     3.633125     3.625482
      3.617839     3.610196     3.602552     3.594909     3.587266     3.579623     3.571980     3.564336     3.556693     3.549050
      3.541407     3.533763     3.526120     3.518477     3.510834     3.503191     3.495547     3.487904     3.480261     3.472618
      3.464974     3.457331     3.449688     3.442045     3.434402     3.426758     3.419115     3.411472     3.403829     3.396185
      3.388542     3.380899     3.373256     3.365613     3.357969     3.350326     3.342683     3.335040     3.327396     3.319753
      3.312110     3.304467     3.296824     3.289180     3.281537     3.273894     3.266251     3.258607     3.250964     3.243321
      3.235678     3.228034     3.220391     3.212748     3.205105     3.197462     3.189818     3.182175     3.174532     3.166889
      3.159245     3.151602     3.143959     3.136316     3.128673     3.121029     3.113386     3.105743     3.098100     3.090456
      3.082813     3.075170     3.067527     3.059884     3.052240     3.044597     3.036954     3.029311     3.021667     3.014024
      3.006381     2.998738     2.991095     2.983451     2.975808     2.968165     2.960522     2.952878     2.945235     2.937592
      2.929949     2.922306     2.914662     2.907019     2.899376     2.891733     2.884089     2.876446     2.868803     2.861160
      2.853517     2.845873     2.838230     2.830587     2.822944     2.815300     2.807657     2.800014     2.792371     2.784728
      2.777084     2.769441     2.761798     2.754155     2.746511     2.738868     2.731225     2.723582     2.715939     2.708295
      2.700652     2.693009     2.685366     2.677722     2.670079     2.662436     2.654793     2.647150     2.639506     2.631863
      2.624220     2.616577     2.608933     2.601290     2.593647     2.586004     2.578361     2.570717     2.563074     2.555431
      2.547788     2.540144     2.532501     2.524858     2.517215     2.509572     2.501928     2.494285     2.486642     2.478999
      2.471355     2.463712     2.456069     2.448426     2.440783     2.433139     2.425496     2.417853     2.410210     2.402566
      2.394923     2.387280     2.379637     2.371994     2.364350     2.356707     2.349064     2.341421     2.333777     2.326134
      2.318491     2.310848     2.303205     2.295561     2.287918     2.280275     2.272632     2.264988     2.257345     2.249702
      2.242059     2.234416     2.226772     2.219129     2.211486     2.203843     2.196199     2.188556     2.180913     2.173270
      2.165627     2.157983     2.150340     2.142697     2.135054     2.127410     2.119767     2.112124     2.104481     2.096838
      2.089194     2.081551     2.073908     2.066265     2.058621     2.050978     2.043335     2.035692     2.028049     2.020405
      2.012762     2.005119     1.997476     1.989833     1.982190     1.974546     1.966903     1.959260     1.951617     1.943974
      1.936331     1.928688     1.921045     1.913402     1.905759     1.898115     1.890472     1.882829     1.875186     1.867543
      1.859900     1.852257     1.844614     1.836971     1.829327     1.821684     1.814041     1.806398     1.798755     1.791112
      1.783469     1.775826     1.768183     1.760540     1.752896     1.745253     1.737610     1.729967     1.722324     1.714681
      1.707038     1.699395     1.691752     1.684108     1.676465     1.668822     1.661179     1.653536     1.645893     1.638250
      1.630607     1.622964     1.615321     1.607677     1.600034     1.592391     1.584748     1.577105     1.569462     1.561819
      1.554176     1.546533     1.538890     1.531246     1.523603     1.515960     1.508317     1.500674     1.493031     1.485388
      1.477745     1.470102     1.462458     1.454815     1.447172     1.439529     1.431886     1.424243     1.416600     1.408957
      1.401314     1.393671     1.386027     1.378384     1.370741     1.363098     1.355455     1.347812     1.340169     1.332526
      1.324883     1.317240     1.309596     1.301953     1.294310     1.286667     1.279024     1.271381     1.263738     1.256095
      1.248452     1.240808     1.233165     1.225522     1.217879     1.210236     1.202593     1.194950     1.187307     1.179664
      1.172021     1.164377     1.156734     1.149091     1.141448     1.133805     1.126162     1.118519     1.110876     1.103233
      1.095590     1.087946     1.080303     1.072660     1.065017     1.057374     1.049731     1.042088     1.034445     1.026802
      1.019158     1.011515     1.003872     0.996229     0.988586     0.980943     0.973300     0.965657     0.958014     0.950371
      0.942727     0.935084     0.927441     0.919798     0.912155     0.904512     0.896869     0.889226     0.881583     0.873940
      0.866296     0.858653     0.851010     0.843367     0.835724     0.828081     0.820438     0.812795     0.805152     0.797508
      0.789865     0.782222     0.774579     0.766936     0.759293     0.751650     0.744007     0.736364     0.728721     0.721077
      0.713434     0.705791     0.698148     0.690505     0.682862     0.675219     0.667576     0.659933     0.652290     0.644646
      0.637003     0.629360     0.621717     0.614074     0.606431     0.598788     0.591145     0.583502     0.575858     0.568215
      0.560572     0.552929     0.545286     0.537643     0.530000     0.522357     0.514714     0.507071     0.499427     0.491784
      0.484141     0.476498     0.468855     0.461212     0.453569     0.445925     0.438282     0.430639     0.422996     0.415353
      0.407710     0.400067     0.392424     0.384780     0.377137     0.369494     0.361851     0.354208     0.346565     0.338922
      0.331278     0.323635     0.315992     0.308349     0.300706     0.293063     0.285420     0.277777     0.270133     0.262490
      0.254847     0.247204     0.239561     0.231918     0.224275     0.216631     0.208988     0.201345
 NY phased data points follow
  -6.65873E-01 -9.93431E-01 -3.80057E+00 -3.12997E+00 -3.72741E+00 -1.89042E+00 -5.26320E+00 -5.43267E+00 -5.94632E+00  6.96871E-01
  -4.80197E+00 -2.46931E+00 -4.30417E+00 -3.09262E+00 -4.46885E+00 -1.30544E+00 -5.70230E+00 -7.68602E+00 -8.99957E+00 -6.94891E+00
  -6.30074E+00 -5.82228E+00 -8.99354E+00 -6.07480E+00 -1.12223E+01 -6.80230E+00 -1.08233E+01 -7.86218E+00 -7.38072E+00 -9.62433E+00
  -9.94784E+00 -9.23345E+00 -1.29695E+01 -9.77681E+00 -1.14879E+01 -1.03592E+01 -1.36623E+01 -9.04816E+00 -1.35822E+01 -1.30225E+01
  -1.22383E+01 -1.27859E+01 -1.49852E+01 -1.06014E+01 -1.35956E+01 -1.37964E+01 -9.54672E+00 -1.17933E+01 -1.21796E+01 -1.02507E+01
  -1.48744E+01 -1.24565E+01 -1.40171E+01 -1.30757E+01 -1.52975E+01 -9.65768E+00 -1.33222E+01 -1.43277E+01 -1.64407E+01 -1.16851E+01
  -1.39241E+01 -1.22674E+01 -1.27168E+01 -1.39119E+01 -1.59698E+01 -1.20654E+01 -1.68653E+01 -1.55793E+01 -2.04901E+01 -1.73157E+01
  -1.66460E+01 -1.70324E+01 -1.44166E+01 -1.69563E+01 -1.39297E+01 -1.60495E+01 -1.48676E+01 -1.30374E+01 -1.41655E+01 -1.53401E+01
  -1.46512E+01 -1.40394E+01 -1.59888E+01 -1.35420E+01 -1.60701E+01 -1.62420E+01 -1.57055E+01 -1.85688E+01 -1.83183E+01 -1.72954E+01
  -1.47291E+01 -1.98672E+01 -1.46095E+01 -1.74817E+01 -1.77914E+01 -1.99066E+01 -1.99494E+01 -1.90149E+01 -1.90643E+01 -1.84375E+01
  -1.83079E+01 -1.61113E+01 -1.65100E+01 -1.67981E+01 -1.79756E+01 -1.48224E+01 -1.48813E+01 -1.61784E+01 -2.09154E+01 -1.71105E+01
  -1.78701E+01 -1.91721E+01 -2.02569E+01 -2.03766E+01 -2.17860E+01 -2.05126E+01 -1.86724E+01 -1.95900E+01 -2.30106E+01 -1.75761E+01
  -1.92113E+01 -2.09625E+01 -1.86636E+01 -2.03657E+01 -2.27822E+01 -1.91176E+01 -2.25125E+01 -1.99894E+01 -1.46816E+01 -1.81595E+01
  -1.72295E+01 -1.63408E+01 -1.91211E+01 -2.10199E+01 -2.07044E+01 -1.84755E+01 -2.14455E+01 -2.18668E+01 -2.09670E+01 -2.13039E+01
  -1.74400E+01 -2.07891E+01 -1.95504E+01 -1.92997E+01 -1.96349E+01 -1.87499E+01 -2.18915E+01 -1.90779E+01 -1.86686E+01 -1.92299E+01
  -2.02762E+01 -2.19159E+01 -1.81077E+01 -2.03027E+01 -2.16072E+01 -2.06069E+01 -1.93046E+01 -2.08728E+01 -1.69665E+01 -2.03146E+01
  -1.90474E+01 -2.08652E+01 -2.13230E+01 -2.16128E+01 -1.98765E+01 -2.06810E+01 -2.19504E+01 -2.25581E+01 -2.04596E+01 -2.09120E+01
  -1.89952E+01 -1.98302E+01 -2.15134E+01 -2.16177E+01 -1.76196E+01 -2.24945E+01 -2.15622E+01 -2.21747E+01 -2.10341E+01 -2.07101E+01
  -2.12224E+01 -2.07660E+01 -2.12905E+01 -1.98196E+01 -1.99671E+01 -2.17461E+01 -2.09067E+01 -2.00112E+01 -2.15048E+01 -1.96828E+01
  -1.79490E+01 -1.97390E+01 -1.87069E+01 -2.09806E+01 -1.96667E+01 -1.86979E+01 -1.84297E+01 -1.99253E+01 -2.04677E+01 -2.08859E+01
  -2.03682E+01 -2.02097E+01 -1.71897E+01 -2.24311E+01 -1.93914E+01 -1.71812E+01 -1.76814E+01 -1.98315E+01 -1.64724E+01 -1.82839E+01
  -2.08405E+01 -1.96261E+01 -1.88117E+01 -1.77452E+01 -1.85386E+01 -1.77061E+01 -1.85916E+01 -1.95764E+01 -1.86236E+01 -1.78967E+01
  -1.89536E+01 -1.73803E+01 -2.19284E+01 -1.67597E+01 -1.85411E+01 -1.72701E+01 -1.62757E+01 -1.80354E+01 -1.91951E+01 -1.80558E+01
  -1.64851E+01 -1.82941E+01 -1.74610E+01 -1.84712E+01 -1.92777E+01 -1.92053E+01 -1.66589E+01 -1.82394E+01 -1.52807E+01 -1.66982E+01
  -1.84396E+01 -1.66386E+01 -1.72681E+01 -1.91631E+01 -1.87558E+01 -1.70147E+01 -1.72890E+01 -1.70721E+01 -1.61052E+01 -1.84076E+01
  -1.72966E+01 -1.60720E+01 -1.65252E+01 -1.92457E+01 -1.73550E+01 -1.77957E+01 -1.60452E+01 -1.92426E+01 -1.74168E+01 -1.91390E+01
  -1.46836E+01 -1.25045E+01 -1.65161E+01 -1.26294E+01 -1.36741E+01 -1.51461E+01 -1.63610E+01 -1.57574E+01 -1.23491E+01 -1.56795E+01
  -1.52324E+01 -1.58487E+01 -1.64124E+01 -1.50015E+01 -1.61677E+01 -1.92234E+01 -1.80081E+01 -1.82606E+01 -1.39163E+01 -1.61626E+01
  -1.50591E+01 -1.65249E+01 -1.51738E+01 -1.70023E+01 -1.62395E+01 -1.93010E+01 -1.46811E+01 -1.66348E+01 -1.85810E+01 -1.44261E+01
  -1.66036E+01 -1.74344E+01 -1.70792E+01 -1.67930E+01 -1.71346E+01 -1.72295E+01 -1.50444E+01 -1.43194E+01 -1.47780E+01 -1.51813E+01
  -1.49536E+01 -1.31021E+01 -1.52818E+01 -1.46364E+01 -1.52938E+01 -1.53488E+01 -1.57908E+01 -1.83506E+01 -1.72570E+01 -1.56896E+01
  -1.40724E+01 -1.48844E+01 -1.71306E+01 -1.47973E+01 -1.39524E+01 -1.58093E+01 -1.56377E+01 -1.52846E+01 -1.63619E+01 -1.55158E+01
  -1.51093E+01 -1.17062E+01 -1.47180E+01 -1.34433E+01 -1.22893E+01 -1.30571E+01 -1.21411E+01 -1.33343E+01 -1.58327E+01 -1.31600E+01
  -1.30428E+01 -1.43743E+01 -1.17165E+01 -1.17407E+01 -1.24562E+01 -1.22295E+01 -1.66185E+01 -1.44673E+01 -1.14830E+01 -1.11164E+01
  -1.47203E+01 -1.30180E+01 -1.35710E+01 -1.14477E+01 -1.49104E+01 -1.07185E+01 -1.23930E+01 -1.33555E+01 -1.09531E+01 -1.31257E+01
  -1.17755E+01 -1.28803E+01 -1.21547E+01 -1.04751E+01 -1.04914E+01 -1.12795E+01 -1.13707E+01 -1.20434E+01 -8.35770E+00 -1.13552E+01
  -1.18478E+01 -1.01695E+01 -1.24272E+01 -9.40692E+00 -1.07132E+01 -1.11749E+01 -1.14497E+01 -8.63256E+00 -9.83009E+00 -1.09191E+01
  -9.17758E+00 -1.01050E+01 -1.18286E+01 -1.13593E+01 -1.19276E+01 -1.29968E+01 -1.25270E+01 -1.04680E+01 -1.14883E+01 -1.02286E+01
  -9.29465E+00 -1.01545E+01 -1.34235E+01 -1.17258E+01 -8.60619E+00 -1.02313E+01 -1.03682E+01 -8.80509E+00 -9.07490E+00 -8.40873E+00
  -9.54679E+00 -9.26448E+00 -7.67025E+00 -7.88223E+00 -1.05237E+01 -1.12122E+01 -9.53005E+00 -9.62306E+00 -1.00646E+01 -9.89885E+00
  -9.76780E+00 -1.22698E+01 -1.03437E+01 -1.05020E+01 -1.17462E+01 -7.03581E+00 -1.06502E+01 -1.07319E+01 -9.49371E+00 -9.43737E+00
  -8.64890E+00 -1.25232E+01 -8.85703E+00 -9.59438E+00 -8.70353E+00 -8.33978E+00 -8.70966E+00 -1.14423E+01 -8.90805E+00 -1.01692E+01
  -6.89778E+00 -9.86463E+00 -9.59604E+00 -1.15150E+01 -9.42083E+00 -1.02416E+01 -9.60810E+00 -9.58329E+00 -7.08772E+00 -9.79448E+00
  -7.42614E+00 -1.07700E+01 -5.90795E+00 -6.79153E+00 -6.24667E+00 -9.42634E+00 -7.29267E+00 -9.37397E+00 -5.99145E+00 -6.57571E+00
  -9.45082E+00 -7.08065E+00 -4.51046E+00 -8.56422E+00 -7.63942E+00 -7.57724E+00 -7.68381E+00 -7.00977E+00 -5.82624E+00 -6.58369E+00
  -1.01472E+01 -6.92694E+00 -9.72829E+00 -7.05921E+00 -5.77674E+00 -5.37292E+00 -6.25026E+00 -3.28595E+00 -5.68796E+00 -6.57664E+00
  -3.07345E+00 -3.75457E+00 -4.40412E+00 -6.17665E+00 -5.35573E+00 -8.52572E+00 -4.05719E+00 -4.96183E+00 -4.50785E+00 -6.91750E+00
  -7.27132E+00 -4.43856E+00 -7.54800E+00 -4.61506E+00 -5.44066E+00 -4.73570E+00 -6.21994E+00 -4.27964E+00 -8.81505E-01 -4.73575E+00
  -5.57797E+00 -5.26665E+00 -5.27575E+00 -3.87841E+00 -2.37651E+00 -4.57730E+00 -4.42056E+00 -1.60716E+00 -8.80259E+00 -2.36972E+00
  -3.06331E+00 -3.25226E+00 -2.35729E+00 -3.93995E+00 -5.70542E+00 -4.81104E+00  1.46160E-01  4.90592E-01
 NY points of the fit to the data follow
  -5.01685E+00 -5.24350E+00 -5.45406E+00 -5.63304E+00 -5.80326E+00 -6.07951E+00 -6.37608E+00 -6.42707E+00 -6.11126E+00 -5.49920E+00
  -4.96042E+00 -4.64418E+00 -4.51371E+00 -4.80273E+00 -5.53305E+00 -6.34004E+00 -6.97128E+00 -7.42522E+00 -7.73022E+00 -7.94208E+00
  -8.13238E+00 -8.31838E+00 -8.49337E+00 -8.64783E+00 -8.77703E+00 -8.89799E+00 -9.03317E+00 -9.18835E+00 -9.35550E+00 -9.52211E+00
  -9.68490E+00 -9.83663E+00 -9.96280E+00 -1.00706E+01 -1.01821E+01 -1.02936E+01 -1.03925E+01 -1.04881E+01 -1.06146E+01 -1.07925E+01
  -1.09844E+01 -1.11616E+01 -1.13489E+01 -1.15744E+01 -1.17929E+01 -1.18921E+01 -1.18387E+01 -1.17167E+01 -1.16303E+01 -1.16293E+01
  -1.17252E+01 -1.19444E+01 -1.22930E+01 -1.26827E+01 -1.29852E+01 -1.31775E+01 -1.33171E+01 -1.34341E+01 -1.35175E+01 -1.35519E+01
  -1.35738E+01 -1.36193E+01 -1.36919E+01 -1.38141E+01 -1.39973E+01 -1.42187E+01 -1.44280E+01 -1.45914E+01 -1.47161E+01 -1.48078E+01
  -1.48774E+01 -1.49393E+01 -1.50092E+01 -1.50989E+01 -1.51871E+01 -1.52580E+01 -1.53465E+01 -1.54756E+01 -1.56150E+01 -1.57521E+01
  -1.58995E+01 -1.60445E+01 -1.61731E+01 -1.62729E+01 -1.63338E+01 -1.63709E+01 -1.64340E+01 -1.65655E+01 -1.67367E+01 -1.69009E+01
  -1.70593E+01 -1.72048E+01 -1.73017E+01 -1.73441E+01 -1.73670E+01 -1.74056E+01 -1.74645E+01 -1.75494E+01 -1.77460E+01 -1.81039E+01
  -1.82353E+01 -1.78560E+01 -1.70514E+01 -1.62980E+01 -1.59880E+01 -1.58646E+01 -1.59771E+01 -1.66726E+01 -1.76270E+01 -1.82344E+01
  -1.84652E+01 -1.85739E+01 -1.86566E+01 -1.87308E+01 -1.87979E+01 -1.88594E+01 -1.89180E+01 -1.89767E+01 -1.90388E+01 -1.91019E+01
  -1.91640E+01 -1.92267E+01 -1.93422E+01 -1.97392E+01 -2.01036E+01 -1.98019E+01 -1.86873E+01 -1.72296E+01 -1.62874E+01 -1.58985E+01
  -1.57472E+01 -1.63090E+01 -1.76828E+01 -1.89342E+01 -1.95017E+01 -1.96832E+01 -1.97769E+01 -1.98422E+01 -1.98837E+01 -1.99055E+01
  -1.99260E+01 -1.99541E+01 -1.99843E+01 -2.00085E+01 -2.00262E+01 -2.00401E+01 -2.00494E+01 -2.00569E+01 -2.00672E+01 -2.00822E+01
  -2.01040E+01 -2.01291E+01 -2.01483E+01 -2.01591E+01 -2.01664E+01 -2.01727E+01 -2.01754E+01 -2.01686E+01 -2.01634E+01 -2.01799E+01
  -2.02246E+01 -2.02867E+01 -2.03279E+01 -2.03344E+01 -2.03163E+01 -2.02756E+01 -2.02306E+01 -2.01992E+01 -2.01914E+01 -2.02140E+01
  -2.02503E+01 -2.02711E+01 -2.02684E+01 -2.02602E+01 -2.02738E+01 -2.03080E+01 -2.03395E+01 -2.03327E+01 -2.02927E+01 -2.02662E+01
  -2.02530E+01 -2.02311E+01 -2.02027E+01 -2.01808E+01 -2.01713E+01 -2.01649E+01 -2.01509E+01 -2.01280E+01 -2.00891E+01 -2.00411E+01
  -1.99956E+01 -1.99353E+01 -1.98675E+01 -1.98307E+01 -1.98132E+01 -1.97811E+01 -1.97291E+01 -1.96741E+01 -1.96379E+01 -1.96222E+01
  -1.96283E+01 -1.96474E+01 -1.96482E+01 -1.95975E+01 -1.95119E+01 -1.94351E+01 -1.93693E+01 -1.93193E+01 -1.93064E+01 -1.93197E+01
  -1.93381E+01 -1.93561E+01 -1.93820E+01 -1.93926E+01 -1.93459E+01 -1.92544E+01 -1.91600E+01 -1.90727E+01 -1.89825E+01 -1.89213E+01
  -1.89287E+01 -1.89791E+01 -1.90067E+01 -1.89786E+01 -1.89101E+01 -1.88277E+01 -1.87336E+01 -1.86277E+01 -1.85477E+01 -1.85226E+01
  -1.85286E+01 -1.85270E+01 -1.85026E+01 -1.84634E+01 -1.84153E+01 -1.83541E+01 -1.82849E+01 -1.82241E+01 -1.81779E+01 -1.81363E+01
  -1.80964E+01 -1.80597E+01 -1.80267E+01 -1.79935E+01 -1.79526E+01 -1.79057E+01 -1.78557E+01 -1.77989E+01 -1.77399E+01 -1.76934E+01
  -1.76590E+01 -1.76235E+01 -1.75818E+01 -1.75373E+01 -1.74901E+01 -1.74582E+01 -1.76327E+01 -1.79744E+01 -1.78477E+01 -1.69211E+01
  -1.54568E+01 -1.42507E+01 -1.36935E+01 -1.33885E+01 -1.35761E+01 -1.46494E+01 -1.59255E+01 -1.65948E+01 -1.67661E+01 -1.68074E+01
  -1.68175E+01 -1.68097E+01 -1.67925E+01 -1.67659E+01 -1.67249E+01 -1.66720E+01 -1.66146E+01 -1.65591E+01 -1.65108E+01 -1.64693E+01
  -1.64325E+01 -1.64014E+01 -1.63732E+01 -1.63420E+01 -1.63055E+01 -1.62634E+01 -1.62170E+01 -1.61682E+01 -1.61175E+01 -1.60654E+01
  -1.60149E+01 -1.59672E+01 -1.59203E+01 -1.58733E+01 -1.58272E+01 -1.57815E+01 -1.57350E+01 -1.56878E+01 -1.56401E+01 -1.55913E+01
  -1.55419E+01 -1.54921E+01 -1.54422E+01 -1.53919E+01 -1.53413E+01 -1.52904E+01 -1.52392E+01 -1.51877E+01 -1.51359E+01 -1.50836E+01
  -1.50310E+01 -1.49779E+01 -1.49243E+01 -1.48702E+01 -1.48156E+01 -1.47604E+01 -1.47046E+01 -1.46481E+01 -1.45909E+01 -1.45328E+01
  -1.44739E+01 -1.44140E+01 -1.43530E+01 -1.42909E+01 -1.42275E+01 -1.41626E+01 -1.40961E+01 -1.40278E+01 -1.39575E+01 -1.38850E+01
  -1.38101E+01 -1.37326E+01 -1.36521E+01 -1.35685E+01 -1.34816E+01 -1.33912E+01 -1.32970E+01 -1.31990E+01 -1.30971E+01 -1.29913E+01
  -1.28818E+01 -1.27689E+01 -1.26527E+01 -1.25339E+01 -1.24129E+01 -1.22907E+01 -1.21680E+01 -1.20458E+01 -1.19252E+01 -1.18076E+01
  -1.16940E+01 -1.15861E+01 -1.14849E+01 -1.13919E+01 -1.13081E+01 -1.12343E+01 -1.11713E+01 -1.11190E+01 -1.10776E+01 -1.10463E+01
  -1.10245E+01 -1.10110E+01 -1.10048E+01 -1.10045E+01 -1.10087E+01 -1.10162E+01 -1.10257E+01 -1.10360E+01 -1.10462E+01 -1.10552E+01
  -1.10622E+01 -1.10665E+01 -1.10676E+01 -1.10650E+01 -1.10584E+01 -1.10476E+01 -1.10324E+01 -1.10129E+01 -1.09890E+01 -1.09608E+01
  -1.09284E+01 -1.08921E+01 -1.08518E+01 -1.08078E+01 -1.07603E+01 -1.07094E+01 -1.06553E+01 -1.05981E+01 -1.05380E+01 -1.04752E+01
  -1.04098E+01 -1.03422E+01 -1.02724E+01 -1.02009E+01 -1.01279E+01 -1.00538E+01 -9.97892E+00 -9.90368E+00 -9.82853E+00 -9.75389E+00
  -9.68020E+00 -9.60790E+00 -9.53736E+00 -9.46895E+00 -9.40292E+00 -9.33951E+00 -9.27885E+00 -9.22098E+00 -9.16586E+00 -9.11338E+00
  -9.06333E+00 -9.01545E+00 -8.96943E+00 -8.92492E+00 -8.88151E+00 -8.83884E+00 -8.79651E+00 -8.75417E+00 -8.71148E+00 -8.66815E+00
  -8.62394E+00 -8.57864E+00 -8.53209E+00 -8.48420E+00 -8.43489E+00 -8.38413E+00 -8.33191E+00 -8.27826E+00 -8.22324E+00 -8.16689E+00
  -8.10929E+00 -8.05052E+00 -7.99064E+00 -7.92975E+00 -7.86791E+00 -7.80520E+00 -7.74169E+00 -7.67743E+00 -7.61249E+00 -7.54692E+00
  -7.48076E+00 -7.41406E+00 -7.34686E+00 -7.27919E+00 -7.21108E+00 -7.14256E+00 -7.07365E+00 -7.00437E+00 -6.93475E+00 -6.86480E+00
  -6.79453E+00 -6.72397E+00 -6.65312E+00 -6.58200E+00 -6.51062E+00 -6.43899E+00 -6.36712E+00 -6.29503E+00 -6.22272E+00 -6.15021E+00
  -6.07749E+00 -6.00458E+00 -5.93149E+00 -5.85823E+00 -5.78480E+00 -5.71121E+00 -5.63747E+00 -5.56358E+00 -5.48955E+00 -5.41539E+00
  -5.34110E+00 -5.26669E+00 -5.19217E+00 -5.11753E+00 -5.04279E+00 -4.96796E+00 -4.89303E+00 -4.81801E+00 -4.74290E+00 -4.66773E+00
  -4.59248E+00 -4.51716E+00 -4.44178E+00 -4.36634E+00 -4.29085E+00 -4.21531E+00 -4.13974E+00 -4.06412E+00 -3.98847E+00 -3.91279E+00
  -3.83708E+00 -3.76136E+00 -3.68563E+00 -3.60988E+00 -3.53412E+00 -3.45837E+00 -3.38262E+00 -3.30688E+00
 NY background values follow
    -5.278E+00   -5.428E+00   -5.579E+00   -5.730E+00   -5.881E+00   -6.032E+00   -6.184E+00   -6.335E+00   -6.486E+00   -6.636E+00
    -6.787E+00   -6.938E+00   -7.089E+00   -7.239E+00   -7.390E+00   -7.540E+00   -7.690E+00   -7.840E+00   -7.989E+00   -8.138E+00
    -8.288E+00   -8.436E+00   -8.585E+00   -8.733E+00   -8.881E+00   -9.028E+00   -9.175E+00   -9.322E+00   -9.468E+00   -9.614E+00
    -9.759E+00   -9.904E+00   -1.005E+01   -1.019E+01   -1.034E+01   -1.048E+01   -1.062E+01   -1.076E+01   -1.090E+01   -1.104E+01
    -1.118E+01   -1.132E+01   -1.146E+01   -1.160E+01   -1.173E+01   -1.187E+01   -1.201E+01   -1.214E+01   -1.227E+01   -1.241E+01
    -1.254E+01   -1.267E+01   -1.280E+01   -1.293E+01   -1.306E+01   -1.319E+01   -1.332E+01   -1.344E+01   -1.357E+01   -1.369E+01
    -1.382E+01   -1.394E+01   -1.406E+01   -1.418E+01   -1.430E+01   -1.442E+01   -1.454E+01   -1.465E+01   -1.477E+01   -1.489E+01
    -1.500E+01   -1.511E+01   -1.522E+01   -1.533E+01   -1.544E+01   -1.555E+01   -1.566E+01   -1.577E+01   -1.587E+01   -1.598E+01
    -1.608E+01   -1.618E+01   -1.628E+01   -1.638E+01   -1.648E+01   -1.658E+01   -1.667E+01   -1.677E+01   -1.686E+01   -1.696E+01
    -1.705E+01   -1.714E+01   -1.723E+01   -1.731E+01   -1.740E+01   -1.749E+01   -1.757E+01   -1.765E+01   -1.773E+01   -1.781E+01
    -1.789E+01   -1.797E+01   -1.805E+01   -1.812E+01   -1.820E+01   -1.827E+01   -1.834E+01   -1.841E+01   -1.848E+01   -1.855E+01
    -1.861E+01   -1.868E+01   -1.874E+01   -1.880E+01   -1.886E+01   -1.892E+01   -1.898E+01   -1.904E+01   -1.910E+01   -1.915E+01
    -1.920E+01   -1.926E+01   -1.931E+01   -1.936E+01   -1.941E+01   -1.945E+01   -1.950E+01   -1.954E+01   -1.959E+01   -1.963E+01
    -1.967E+01   -1.971E+01   -1.975E+01   -1.978E+01   -1.982E+01   -1.985E+01   -1.988E+01   -1.992E+01   -1.995E+01   -1.997E+01
    -2.000E+01   -2.003E+01   -2.005E+01   -2.008E+01   -2.010E+01   -2.012E+01   -2.014E+01   -2.016E+01   -2.018E+01   -2.019E+01
    -2.021E+01   -2.022E+01   -2.024E+01   -2.025E+01   -2.026E+01   -2.027E+01   -2.028E+01   -2.028E+01   -2.029E+01   -2.030E+01
    -2.030E+01   -2.030E+01   -2.031E+01   -2.031E+01   -2.031E+01   -2.031E+01   -2.030E+01   -2.030E+01   -2.030E+01   -2.029E+01
    -2.029E+01   -2.028E+01   -2.027E+01   -2.026E+01   -2.025E+01   -2.024E+01   -2.023E+01   -2.022E+01   -2.021E+01   -2.020E+01
    -2.018E+01   -2.017E+01   -2.015E+01   -2.013E+01   -2.011E+01   -2.010E+01   -2.008E+01   -2.006E+01   -2.004E+01   -2.001E+01
    -1.999E+01   -1.997E+01   -1.995E+01   -1.992E+01   -1.990E+01   -1.987E+01   -1.984E+01   -1.982E+01   -1.979E+01   -1.976E+01
    -1.973E+01   -1.971E+01   -1.968E+01   -1.965E+01   -1.962E+01   -1.958E+01   -1.955E+01   -1.952E+01   -1.949E+01   -1.946E+01
    -1.942E+01   -1.939E+01   -1.935E+01   -1.932E+01   -1.929E+01   -1.925E+01   -1.921E+01   -1.918E+01   -1.914E+01   -1.911E+01
    -1.907E+01   -1.903E+01   -1.900E+01   -1.896E+01   -1.892E+01   -1.888E+01   -1.884E+01   -1.881E+01   -1.877E+01   -1.873E+01
    -1.869E+01   -1.865E+01   -1.861E+01   -1.857E+01   -1.853E+01   -1.849E+01   -1.845E+01   -1.841E+01   -1.837E+01   -1.833E+01
    -1.829E+01   -1.825E+01   -1.821E+01   -1.817E+01   -1.813E+01   -1.809E+01   -1.804E+01   -1.800E+01   -1.796E+01   -1.792E+01
    -1.788E+01   -1.784E+01   -1.779E+01   -1.775E+01   -1.771E+01   -1.767E+01   -1.762E+01   -1.758E+01   -1.754E+01   -1.749E+01
    -1.745E+01   -1.741E+01   -1.736E+01   -1.732E+01   -1.727E+01   -1.723E+01   -1.719E+01   -1.714E+01   -1.710E+01   -1.705E+01
    -1.701E+01   -1.696E+01   -1.692E+01   -1.688E+01   -1.683E+01   -1.679E+01   -1.674E+01   -1.670E+01   -1.665E+01   -1.660E+01
    -1.656E+01   -1.651E+01   -1.647E+01   -1.642E+01   -1.638E+01   -1.633E+01   -1.628E+01   -1.624E+01   -1.619E+01   -1.614E+01
    -1.610E+01   -1.605E+01   -1.600E+01   -1.596E+01   -1.591E+01   -1.586E+01   -1.582E+01   -1.577E+01   -1.572E+01   -1.567E+01
    -1.563E+01   -1.558E+01   -1.553E+01   -1.548E+01   -1.543E+01   -1.538E+01   -1.534E+01   -1.529E+01   -1.524E+01   -1.519E+01
    -1.514E+01   -1.509E+01   -1.504E+01   -1.499E+01   -1.494E+01   -1.489E+01   -1.484E+01   -1.479E+01   -1.474E+01   -1.469E+01
    -1.464E+01   -1.459E+01   -1.454E+01   -1.449E+01   -1.444E+01   -1.438E+01   -1.433E+01   -1.428E+01   -1.423E+01   -1.418E+01
    -1.413E+01   -1.407E+01   -1.402E+01   -1.397E+01   -1.392E+01   -1.386E+01   -1.381E+01   -1.376E+01   -1.371E+01   -1.365E+01
    -1.360E+01   -1.355E+01   -1.349E+01   -1.344E+01   -1.339E+01   -1.333E+01   -1.328E+01   -1.323E+01   -1.317E+01   -1.312E+01
    -1.306E+01   -1.301E+01   -1.295E+01   -1.290E+01   -1.285E+01   -1.279E+01   -1.274E+01   -1.268E+01   -1.263E+01   -1.257E+01
    -1.252E+01   -1.246E+01   -1.241E+01   -1.235E+01   -1.230E+01   -1.224E+01   -1.219E+01   -1.213E+01   -1.207E+01   -1.202E+01
    -1.196E+01   -1.191E+01   -1.185E+01   -1.179E+01   -1.174E+01   -1.168E+01   -1.162E+01   -1.157E+01   -1.151E+01   -1.145E+01
    -1.140E+01   -1.134E+01   -1.128E+01   -1.122E+01   -1.117E+01   -1.111E+01   -1.105E+01   -1.099E+01   -1.093E+01   -1.087E+01
    -1.081E+01   -1.076E+01   -1.070E+01   -1.064E+01   -1.058E+01   -1.052E+01   -1.046E+01   -1.040E+01   -1.034E+01   -1.027E+01
    -1.021E+01   -1.015E+01   -1.009E+01   -1.003E+01   -9.967E+00   -9.904E+00   -9.842E+00   -9.779E+00   -9.716E+00   -9.652E+00
    -9.588E+00   -9.524E+00   -9.460E+00   -9.396E+00   -9.331E+00   -9.266E+00   -9.201E+00   -9.135E+00   -9.070E+00   -9.004E+00
    -8.938E+00   -8.871E+00   -8.804E+00   -8.738E+00   -8.670E+00   -8.603E+00   -8.535E+00   -8.468E+00   -8.400E+00   -8.331E+00
    -8.263E+00   -8.194E+00   -8.125E+00   -8.056E+00   -7.987E+00   -7.917E+00   -7.848E+00   -7.778E+00   -7.708E+00   -7.637E+00
    -7.567E+00   -7.496E+00   -7.425E+00   -7.354E+00   -7.283E+00   -7.211E+00   -7.140E+00   -7.068E+00   -6.996E+00   -6.924E+00
    -6.851E+00   -6.779E+00   -6.706E+00   -6.633E+00   -6.560E+00   -6.487E+00   -6.414E+00   -6.340E+00   -6.266E+00   -6.193E+00
    -6.119E+00   -6.045E+00   -5.971E+00   -5.896E+00   -5.822E+00   -5.747E+00   -5.673E+00   -5.598E+00   -5.523E+00   -5.448E+00
    -5.373E+00   -5.298E+00   -5.223E+00   -5.147E+00   -5.072E+00   -4.997E+00   -4.921E+00   -4.845E+00   -4.770E+00   -4.694E+00
    -4.618E+00   -4.542E+00   -4.467E+00   -4.391E+00   -4.315E+00   -4.239E+00   -4.163E+00   -4.087E+00   -4.011E+00   -3.935E+00
    -3.858E+00   -3.782E+00   -3.706E+00   -3.630E+00   -3.554E+00   -3.478E+00   -3.402E+00   -3.326E+00
 Asp      Conc. = 9.65E+00
