 LCModel (Version 6.3-1L) Copyright: S.W. Provencher.          Ref.: Magn. Reson. Med. 30:672-679 (1993).                
 Slice#3 Row#10 Col#4  PD_24_press_1_raw_act
 36 lines in following concentration table = NCONC+1
    Conc.  %SD /Cr+PCr  Metabolite                                         
  106.082 110% 8.2E-02 Ala                                                 
    0.000 999%   0.000 Asp                                                 
  282.151  78%   0.217 Cr                                                  
 1.02E+03  22%   0.783 PCr                                                 
   55.006 235% 4.2E-02 GABA                                                
  218.852  58%   0.168 Glc                                                 
  447.728  52%   0.344 Gln                                                 
 1.18E+03  24%   0.905 Glu                                                 
  424.470   5%   0.327 GPC                                                 
    0.000 999%   0.000 PCh                                                 
  334.776  22%   0.258 GSH                                                 
  824.138  32%   0.634 Ins                                                 
  517.626  28%   0.398 Lac                                                 
 1.81E+03   3%   1.389 NAA                                                 
    0.000 999%   0.000 NAAG                                                
  128.887  20% 9.9E-02 Scyllo                                              
  337.537  55%   0.260 Tau                                                 
    7.892 999% 6.1E-03 -CrCH2                                              
  424.470   5%   0.327 GPC+PCh                                             
 1.81E+03   3%   1.389 NAA+NAAG                                            
 1.30E+03   4%   1.000 Cr+PCr                                              
 1.62E+03  25%   1.249 Glu+Gln                                             
    0.000 999%   0.000 Lip13a                                              
  817.049  12%   0.629 Lip13b                                              
   27.446 297% 2.1E-02 Lip09                                               
  677.712  23%   0.521 MM09                                                
  105.241  55% 8.1E-02 Lip20                                               
 1.02E+03  23%   0.787 MM20                                                
  196.845  27%   0.151 MM12                                                
  891.370  15%   0.686 MM14                                                
  395.625  24%   0.304 MM17                                                
  817.049  12%   0.629 Lip13a+Lip13b                                       
 1.91E+03  10%   1.466 MM14+Lip13a+Lip13b+MM12                             
  705.158  21%   0.543 MM09+Lip09                                          
 1.13E+03  21%   0.868 MM20+Lip20                                          
   6 lines in following misc. output table
  FWHM = 0.061 ppm    S/N =  10                                            
  Data shift = 0.031 ppm                                                   
  Ph: -38 deg     -20.3 deg/ppm                                            
  alphaB,S = 4.7E-01,   2.4E+01                                            
   14 spline knots.   Ns = 8(1)                                            
  (15) 9 infls.   (13) 3 extrs.                                            
  498 points on ppm-axis = NY
      4.000000     3.992357     3.984714     3.977070     3.969427     3.961784     3.954141     3.946497     3.938854     3.931211
      3.923568     3.915925     3.908281     3.900638     3.892995     3.885352     3.877708     3.870065     3.862422     3.854779
      3.847136     3.839492     3.831849     3.824206     3.816563     3.808919     3.801276     3.793633     3.785990     3.778347
      3.770703     3.763060     3.755417     3.747774     3.740130     3.732487     3.724844     3.717201     3.709558     3.701914
      3.694271     3.686628     3.678985     3.671341     3.663698     3.656055     3.648412     3.640769     3.633125     3.625482
      3.617839     3.610196     3.602552     3.594909     3.587266     3.579623     3.571980     3.564336     3.556693     3.549050
      3.541407     3.533763     3.526120     3.518477     3.510834     3.503191     3.495547     3.487904     3.480261     3.472618
      3.464974     3.457331     3.449688     3.442045     3.434402     3.426758     3.419115     3.411472     3.403829     3.396185
      3.388542     3.380899     3.373256     3.365613     3.357969     3.350326     3.342683     3.335040     3.327396     3.319753
      3.312110     3.304467     3.296824     3.289180     3.281537     3.273894     3.266251     3.258607     3.250964     3.243321
      3.235678     3.228034     3.220391     3.212748     3.205105     3.197462     3.189818     3.182175     3.174532     3.166889
      3.159245     3.151602     3.143959     3.136316     3.128673     3.121029     3.113386     3.105743     3.098100     3.090456
      3.082813     3.075170     3.067527     3.059884     3.052240     3.044597     3.036954     3.029311     3.021667     3.014024
      3.006381     2.998738     2.991095     2.983451     2.975808     2.968165     2.960522     2.952878     2.945235     2.937592
      2.929949     2.922306     2.914662     2.907019     2.899376     2.891733     2.884089     2.876446     2.868803     2.861160
      2.853517     2.845873     2.838230     2.830587     2.822944     2.815300     2.807657     2.800014     2.792371     2.784728
      2.777084     2.769441     2.761798     2.754155     2.746511     2.738868     2.731225     2.723582     2.715939     2.708295
      2.700652     2.693009     2.685366     2.677722     2.670079     2.662436     2.654793     2.647150     2.639506     2.631863
      2.624220     2.616577     2.608933     2.601290     2.593647     2.586004     2.578361     2.570717     2.563074     2.555431
      2.547788     2.540144     2.532501     2.524858     2.517215     2.509572     2.501928     2.494285     2.486642     2.478999
      2.471355     2.463712     2.456069     2.448426     2.440783     2.433139     2.425496     2.417853     2.410210     2.402566
      2.394923     2.387280     2.379637     2.371994     2.364350     2.356707     2.349064     2.341421     2.333777     2.326134
      2.318491     2.310848     2.303205     2.295561     2.287918     2.280275     2.272632     2.264988     2.257345     2.249702
      2.242059     2.234416     2.226772     2.219129     2.211486     2.203843     2.196199     2.188556     2.180913     2.173270
      2.165627     2.157983     2.150340     2.142697     2.135054     2.127410     2.119767     2.112124     2.104481     2.096838
      2.089194     2.081551     2.073908     2.066265     2.058621     2.050978     2.043335     2.035692     2.028049     2.020405
      2.012762     2.005119     1.997476     1.989833     1.982190     1.974546     1.966903     1.959260     1.951617     1.943974
      1.936331     1.928688     1.921045     1.913402     1.905759     1.898115     1.890472     1.882829     1.875186     1.867543
      1.859900     1.852257     1.844614     1.836971     1.829327     1.821684     1.814041     1.806398     1.798755     1.791112
      1.783469     1.775826     1.768183     1.760540     1.752896     1.745253     1.737610     1.729967     1.722324     1.714681
      1.707038     1.699395     1.691752     1.684108     1.676465     1.668822     1.661179     1.653536     1.645893     1.638250
      1.630607     1.622964     1.615321     1.607677     1.600034     1.592391     1.584748     1.577105     1.569462     1.561819
      1.554176     1.546533     1.538890     1.531246     1.523603     1.515960     1.508317     1.500674     1.493031     1.485388
      1.477745     1.470102     1.462458     1.454815     1.447172     1.439529     1.431886     1.424243     1.416600     1.408957
      1.401314     1.393671     1.386027     1.378384     1.370741     1.363098     1.355455     1.347812     1.340169     1.332526
      1.324883     1.317240     1.309596     1.301953     1.294310     1.286667     1.279024     1.271381     1.263738     1.256095
      1.248452     1.240808     1.233165     1.225522     1.217879     1.210236     1.202593     1.194950     1.187307     1.179664
      1.172021     1.164377     1.156734     1.149091     1.141448     1.133805     1.126162     1.118519     1.110876     1.103233
      1.095590     1.087946     1.080303     1.072660     1.065017     1.057374     1.049731     1.042088     1.034445     1.026802
      1.019158     1.011515     1.003872     0.996229     0.988586     0.980943     0.973300     0.965657     0.958014     0.950371
      0.942727     0.935084     0.927441     0.919798     0.912155     0.904512     0.896869     0.889226     0.881583     0.873940
      0.866296     0.858653     0.851010     0.843367     0.835724     0.828081     0.820438     0.812795     0.805152     0.797508
      0.789865     0.782222     0.774579     0.766936     0.759293     0.751650     0.744007     0.736364     0.728721     0.721077
      0.713434     0.705791     0.698148     0.690505     0.682862     0.675219     0.667576     0.659933     0.652290     0.644646
      0.637003     0.629360     0.621717     0.614074     0.606431     0.598788     0.591145     0.583502     0.575858     0.568215
      0.560572     0.552929     0.545286     0.537643     0.530000     0.522357     0.514714     0.507071     0.499427     0.491784
      0.484141     0.476498     0.468855     0.461212     0.453569     0.445925     0.438282     0.430639     0.422996     0.415353
      0.407710     0.400067     0.392424     0.384780     0.377137     0.369494     0.361851     0.354208     0.346565     0.338922
      0.331278     0.323635     0.315992     0.308349     0.300706     0.293063     0.285420     0.277777     0.270133     0.262490
      0.254847     0.247204     0.239561     0.231918     0.224275     0.216631     0.208988     0.201345
 NY phased data points follow
  -4.74477E+01 -4.53871E+01 -4.03078E+01 -4.34056E+01 -3.97075E+01 -3.56343E+01 -3.10202E+01 -2.72276E+01 -2.18639E+01 -2.17243E+01
  -1.76852E+01 -1.92472E+01 -1.31886E+01 -2.04376E+01 -2.69820E+01 -3.22389E+01 -3.06091E+01 -3.17597E+01 -3.50812E+01 -3.79432E+01
  -3.61021E+01 -3.80472E+01 -3.84723E+01 -3.74392E+01 -3.61593E+01 -3.29568E+01 -3.53643E+01 -3.52497E+01 -3.01370E+01 -3.04266E+01
  -2.84493E+01 -3.09761E+01 -2.85875E+01 -3.16544E+01 -3.02162E+01 -3.09924E+01 -3.19405E+01 -3.43611E+01 -2.93389E+01 -3.26116E+01
  -3.27966E+01 -3.25206E+01 -2.72205E+01 -3.00550E+01 -2.85555E+01 -2.76706E+01 -2.69580E+01 -2.58951E+01 -2.40146E+01 -2.91256E+01
  -2.68097E+01 -3.01535E+01 -2.48952E+01 -3.07793E+01 -2.72344E+01 -2.82978E+01 -2.64731E+01 -2.35400E+01 -2.56834E+01 -2.52251E+01
  -2.70637E+01 -2.99119E+01 -2.96520E+01 -3.03308E+01 -2.72090E+01 -3.45729E+01 -3.13981E+01 -3.16131E+01 -2.82566E+01 -2.94472E+01
  -2.70662E+01 -3.08108E+01 -2.41691E+01 -2.73434E+01 -2.01573E+01 -2.33085E+01 -2.30123E+01 -2.43949E+01 -2.17288E+01 -2.59472E+01
  -1.91371E+01 -2.11712E+01 -2.04489E+01 -2.20813E+01 -1.79122E+01 -2.51295E+01 -1.92776E+01 -2.23612E+01 -1.73105E+01 -1.89295E+01
  -1.77584E+01 -2.07923E+01 -2.01176E+01 -1.72513E+01 -1.54358E+01 -1.76859E+01 -1.23656E+01 -1.80179E+01 -1.27822E+01 -8.41970E+00
  -6.07836E-02  1.38102E+00  9.41713E+00  1.15067E+01  1.26190E+01  9.67984E+00  3.71498E+00 -2.91113E+00 -5.12158E+00 -9.24253E+00
  -9.02905E+00 -1.51024E+01 -1.33969E+01 -1.81926E+01 -1.39161E+01 -2.10051E+01 -1.84724E+01 -1.82785E+01 -1.65043E+01 -1.66300E+01
  -1.22142E+01 -1.38960E+01 -1.14092E+01 -9.39233E+00  5.16102E+00  6.91366E+00  1.54040E+01  1.78311E+01  1.75231E+01  1.34525E+01
   1.37921E+01  7.54481E+00  1.50800E+00 -6.79576E+00 -4.83810E+00 -1.31833E+01 -1.24145E+01 -1.66055E+01 -1.22757E+01 -1.50572E+01
  -1.24224E+01 -1.57608E+01 -1.47197E+01 -1.60530E+01 -9.51029E+00 -1.59992E+01 -1.69331E+01 -1.61924E+01 -1.32866E+01 -1.81428E+01
  -1.57597E+01 -1.27966E+01 -1.69406E+01 -1.85874E+01 -1.70418E+01 -1.85705E+01 -1.77543E+01 -1.76693E+01 -1.44619E+01 -1.69953E+01
  -1.83868E+01 -1.81106E+01 -1.53481E+01 -1.47856E+01 -1.20256E+01 -1.80552E+01 -1.53104E+01 -1.87783E+01 -1.64317E+01 -1.96213E+01
  -1.91863E+01 -1.58531E+01 -1.86956E+01 -2.00956E+01 -2.00047E+01 -2.27365E+01 -1.48188E+01 -1.94876E+01 -1.86631E+01 -1.73485E+01
  -1.80046E+01 -2.06518E+01 -1.43775E+01 -1.69006E+01 -1.67584E+01 -1.85777E+01 -1.09023E+01 -1.78228E+01 -1.37391E+01 -8.92850E+00
  -5.92895E+00 -5.43377E+00 -3.04411E+00 -5.56165E+00 -4.74986E+00 -4.92049E+00 -1.51964E+00 -3.25765E+00 -8.44687E+00 -9.06026E+00
  -7.39220E+00 -5.68967E+00 -8.68307E+00 -1.02991E+01 -3.61061E+00 -3.57479E+00 -3.79720E+00 -5.56643E+00 -6.33506E+00 -1.19832E+01
  -8.34756E+00 -1.00732E+01 -4.91419E+00 -4.66436E+00 -2.55372E+00  1.42674E-01  1.74373E+00 -5.82264E-01  6.45627E-01 -3.73161E+00
   3.39231E-01 -5.78954E+00 -5.94027E+00 -7.04624E+00 -2.13665E+00 -4.09662E+00  9.26722E-01 -1.36944E+00  3.10710E+00 -2.14687E+00
  -1.26744E+00  4.27344E+00  3.77023E+00 -1.58589E+00  3.13705E+00  1.54748E+00  3.68480E+00  4.72776E+00  4.35437E+00  1.75937E+00
   2.71233E+00 -1.78673E-01  2.72467E-02  1.88512E+00  2.16492E+00  2.14540E+00  8.06629E+00  5.19591E+00  4.34273E+00  2.79919E+00
   4.67140E+00  8.36634E+00  1.17905E+01  1.06428E+01  1.72431E+01  8.94474E+00  2.08274E+01  3.21231E+01  4.52241E+01  4.54082E+01
   5.70679E+01  5.49729E+01  5.49850E+01  4.57474E+01  4.14679E+01  3.33988E+01  2.63605E+01  1.94832E+01  1.85218E+01  1.55328E+01
   1.32657E+01  7.79100E+00  7.62155E+00  9.30961E+00  6.33666E+00  5.41132E+00  6.27416E+00  6.51505E+00  8.95321E+00  3.79569E+00
   1.06168E+01  8.84487E+00  6.12861E+00  2.66993E+00  5.65225E+00  2.97819E+00  3.64727E+00  3.31022E+00  7.59448E+00  4.97209E+00
   8.44434E+00  3.25170E+00  6.47767E+00  7.66397E-01  6.15833E+00  5.92808E+00  8.39541E+00  3.49136E+00  8.46386E+00  7.94988E+00
   9.25846E+00  6.82909E+00  9.16919E+00  7.81365E+00  1.00439E+01  1.15388E+01  1.31959E+01  8.23702E+00  1.09222E+01  9.02452E+00
   7.08323E+00  8.66914E+00  9.56208E+00  1.09692E+01  1.08039E+01  8.36428E+00  9.90395E+00  8.00333E+00  1.23954E+01  1.21215E+01
   1.02420E+01  1.16368E+01  1.11637E+01  9.01301E+00  1.36491E+01  9.40554E+00  1.44221E+01  9.47100E+00  1.43717E+01  1.13279E+01
   1.01666E+01  1.65639E+01  1.27476E+01  1.04989E+01  1.42417E+01  1.32386E+01  1.11332E+01  1.18282E+01  1.27908E+01  1.26083E+01
   1.41779E+01  1.08365E+01  1.33065E+01  1.06860E+01  1.82248E+01  1.48228E+01  1.81404E+01  1.40137E+01  1.54082E+01  1.20218E+01
   1.20560E+01  1.37904E+01  1.00231E+01  1.12934E+01  1.22518E+01  1.11362E+01  1.38467E+01  7.55609E+00  7.18992E+00  5.43018E+00
   7.40244E+00  4.57684E+00  2.36609E+00  2.20219E+00  3.70088E+00 -1.82136E+00  2.26931E+00 -1.13399E+00  1.01630E+00  1.44773E+00
   2.23818E+00 -7.54340E-01 -5.24118E-01 -2.37148E+00  5.47968E+00 -8.92365E-01  9.11448E-01 -5.35390E-01 -1.09337E+00 -3.04657E+00
  -4.52475E-01 -5.22327E+00 -5.30355E+00 -1.16521E+00 -1.70801E+00 -3.22640E+00 -7.35167E-01 -4.08571E+00 -6.37103E-01 -3.56188E+00
  -2.87847E+00 -4.46628E+00  9.32976E-01 -1.65852E+00 -1.46597E+00  4.05967E-01  1.99457E+00 -2.86696E+00 -3.98728E-01 -9.52545E-01
   2.57350E+00 -2.18045E+00  1.21205E+00  2.00151E+00 -2.28745E+00 -1.09337E+00  3.43086E+00  2.26080E-01  2.94725E-01  9.54396E-01
   3.41665E+00  4.43877E-02  2.91957E+00 -1.22948E+00  4.07488E+00  1.79270E-01  3.96033E+00  1.28280E+00  2.84640E+00 -1.24525E+00
   1.17180E+00 -4.71379E+00 -4.57608E+00 -2.29162E+00  1.71592E+00 -6.84082E+00 -7.84745E-01 -4.18310E+00 -1.85694E+00 -1.04019E-01
   5.82642E-01 -2.65222E+00 -1.37387E+00 -1.16689E+00  7.58372E-01 -1.55849E+00  1.16860E+00 -1.32958E+00 -2.08894E+00 -2.42562E+00
  -1.00114E+00 -4.29287E-01 -2.60073E+00  7.22637E-01  3.16786E-01  2.51805E-01 -6.89356E-01 -2.24407E+00 -4.83502E+00 -3.72648E+00
  -8.86901E-01  7.62953E-01  1.52825E+00 -3.71415E+00 -1.32384E+00 -2.58807E+00  2.12704E+00 -2.61783E+00  2.34760E+00 -2.63927E+00
   9.87743E-01  6.72057E-01  1.30795E+00 -6.65278E-01  7.09021E-01  2.11663E-02 -9.68658E-01  1.76708E+00 -1.01491E-01 -9.22394E-01
   1.77145E-01  1.08570E+00 -2.22071E+00 -1.52146E+00 -2.59653E+00 -1.46310E+00  2.37442E+00  7.66647E-01  1.99524E-01 -1.25098E+00
  -5.28473E-01 -7.28225E-01 -1.03948E+00  1.94098E+00 -1.48120E+00  2.62553E+00  9.49386E-01  1.45180E+00  4.92863E-01  7.10449E-01
  -6.87780E-01 -1.94682E+00  9.71360E-01 -3.07668E+00 -1.06033E-01 -3.02418E+00  2.04684E+00 -5.04546E-02
 NY points of the fit to the data follow
  -4.39449E+01 -4.27627E+01 -4.11867E+01 -4.07654E+01 -3.97634E+01 -3.62835E+01 -3.14314E+01 -2.68433E+01 -2.25357E+01 -1.90330E+01
  -1.77028E+01 -1.81229E+01 -1.96659E+01 -2.21664E+01 -2.54959E+01 -2.85856E+01 -3.05654E+01 -3.17891E+01 -3.38148E+01 -3.57514E+01
  -3.67345E+01 -3.71777E+01 -3.64806E+01 -3.61371E+01 -3.65101E+01 -3.61064E+01 -3.48371E+01 -3.36435E+01 -3.26519E+01 -3.10174E+01
  -2.94500E+01 -2.86542E+01 -2.82889E+01 -2.82116E+01 -2.89377E+01 -3.01497E+01 -3.11962E+01 -3.17335E+01 -3.21001E+01 -3.24185E+01
  -3.23187E+01 -3.23057E+01 -3.18582E+01 -3.06873E+01 -2.94453E+01 -2.83467E+01 -2.74335E+01 -2.67710E+01 -2.66271E+01 -2.70158E+01
  -2.75418E+01 -2.81161E+01 -2.87937E+01 -2.92560E+01 -2.93328E+01 -2.93325E+01 -2.93725E+01 -2.92162E+01 -2.87636E+01 -2.83187E+01
  -2.80865E+01 -2.80209E+01 -2.79810E+01 -2.79837E+01 -2.79397E+01 -2.78962E+01 -2.77460E+01 -2.73962E+01 -2.68624E+01 -2.65519E+01
  -2.64405E+01 -2.60385E+01 -2.53696E+01 -2.48169E+01 -2.43609E+01 -2.39944E+01 -2.39724E+01 -2.41262E+01 -2.41082E+01 -2.36354E+01
  -2.36803E+01 -2.41272E+01 -2.34467E+01 -2.18444E+01 -2.05853E+01 -2.00333E+01 -1.94318E+01 -1.91976E+01 -1.93653E+01 -1.97723E+01
  -2.02834E+01 -2.09351E+01 -2.16274E+01 -2.18968E+01 -2.06919E+01 -1.77392E+01 -1.68704E+01 -1.80903E+01 -1.53251E+01 -7.87985E+00
  -2.92070E-01  4.74649E+00  9.45830E+00  1.21258E+01  1.14694E+01  8.49843E+00  4.71030E+00 -3.17241E-01 -5.79892E+00 -9.54096E+00
  -1.10146E+01 -1.28461E+01 -1.68743E+01 -1.91394E+01 -1.96507E+01 -1.97505E+01 -1.96969E+01 -1.94999E+01 -1.86101E+01 -1.56305E+01
  -1.31457E+01 -1.41841E+01 -1.30400E+01 -5.98334E+00  2.78214E+00  8.88674E+00  1.41169E+01  1.78473E+01  1.79295E+01  1.53342E+01
   1.16320E+01  6.64874E+00  6.67376E-01 -4.20116E+00 -6.63200E+00 -8.50113E+00 -1.28810E+01 -1.62606E+01 -1.68983E+01 -1.67814E+01
  -1.64002E+01 -1.59647E+01 -1.57565E+01 -1.57106E+01 -1.56171E+01 -1.55590E+01 -1.55474E+01 -1.55240E+01 -1.55193E+01 -1.55195E+01
  -1.55929E+01 -1.56875E+01 -1.56924E+01 -1.57300E+01 -1.57586E+01 -1.55668E+01 -1.53260E+01 -1.52782E+01 -1.54483E+01 -1.56959E+01
  -1.57843E+01 -1.56253E+01 -1.53701E+01 -1.51806E+01 -1.50014E+01 -1.48573E+01 -1.48383E+01 -1.49531E+01 -1.52109E+01 -1.55172E+01
  -1.55195E+01 -1.54042E+01 -1.56102E+01 -1.59972E+01 -1.62965E+01 -1.61836E+01 -1.59385E+01 -1.58158E+01 -1.57032E+01 -1.54903E+01
  -1.52218E+01 -1.48035E+01 -1.44451E+01 -1.43794E+01 -1.43105E+01 -1.38165E+01 -1.29858E+01 -1.21550E+01 -1.11903E+01 -1.02115E+01
  -9.29089E+00 -8.50774E+00 -8.00235E+00 -7.89288E+00 -8.02692E+00 -8.17921E+00 -7.99218E+00 -7.67614E+00 -7.41738E+00 -6.99836E+00
  -6.32578E+00 -5.47095E+00 -4.80764E+00 -4.25447E+00 -3.70857E+00 -3.84876E+00 -4.72881E+00 -5.52190E+00 -5.93251E+00 -6.65264E+00
  -7.57749E+00 -7.41733E+00 -6.00144E+00 -4.44967E+00 -3.32862E+00 -2.31581E+00 -1.32969E+00 -1.10113E+00 -2.12445E+00 -3.61930E+00
  -5.02976E+00 -6.11369E+00 -6.46852E+00 -6.00904E+00 -4.92423E+00 -3.77828E+00 -2.50315E+00 -1.22471E+00 -3.60124E-01  2.06553E-01
   6.10370E-01  9.12726E-01  1.35022E+00  1.84989E+00  2.27800E+00  2.49199E+00  2.74134E+00  3.26669E+00  3.42742E+00  2.97552E+00
   2.60285E+00  2.66872E+00  2.57042E+00  2.49051E+00  2.87565E+00  3.69740E+00  4.25886E+00  4.61783E+00  5.07335E+00  5.55731E+00
   5.97498E+00  6.80770E+00  1.00902E+01  1.52022E+01  1.58168E+01  1.43948E+01  2.07510E+01  3.25354E+01  4.22282E+01  4.86594E+01
   5.50735E+01  5.70859E+01  5.40846E+01  4.84386E+01  4.17986E+01  3.33000E+01  2.52354E+01  2.05337E+01  1.86352E+01  1.45590E+01
   8.28317E+00  6.03080E+00  5.57233E+00  5.41294E+00  5.41235E+00  5.52625E+00  5.56782E+00  5.56251E+00  5.53037E+00  5.47250E+00
   5.39602E+00  5.35844E+00  5.34139E+00  5.31521E+00  5.29993E+00  5.31616E+00  5.35610E+00  5.40741E+00  5.46327E+00  5.53384E+00
   5.62557E+00  5.71780E+00  5.81784E+00  5.93312E+00  6.05964E+00  6.19561E+00  6.34574E+00  6.51036E+00  6.68524E+00  6.86662E+00
   7.05479E+00  7.24524E+00  7.43161E+00  7.61201E+00  7.78138E+00  7.93608E+00  8.07371E+00  8.19254E+00  8.29165E+00  8.37203E+00
   8.43650E+00  8.48901E+00  8.53375E+00  8.57673E+00  8.62565E+00  8.68819E+00  8.77324E+00  8.89159E+00  9.06121E+00  9.29637E+00
   9.48572E+00  9.61317E+00  9.92188E+00  1.03901E+01  1.07444E+01  1.08884E+01  1.09579E+01  1.10094E+01  1.09936E+01  1.07842E+01
   1.04864E+01  1.03601E+01  1.04483E+01  1.06351E+01  1.08797E+01  1.11299E+01  1.12349E+01  1.13526E+01  1.16001E+01  1.19883E+01
   1.20031E+01  1.15395E+01  1.19610E+01  1.34620E+01  1.45603E+01  1.46759E+01  1.46563E+01  1.48938E+01  1.45963E+01  1.31601E+01
   1.16378E+01  1.09988E+01  1.09876E+01  1.10691E+01  1.14767E+01  1.16772E+01  1.08966E+01  9.92030E+00  9.22681E+00  8.20314E+00
   6.80328E+00  5.43688E+00  4.61271E+00  4.19099E+00  3.32664E+00  2.42395E+00  1.89615E+00  1.55326E+00  1.30229E+00  1.10342E+00
   9.35886E-01  7.88152E-01  6.53767E-01  5.29267E-01  4.12985E-01  3.04305E-01  2.03184E-01  1.09857E-01  2.47236E-02 -5.16845E-02
  -1.18693E-01 -1.75545E-01 -2.21454E-01 -2.55657E-01 -2.77391E-01 -2.85866E-01 -2.80243E-01 -2.59692E-01 -2.23458E-01 -1.70935E-01
  -1.01677E-01 -1.54335E-02  8.78080E-02  2.07705E-01  3.43459E-01  4.93739E-01  6.56658E-01  8.29766E-01  1.01005E+00  1.19392E+00
   1.37723E+00  1.55542E+00  1.72364E+00  1.87699E+00  2.01064E+00  2.12010E+00  2.20131E+00  2.25097E+00  2.26660E+00  2.24671E+00
   2.19095E+00  2.10004E+00  1.97580E+00  1.82102E+00  1.63938E+00  1.43526E+00  1.21348E+00  9.79106E-01  7.37188E-01  4.92609E-01
   2.49924E-01  1.32055E-02 -2.14062E-01 -4.29068E-01 -6.29670E-01 -8.14364E-01 -9.82224E-01 -1.13286E+00 -1.26634E+00 -1.38313E+00
  -1.48398E+00 -1.56983E+00 -1.64172E+00 -1.70080E+00 -1.74823E+00 -1.78515E+00 -1.81267E+00 -1.83182E+00 -1.84352E+00 -1.84862E+00
  -1.84791E+00 -1.84208E+00 -1.83175E+00 -1.81747E+00 -1.79969E+00 -1.77883E+00 -1.75528E+00 -1.72937E+00 -1.70141E+00 -1.67164E+00
  -1.64028E+00 -1.60754E+00 -1.57363E+00 -1.53871E+00 -1.50288E+00 -1.46622E+00 -1.42880E+00 -1.39069E+00 -1.35198E+00 -1.31273E+00
  -1.27297E+00 -1.23275E+00 -1.19209E+00 -1.15104E+00 -1.10964E+00 -1.06793E+00 -1.02593E+00 -9.83645E-01 -9.41097E-01 -8.98323E-01
  -8.55352E-01 -8.12199E-01 -7.68861E-01 -7.25346E-01 -6.81669E-01 -6.37861E-01 -5.93940E-01 -5.49913E-01 -5.05767E-01 -4.61509E-01
  -4.17155E-01 -3.72734E-01 -3.28248E-01 -2.83693E-01 -2.39055E-01 -1.94340E-01 -1.49563E-01 -1.04743E-01 -5.98772E-02 -1.49465E-02
   3.00669E-02  7.51569E-02  1.20310E-01  1.65519E-01  2.10809E-01  2.56212E-01  3.01756E-01  3.47442E-01
 NY background values follow
    -4.713E+01   -4.687E+01   -4.662E+01   -4.636E+01   -4.610E+01   -4.585E+01   -4.559E+01   -4.533E+01   -4.507E+01   -4.482E+01
    -4.456E+01   -4.430E+01   -4.404E+01   -4.379E+01   -4.353E+01   -4.327E+01   -4.302E+01   -4.276E+01   -4.251E+01   -4.225E+01
    -4.200E+01   -4.174E+01   -4.149E+01   -4.123E+01   -4.098E+01   -4.073E+01   -4.047E+01   -4.022E+01   -3.997E+01   -3.972E+01
    -3.946E+01   -3.921E+01   -3.896E+01   -3.871E+01   -3.846E+01   -3.822E+01   -3.797E+01   -3.772E+01   -3.747E+01   -3.723E+01
    -3.698E+01   -3.674E+01   -3.650E+01   -3.625E+01   -3.601E+01   -3.577E+01   -3.553E+01   -3.529E+01   -3.505E+01   -3.481E+01
    -3.457E+01   -3.434E+01   -3.410E+01   -3.387E+01   -3.363E+01   -3.340E+01   -3.317E+01   -3.294E+01   -3.271E+01   -3.248E+01
    -3.225E+01   -3.203E+01   -3.180E+01   -3.158E+01   -3.136E+01   -3.114E+01   -3.092E+01   -3.070E+01   -3.048E+01   -3.026E+01
    -3.005E+01   -2.983E+01   -2.962E+01   -2.941E+01   -2.920E+01   -2.899E+01   -2.878E+01   -2.858E+01   -2.837E+01   -2.817E+01
    -2.797E+01   -2.777E+01   -2.757E+01   -2.737E+01   -2.718E+01   -2.698E+01   -2.679E+01   -2.660E+01   -2.641E+01   -2.623E+01
    -2.604E+01   -2.586E+01   -2.567E+01   -2.549E+01   -2.531E+01   -2.514E+01   -2.496E+01   -2.479E+01   -2.461E+01   -2.444E+01
    -2.427E+01   -2.410E+01   -2.394E+01   -2.377E+01   -2.361E+01   -2.344E+01   -2.328E+01   -2.312E+01   -2.296E+01   -2.280E+01
    -2.264E+01   -2.249E+01   -2.233E+01   -2.217E+01   -2.202E+01   -2.187E+01   -2.172E+01   -2.156E+01   -2.141E+01   -2.126E+01
    -2.111E+01   -2.097E+01   -2.082E+01   -2.067E+01   -2.052E+01   -2.038E+01   -2.023E+01   -2.009E+01   -1.994E+01   -1.980E+01
    -1.965E+01   -1.951E+01   -1.937E+01   -1.923E+01   -1.908E+01   -1.894E+01   -1.880E+01   -1.866E+01   -1.851E+01   -1.837E+01
    -1.823E+01   -1.809E+01   -1.794E+01   -1.780E+01   -1.766E+01   -1.752E+01   -1.737E+01   -1.723E+01   -1.709E+01   -1.694E+01
    -1.680E+01   -1.666E+01   -1.651E+01   -1.637E+01   -1.622E+01   -1.607E+01   -1.593E+01   -1.578E+01   -1.563E+01   -1.548E+01
    -1.533E+01   -1.518E+01   -1.503E+01   -1.488E+01   -1.473E+01   -1.457E+01   -1.442E+01   -1.426E+01   -1.411E+01   -1.395E+01
    -1.379E+01   -1.363E+01   -1.347E+01   -1.331E+01   -1.314E+01   -1.298E+01   -1.281E+01   -1.265E+01   -1.248E+01   -1.231E+01
    -1.213E+01   -1.196E+01   -1.179E+01   -1.161E+01   -1.143E+01   -1.125E+01   -1.107E+01   -1.089E+01   -1.071E+01   -1.053E+01
    -1.034E+01   -1.016E+01   -9.969E+00   -9.782E+00   -9.594E+00   -9.405E+00   -9.215E+00   -9.025E+00   -8.834E+00   -8.643E+00
    -8.452E+00   -8.260E+00   -8.067E+00   -7.875E+00   -7.682E+00   -7.489E+00   -7.296E+00   -7.103E+00   -6.910E+00   -6.717E+00
    -6.525E+00   -6.332E+00   -6.140E+00   -5.949E+00   -5.757E+00   -5.566E+00   -5.376E+00   -5.187E+00   -4.997E+00   -4.809E+00
    -4.622E+00   -4.435E+00   -4.249E+00   -4.064E+00   -3.880E+00   -3.698E+00   -3.516E+00   -3.336E+00   -3.157E+00   -2.979E+00
    -2.802E+00   -2.627E+00   -2.453E+00   -2.280E+00   -2.109E+00   -1.939E+00   -1.771E+00   -1.604E+00   -1.439E+00   -1.275E+00
    -1.113E+00   -9.525E-01   -7.937E-01   -6.366E-01   -4.811E-01   -3.274E-01   -1.755E-01   -2.531E-02    1.230E-01    2.695E-01
     4.140E-01    5.567E-01    6.973E-01    8.361E-01    9.728E-01    1.107E+00    1.240E+00    1.371E+00    1.499E+00    1.625E+00
     1.749E+00    1.871E+00    1.990E+00    2.108E+00    2.223E+00    2.335E+00    2.445E+00    2.553E+00    2.659E+00    2.762E+00
     2.862E+00    2.960E+00    3.055E+00    3.148E+00    3.238E+00    3.326E+00    3.411E+00    3.493E+00    3.573E+00    3.650E+00
     3.724E+00    3.796E+00    3.865E+00    3.931E+00    3.994E+00    4.054E+00    4.112E+00    4.167E+00    4.219E+00    4.268E+00
     4.314E+00    4.357E+00    4.398E+00    4.435E+00    4.469E+00    4.501E+00    4.529E+00    4.554E+00    4.577E+00    4.596E+00
     4.612E+00    4.625E+00    4.635E+00    4.642E+00    4.645E+00    4.646E+00    4.643E+00    4.637E+00    4.627E+00    4.615E+00
     4.599E+00    4.580E+00    4.558E+00    4.532E+00    4.503E+00    4.470E+00    4.434E+00    4.395E+00    4.352E+00    4.306E+00
     4.257E+00    4.205E+00    4.150E+00    4.092E+00    4.031E+00    3.967E+00    3.901E+00    3.833E+00    3.761E+00    3.688E+00
     3.612E+00    3.534E+00    3.454E+00    3.372E+00    3.289E+00    3.203E+00    3.116E+00    3.027E+00    2.936E+00    2.844E+00
     2.751E+00    2.657E+00    2.561E+00    2.465E+00    2.367E+00    2.268E+00    2.169E+00    2.069E+00    1.968E+00    1.867E+00
     1.766E+00    1.664E+00    1.562E+00    1.460E+00    1.357E+00    1.255E+00    1.153E+00    1.051E+00    9.496E-01    8.484E-01
     7.477E-01    6.476E-01    5.482E-01    4.495E-01    3.516E-01    2.545E-01    1.583E-01    6.310E-02   -3.116E-02   -1.244E-01
    -2.166E-01   -3.077E-01   -3.976E-01   -4.863E-01   -5.737E-01   -6.599E-01   -7.447E-01   -8.281E-01   -9.101E-01   -9.906E-01
    -1.070E+00   -1.147E+00   -1.223E+00   -1.297E+00   -1.369E+00   -1.440E+00   -1.509E+00   -1.576E+00   -1.641E+00   -1.704E+00
    -1.765E+00   -1.824E+00   -1.881E+00   -1.936E+00   -1.989E+00   -2.039E+00   -2.088E+00   -2.134E+00   -2.177E+00   -2.218E+00
    -2.257E+00   -2.293E+00   -2.327E+00   -2.358E+00   -2.387E+00   -2.412E+00   -2.435E+00   -2.456E+00   -2.473E+00   -2.488E+00
    -2.500E+00   -2.510E+00   -2.517E+00   -2.522E+00   -2.524E+00   -2.523E+00   -2.521E+00   -2.516E+00   -2.509E+00   -2.500E+00
    -2.489E+00   -2.476E+00   -2.461E+00   -2.445E+00   -2.426E+00   -2.406E+00   -2.383E+00   -2.360E+00   -2.335E+00   -2.308E+00
    -2.280E+00   -2.250E+00   -2.219E+00   -2.187E+00   -2.154E+00   -2.119E+00   -2.083E+00   -2.047E+00   -2.009E+00   -1.971E+00
    -1.931E+00   -1.891E+00   -1.851E+00   -1.809E+00   -1.767E+00   -1.724E+00   -1.681E+00   -1.638E+00   -1.594E+00   -1.550E+00
    -1.506E+00   -1.461E+00   -1.416E+00   -1.372E+00   -1.327E+00   -1.282E+00   -1.237E+00   -1.192E+00   -1.147E+00   -1.102E+00
    -1.057E+00   -1.012E+00   -9.666E-01   -9.215E-01   -8.763E-01   -8.311E-01   -7.859E-01   -7.407E-01   -6.955E-01   -6.502E-01
    -6.050E-01   -5.598E-01   -5.147E-01   -4.695E-01   -4.244E-01   -3.792E-01   -3.342E-01   -2.891E-01   -2.441E-01   -1.992E-01
    -1.543E-01   -1.094E-01   -6.459E-02   -1.985E-02    2.482E-02    6.943E-02    1.140E-01    1.584E-01    2.028E-01    2.471E-01
     2.913E-01    3.354E-01    3.794E-01    4.233E-01    4.671E-01    5.107E-01    5.543E-01    5.978E-01
 Ala      Conc. = 1.06E+02
