 LCModel (Version 6.3-1L) Copyright: S.W. Provencher.          Ref.: Magn. Reson. Med. 30:672-679 (1993).                
 Slice#1 Row#11 Col#8  PD_24_press_1_raw_act
 36 lines in following concentration table = NCONC+1
    Conc.  %SD /Cr+PCr  Metabolite                                         
  180.339  52%   0.231 Ala                                                 
  164.683  94%   0.211 Asp                                                 
  266.170  64%   0.342 Cr                                                  
  513.220  34%   0.658 PCr                                                 
    2.778 999% 3.6E-03 GABA                                                
   29.325 334% 3.8E-02 Glc                                                 
  391.482  49%   0.502 Gln                                                 
 1.38E+03  17%   1.768 Glu                                                 
  331.179   6%   0.425 GPC                                                 
    0.000 999%   0.000 PCh                                                 
  249.778  25%   0.320 GSH                                                 
 1.26E+03  16%   1.617 Ins                                                 
   75.004 136% 9.6E-02 Lac                                                 
 1.44E+03   7%   1.847 NAA                                                 
  180.138  60%   0.231 NAAG                                                
   61.353  35% 7.9E-02 Scyllo                                              
   33.373 422% 4.3E-02 Tau                                                 
    0.000 999%   0.000 -CrCH2                                              
  331.179   6%   0.425 GPC+PCh                                             
 1.62E+03   5%   2.078 NAA+NAAG                                            
  779.391   6%   1.000 Cr+PCr                                              
 1.77E+03  18%   2.270 Glu+Gln                                             
 2.75E+03  22%   3.527 Lip13a                                              
    0.000 999%   0.000 Lip13b                                              
  477.985  66%   0.613 Lip09                                               
 1.08E+03  29%   1.386 MM09                                                
  187.804 120%   0.241 Lip20                                               
 1.95E+03  19%   2.498 MM20                                                
  408.283  48%   0.524 MM12                                                
 1.38E+03  28%   1.776 MM14                                                
  497.896  40%   0.639 MM17                                                
 2.75E+03  22%   3.527 Lip13a+Lip13b                                       
 4.54E+03   8%   5.827 MM14+Lip13a+Lip13b+MM12                             
 1.56E+03  11%   2.000 MM09+Lip09                                          
 2.13E+03  15%   2.739 MM20+Lip20                                          
   6 lines in following misc. output table
  FWHM = 0.046 ppm    S/N =   9                                            
  Data shift =-0.015 ppm                                                   
  Ph: -12 deg      10.5 deg/ppm                                            
  alphaB,S = 8.5E+01,   5.1E+01                                            
   14 spline knots.   Ns = 6(1)                                            
   2 inflections.     1 extrema                                            
  498 points on ppm-axis = NY
      4.000000     3.992357     3.984714     3.977070     3.969427     3.961784     3.954141     3.946497     3.938854     3.931211
      3.923568     3.915925     3.908281     3.900638     3.892995     3.885352     3.877708     3.870065     3.862422     3.854779
      3.847136     3.839492     3.831849     3.824206     3.816563     3.808919     3.801276     3.793633     3.785990     3.778347
      3.770703     3.763060     3.755417     3.747774     3.740130     3.732487     3.724844     3.717201     3.709558     3.701914
      3.694271     3.686628     3.678985     3.671341     3.663698     3.656055     3.648412     3.640769     3.633125     3.625482
      3.617839     3.610196     3.602552     3.594909     3.587266     3.579623     3.571980     3.564336     3.556693     3.549050
      3.541407     3.533763     3.526120     3.518477     3.510834     3.503191     3.495547     3.487904     3.480261     3.472618
      3.464974     3.457331     3.449688     3.442045     3.434402     3.426758     3.419115     3.411472     3.403829     3.396185
      3.388542     3.380899     3.373256     3.365613     3.357969     3.350326     3.342683     3.335040     3.327396     3.319753
      3.312110     3.304467     3.296824     3.289180     3.281537     3.273894     3.266251     3.258607     3.250964     3.243321
      3.235678     3.228034     3.220391     3.212748     3.205105     3.197462     3.189818     3.182175     3.174532     3.166889
      3.159245     3.151602     3.143959     3.136316     3.128673     3.121029     3.113386     3.105743     3.098100     3.090456
      3.082813     3.075170     3.067527     3.059884     3.052240     3.044597     3.036954     3.029311     3.021667     3.014024
      3.006381     2.998738     2.991095     2.983451     2.975808     2.968165     2.960522     2.952878     2.945235     2.937592
      2.929949     2.922306     2.914662     2.907019     2.899376     2.891733     2.884089     2.876446     2.868803     2.861160
      2.853517     2.845873     2.838230     2.830587     2.822944     2.815300     2.807657     2.800014     2.792371     2.784728
      2.777084     2.769441     2.761798     2.754155     2.746511     2.738868     2.731225     2.723582     2.715939     2.708295
      2.700652     2.693009     2.685366     2.677722     2.670079     2.662436     2.654793     2.647150     2.639506     2.631863
      2.624220     2.616577     2.608933     2.601290     2.593647     2.586004     2.578361     2.570717     2.563074     2.555431
      2.547788     2.540144     2.532501     2.524858     2.517215     2.509572     2.501928     2.494285     2.486642     2.478999
      2.471355     2.463712     2.456069     2.448426     2.440783     2.433139     2.425496     2.417853     2.410210     2.402566
      2.394923     2.387280     2.379637     2.371994     2.364350     2.356707     2.349064     2.341421     2.333777     2.326134
      2.318491     2.310848     2.303205     2.295561     2.287918     2.280275     2.272632     2.264988     2.257345     2.249702
      2.242059     2.234416     2.226772     2.219129     2.211486     2.203843     2.196199     2.188556     2.180913     2.173270
      2.165627     2.157983     2.150340     2.142697     2.135054     2.127410     2.119767     2.112124     2.104481     2.096838
      2.089194     2.081551     2.073908     2.066265     2.058621     2.050978     2.043335     2.035692     2.028049     2.020405
      2.012762     2.005119     1.997476     1.989833     1.982190     1.974546     1.966903     1.959260     1.951617     1.943974
      1.936331     1.928688     1.921045     1.913402     1.905759     1.898115     1.890472     1.882829     1.875186     1.867543
      1.859900     1.852257     1.844614     1.836971     1.829327     1.821684     1.814041     1.806398     1.798755     1.791112
      1.783469     1.775826     1.768183     1.760540     1.752896     1.745253     1.737610     1.729967     1.722324     1.714681
      1.707038     1.699395     1.691752     1.684108     1.676465     1.668822     1.661179     1.653536     1.645893     1.638250
      1.630607     1.622964     1.615321     1.607677     1.600034     1.592391     1.584748     1.577105     1.569462     1.561819
      1.554176     1.546533     1.538890     1.531246     1.523603     1.515960     1.508317     1.500674     1.493031     1.485388
      1.477745     1.470102     1.462458     1.454815     1.447172     1.439529     1.431886     1.424243     1.416600     1.408957
      1.401314     1.393671     1.386027     1.378384     1.370741     1.363098     1.355455     1.347812     1.340169     1.332526
      1.324883     1.317240     1.309596     1.301953     1.294310     1.286667     1.279024     1.271381     1.263738     1.256095
      1.248452     1.240808     1.233165     1.225522     1.217879     1.210236     1.202593     1.194950     1.187307     1.179664
      1.172021     1.164377     1.156734     1.149091     1.141448     1.133805     1.126162     1.118519     1.110876     1.103233
      1.095590     1.087946     1.080303     1.072660     1.065017     1.057374     1.049731     1.042088     1.034445     1.026802
      1.019158     1.011515     1.003872     0.996229     0.988586     0.980943     0.973300     0.965657     0.958014     0.950371
      0.942727     0.935084     0.927441     0.919798     0.912155     0.904512     0.896869     0.889226     0.881583     0.873940
      0.866296     0.858653     0.851010     0.843367     0.835724     0.828081     0.820438     0.812795     0.805152     0.797508
      0.789865     0.782222     0.774579     0.766936     0.759293     0.751650     0.744007     0.736364     0.728721     0.721077
      0.713434     0.705791     0.698148     0.690505     0.682862     0.675219     0.667576     0.659933     0.652290     0.644646
      0.637003     0.629360     0.621717     0.614074     0.606431     0.598788     0.591145     0.583502     0.575858     0.568215
      0.560572     0.552929     0.545286     0.537643     0.530000     0.522357     0.514714     0.507071     0.499427     0.491784
      0.484141     0.476498     0.468855     0.461212     0.453569     0.445925     0.438282     0.430639     0.422996     0.415353
      0.407710     0.400067     0.392424     0.384780     0.377137     0.369494     0.361851     0.354208     0.346565     0.338922
      0.331278     0.323635     0.315992     0.308349     0.300706     0.293063     0.285420     0.277777     0.270133     0.262490
      0.254847     0.247204     0.239561     0.231918     0.224275     0.216631     0.208988     0.201345
 NY phased data points follow
  -1.78493E+00  1.66075E+00  2.35249E+00 -1.71886E+00  2.89215E-01  1.03826E+01  8.79978E+00  1.70966E+01  1.17305E+01  1.95201E+01
   1.70999E+01  2.47277E+01  8.52635E+00  1.52571E+01  8.56665E+00  1.14565E+01 -1.23584E+00  7.28713E+00 -1.16723E+00  5.83258E+00
   6.05190E-01  7.91435E+00  8.91024E-02  7.88569E+00  2.76023E+00  2.93268E-01 -4.46530E+00  4.52040E+00  1.04236E+00  8.01350E+00
   2.91812E+00  1.34434E+01  5.72500E+00  8.88293E+00  7.76503E+00  4.95881E+00 -5.23509E+00  4.73815E+00 -9.23849E-01  2.06935E+00
   8.94086E-01  8.83293E+00  6.97574E-01  5.21802E+00  7.72388E+00  9.98018E+00  6.65410E+00  1.02630E+01  1.15283E+01  1.15787E+01
   2.61461E+00  7.55339E+00 -2.45556E+00  4.25090E+00 -3.24339E+00  5.72418E+00  6.89169E+00  9.81974E+00  4.62233E+00  3.40573E+00
   7.44247E-01  2.57359E+00 -8.06876E-01  3.56663E+00 -2.39124E+00  2.38791E+00 -7.21805E+00  1.42182E-02 -6.90902E-01  4.67131E-02
  -2.08496E-02  2.06848E+00 -8.13187E+00 -2.16915E+00 -1.29971E+00  1.45805E+00 -2.97737E+00  3.95734E+00 -3.02031E+00 -2.06337E+00
  -2.41274E+00  1.97361E+00 -3.53088E+00  1.80856E+00 -2.03256E+00 -1.23961E-02 -1.49111E+00  7.39168E-01  3.57886E-01  3.21167E+00
   1.65540E+00  6.99718E-01  1.55535E+00  5.07413E-01  9.60304E-01  4.25382E+00  2.96840E+00  5.72149E+00  4.97722E+00  9.69865E+00
   1.67088E+01  2.26998E+01  2.89452E+01  3.27849E+01  3.08480E+01  2.43823E+01  8.75432E+00  9.06172E+00  4.62456E+00  7.76111E+00
  -6.26225E+00  7.50011E-01 -3.77062E+00 -7.29600E-01 -1.25288E+00  1.55262E+00  6.51810E+00  1.39196E-01 -3.23410E+00 -1.76596E-01
   7.48607E-01  5.72696E-02  1.09088E+00  8.30379E+00  1.25487E+01  1.48970E+01  2.31626E+01  2.66037E+01  2.62318E+01  2.39253E+01
   1.62471E+01  1.37037E+01  4.75514E+00  6.34763E+00  2.17201E+00  3.03553E+00 -1.08558E+00  9.45159E+00  1.01000E+00 -1.38419E+00
   2.99959E+00  3.31209E+00 -1.75760E+00  1.65962E+00 -9.12900E+00  1.74567E+00 -8.18023E+00 -1.25266E+00 -6.22267E+00 -1.23094E+00
  -3.79954E+00 -3.46504E+00 -8.78536E+00  5.85695E-02 -7.90980E+00  2.77328E-01 -6.48925E-01 -3.96957E+00  1.52869E+00 -2.32838E+00
  -9.87952E+00 -2.51609E+00 -8.14591E+00 -3.03256E+00 -6.41815E+00 -5.66301E+00 -3.09972E+00  4.95155E+00 -6.27534E+00 -8.24627E+00
  -8.72875E+00 -8.80509E+00 -1.05453E+01 -1.16174E+01 -1.19201E+01 -1.04570E+01 -1.05115E+01 -1.14539E+01 -9.29087E+00 -1.11990E+01
  -9.83103E+00 -1.01967E+01 -8.75239E+00 -6.61706E+00 -9.73101E+00 -2.84953E+00 -8.59536E+00 -8.49113E-01 -2.18708E+00 -6.06873E+00
  -6.06600E+00 -3.91616E+00 -7.35824E+00 -5.81176E+00 -1.09381E+01 -4.32999E+00 -8.80866E+00 -9.80365E+00 -2.90044E+00 -1.14284E+00
  -6.08712E+00 -3.53767E+00  6.19119E-01 -2.75850E+00 -2.87361E+00  7.31016E-01 -3.03202E-01  6.91902E-01 -7.68506E-01 -4.14528E+00
   1.22997E+00  5.48045E-01 -1.08264E+00  2.31172E+00  2.27600E+00  8.81138E+00  6.23666E+00  8.51453E+00  3.09428E+00 -1.74135E+00
  -8.00468E+00 -7.65778E+00 -5.65289E+00 -7.10270E+00 -2.06407E+00 -4.46656E-01 -4.91503E-02  3.77431E+00  4.58175E+00  6.95379E+00
   2.56286E+00  2.91069E+00  1.05057E+00  1.01854E+01  2.84951E-01  5.11605E+00 -4.34883E-01  9.46899E-01  4.62095E+00  3.59651E+00
   1.26999E+00  4.14410E+00 -4.95427E-02  9.76620E-01  3.61973E-01  5.19823E+00  6.77094E+00  8.32723E+00  4.91992E-01  9.18369E+00
   7.31579E+00  5.75894E+00  3.65409E+00  1.62445E+01  1.37296E+01  2.24840E+01  2.51038E+01  3.67655E+01  4.22481E+01  5.71007E+01
   5.91111E+01  5.91581E+01  5.02482E+01  3.79782E+01  2.54651E+01  1.60978E+01  1.06736E+01  1.08497E+01  3.26531E+00  4.11777E+00
   1.90235E+00  4.41560E+00 -7.22244E-01 -7.07032E-01 -5.31087E-01 -7.46372E-02 -1.93068E+00  3.02934E+00 -2.30982E+00 -4.03692E-01
   1.68486E-01 -3.00331E+00  2.93629E-01  7.34862E-03  1.43829E+00 -3.21437E+00  2.93730E+00 -1.77017E+00 -1.69765E+00  7.71027E-01
   1.95022E+00  7.96024E-01  1.86595E+00  3.86907E+00 -3.75293E+00  1.19406E+00  6.05334E-01 -3.07815E+00 -6.45679E-01 -1.14211E+00
  -2.24803E+00 -9.36690E-01 -1.83216E+00  4.11140E+00  2.23571E+00 -5.78428E-01  3.22801E+00 -1.94561E+00  2.21183E+00  4.43812E+00
   9.28519E-01  5.65715E+00 -2.26039E+00  3.17469E+00  4.88627E+00  2.17869E+00  7.09938E+00  6.22716E+00  2.99843E+00  4.96757E+00
   2.88814E+00  4.28477E+00  2.45604E+00  3.47172E+00  3.10999E+00  3.47332E+00  2.76245E+00  9.50182E+00  6.83560E+00  1.97572E+00
   7.25053E+00  6.07203E+00 -2.74145E+00  2.07606E+00  6.88329E+00  1.16664E+01  8.72288E+00  8.73726E+00  9.66260E+00  9.91191E+00
   7.08286E+00  1.40805E+01  1.41832E+01  8.28140E+00  9.80338E+00  1.19891E+01  1.70485E+01  9.74471E+00  1.10839E+01  1.17202E+01
   1.22481E+01  1.60184E+01  8.26759E+00  1.07426E+01  9.19218E+00  9.06186E+00  1.11574E+01  1.28241E+01  9.62364E+00  1.23508E+01
   1.22988E+01  9.10892E+00  1.23659E+01  1.51633E+01  1.12944E+01  1.59318E+01  1.02806E+01  8.64390E+00  9.57150E+00  8.88606E+00
   7.02147E+00  9.68210E+00  8.89967E+00  7.23728E+00  3.66295E+00  2.58434E+00  4.57022E+00  8.09930E+00  2.38794E-01  8.91697E+00
   2.79985E+00  7.11930E+00  4.01539E-01  4.34484E+00  3.57915E+00  4.21688E+00  2.27791E+00  4.58036E+00  2.71333E+00  4.72946E+00
   4.49863E+00 -1.31356E+00  2.87821E+00  9.81478E+00  3.95197E+00  8.33824E+00  6.51695E+00  6.48050E+00  8.31445E+00  7.26165E+00
   3.22443E+00  7.33299E+00  7.59883E+00  1.23165E+01  1.07641E+01  6.53646E+00  6.43220E+00  9.16652E+00  9.16522E+00  1.23163E+01
   7.56846E+00  9.35205E+00  2.65410E+00  7.92688E+00  6.46964E+00  6.87175E+00  9.16689E+00  2.66318E+00  3.95650E+00  4.33376E+00
   2.08009E+00  2.82502E+00  3.39073E+00 -3.72525E-01 -2.94601E+00  3.20054E+00  4.97940E+00  3.14789E+00  7.26725E-01  1.59261E+00
  -1.76753E+00 -1.74477E+00  1.74824E+00 -2.50807E-01  8.90876E-01  1.71880E+00  1.88466E+00 -4.01449E+00  2.74439E-01  4.80420E-01
  -2.98982E+00 -4.25554E+00 -6.00775E+00 -1.87794E+00 -4.85192E+00 -5.12746E+00 -7.45993E+00 -1.18956E+00 -9.74189E-01 -1.96589E+00
  -1.32507E+00 -2.91900E+00 -1.27278E+00 -4.54031E+00 -5.09066E+00 -3.76188E+00 -1.33361E+00 -1.33375E+00 -7.50095E+00  6.27418E-01
  -8.64551E-01 -1.49099E+00  3.48495E+00 -1.20069E+00  3.91015E+00 -1.62904E+00 -3.78447E+00 -2.57594E+00  5.95416E-01  2.29253E+00
  -2.02399E+00 -2.99306E+00 -2.91638E+00  8.24898E-01 -4.66496E+00  2.39203E+00 -2.30800E+00 -3.25789E-01 -1.66984E+00 -7.20585E-01
  -3.45151E+00 -6.91267E+00 -5.41745E+00 -2.82308E+00 -2.58090E+00 -2.39755E+00 -8.89462E+00 -4.34238E+00 -5.27126E+00 -2.43560E+00
  -2.50271E+00  1.98308E+00 -3.63799E+00  1.47669E+00 -4.90688E+00  3.85246E-01  2.77702E-01  1.35839E+00
 NY points of the fit to the data follow
   1.21409E+00  1.13992E+00  1.36118E+00  2.16919E+00  3.74862E+00  5.84747E+00  8.62066E+00  1.18373E+01  1.50873E+01  1.76781E+01
   1.88066E+01  1.79701E+01  1.53237E+01  1.18412E+01  8.53095E+00  5.90929E+00  3.92695E+00  2.54854E+00  1.75131E+00  1.32357E+00
   1.33853E+00  1.49762E+00  1.54596E+00  1.53856E+00  1.59484E+00  1.54425E+00  1.63522E+00  2.23593E+00  3.52632E+00  5.33526E+00
   7.22366E+00  8.58310E+00  8.80529E+00  7.94088E+00  6.44742E+00  4.55201E+00  2.49722E+00  8.44579E-01  3.28715E-02 -1.31223E-01
   3.32762E-01  1.45590E+00  2.99810E+00  4.69967E+00  6.55960E+00  8.47371E+00  9.90901E+00  1.02346E+01  9.16168E+00  6.81403E+00
   3.98987E+00  1.65230E+00  2.07848E-01 -4.85051E-01 -6.60012E-01 -2.94279E-01  4.93162E-01  1.39987E+00  2.21045E+00  2.72870E+00
   2.77929E+00  2.27667E+00  1.33373E+00  3.16676E-01 -4.30513E-01 -7.22738E-01 -5.88745E-01 -1.59389E-01  3.96969E-01  9.61280E-01
   1.43723E+00  1.72037E+00  1.77672E+00  1.60300E+00  1.25496E+00  8.73303E-01  5.51222E-01  3.13999E-01  9.70378E-02 -6.28868E-02
  -7.18007E-02  6.68977E-02  1.78754E-01  2.84627E-01  3.98670E-01  4.03601E-01  1.70091E-01 -3.22846E-01 -9.43173E-01 -1.46369E+00
  -1.59881E+00 -1.34453E+00 -9.20892E-01 -5.66546E-01 -3.25926E-01 -4.32861E-02  7.35757E-01  3.13900E+00  6.55617E+00  1.10969E+01
   1.72464E+01  2.41968E+01  2.98850E+01  3.20124E+01  2.95213E+01  2.30401E+01  1.52268E+01  8.87999E+00  4.78229E+00  1.84794E+00
  -5.78929E-01 -1.57447E+00 -1.72332E+00 -1.70852E+00 -1.65897E+00 -1.59877E+00 -1.52568E+00 -1.43198E+00 -1.29137E+00 -1.04412E+00
  -4.93460E-01  1.15486E+00  4.12226E+00  7.75847E+00  1.24109E+01  1.80108E+01  2.34228E+01  2.68744E+01  2.69247E+01  2.33017E+01
   1.73543E+01  1.14942E+01  7.19766E+00  4.16386E+00  1.40781E+00 -7.44786E-01 -1.71069E+00 -2.05963E+00 -1.96643E+00 -1.60174E+00
  -1.18367E+00 -8.62174E-01 -7.02010E-01 -7.23342E-01 -8.67900E-01 -1.06011E+00 -1.28595E+00 -1.53529E+00 -1.80744E+00 -2.06721E+00
  -2.27202E+00 -2.44348E+00 -2.58723E+00 -2.69464E+00 -2.77523E+00 -2.88059E+00 -3.00166E+00 -3.16318E+00 -3.41791E+00 -3.72851E+00
  -4.04405E+00 -4.20380E+00 -4.10418E+00 -3.80972E+00 -3.52158E+00 -3.44202E+00 -3.61412E+00 -3.92377E+00 -4.22128E+00 -4.47995E+00
  -4.73442E+00 -4.99345E+00 -5.22789E+00 -5.44928E+00 -5.69995E+00 -5.93238E+00 -5.99227E+00 -5.84510E+00 -5.60851E+00 -5.45759E+00
  -5.48943E+00 -5.62450E+00 -5.60920E+00 -5.34888E+00 -5.01051E+00 -4.66723E+00 -4.19173E+00 -3.48131E+00 -2.53660E+00 -1.55945E+00
  -8.43309E-01 -5.93787E-01 -8.30371E-01 -1.31352E+00 -1.84868E+00 -2.34445E+00 -2.65304E+00 -2.65008E+00 -2.27526E+00 -1.53963E+00
  -5.02896E-01  5.75211E-01  1.45851E+00  1.89717E+00  1.63000E+00  7.16939E-01 -8.03806E-01 -2.73382E+00 -4.54773E+00 -5.66190E+00
  -5.57337E+00 -4.39992E+00 -2.24571E+00  5.39802E-01  3.21435E+00  4.87313E+00  4.83558E+00  3.01358E+00 -1.76240E-01 -3.76621E+00
  -6.81893E+00 -8.70467E+00 -9.07829E+00 -7.82912E+00 -5.08345E+00 -1.88394E+00  7.27000E-01  2.32117E+00  3.04926E+00  3.21247E+00
   2.90043E+00  2.39109E+00  2.10438E+00  2.20679E+00  2.57313E+00  3.06955E+00  3.47149E+00  3.58454E+00  3.48684E+00  3.14638E+00
   2.57918E+00  2.04699E+00  1.90427E+00  2.24841E+00  2.91322E+00  3.76818E+00  4.58739E+00  5.11976E+00  5.30207E+00  5.45919E+00
   6.01078E+00  6.88898E+00  8.19173E+00  1.03969E+01  1.48711E+01  2.11654E+01  2.78931E+01  3.58440E+01  4.50814E+01  5.38164E+01
   5.90619E+01  5.82493E+01  5.06113E+01  3.86232E+01  2.71242E+01  1.88855E+01  1.31150E+01  8.10801E+00  4.70823E+00  3.37993E+00
   2.68106E+00  2.24066E+00  2.02841E+00  1.93928E+00  1.85424E+00  1.71635E+00  1.48876E+00  1.19228E+00  8.82618E-01  5.96592E-01
   3.42002E-01  1.32435E-01 -1.65758E-02 -1.12544E-01 -1.82771E-01 -2.53919E-01 -3.25807E-01 -3.84759E-01 -4.25377E-01 -4.45518E-01
  -4.36487E-01 -3.93393E-01 -3.19557E-01 -2.26939E-01 -1.22861E-01 -1.18719E-02  1.04075E-01  2.27908E-01  3.61717E-01  5.05154E-01
   6.60542E-01  8.26640E-01  9.97241E-01  1.16445E+00  1.32245E+00  1.46863E+00  1.60184E+00  1.72027E+00  1.82505E+00  1.91824E+00
   2.00165E+00  2.07840E+00  2.15200E+00  2.22657E+00  2.30733E+00  2.40028E+00  2.51210E+00  2.65033E+00  2.82450E+00  3.04937E+00
   3.35588E+00  3.79669E+00  4.29332E+00  4.76996E+00  5.24165E+00  5.61357E+00  5.71943E+00  5.43464E+00  4.77933E+00  4.02140E+00
   3.52658E+00  3.46395E+00  3.87688E+00  4.69630E+00  5.83273E+00  7.20868E+00  8.55393E+00  9.53784E+00  1.00618E+01  1.02724E+01
   1.04138E+01  1.06210E+01  1.08215E+01  1.09877E+01  1.12269E+01  1.14779E+01  1.16437E+01  1.16486E+01  1.14797E+01  1.12421E+01
   1.10679E+01  1.10450E+01  1.12138E+01  1.15394E+01  1.19543E+01  1.24026E+01  1.27837E+01  1.29558E+01  1.28897E+01  1.26565E+01
   1.23481E+01  1.19968E+01  1.15785E+01  1.11173E+01  1.06490E+01  1.01642E+01  9.66068E+00  9.14182E+00  8.61292E+00  8.08024E+00
   7.55033E+00  7.02964E+00  6.52417E+00  6.03936E+00  5.58016E+00  5.15102E+00  4.75591E+00  4.39821E+00  4.08070E+00  3.80577E+00
   3.57550E+00  3.39184E+00  3.25649E+00  3.17087E+00  3.13609E+00  3.15305E+00  3.22243E+00  3.34455E+00  3.51910E+00  3.74498E+00
   4.02013E+00  4.34151E+00  4.70495E+00  5.10495E+00  5.53456E+00  5.98535E+00  6.44760E+00  6.91060E+00  7.36285E+00  7.79238E+00
   8.18705E+00  8.53514E+00  8.82590E+00  9.05009E+00  9.20030E+00  9.27124E+00  9.25993E+00  9.16594E+00  8.99138E+00  8.74080E+00
   8.42079E+00  8.03959E+00  7.60665E+00  7.13227E+00  6.62717E+00  6.10200E+00  5.56683E+00  5.03085E+00  4.50210E+00  3.98750E+00
   3.49270E+00  3.02206E+00  2.57856E+00  2.16400E+00  1.77921E+00  1.42423E+00  1.09847E+00  8.00790E-01  5.29576E-01  2.82964E-01
   5.90182E-02 -1.44164E-01 -3.28453E-01 -4.95714E-01 -6.47766E-01 -7.86280E-01 -9.12708E-01 -1.02831E+00 -1.13423E+00 -1.23156E+00
  -1.32132E+00 -1.40434E+00 -1.48130E+00 -1.55277E+00 -1.61930E+00 -1.68144E+00 -1.73970E+00 -1.79442E+00 -1.84589E+00 -1.89435E+00
  -1.94009E+00 -1.98341E+00 -2.02454E+00 -2.06364E+00 -2.10079E+00 -2.13613E+00 -2.16985E+00 -2.20212E+00 -2.23306E+00 -2.26271E+00
  -2.29111E+00 -2.31835E+00 -2.34457E+00 -2.36988E+00 -2.39432E+00 -2.41786E+00 -2.44054E+00 -2.46246E+00 -2.48373E+00 -2.50439E+00
  -2.52443E+00 -2.54383E+00 -2.56262E+00 -2.58090E+00 -2.59875E+00 -2.61616E+00 -2.63310E+00 -2.64956E+00 -2.66561E+00 -2.68133E+00
  -2.69675E+00 -2.71186E+00 -2.72660E+00 -2.74100E+00 -2.75512E+00 -2.76904E+00 -2.78276E+00 -2.79623E+00 -2.80943E+00 -2.82240E+00
  -2.83522E+00 -2.84793E+00 -2.86051E+00 -2.87290E+00 -2.88513E+00 -2.89724E+00 -2.90932E+00 -2.92137E+00
 NY background values follow
    -2.813E+00   -2.815E+00   -2.818E+00   -2.820E+00   -2.822E+00   -2.825E+00   -2.827E+00   -2.829E+00   -2.832E+00   -2.834E+00
    -2.836E+00   -2.839E+00   -2.841E+00   -2.843E+00   -2.846E+00   -2.848E+00   -2.851E+00   -2.853E+00   -2.855E+00   -2.858E+00
    -2.860E+00   -2.862E+00   -2.865E+00   -2.867E+00   -2.869E+00   -2.872E+00   -2.874E+00   -2.876E+00   -2.879E+00   -2.881E+00
    -2.883E+00   -2.886E+00   -2.888E+00   -2.890E+00   -2.893E+00   -2.895E+00   -2.897E+00   -2.900E+00   -2.902E+00   -2.904E+00
    -2.907E+00   -2.909E+00   -2.911E+00   -2.914E+00   -2.916E+00   -2.918E+00   -2.921E+00   -2.923E+00   -2.925E+00   -2.927E+00
    -2.930E+00   -2.932E+00   -2.934E+00   -2.937E+00   -2.939E+00   -2.941E+00   -2.944E+00   -2.946E+00   -2.948E+00   -2.951E+00
    -2.953E+00   -2.955E+00   -2.958E+00   -2.960E+00   -2.962E+00   -2.965E+00   -2.967E+00   -2.969E+00   -2.972E+00   -2.974E+00
    -2.976E+00   -2.978E+00   -2.981E+00   -2.983E+00   -2.985E+00   -2.988E+00   -2.990E+00   -2.992E+00   -2.995E+00   -2.997E+00
    -2.999E+00   -3.002E+00   -3.004E+00   -3.006E+00   -3.008E+00   -3.011E+00   -3.013E+00   -3.015E+00   -3.018E+00   -3.020E+00
    -3.022E+00   -3.025E+00   -3.027E+00   -3.029E+00   -3.031E+00   -3.034E+00   -3.036E+00   -3.038E+00   -3.041E+00   -3.043E+00
    -3.045E+00   -3.047E+00   -3.050E+00   -3.052E+00   -3.054E+00   -3.057E+00   -3.059E+00   -3.061E+00   -3.063E+00   -3.066E+00
    -3.068E+00   -3.070E+00   -3.073E+00   -3.075E+00   -3.077E+00   -3.079E+00   -3.082E+00   -3.084E+00   -3.086E+00   -3.088E+00
    -3.091E+00   -3.093E+00   -3.095E+00   -3.098E+00   -3.100E+00   -3.102E+00   -3.104E+00   -3.107E+00   -3.109E+00   -3.111E+00
    -3.113E+00   -3.116E+00   -3.118E+00   -3.120E+00   -3.123E+00   -3.125E+00   -3.127E+00   -3.129E+00   -3.132E+00   -3.134E+00
    -3.136E+00   -3.138E+00   -3.141E+00   -3.143E+00   -3.145E+00   -3.147E+00   -3.150E+00   -3.152E+00   -3.154E+00   -3.156E+00
    -3.159E+00   -3.161E+00   -3.163E+00   -3.165E+00   -3.168E+00   -3.170E+00   -3.172E+00   -3.174E+00   -3.177E+00   -3.179E+00
    -3.181E+00   -3.183E+00   -3.186E+00   -3.188E+00   -3.190E+00   -3.192E+00   -3.195E+00   -3.197E+00   -3.199E+00   -3.201E+00
    -3.203E+00   -3.206E+00   -3.208E+00   -3.210E+00   -3.212E+00   -3.215E+00   -3.217E+00   -3.219E+00   -3.221E+00   -3.224E+00
    -3.226E+00   -3.228E+00   -3.230E+00   -3.232E+00   -3.235E+00   -3.237E+00   -3.239E+00   -3.241E+00   -3.244E+00   -3.246E+00
    -3.248E+00   -3.250E+00   -3.252E+00   -3.255E+00   -3.257E+00   -3.259E+00   -3.261E+00   -3.263E+00   -3.266E+00   -3.268E+00
    -3.270E+00   -3.272E+00   -3.274E+00   -3.277E+00   -3.279E+00   -3.281E+00   -3.283E+00   -3.285E+00   -3.288E+00   -3.290E+00
    -3.292E+00   -3.294E+00   -3.296E+00   -3.299E+00   -3.301E+00   -3.303E+00   -3.305E+00   -3.307E+00   -3.310E+00   -3.312E+00
    -3.314E+00   -3.316E+00   -3.318E+00   -3.321E+00   -3.323E+00   -3.325E+00   -3.327E+00   -3.329E+00   -3.331E+00   -3.334E+00
    -3.336E+00   -3.338E+00   -3.340E+00   -3.342E+00   -3.345E+00   -3.347E+00   -3.349E+00   -3.351E+00   -3.353E+00   -3.355E+00
    -3.358E+00   -3.360E+00   -3.362E+00   -3.364E+00   -3.366E+00   -3.368E+00   -3.371E+00   -3.373E+00   -3.375E+00   -3.377E+00
    -3.379E+00   -3.381E+00   -3.383E+00   -3.386E+00   -3.388E+00   -3.390E+00   -3.392E+00   -3.394E+00   -3.396E+00   -3.399E+00
    -3.401E+00   -3.403E+00   -3.405E+00   -3.407E+00   -3.409E+00   -3.411E+00   -3.414E+00   -3.416E+00   -3.418E+00   -3.420E+00
    -3.422E+00   -3.424E+00   -3.426E+00   -3.429E+00   -3.431E+00   -3.433E+00   -3.435E+00   -3.437E+00   -3.439E+00   -3.441E+00
    -3.443E+00   -3.446E+00   -3.448E+00   -3.450E+00   -3.452E+00   -3.454E+00   -3.456E+00   -3.458E+00   -3.460E+00   -3.463E+00
    -3.465E+00   -3.467E+00   -3.469E+00   -3.471E+00   -3.473E+00   -3.475E+00   -3.477E+00   -3.479E+00   -3.482E+00   -3.484E+00
    -3.486E+00   -3.488E+00   -3.490E+00   -3.492E+00   -3.494E+00   -3.496E+00   -3.498E+00   -3.500E+00   -3.503E+00   -3.505E+00
    -3.507E+00   -3.509E+00   -3.511E+00   -3.513E+00   -3.515E+00   -3.517E+00   -3.519E+00   -3.521E+00   -3.523E+00   -3.526E+00
    -3.528E+00   -3.530E+00   -3.532E+00   -3.534E+00   -3.536E+00   -3.538E+00   -3.540E+00   -3.542E+00   -3.544E+00   -3.546E+00
    -3.548E+00   -3.550E+00   -3.553E+00   -3.555E+00   -3.557E+00   -3.559E+00   -3.561E+00   -3.563E+00   -3.565E+00   -3.567E+00
    -3.569E+00   -3.571E+00   -3.573E+00   -3.575E+00   -3.577E+00   -3.579E+00   -3.581E+00   -3.583E+00   -3.586E+00   -3.588E+00
    -3.590E+00   -3.592E+00   -3.594E+00   -3.596E+00   -3.598E+00   -3.600E+00   -3.602E+00   -3.604E+00   -3.606E+00   -3.608E+00
    -3.610E+00   -3.612E+00   -3.614E+00   -3.616E+00   -3.618E+00   -3.620E+00   -3.622E+00   -3.624E+00   -3.626E+00   -3.628E+00
    -3.630E+00   -3.632E+00   -3.634E+00   -3.636E+00   -3.638E+00   -3.640E+00   -3.642E+00   -3.644E+00   -3.646E+00   -3.649E+00
    -3.651E+00   -3.653E+00   -3.655E+00   -3.657E+00   -3.659E+00   -3.661E+00   -3.663E+00   -3.665E+00   -3.667E+00   -3.669E+00
    -3.671E+00   -3.673E+00   -3.675E+00   -3.677E+00   -3.679E+00   -3.681E+00   -3.683E+00   -3.685E+00   -3.687E+00   -3.689E+00
    -3.691E+00   -3.693E+00   -3.694E+00   -3.696E+00   -3.698E+00   -3.700E+00   -3.702E+00   -3.704E+00   -3.706E+00   -3.708E+00
    -3.710E+00   -3.712E+00   -3.714E+00   -3.716E+00   -3.718E+00   -3.720E+00   -3.722E+00   -3.724E+00   -3.726E+00   -3.728E+00
    -3.730E+00   -3.732E+00   -3.734E+00   -3.736E+00   -3.738E+00   -3.740E+00   -3.742E+00   -3.744E+00   -3.746E+00   -3.748E+00
    -3.750E+00   -3.752E+00   -3.753E+00   -3.755E+00   -3.757E+00   -3.759E+00   -3.761E+00   -3.763E+00   -3.765E+00   -3.767E+00
    -3.769E+00   -3.771E+00   -3.773E+00   -3.775E+00   -3.777E+00   -3.779E+00   -3.781E+00   -3.783E+00   -3.784E+00   -3.786E+00
    -3.788E+00   -3.790E+00   -3.792E+00   -3.794E+00   -3.796E+00   -3.798E+00   -3.800E+00   -3.802E+00   -3.804E+00   -3.806E+00
    -3.807E+00   -3.809E+00   -3.811E+00   -3.813E+00   -3.815E+00   -3.817E+00   -3.819E+00   -3.821E+00   -3.823E+00   -3.825E+00
    -3.826E+00   -3.828E+00   -3.830E+00   -3.832E+00   -3.834E+00   -3.836E+00   -3.838E+00   -3.840E+00   -3.842E+00   -3.843E+00
    -3.845E+00   -3.847E+00   -3.849E+00   -3.851E+00   -3.853E+00   -3.855E+00   -3.857E+00   -3.859E+00   -3.860E+00   -3.862E+00
    -3.864E+00   -3.866E+00   -3.868E+00   -3.870E+00   -3.872E+00   -3.873E+00   -3.875E+00   -3.877E+00
 Ala      Conc. = 1.80E+02
