 LCModel (Version 6.3-1L) Copyright: S.W. Provencher.          Ref.: Magn. Reson. Med. 30:672-679 (1993).                
 Slice#1 Row#14 Col#12  PD_24_press_1_raw_act
 36 lines in following concentration table = NCONC+1
    Conc.  %SD /Cr+PCr  Metabolite                                         
    0.000 999%   0.000 Ala                                                 
    2.362  76%   0.115 Asp                                                 
    0.000 999%   0.000 Cr                                                  
   20.605  51%   1.000 PCr                                                 
    1.443  75% 7.0E-02 GABA                                                
    1.427  76% 6.9E-02 Glc                                                 
    0.000 999%   0.000 Gln                                                 
   43.152  95%   2.094 Glu                                                 
    0.000 999%   0.000 GPC                                                 
    8.861  46%   0.430 PCh                                                 
    0.000 999%   0.000 GSH                                                 
   16.569 257%   0.804 Ins                                                 
   42.927  53%   2.083 Lac                                                 
    0.000 999%   0.000 NAA                                                 
    0.000 999%   0.000 NAAG                                                
    0.476  76% 2.3E-02 Scyllo                                              
    2.422  74%   0.118 Tau                                                 
    2.146 171%   0.104 -CrCH2                                              
    8.861  46%   0.430 GPC+PCh                                             
    0.000 999%   0.000 NAA+NAAG                                            
   20.605  51%   1.000 Cr+PCr                                              
   43.152  95%   2.094 Glu+Gln                                             
  425.151  20%  20.634 Lip13a                                              
    0.000 999%   0.000 Lip13b                                              
  105.616  34%   5.126 Lip09                                               
    3.427 540%   0.166 MM09                                                
   53.533  54%   2.598 Lip20                                               
    0.000 999%   0.000 MM20                                                
    2.260 428%   0.110 MM12                                                
    3.182 999%   0.154 MM14                                                
   26.560  84%   1.289 MM17                                                
  425.151  20%  20.634 Lip13a+Lip13b                                       
  430.592  19%  20.898 MM14+Lip13a+Lip13b+MM12                             
  109.043  31%   5.292 MM09+Lip09                                          
   53.533  54%   2.598 MM20+Lip20                                          
   6 lines in following misc. output table
  FWHM = 0.038 ppm    S/N =   1                                            
  Data shift = 0.000 ppm                                                   
  Ph: 102 deg     -20.3 deg/ppm                                            
  alphaB,S = 8.5E+01,   1.3E+01                                            
   14 spline knots.   Ns = 5(1)                                            
   2 inflections.     1 extrema                                            
  498 points on ppm-axis = NY
      4.000000     3.992357     3.984714     3.977070     3.969427     3.961784     3.954141     3.946497     3.938854     3.931211
      3.923568     3.915925     3.908281     3.900638     3.892995     3.885352     3.877708     3.870065     3.862422     3.854779
      3.847136     3.839492     3.831849     3.824206     3.816563     3.808919     3.801276     3.793633     3.785990     3.778347
      3.770703     3.763060     3.755417     3.747774     3.740130     3.732487     3.724844     3.717201     3.709558     3.701914
      3.694271     3.686628     3.678985     3.671341     3.663698     3.656055     3.648412     3.640769     3.633125     3.625482
      3.617839     3.610196     3.602552     3.594909     3.587266     3.579623     3.571980     3.564336     3.556693     3.549050
      3.541407     3.533763     3.526120     3.518477     3.510834     3.503191     3.495547     3.487904     3.480261     3.472618
      3.464974     3.457331     3.449688     3.442045     3.434402     3.426758     3.419115     3.411472     3.403829     3.396185
      3.388542     3.380899     3.373256     3.365613     3.357969     3.350326     3.342683     3.335040     3.327396     3.319753
      3.312110     3.304467     3.296824     3.289180     3.281537     3.273894     3.266251     3.258607     3.250964     3.243321
      3.235678     3.228034     3.220391     3.212748     3.205105     3.197462     3.189818     3.182175     3.174532     3.166889
      3.159245     3.151602     3.143959     3.136316     3.128673     3.121029     3.113386     3.105743     3.098100     3.090456
      3.082813     3.075170     3.067527     3.059884     3.052240     3.044597     3.036954     3.029311     3.021667     3.014024
      3.006381     2.998738     2.991095     2.983451     2.975808     2.968165     2.960522     2.952878     2.945235     2.937592
      2.929949     2.922306     2.914662     2.907019     2.899376     2.891733     2.884089     2.876446     2.868803     2.861160
      2.853517     2.845873     2.838230     2.830587     2.822944     2.815300     2.807657     2.800014     2.792371     2.784728
      2.777084     2.769441     2.761798     2.754155     2.746511     2.738868     2.731225     2.723582     2.715939     2.708295
      2.700652     2.693009     2.685366     2.677722     2.670079     2.662436     2.654793     2.647150     2.639506     2.631863
      2.624220     2.616577     2.608933     2.601290     2.593647     2.586004     2.578361     2.570717     2.563074     2.555431
      2.547788     2.540144     2.532501     2.524858     2.517215     2.509572     2.501928     2.494285     2.486642     2.478999
      2.471355     2.463712     2.456069     2.448426     2.440783     2.433139     2.425496     2.417853     2.410210     2.402566
      2.394923     2.387280     2.379637     2.371994     2.364350     2.356707     2.349064     2.341421     2.333777     2.326134
      2.318491     2.310848     2.303205     2.295561     2.287918     2.280275     2.272632     2.264988     2.257345     2.249702
      2.242059     2.234416     2.226772     2.219129     2.211486     2.203843     2.196199     2.188556     2.180913     2.173270
      2.165627     2.157983     2.150340     2.142697     2.135054     2.127410     2.119767     2.112124     2.104481     2.096838
      2.089194     2.081551     2.073908     2.066265     2.058621     2.050978     2.043335     2.035692     2.028049     2.020405
      2.012762     2.005119     1.997476     1.989833     1.982190     1.974546     1.966903     1.959260     1.951617     1.943974
      1.936331     1.928688     1.921045     1.913402     1.905759     1.898115     1.890472     1.882829     1.875186     1.867543
      1.859900     1.852257     1.844614     1.836971     1.829327     1.821684     1.814041     1.806398     1.798755     1.791112
      1.783469     1.775826     1.768183     1.760540     1.752896     1.745253     1.737610     1.729967     1.722324     1.714681
      1.707038     1.699395     1.691752     1.684108     1.676465     1.668822     1.661179     1.653536     1.645893     1.638250
      1.630607     1.622964     1.615321     1.607677     1.600034     1.592391     1.584748     1.577105     1.569462     1.561819
      1.554176     1.546533     1.538890     1.531246     1.523603     1.515960     1.508317     1.500674     1.493031     1.485388
      1.477745     1.470102     1.462458     1.454815     1.447172     1.439529     1.431886     1.424243     1.416600     1.408957
      1.401314     1.393671     1.386027     1.378384     1.370741     1.363098     1.355455     1.347812     1.340169     1.332526
      1.324883     1.317240     1.309596     1.301953     1.294310     1.286667     1.279024     1.271381     1.263738     1.256095
      1.248452     1.240808     1.233165     1.225522     1.217879     1.210236     1.202593     1.194950     1.187307     1.179664
      1.172021     1.164377     1.156734     1.149091     1.141448     1.133805     1.126162     1.118519     1.110876     1.103233
      1.095590     1.087946     1.080303     1.072660     1.065017     1.057374     1.049731     1.042088     1.034445     1.026802
      1.019158     1.011515     1.003872     0.996229     0.988586     0.980943     0.973300     0.965657     0.958014     0.950371
      0.942727     0.935084     0.927441     0.919798     0.912155     0.904512     0.896869     0.889226     0.881583     0.873940
      0.866296     0.858653     0.851010     0.843367     0.835724     0.828081     0.820438     0.812795     0.805152     0.797508
      0.789865     0.782222     0.774579     0.766936     0.759293     0.751650     0.744007     0.736364     0.728721     0.721077
      0.713434     0.705791     0.698148     0.690505     0.682862     0.675219     0.667576     0.659933     0.652290     0.644646
      0.637003     0.629360     0.621717     0.614074     0.606431     0.598788     0.591145     0.583502     0.575858     0.568215
      0.560572     0.552929     0.545286     0.537643     0.530000     0.522357     0.514714     0.507071     0.499427     0.491784
      0.484141     0.476498     0.468855     0.461212     0.453569     0.445925     0.438282     0.430639     0.422996     0.415353
      0.407710     0.400067     0.392424     0.384780     0.377137     0.369494     0.361851     0.354208     0.346565     0.338922
      0.331278     0.323635     0.315992     0.308349     0.300706     0.293063     0.285420     0.277777     0.270133     0.262490
      0.254847     0.247204     0.239561     0.231918     0.224275     0.216631     0.208988     0.201345
 NY phased data points follow
  -2.35851E-01 -4.60096E-01  1.78574E-01 -1.51898E+00  2.97651E-01  1.35009E+00 -2.95774E-01 -1.79730E-01  3.38672E-01 -3.01968E-01
   2.27158E-01  1.21609E+00 -8.31991E-01 -8.66887E-01 -1.40216E+00 -1.08811E+00  8.10775E-01 -2.51427E-01 -1.16557E+00 -8.10826E-01
   7.48191E-01 -8.98847E-01  2.01564E-02  3.19059E-01 -9.64847E-01  9.95443E-01  2.88609E-01  5.37296E-01 -8.02363E-01  4.54874E-01
  -8.63327E-01 -2.09071E+00  4.66271E-01 -1.19680E+00  1.25053E+00 -1.51929E+00 -2.72050E-01  4.12397E-01 -7.12974E-02  1.67583E-01
   8.83595E-01  6.06772E-01 -1.38673E+00  4.01002E-01 -1.73356E+00  4.04035E-02 -3.08994E-01  1.29601E+00 -5.17629E-01 -7.93970E-01
   1.57949E+00 -2.96810E-03 -1.01795E+00 -1.68933E+00  8.92563E-02 -2.58118E-01 -1.31585E+00  7.27602E-01  4.13204E-01  1.58102E-01
  -1.12482E+00 -3.12258E+00 -5.29225E-01  1.48227E+00  1.53284E+00  1.44219E+00 -2.40781E-01  1.29968E+00 -3.60766E-01  6.74776E-01
   3.26096E-01 -7.65444E-01 -1.20348E-01  3.09611E-01 -2.60572E+00  9.74588E-01  6.37328E-01  1.40424E+00 -4.30348E-01 -8.00620E-01
  -1.42658E-01  2.89185E-01 -7.13315E-02  8.24828E-01  3.22182E-01 -1.30906E+00 -1.54611E-01  3.24627E-01  7.44946E-01 -5.52286E-01
   2.34058E-01 -1.82105E+00  4.73818E-01  8.04423E-01 -9.79607E-02  4.91029E-01 -5.67266E-02 -2.48364E-01  6.15602E-01  1.21934E-01
  -1.45827E+00  2.48914E+00  9.61416E-01  5.47926E-01 -3.63133E-02  1.11646E+00  1.61521E+00  1.00892E+00 -4.49349E-01  5.63833E-01
   9.68634E-02  8.28493E-01 -1.08805E+00 -6.42670E-01  2.79109E-04  1.31661E+00  1.73239E-02 -6.13626E-01 -3.39150E-01 -3.38156E-01
  -2.89017E-01 -1.60508E+00  1.00845E+00 -1.01310E+00 -1.04445E+00  1.91382E-01  1.10151E+00  1.20885E+00  1.24687E+00  1.92715E+00
  -8.58852E-01 -3.93860E-01 -2.21226E-01  1.77584E+00 -4.31009E-01 -2.16572E-01 -1.05126E+00 -1.13342E+00 -7.04943E-01  1.22758E+00
   1.16330E+00  7.66668E-01 -1.89597E-01  1.70909E+00 -5.12755E-01 -3.62451E-01  1.69354E-01  2.01466E-01 -2.23167E+00  2.38512E-01
  -7.72292E-02 -4.04980E-01  5.35827E-01  3.81193E-01 -1.92984E+00  9.41823E-01 -1.64259E+00  5.84930E-01 -2.89450E-02  1.16732E+00
  -4.37834E-02 -2.39803E+00 -1.98265E-02 -1.55791E+00  1.38251E+00  1.23494E-01  2.24673E-01  1.25029E+00 -1.41516E+00  1.67824E-01
   1.66952E+00 -6.64920E-02 -7.09193E-01  9.79835E-01 -4.09160E-01  1.56170E+00 -8.46607E-01 -2.19835E-01  2.29594E-03 -1.58582E+00
   8.85159E-01  3.99187E-01  2.58274E-01  2.93858E-01 -6.34670E-02 -1.45329E+00 -8.85952E-01  6.74057E-01 -2.93484E-01 -3.92172E-01
  -3.66658E-01  1.01592E+00 -7.32502E-01  1.42560E+00  3.29453E-01  1.20943E+00  8.65914E-01  4.89023E-01  6.96031E-01  3.91879E-01
  -1.02881E+00  6.92593E-01 -2.04941E+00  5.23054E-01  8.72190E-01 -1.45076E+00  8.71928E-01  1.89196E+00  1.41429E-01  1.19930E+00
  -1.09456E-01  8.80339E-01  3.28568E-01  1.20009E+00  3.49435E-02 -2.83141E-01  1.38913E+00  5.63174E-01  4.19744E-01  6.86565E-01
   6.40028E-01 -8.45070E-01 -6.50198E-01 -1.18181E+00  1.59288E+00  6.02008E-03  6.96751E-01  1.35996E+00  1.71666E+00 -7.49765E-01
  -1.02186E+00 -4.65689E-01  9.81442E-01  6.50046E-01  1.28072E+00  1.27624E+00  1.80100E+00 -1.32956E+00  1.41097E+00  7.89273E-02
   1.39387E+00  6.66828E-01  3.25369E-01 -9.49012E-01 -6.78601E-01 -1.23141E-01  4.08378E-01  1.62897E+00 -8.70448E-01 -7.44002E-01
   1.09263E+00 -6.81842E-01  6.07513E-01 -5.56776E-01  8.54251E-01  4.83888E-01 -1.01628E+00 -2.04112E+00 -5.17236E-01  1.74098E+00
   3.35722E-01  5.54394E-01 -4.69161E-01  3.41687E-02 -3.21789E-01  1.40673E+00 -6.84826E-01  1.37490E+00  1.50067E+00 -5.69957E-01
   1.03384E+00  2.13101E+00 -5.79397E-01  1.53031E+00  5.65291E-01  1.53710E+00  9.61508E-01 -1.91441E-01  7.33474E-01 -7.19525E-01
  -6.51591E-01  5.39595E-01  6.80691E-01  3.18874E-01  1.96624E-01  1.00810E+00 -2.50019E-01  9.71673E-01 -2.40626E-01 -6.26629E-01
   3.87837E-01  1.21674E+00  2.18513E+00  1.26083E+00  1.25251E+00  1.67147E+00  7.36047E-01 -6.36409E-01 -5.57033E-01  9.28995E-01
   2.64230E+00  2.52591E+00  1.57003E+00 -4.15391E-01  7.18081E-01  4.46138E-01  1.26462E+00 -3.47459E-01 -8.42821E-02  1.41151E-01
   1.23762E+00  7.22184E-01  2.70824E+00  2.24914E+00  8.27176E-01 -1.08922E-01  8.65183E-01  2.61993E+00  1.03584E+00  4.23073E-01
   8.71820E-02  8.81505E-01  2.17359E+00  1.01078E+00 -1.45836E-01  4.96067E-01  1.00745E+00  2.09343E+00  1.91702E+00 -1.12016E-01
   2.08459E+00  7.13891E-01  2.82124E+00  1.88803E+00  3.80201E-01  8.66561E-01  2.06673E+00  1.32421E+00  9.50800E-01  5.96200E-01
   6.82163E-01  1.98958E+00  4.52849E-01  4.14970E-01  2.91049E-01  7.62501E-01  6.75579E-01  1.63267E+00  1.01486E+00  1.25582E+00
   9.53725E-01 -1.03159E+00  4.22944E-01  7.76641E-01  2.98016E+00  3.31447E+00  1.76235E+00  3.83086E+00  2.58694E+00  1.28805E+00
   1.77105E+00  1.56813E+00  3.60960E+00  1.96029E+00  2.44096E+00  3.25619E+00  2.73251E+00  1.72431E+00  2.50304E+00  2.76383E+00
   5.21375E-01  1.84413E+00  1.60122E+00  1.08740E+00  2.61722E+00  8.45985E-01  2.46354E+00  1.99209E+00  1.40239E+00  2.28669E+00
   1.10234E+00  1.37935E+00  4.60610E-01  4.30251E-01  1.50437E+00  1.76780E+00  1.18806E+00  2.50029E+00  1.24968E+00  1.59418E+00
   1.34816E+00  1.79330E+00  1.17678E+00  1.09143E+00  2.84665E+00  1.64948E+00  2.40309E+00  9.61732E-01  1.60611E+00  6.79832E-01
   7.11896E-01  1.04713E-01 -5.78609E-01  1.21257E+00  5.31424E-01 -5.40162E-03  1.53033E+00  6.39002E-02  1.56090E+00  1.14062E+00
   1.80169E+00  7.74496E-02  8.58227E-01  1.22483E+00  1.70916E+00  1.74027E+00  1.32849E-01  2.12019E-01  2.52157E+00 -3.82210E-01
   1.21078E+00  1.85777E+00  1.93076E+00  1.32644E+00  1.09498E+00  1.90158E+00 -4.32503E-01  6.88143E-01  9.08809E-02  2.98256E+00
   1.02784E+00  3.62174E-01  6.59836E-01  6.72031E-01 -9.40961E-01 -5.35482E-01  1.41995E+00  1.13727E+00 -1.51017E-02 -4.25260E-01
   1.40415E+00  2.46497E+00  1.73556E+00  8.05949E-01  6.13341E-02  1.10190E+00  1.94417E+00  1.82648E+00  9.37016E-01  6.94716E-01
   2.03948E+00  1.86680E+00 -9.36326E-01  1.50014E+00  4.06516E-01  1.57771E+00 -4.05977E-01 -3.86268E-01  7.80559E-01  1.42192E+00
  -1.15056E-01  1.90643E+00  6.37199E-01 -3.49923E-01  2.25147E+00  3.74644E-01  6.85127E-01  1.77898E-01 -1.00030E+00  1.62878E+00
   2.00267E-01 -1.38197E+00  9.07857E-02 -8.40671E-01 -7.64014E-01  8.16894E-01 -1.45692E+00  5.37552E-01 -5.62843E-01 -5.05719E-01
  -5.87538E-01  1.00894E+00  1.56217E-01  2.28027E+00  1.82672E+00  2.03209E+00  3.81830E-01 -5.00952E-01  1.30485E+00 -1.06210E-02
   2.69357E-01  1.30386E+00  9.59800E-01  9.89104E-02 -2.40570E-01  1.23772E+00 -3.56545E-01 -1.64758E+00
 NY points of the fit to the data follow
  -3.09978E-01 -2.88306E-01 -2.61917E-01 -2.43533E-01 -2.18398E-01 -1.61221E-01 -5.15364E-02  9.56732E-02  2.28591E-01  3.01759E-01
   2.93750E-01  1.95686E-01  2.27678E-02 -1.50498E-01 -2.39720E-01 -2.44477E-01 -2.33686E-01 -2.31430E-01 -2.29280E-01 -2.25361E-01
  -2.18046E-01 -2.05600E-01 -1.88090E-01 -1.69329E-01 -1.57320E-01 -1.64232E-01 -1.92276E-01 -2.31075E-01 -2.65646E-01 -2.78158E-01
  -2.49424E-01 -1.74819E-01 -8.34869E-02 -2.24550E-02 -1.67772E-02 -6.11451E-02 -1.39879E-01 -2.18340E-01 -2.59691E-01 -2.53388E-01
  -2.18190E-01 -1.78247E-01 -1.46952E-01 -1.29084E-01 -1.16974E-01 -9.15642E-02 -4.94644E-02 -1.36000E-02 -4.73022E-03 -2.94507E-02
  -8.28137E-02 -1.47615E-01 -1.93692E-01 -2.02223E-01 -1.84617E-01 -1.63730E-01 -1.47950E-01 -1.32773E-01 -1.14371E-01 -9.59878E-02
  -8.39870E-02 -8.19554E-02 -9.20372E-02 -1.12381E-01 -1.33665E-01 -1.45558E-01 -1.44816E-01 -1.34588E-01 -1.20326E-01 -1.06379E-01
  -9.44970E-02 -8.57611E-02 -7.95142E-02 -7.42760E-02 -7.13757E-02 -7.35002E-02 -8.03566E-02 -8.80189E-02 -9.49714E-02 -1.01787E-01
  -1.05037E-01 -1.01800E-01 -9.40959E-02 -8.50521E-02 -7.87895E-02 -8.04829E-02 -9.12997E-02 -1.06902E-01 -1.22286E-01 -1.33221E-01
  -1.33833E-01 -1.20973E-01 -1.00866E-01 -8.43449E-02 -7.46377E-02 -6.92397E-02 -6.42339E-02 -5.53165E-02 -2.73888E-02  5.05102E-02
   2.21530E-01  5.06042E-01  8.21388E-01  1.05208E+00  1.12541E+00  1.00997E+00  7.03262E-01  3.02381E-01  6.46686E-03 -8.00520E-02
  -5.72184E-02 -4.85746E-02 -4.87752E-02 -4.87353E-02 -4.78028E-02 -4.67965E-02 -4.57300E-02 -4.44221E-02 -4.23706E-02 -3.86389E-02
  -3.15537E-02 -1.38376E-02  3.60992E-02  1.46935E-01  3.49592E-01  6.04820E-01  8.21623E-01  9.28705E-01  8.93257E-01  7.02304E-01
   3.96062E-01  1.15685E-01 -9.84119E-03 -7.33222E-03  6.04865E-03  7.55919E-03  9.92805E-03  1.43099E-02  1.95256E-02  2.43257E-02
   2.84953E-02  3.27729E-02  3.75012E-02  4.26558E-02  4.86476E-02  5.53353E-02  6.15464E-02  6.61111E-02  6.88068E-02  7.06954E-02
   7.31335E-02  7.67801E-02  8.11437E-02  8.51103E-02  8.83299E-02  9.09083E-02  9.27390E-02  9.36951E-02  9.40477E-02  9.42667E-02
   9.46197E-02  9.51398E-02  9.59691E-02  9.72365E-02  9.88375E-02  1.00516E-01  1.02365E-01  1.04554E-01  1.06415E-01  1.06959E-01
   1.05736E-01  1.03529E-01  1.01707E-01  1.00737E-01  9.99901E-02  9.90813E-02  9.78960E-02  9.63561E-02  9.45714E-02  9.30737E-02
   9.24889E-02  9.31060E-02  9.48460E-02  9.73202E-02  9.99297E-02  1.02141E-01  1.03572E-01  1.03899E-01  1.03217E-01  1.02366E-01
   1.02030E-01  1.02289E-01  1.03226E-01  1.05408E-01  1.09206E-01  1.14644E-01  1.21223E-01  1.27689E-01  1.33227E-01  1.38431E-01
   1.44560E-01  1.52311E-01  1.61784E-01  1.72405E-01  1.80238E-01  1.80181E-01  1.70036E-01  1.47754E-01  1.16729E-01  8.88067E-02
   8.09205E-02  1.08382E-01  1.76258E-01  2.83905E-01  4.04351E-01  4.88515E-01  5.01070E-01  4.33740E-01  2.89813E-01  9.36976E-02
  -9.12819E-02 -1.94506E-01 -1.94028E-01 -1.20025E-01  1.02063E-02  1.76632E-01  3.30116E-01  4.14762E-01  4.18422E-01  3.83975E-01
   3.51560E-01  3.27693E-01  3.11755E-01  3.09880E-01  3.21173E-01  3.37671E-01  3.48660E-01  3.47347E-01  3.33891E-01  3.12915E-01
   2.89597E-01  2.74520E-01  2.77675E-01  3.02257E-01  3.41093E-01  3.82270E-01  4.13040E-01  4.21243E-01  4.02262E-01  3.68929E-01
   3.44560E-01  3.36498E-01  3.44729E-01  3.69049E-01  4.02066E-01  4.23034E-01  4.20444E-01  4.04515E-01  3.93680E-01  3.97537E-01
   4.15246E-01  4.42697E-01  4.67681E-01  4.74787E-01  4.61868E-01  4.41178E-01  4.20101E-01  3.99509E-01  3.82069E-01  3.71040E-01
   3.64605E-01  3.60967E-01  3.63836E-01  3.74367E-01  3.87455E-01  3.98732E-01  4.03988E-01  4.01175E-01  3.92989E-01  3.84947E-01
   3.79593E-01  3.76914E-01  3.77203E-01  3.80741E-01  3.86873E-01  3.94017E-01  4.00918E-01  4.07714E-01  4.14954E-01  4.22513E-01
   4.30576E-01  4.39525E-01  4.49358E-01  4.59773E-01  4.70660E-01  4.82091E-01  4.93923E-01  5.05867E-01  5.17732E-01  5.29336E-01
   5.40480E-01  5.51043E-01  5.60872E-01  5.69807E-01  5.77725E-01  5.84547E-01  5.90236E-01  5.94847E-01  5.98538E-01  6.01491E-01
   6.03848E-01  6.05777E-01  6.07489E-01  6.09205E-01  6.11154E-01  6.13570E-01  6.16679E-01  6.20696E-01  6.25811E-01  6.32194E-01
   6.40001E-01  6.49381E-01  6.60471E-01  6.73396E-01  6.88268E-01  7.05198E-01  7.24305E-01  7.45726E-01  7.69604E-01  7.96093E-01
   8.25360E-01  8.57597E-01  8.93039E-01  9.31953E-01  9.74651E-01  1.02150E+00  1.07297E+00  1.12973E+00  1.19277E+00  1.26374E+00
   1.34567E+00  1.44550E+00  1.57687E+00  1.74650E+00  1.94583E+00  2.10453E+00  2.13168E+00  1.99830E+00  1.73281E+00  1.38591E+00
   1.05626E+00  9.06328E-01  1.06056E+00  1.43863E+00  1.85004E+00  2.21645E+00  2.50809E+00  2.65160E+00  2.58714E+00  2.37962E+00
   2.19168E+00  2.10369E+00  2.05170E+00  1.99806E+00  1.94319E+00  1.88719E+00  1.82998E+00  1.77177E+00  1.71301E+00  1.65424E+00
   1.59607E+00  1.53905E+00  1.48371E+00  1.43057E+00  1.38009E+00  1.33266E+00  1.28857E+00  1.24805E+00  1.21125E+00  1.17829E+00
   1.14927E+00  1.12421E+00  1.10309E+00  1.08587E+00  1.07248E+00  1.06286E+00  1.05690E+00  1.05449E+00  1.05545E+00  1.05962E+00
   1.06679E+00  1.07671E+00  1.08910E+00  1.10363E+00  1.11991E+00  1.13751E+00  1.15596E+00  1.17477E+00  1.19340E+00  1.21130E+00
   1.22791E+00  1.24269E+00  1.25515E+00  1.26486E+00  1.27141E+00  1.27451E+00  1.27394E+00  1.26962E+00  1.26154E+00  1.24981E+00
   1.23463E+00  1.21627E+00  1.19510E+00  1.17153E+00  1.14603E+00  1.11904E+00  1.09105E+00  1.06250E+00  1.03382E+00  1.00540E+00
   9.77589E-01  9.50655E-01  9.24829E-01  9.00286E-01  8.77155E-01  8.55519E-01  8.35412E-01  8.16832E-01  7.99746E-01  7.84107E-01
   7.69853E-01  7.56907E-01  7.45181E-01  7.34580E-01  7.25015E-01  7.16402E-01  7.08660E-01  7.01711E-01  6.95476E-01  6.89885E-01
   6.84876E-01  6.80399E-01  6.76404E-01  6.72843E-01  6.69671E-01  6.66850E-01  6.64350E-01  6.62145E-01  6.60211E-01  6.58519E-01
   6.57045E-01  6.55772E-01  6.54686E-01  6.53776E-01  6.53025E-01  6.52418E-01  6.51942E-01  6.51590E-01  6.51356E-01  6.51232E-01
   6.51207E-01  6.51273E-01  6.51423E-01  6.51654E-01  6.51964E-01  6.52348E-01  6.52796E-01  6.53304E-01  6.53870E-01  6.54492E-01
   6.55170E-01  6.55898E-01  6.56670E-01  6.57483E-01  6.58339E-01  6.59236E-01  6.60174E-01  6.61146E-01  6.62149E-01  6.63182E-01
   6.64247E-01  6.65344E-01  6.66470E-01  6.67620E-01  6.68793E-01  6.69990E-01  6.71212E-01  6.72458E-01  6.73726E-01  6.75011E-01
   6.76314E-01  6.77636E-01  6.78979E-01  6.80341E-01  6.81718E-01  6.83108E-01  6.84514E-01  6.85937E-01
 NY background values follow
    -2.994E-01   -2.975E-01   -2.956E-01   -2.937E-01   -2.917E-01   -2.898E-01   -2.879E-01   -2.860E-01   -2.840E-01   -2.821E-01
    -2.802E-01   -2.783E-01   -2.763E-01   -2.744E-01   -2.725E-01   -2.706E-01   -2.686E-01   -2.667E-01   -2.648E-01   -2.629E-01
    -2.610E-01   -2.590E-01   -2.571E-01   -2.552E-01   -2.533E-01   -2.513E-01   -2.494E-01   -2.475E-01   -2.456E-01   -2.436E-01
    -2.417E-01   -2.398E-01   -2.379E-01   -2.359E-01   -2.340E-01   -2.321E-01   -2.302E-01   -2.282E-01   -2.263E-01   -2.244E-01
    -2.225E-01   -2.206E-01   -2.186E-01   -2.167E-01   -2.148E-01   -2.129E-01   -2.109E-01   -2.090E-01   -2.071E-01   -2.052E-01
    -2.032E-01   -2.013E-01   -1.994E-01   -1.975E-01   -1.955E-01   -1.936E-01   -1.917E-01   -1.898E-01   -1.879E-01   -1.859E-01
    -1.840E-01   -1.821E-01   -1.802E-01   -1.782E-01   -1.763E-01   -1.744E-01   -1.725E-01   -1.705E-01   -1.686E-01   -1.667E-01
    -1.648E-01   -1.628E-01   -1.609E-01   -1.590E-01   -1.571E-01   -1.551E-01   -1.532E-01   -1.513E-01   -1.494E-01   -1.475E-01
    -1.455E-01   -1.436E-01   -1.417E-01   -1.398E-01   -1.378E-01   -1.359E-01   -1.340E-01   -1.321E-01   -1.301E-01   -1.282E-01
    -1.263E-01   -1.244E-01   -1.224E-01   -1.205E-01   -1.186E-01   -1.167E-01   -1.147E-01   -1.128E-01   -1.109E-01   -1.090E-01
    -1.071E-01   -1.051E-01   -1.032E-01   -1.013E-01   -9.936E-02   -9.743E-02   -9.551E-02   -9.359E-02   -9.166E-02   -8.974E-02
    -8.782E-02   -8.589E-02   -8.397E-02   -8.204E-02   -8.012E-02   -7.820E-02   -7.627E-02   -7.435E-02   -7.242E-02   -7.050E-02
    -6.858E-02   -6.665E-02   -6.473E-02   -6.281E-02   -6.088E-02   -5.896E-02   -5.703E-02   -5.511E-02   -5.319E-02   -5.126E-02
    -4.934E-02   -4.742E-02   -4.549E-02   -4.357E-02   -4.164E-02   -3.972E-02   -3.780E-02   -3.587E-02   -3.395E-02   -3.203E-02
    -3.010E-02   -2.818E-02   -2.625E-02   -2.433E-02   -2.241E-02   -2.048E-02   -1.856E-02   -1.664E-02   -1.471E-02   -1.279E-02
    -1.086E-02   -8.941E-03   -7.017E-03   -5.094E-03   -3.170E-03   -1.246E-03    6.777E-04    2.601E-03    4.525E-03    6.449E-03
     8.373E-03    1.030E-02    1.222E-02    1.414E-02    1.607E-02    1.799E-02    1.992E-02    2.184E-02    2.376E-02    2.569E-02
     2.761E-02    2.953E-02    3.146E-02    3.338E-02    3.531E-02    3.723E-02    3.915E-02    4.108E-02    4.300E-02    4.492E-02
     4.685E-02    4.877E-02    5.070E-02    5.262E-02    5.454E-02    5.647E-02    5.839E-02    6.031E-02    6.224E-02    6.416E-02
     6.609E-02    6.801E-02    6.993E-02    7.186E-02    7.378E-02    7.570E-02    7.763E-02    7.955E-02    8.148E-02    8.340E-02
     8.532E-02    8.725E-02    8.917E-02    9.109E-02    9.302E-02    9.494E-02    9.687E-02    9.879E-02    1.007E-01    1.026E-01
     1.046E-01    1.065E-01    1.084E-01    1.103E-01    1.123E-01    1.142E-01    1.161E-01    1.180E-01    1.200E-01    1.219E-01
     1.238E-01    1.257E-01    1.276E-01    1.296E-01    1.315E-01    1.334E-01    1.353E-01    1.373E-01    1.392E-01    1.411E-01
     1.430E-01    1.450E-01    1.469E-01    1.488E-01    1.507E-01    1.527E-01    1.546E-01    1.565E-01    1.584E-01    1.603E-01
     1.623E-01    1.642E-01    1.661E-01    1.680E-01    1.700E-01    1.719E-01    1.738E-01    1.757E-01    1.777E-01    1.796E-01
     1.815E-01    1.834E-01    1.854E-01    1.873E-01    1.892E-01    1.911E-01    1.931E-01    1.950E-01    1.969E-01    1.988E-01
     2.007E-01    2.027E-01    2.046E-01    2.065E-01    2.084E-01    2.104E-01    2.123E-01    2.142E-01    2.161E-01    2.181E-01
     2.200E-01    2.219E-01    2.238E-01    2.258E-01    2.277E-01    2.296E-01    2.315E-01    2.334E-01    2.354E-01    2.373E-01
     2.392E-01    2.411E-01    2.431E-01    2.450E-01    2.469E-01    2.488E-01    2.508E-01    2.527E-01    2.546E-01    2.565E-01
     2.585E-01    2.604E-01    2.623E-01    2.642E-01    2.662E-01    2.681E-01    2.700E-01    2.719E-01    2.738E-01    2.758E-01
     2.777E-01    2.796E-01    2.815E-01    2.835E-01    2.854E-01    2.873E-01    2.892E-01    2.912E-01    2.931E-01    2.950E-01
     2.969E-01    2.989E-01    3.008E-01    3.027E-01    3.046E-01    3.065E-01    3.085E-01    3.104E-01    3.123E-01    3.142E-01
     3.162E-01    3.181E-01    3.200E-01    3.219E-01    3.239E-01    3.258E-01    3.277E-01    3.296E-01    3.316E-01    3.335E-01
     3.354E-01    3.373E-01    3.392E-01    3.412E-01    3.431E-01    3.450E-01    3.469E-01    3.489E-01    3.508E-01    3.527E-01
     3.546E-01    3.566E-01    3.585E-01    3.604E-01    3.623E-01    3.643E-01    3.662E-01    3.681E-01    3.700E-01    3.720E-01
     3.739E-01    3.758E-01    3.777E-01    3.796E-01    3.816E-01    3.835E-01    3.854E-01    3.873E-01    3.893E-01    3.912E-01
     3.931E-01    3.950E-01    3.970E-01    3.989E-01    4.008E-01    4.027E-01    4.047E-01    4.066E-01    4.085E-01    4.104E-01
     4.123E-01    4.143E-01    4.162E-01    4.181E-01    4.200E-01    4.220E-01    4.239E-01    4.258E-01    4.277E-01    4.297E-01
     4.316E-01    4.335E-01    4.354E-01    4.374E-01    4.393E-01    4.412E-01    4.431E-01    4.450E-01    4.470E-01    4.489E-01
     4.508E-01    4.527E-01    4.547E-01    4.566E-01    4.585E-01    4.604E-01    4.624E-01    4.643E-01    4.662E-01    4.681E-01
     4.701E-01    4.720E-01    4.739E-01    4.758E-01    4.777E-01    4.797E-01    4.816E-01    4.835E-01    4.854E-01    4.874E-01
     4.893E-01    4.912E-01    4.931E-01    4.951E-01    4.970E-01    4.989E-01    5.008E-01    5.028E-01    5.047E-01    5.066E-01
     5.085E-01    5.104E-01    5.124E-01    5.143E-01    5.162E-01    5.181E-01    5.201E-01    5.220E-01    5.239E-01    5.258E-01
     5.278E-01    5.297E-01    5.316E-01    5.335E-01    5.355E-01    5.374E-01    5.393E-01    5.412E-01    5.431E-01    5.451E-01
     5.470E-01    5.489E-01    5.508E-01    5.528E-01    5.547E-01    5.566E-01    5.585E-01    5.605E-01    5.624E-01    5.643E-01
     5.662E-01    5.681E-01    5.701E-01    5.720E-01    5.739E-01    5.758E-01    5.778E-01    5.797E-01    5.816E-01    5.835E-01
     5.855E-01    5.874E-01    5.893E-01    5.912E-01    5.932E-01    5.951E-01    5.970E-01    5.989E-01    6.008E-01    6.028E-01
     6.047E-01    6.066E-01    6.085E-01    6.105E-01    6.124E-01    6.143E-01    6.162E-01    6.182E-01    6.201E-01    6.220E-01
     6.239E-01    6.259E-01    6.278E-01    6.297E-01    6.316E-01    6.335E-01    6.355E-01    6.374E-01    6.393E-01    6.412E-01
     6.432E-01    6.451E-01    6.470E-01    6.489E-01    6.509E-01    6.528E-01    6.547E-01    6.566E-01
 Asp      Conc. = 2.36E+00
