 LCModel (Version 6.3-1L) Copyright: S.W. Provencher.          Ref.: Magn. Reson. Med. 30:672-679 (1993).                
 Slice#1 Row#14 Col#6  PD_24_press_1_raw_act
 36 lines in following concentration table = NCONC+1
    Conc.  %SD /Cr+PCr  Metabolite                                         
   27.483  89%   0.262 Ala                                                 
   15.512  82%   0.148 Asp                                                 
   41.354  67%   0.394 Cr                                                  
   63.586  45%   0.606 PCr                                                 
    6.514 116% 6.2E-02 GABA                                                
    6.614 116% 6.3E-02 Glc                                                 
   81.534  57%   0.777 Gln                                                 
    0.000 999%   0.000 Glu                                                 
   19.572  30%   0.187 GPC                                                 
    0.000 999%   0.000 PCh                                                 
   24.366  76%   0.232 GSH                                                 
    0.000 999%   0.000 Ins                                                 
   10.335 244% 9.8E-02 Lac                                                 
   74.864  24%   0.713 NAA                                                 
    0.000 999%   0.000 NAAG                                                
    0.000 999%   0.000 Scyllo                                              
    3.182 394% 3.0E-02 Tau                                                 
    0.000 999%   0.000 -CrCH2                                              
   19.572  30%   0.187 GPC+PCh                                             
   74.864  24%   0.713 NAA+NAAG                                            
  104.939  17%   1.000 Cr+PCr                                              
   81.534  57%   0.777 Glu+Gln                                             
    0.000 999%   0.000 Lip13a                                              
   66.793  66%   0.636 Lip13b                                              
   21.983 123%   0.209 Lip09                                               
   29.280 161%   0.279 MM09                                                
   10.023 185% 9.6E-02 Lip20                                               
   30.577 257%   0.291 MM20                                                
    9.449 209% 9.0E-02 MM12                                                
    0.000 999%   0.000 MM14                                                
   31.093 133%   0.296 MM17                                                
   66.793  66%   0.636 Lip13a+Lip13b                                       
   76.242  63%   0.727 MM14+Lip13a+Lip13b+MM12                             
   51.264  97%   0.489 MM09+Lip09                                          
   40.600 197%   0.387 MM20+Lip20                                          
   6 lines in following misc. output table
  FWHM = 0.031 ppm    S/N =   2                                            
  Data shift =-0.023 ppm                                                   
  Ph: 115 deg      -1.8 deg/ppm                                            
  alphaB,S = 6.6E-01,   3.2E+00                                            
   14 spline knots.   Ns = 5(1)                                            
  ( 4) 2 infls.   ( 6) 3 extrs.                                            
  498 points on ppm-axis = NY
      4.000000     3.992357     3.984714     3.977070     3.969427     3.961784     3.954141     3.946497     3.938854     3.931211
      3.923568     3.915925     3.908281     3.900638     3.892995     3.885352     3.877708     3.870065     3.862422     3.854779
      3.847136     3.839492     3.831849     3.824206     3.816563     3.808919     3.801276     3.793633     3.785990     3.778347
      3.770703     3.763060     3.755417     3.747774     3.740130     3.732487     3.724844     3.717201     3.709558     3.701914
      3.694271     3.686628     3.678985     3.671341     3.663698     3.656055     3.648412     3.640769     3.633125     3.625482
      3.617839     3.610196     3.602552     3.594909     3.587266     3.579623     3.571980     3.564336     3.556693     3.549050
      3.541407     3.533763     3.526120     3.518477     3.510834     3.503191     3.495547     3.487904     3.480261     3.472618
      3.464974     3.457331     3.449688     3.442045     3.434402     3.426758     3.419115     3.411472     3.403829     3.396185
      3.388542     3.380899     3.373256     3.365613     3.357969     3.350326     3.342683     3.335040     3.327396     3.319753
      3.312110     3.304467     3.296824     3.289180     3.281537     3.273894     3.266251     3.258607     3.250964     3.243321
      3.235678     3.228034     3.220391     3.212748     3.205105     3.197462     3.189818     3.182175     3.174532     3.166889
      3.159245     3.151602     3.143959     3.136316     3.128673     3.121029     3.113386     3.105743     3.098100     3.090456
      3.082813     3.075170     3.067527     3.059884     3.052240     3.044597     3.036954     3.029311     3.021667     3.014024
      3.006381     2.998738     2.991095     2.983451     2.975808     2.968165     2.960522     2.952878     2.945235     2.937592
      2.929949     2.922306     2.914662     2.907019     2.899376     2.891733     2.884089     2.876446     2.868803     2.861160
      2.853517     2.845873     2.838230     2.830587     2.822944     2.815300     2.807657     2.800014     2.792371     2.784728
      2.777084     2.769441     2.761798     2.754155     2.746511     2.738868     2.731225     2.723582     2.715939     2.708295
      2.700652     2.693009     2.685366     2.677722     2.670079     2.662436     2.654793     2.647150     2.639506     2.631863
      2.624220     2.616577     2.608933     2.601290     2.593647     2.586004     2.578361     2.570717     2.563074     2.555431
      2.547788     2.540144     2.532501     2.524858     2.517215     2.509572     2.501928     2.494285     2.486642     2.478999
      2.471355     2.463712     2.456069     2.448426     2.440783     2.433139     2.425496     2.417853     2.410210     2.402566
      2.394923     2.387280     2.379637     2.371994     2.364350     2.356707     2.349064     2.341421     2.333777     2.326134
      2.318491     2.310848     2.303205     2.295561     2.287918     2.280275     2.272632     2.264988     2.257345     2.249702
      2.242059     2.234416     2.226772     2.219129     2.211486     2.203843     2.196199     2.188556     2.180913     2.173270
      2.165627     2.157983     2.150340     2.142697     2.135054     2.127410     2.119767     2.112124     2.104481     2.096838
      2.089194     2.081551     2.073908     2.066265     2.058621     2.050978     2.043335     2.035692     2.028049     2.020405
      2.012762     2.005119     1.997476     1.989833     1.982190     1.974546     1.966903     1.959260     1.951617     1.943974
      1.936331     1.928688     1.921045     1.913402     1.905759     1.898115     1.890472     1.882829     1.875186     1.867543
      1.859900     1.852257     1.844614     1.836971     1.829327     1.821684     1.814041     1.806398     1.798755     1.791112
      1.783469     1.775826     1.768183     1.760540     1.752896     1.745253     1.737610     1.729967     1.722324     1.714681
      1.707038     1.699395     1.691752     1.684108     1.676465     1.668822     1.661179     1.653536     1.645893     1.638250
      1.630607     1.622964     1.615321     1.607677     1.600034     1.592391     1.584748     1.577105     1.569462     1.561819
      1.554176     1.546533     1.538890     1.531246     1.523603     1.515960     1.508317     1.500674     1.493031     1.485388
      1.477745     1.470102     1.462458     1.454815     1.447172     1.439529     1.431886     1.424243     1.416600     1.408957
      1.401314     1.393671     1.386027     1.378384     1.370741     1.363098     1.355455     1.347812     1.340169     1.332526
      1.324883     1.317240     1.309596     1.301953     1.294310     1.286667     1.279024     1.271381     1.263738     1.256095
      1.248452     1.240808     1.233165     1.225522     1.217879     1.210236     1.202593     1.194950     1.187307     1.179664
      1.172021     1.164377     1.156734     1.149091     1.141448     1.133805     1.126162     1.118519     1.110876     1.103233
      1.095590     1.087946     1.080303     1.072660     1.065017     1.057374     1.049731     1.042088     1.034445     1.026802
      1.019158     1.011515     1.003872     0.996229     0.988586     0.980943     0.973300     0.965657     0.958014     0.950371
      0.942727     0.935084     0.927441     0.919798     0.912155     0.904512     0.896869     0.889226     0.881583     0.873940
      0.866296     0.858653     0.851010     0.843367     0.835724     0.828081     0.820438     0.812795     0.805152     0.797508
      0.789865     0.782222     0.774579     0.766936     0.759293     0.751650     0.744007     0.736364     0.728721     0.721077
      0.713434     0.705791     0.698148     0.690505     0.682862     0.675219     0.667576     0.659933     0.652290     0.644646
      0.637003     0.629360     0.621717     0.614074     0.606431     0.598788     0.591145     0.583502     0.575858     0.568215
      0.560572     0.552929     0.545286     0.537643     0.530000     0.522357     0.514714     0.507071     0.499427     0.491784
      0.484141     0.476498     0.468855     0.461212     0.453569     0.445925     0.438282     0.430639     0.422996     0.415353
      0.407710     0.400067     0.392424     0.384780     0.377137     0.369494     0.361851     0.354208     0.346565     0.338922
      0.331278     0.323635     0.315992     0.308349     0.300706     0.293063     0.285420     0.277777     0.270133     0.262490
      0.254847     0.247204     0.239561     0.231918     0.224275     0.216631     0.208988     0.201345
 NY phased data points follow
   4.08533E+01  3.96925E+01  3.56268E+01  3.52673E+01  3.41135E+01  3.49635E+01  3.56425E+01  3.62271E+01  3.33475E+01  3.88879E+01
   3.57488E+01  3.65404E+01  3.40869E+01  3.59843E+01  3.51611E+01  3.53653E+01  3.21443E+01  3.12195E+01  3.05994E+01  3.23417E+01
   2.87694E+01  2.95561E+01  2.84660E+01  2.83390E+01  3.06797E+01  3.04775E+01  2.71904E+01  2.82327E+01  2.87539E+01  2.99822E+01
   2.81214E+01  3.06715E+01  2.76873E+01  2.72693E+01  2.63681E+01  2.81641E+01  2.51683E+01  2.57945E+01  2.54402E+01  2.41150E+01
   2.54771E+01  2.41996E+01  2.61553E+01  2.24855E+01  2.19697E+01  2.48444E+01  2.38260E+01  2.29727E+01  2.17835E+01  2.30355E+01
   2.42545E+01  2.41647E+01  2.20208E+01  2.37384E+01  2.24382E+01  2.02794E+01  2.44408E+01  2.11822E+01  2.06699E+01  2.19922E+01
   2.23684E+01  1.98337E+01  1.80752E+01  1.91566E+01  2.22655E+01  1.85633E+01  1.95092E+01  2.04528E+01  1.88815E+01  1.93538E+01
   2.04394E+01  2.30739E+01  1.95940E+01  2.19252E+01  1.89673E+01  1.88556E+01  1.69540E+01  1.93365E+01  2.05248E+01  1.76063E+01
   1.83982E+01  2.09222E+01  1.59252E+01  2.14743E+01  1.63833E+01  1.83628E+01  1.62517E+01  1.72469E+01  1.45920E+01  1.46787E+01
   1.62522E+01  1.53349E+01  1.79887E+01  1.89313E+01  1.86282E+01  1.66166E+01  1.84977E+01  1.37256E+01  1.40932E+01  1.62935E+01
   1.62784E+01  1.65765E+01  1.83187E+01  1.96237E+01  2.01715E+01  1.81230E+01  1.74064E+01  1.77295E+01  1.62690E+01  1.73336E+01
   1.54936E+01  1.40924E+01  1.58985E+01  1.70549E+01  1.38821E+01  1.55311E+01  1.52255E+01  1.46291E+01  1.16403E+01  1.51197E+01
   1.30060E+01  1.37040E+01  1.37155E+01  1.28635E+01  1.48065E+01  1.36469E+01  1.67996E+01  1.78247E+01  1.81933E+01  1.95829E+01
   1.68133E+01  1.27703E+01  1.52493E+01  1.46864E+01  1.28439E+01  1.43206E+01  1.30033E+01  1.23939E+01  1.30284E+01  1.31810E+01
   1.16355E+01  1.36783E+01  1.22909E+01  1.07099E+01  1.03203E+01  1.65214E+01  1.23588E+01  1.40656E+01  1.28729E+01  1.03423E+01
   1.22409E+01  1.17902E+01  1.17894E+01  1.09996E+01  1.19782E+01  1.09347E+01  1.16051E+01  1.34273E+01  1.23740E+01  1.29311E+01
   1.11688E+01  1.11812E+01  1.03640E+01  1.20995E+01  1.21948E+01  1.18028E+01  1.30518E+01  1.12125E+01  1.46174E+01  1.37149E+01
   1.26115E+01  1.33432E+01  1.29622E+01  1.12565E+01  9.59978E+00  1.16116E+01  8.91286E+00  9.50608E+00  1.05230E+01  1.18448E+01
   1.21939E+01  1.17532E+01  9.50448E+00  7.84422E+00  1.05125E+01  1.23674E+01  1.17155E+01  1.15849E+01  1.14852E+01  1.23760E+01
   1.22324E+01  1.21224E+01  1.22318E+01  1.02297E+01  8.73285E+00  1.08139E+01  1.15587E+01  9.84094E+00  1.09106E+01  9.23343E+00
   1.05170E+01  1.20502E+01  1.01928E+01  1.15531E+01  8.14048E+00  1.05883E+01  1.07966E+01  1.06455E+01  1.04511E+01  9.69077E+00
   8.52578E+00  8.76979E+00  6.66721E+00  1.08091E+01  1.20611E+01  1.06243E+01  8.66495E+00  1.15253E+01  1.10479E+01  1.02739E+01
   9.14079E+00  1.08169E+01  9.62976E+00  8.36150E+00  1.04330E+01  8.28316E+00  8.84728E+00  8.25437E+00  7.70490E+00  7.32757E+00
   8.08016E+00  9.91979E+00  8.52275E+00  8.79535E+00  6.46467E+00  8.58279E+00  8.97437E+00  8.43194E+00  6.62345E+00  7.44918E+00
   1.14436E+01  1.02809E+01  9.81304E+00  8.18309E+00  9.54836E+00  1.04191E+01  8.48255E+00  8.57074E+00  7.84660E+00  1.02510E+01
   9.16920E+00  6.88732E+00  1.07498E+01  8.84862E+00  8.29025E+00  6.10147E+00  8.48864E+00  7.57466E+00  5.27846E+00  8.86126E+00
   1.19498E+01  1.28242E+01  1.22711E+01  1.14172E+01  1.00325E+01  6.70877E+00  7.25505E+00  7.95683E+00  7.03528E+00  9.15071E+00
   7.57399E+00  7.27032E+00  6.31644E+00  7.97577E+00  5.01810E+00  8.58226E+00  6.98947E+00  9.11560E+00  7.36868E+00  1.00018E+01
   7.58558E+00  6.05436E+00  7.64160E+00  8.34048E+00  6.49788E+00  5.46448E+00  5.83819E+00  1.00434E+01  4.69692E+00  1.11143E+01
   7.51567E+00  8.21684E+00  6.05224E+00  5.98053E+00  8.14427E+00  8.09183E+00  8.04035E+00  8.04963E+00  5.38590E+00  9.01608E+00
   6.10413E+00  6.06661E+00  6.74330E+00  9.87830E+00  7.60832E+00  5.47933E+00  6.99992E+00  8.10583E+00  1.01269E+01  9.72312E+00
   8.57803E+00  5.45887E+00  5.86086E+00  7.79478E+00  8.74571E+00  6.15404E+00  4.31882E+00  5.51128E+00  6.43229E+00  8.23700E+00
   7.31016E+00  6.81467E+00  4.55607E+00  7.00904E+00  5.71042E+00  8.04119E+00  5.83450E+00  3.35538E+00  6.41270E+00  3.92975E+00
   7.03223E+00  3.43014E+00  5.75710E+00  7.13906E+00  4.91339E+00  5.29466E+00  6.40012E+00  8.96052E+00  1.01470E+01  6.79573E+00
   7.51823E+00  3.68637E+00  5.37010E+00  6.83864E+00  3.55255E+00  6.53871E+00  5.05667E+00  8.29436E+00  5.98016E+00  5.63425E+00
   6.88935E+00  5.81577E+00  7.28977E+00  5.55554E+00  7.28675E+00  6.57605E+00  5.91160E+00  9.20504E+00  6.98504E+00  7.41417E+00
   7.73830E+00  6.09780E+00  6.96988E+00  5.97317E+00  5.26075E+00  4.88449E+00  3.92260E+00  6.68705E+00  4.07839E+00  6.48181E+00
   9.03457E+00  7.29011E+00  7.03811E+00  6.90151E+00  5.62832E+00  6.99650E+00  7.70370E+00  7.73168E+00  6.18416E+00  4.91478E+00
   6.24762E+00  1.99179E+00  6.88767E+00  5.72863E+00  4.20931E+00  5.71344E+00  5.36326E+00  5.97847E+00  5.64533E+00  5.88503E+00
   2.01947E+00  6.03807E+00  7.30043E+00  4.70789E+00  7.27305E+00  4.51544E+00  5.32423E+00  5.80295E+00  7.70576E+00  5.19347E+00
   6.16987E+00  4.74269E+00  4.82269E+00  5.71844E+00  7.52006E+00  9.08217E+00  4.04005E+00  5.16890E+00  5.79675E+00  5.14969E+00
   2.70960E+00  6.83309E+00  6.85179E+00  6.82793E+00  2.43029E+00  4.81138E+00  6.43080E+00  5.93789E+00  3.78976E+00  6.20752E+00
   6.58453E+00  5.66832E+00  4.38596E+00  5.14902E+00  6.87618E+00  4.26106E+00  5.45587E+00  3.60470E+00  3.88765E+00  6.77522E+00
   5.13911E+00  5.25857E+00  5.26687E+00  6.78629E+00  4.08870E+00  3.66865E+00  6.07830E+00  4.72724E+00  3.94450E+00  4.06964E+00
   2.42789E+00  6.07055E+00  4.45783E+00  4.58845E+00  6.21137E+00  3.30304E+00  4.26894E+00  6.05399E+00  4.12658E+00  4.22276E+00
   6.52843E+00  4.15580E+00  3.61267E+00  5.75642E+00  4.12973E+00  3.13749E+00  3.18982E+00  4.12038E+00  4.72717E+00  4.21538E+00
   4.43413E+00  5.80990E+00  5.05205E+00  3.70789E+00  1.39429E+00  4.02447E+00  4.81717E+00  2.57352E+00  5.61488E+00  5.00001E+00
   6.34592E+00  4.53111E+00  4.90746E+00  4.36070E+00  4.68098E+00  4.76378E+00  4.42869E+00  3.46138E+00  4.21746E+00  4.77134E+00
   3.48325E+00  4.46508E+00  2.57220E+00  3.34416E+00  1.93028E+00  2.81304E+00  3.59955E+00  2.19481E+00  6.70314E+00  9.60394E-01
   1.63222E+00  5.33755E+00  1.53542E+00  3.85223E+00  4.13389E+00  9.37466E-01  4.26391E+00  4.98334E+00
 NY points of the fit to the data follow
   3.38464E+01  3.36580E+01  3.34705E+01  3.32547E+01  3.29889E+01  3.28600E+01  3.27174E+01  3.28735E+01  3.36473E+01  3.43890E+01
   3.49608E+01  3.51899E+01  3.44601E+01  3.33833E+01  3.26423E+01  3.16232E+01  3.09290E+01  3.06953E+01  3.03328E+01  3.00175E+01
   2.97713E+01  2.96440E+01  2.95397E+01  2.94012E+01  2.92327E+01  2.88995E+01  2.85015E+01  2.81002E+01  2.79387E+01  2.81538E+01
   2.85115E+01  2.87215E+01  2.86153E+01  2.81197E+01  2.75690E+01  2.71381E+01  2.65532E+01  2.61797E+01  2.60432E+01  2.59721E+01
   2.58757E+01  2.57558E+01  2.55807E+01  2.53386E+01  2.51809E+01  2.50235E+01  2.47879E+01  2.45565E+01  2.43752E+01  2.41921E+01
   2.40162E+01  2.38945E+01  2.37512E+01  2.35430E+01  2.33297E+01  2.31474E+01  2.29590E+01  2.27673E+01  2.25715E+01  2.23825E+01
   2.22092E+01  2.20420E+01  2.18754E+01  2.17076E+01  2.15405E+01  2.13810E+01  2.12249E+01  2.10652E+01  2.09061E+01  2.07437E+01
   2.05779E+01  2.04213E+01  2.02724E+01  2.01272E+01  1.99994E+01  1.98763E+01  1.97453E+01  1.96031E+01  1.94442E+01  1.92724E+01
   1.91116E+01  1.89684E+01  1.88303E+01  1.86960E+01  1.85629E+01  1.84264E+01  1.82870E+01  1.81513E+01  1.80213E+01  1.78944E+01
   1.77707E+01  1.76514E+01  1.75301E+01  1.74026E+01  1.72724E+01  1.71441E+01  1.70183E+01  1.68614E+01  1.66426E+01  1.66134E+01
   1.66142E+01  1.70948E+01  1.83272E+01  1.93795E+01  1.97050E+01  1.91666E+01  1.76399E+01  1.63024E+01  1.60836E+01  1.58226E+01
   1.55502E+01  1.54166E+01  1.53118E+01  1.52180E+01  1.51269E+01  1.50397E+01  1.49555E+01  1.48759E+01  1.47922E+01  1.46947E+01
   1.45866E+01  1.44078E+01  1.41067E+01  1.40978E+01  1.42318E+01  1.50613E+01  1.72272E+01  1.93489E+01  2.02244E+01  1.96146E+01
   1.72874E+01  1.49228E+01  1.44256E+01  1.42088E+01  1.37344E+01  1.34390E+01  1.31493E+01  1.29028E+01  1.28328E+01  1.28711E+01
   1.29349E+01  1.30126E+01  1.30124E+01  1.29309E+01  1.28316E+01  1.27292E+01  1.26611E+01  1.25920E+01  1.25038E+01  1.24143E+01
   1.23277E+01  1.22572E+01  1.21862E+01  1.21132E+01  1.20517E+01  1.19999E+01  1.19593E+01  1.19182E+01  1.18703E+01  1.17922E+01
   1.16708E+01  1.15590E+01  1.14771E+01  1.14473E+01  1.14814E+01  1.15083E+01  1.14745E+01  1.14112E+01  1.13277E+01  1.12479E+01
   1.12035E+01  1.11523E+01  1.10988E+01  1.10421E+01  1.09786E+01  1.08845E+01  1.07899E+01  1.07414E+01  1.07319E+01  1.07410E+01
   1.07230E+01  1.06338E+01  1.05416E+01  1.05091E+01  1.04972E+01  1.04765E+01  1.03890E+01  1.03109E+01  1.03291E+01  1.04237E+01
   1.05549E+01  1.06524E+01  1.06020E+01  1.04436E+01  1.02513E+01  1.00346E+01  9.83035E+00  9.69479E+00  9.63610E+00  9.67525E+00
   9.86390E+00  1.01319E+01  1.03547E+01  1.04971E+01  1.05761E+01  1.05141E+01  1.02958E+01  1.00134E+01  9.59393E+00  9.02119E+00
   8.66944E+00  8.65929E+00  8.87083E+00  9.29177E+00  9.62734E+00  9.60185E+00  9.58502E+00  9.65298E+00  9.60953E+00  9.54203E+00
   9.50216E+00  9.46641E+00  9.44221E+00  9.43078E+00  9.41907E+00  9.39329E+00  9.34833E+00  9.27799E+00  9.20179E+00  9.11859E+00
   9.00302E+00  8.89248E+00  8.81206E+00  8.81021E+00  8.82215E+00  8.73943E+00  8.65422E+00  8.66749E+00  8.78530E+00  9.00784E+00
   9.20266E+00  9.13611E+00  8.95211E+00  8.70934E+00  8.37775E+00  8.12603E+00  8.11779E+00  8.19008E+00  8.17507E+00  8.23307E+00
   8.35624E+00  8.47299E+00  8.56658E+00  8.61107E+00  8.55106E+00  8.32328E+00  8.15604E+00  8.19950E+00  8.37608E+00  9.52977E+00
   1.13208E+01  1.24155E+01  1.25162E+01  1.13788E+01  9.34570E+00  8.35715E+00  8.37626E+00  8.02978E+00  7.86965E+00  7.80219E+00
   7.75342E+00  7.71172E+00  7.67991E+00  7.66108E+00  7.64307E+00  7.62438E+00  7.61061E+00  7.59180E+00  7.56644E+00  7.53582E+00
   7.49858E+00  7.46447E+00  7.43590E+00  7.40652E+00  7.38143E+00  7.36505E+00  7.35194E+00  7.34027E+00  7.32856E+00  7.31436E+00
   7.29950E+00  7.28607E+00  7.27193E+00  7.25602E+00  7.24091E+00  7.22699E+00  7.21246E+00  7.19874E+00  7.18618E+00  7.17261E+00
   7.15842E+00  7.14328E+00  7.12692E+00  7.10924E+00  7.09027E+00  7.07011E+00  7.04869E+00  7.02604E+00  7.00225E+00  6.97741E+00
   6.95179E+00  6.92573E+00  6.89933E+00  6.87289E+00  6.84675E+00  6.82124E+00  6.79665E+00  6.77320E+00  6.75109E+00  6.73044E+00
   6.71089E+00  6.68985E+00  6.67066E+00  6.70361E+00  6.75458E+00  6.86677E+00  7.04255E+00  7.05318E+00  6.83336E+00  6.47920E+00
   6.02850E+00  5.75402E+00  5.75900E+00  5.71603E+00  5.80563E+00  6.14095E+00  6.50618E+00  6.80678E+00  6.87088E+00  6.65934E+00
   6.51714E+00  6.48911E+00  6.42482E+00  6.40700E+00  6.42188E+00  6.47445E+00  6.57549E+00  6.64140E+00  6.63289E+00  6.58204E+00
   6.49901E+00  6.48444E+00  6.57696E+00  6.67101E+00  6.79744E+00  6.96727E+00  7.09785E+00  7.15247E+00  7.06659E+00  6.87532E+00
   6.71840E+00  6.57150E+00  6.41797E+00  6.28411E+00  6.17055E+00  6.07726E+00  6.00318E+00  5.94595E+00  5.90246E+00  5.86943E+00
   5.84394E+00  5.82355E+00  5.80648E+00  5.79146E+00  5.77771E+00  5.76480E+00  5.75251E+00  5.74077E+00  5.72957E+00  5.71896E+00
   5.70899E+00  5.69977E+00  5.69140E+00  5.68396E+00  5.67753E+00  5.67215E+00  5.66790E+00  5.66485E+00  5.66300E+00  5.66235E+00
   5.66282E+00  5.66432E+00  5.66670E+00  5.66979E+00  5.67333E+00  5.67702E+00  5.68048E+00  5.68333E+00  5.68517E+00  5.68559E+00
   5.68416E+00  5.68048E+00  5.67419E+00  5.66502E+00  5.65277E+00  5.63733E+00  5.61866E+00  5.59683E+00  5.57199E+00  5.54440E+00
   5.51441E+00  5.48238E+00  5.44871E+00  5.41381E+00  5.37810E+00  5.34202E+00  5.30593E+00  5.27016E+00  5.23497E+00  5.20056E+00
   5.16712E+00  5.13478E+00  5.10359E+00  5.07358E+00  5.04470E+00  5.01693E+00  4.99021E+00  4.96448E+00  4.93965E+00  4.91561E+00
   4.89226E+00  4.86953E+00  4.84734E+00  4.82564E+00  4.80433E+00  4.78335E+00  4.76263E+00  4.74215E+00  4.72187E+00  4.70175E+00
   4.68176E+00  4.66184E+00  4.64199E+00  4.62220E+00  4.60246E+00  4.58275E+00  4.56304E+00  4.54331E+00  4.52358E+00  4.50383E+00
   4.48407E+00  4.46428E+00  4.44444E+00  4.42455E+00  4.40462E+00  4.38466E+00  4.36467E+00  4.34462E+00  4.32451E+00  4.30434E+00
   4.28414E+00  4.26391E+00  4.24363E+00  4.22329E+00  4.20290E+00  4.18246E+00  4.16200E+00  4.14150E+00  4.12096E+00  4.10036E+00
   4.07971E+00  4.05904E+00  4.03835E+00  4.01762E+00  3.99686E+00  3.97604E+00  3.95520E+00  3.93434E+00  3.91347E+00  3.89257E+00
   3.87163E+00  3.85066E+00  3.82968E+00  3.80870E+00  3.78771E+00  3.76670E+00  3.74566E+00  3.72461E+00  3.70356E+00  3.68252E+00
   3.66149E+00  3.64043E+00  3.61936E+00  3.59830E+00  3.57727E+00  3.55625E+00  3.53524E+00  3.51422E+00
 NY background values follow
     3.378E+01    3.357E+01    3.337E+01    3.316E+01    3.296E+01    3.275E+01    3.254E+01    3.234E+01    3.213E+01    3.193E+01
     3.172E+01    3.151E+01    3.131E+01    3.110E+01    3.090E+01    3.069E+01    3.049E+01    3.029E+01    3.008E+01    2.988E+01
     2.968E+01    2.947E+01    2.927E+01    2.907E+01    2.887E+01    2.867E+01    2.847E+01    2.827E+01    2.807E+01    2.787E+01
     2.767E+01    2.747E+01    2.728E+01    2.708E+01    2.689E+01    2.669E+01    2.650E+01    2.631E+01    2.611E+01    2.592E+01
     2.573E+01    2.554E+01    2.536E+01    2.517E+01    2.498E+01    2.480E+01    2.461E+01    2.443E+01    2.425E+01    2.407E+01
     2.389E+01    2.371E+01    2.353E+01    2.336E+01    2.318E+01    2.301E+01    2.283E+01    2.266E+01    2.249E+01    2.232E+01
     2.216E+01    2.199E+01    2.182E+01    2.166E+01    2.150E+01    2.133E+01    2.117E+01    2.101E+01    2.086E+01    2.070E+01
     2.054E+01    2.039E+01    2.024E+01    2.008E+01    1.993E+01    1.978E+01    1.964E+01    1.949E+01    1.935E+01    1.920E+01
     1.906E+01    1.892E+01    1.878E+01    1.864E+01    1.850E+01    1.837E+01    1.823E+01    1.810E+01    1.797E+01    1.784E+01
     1.771E+01    1.759E+01    1.746E+01    1.734E+01    1.721E+01    1.709E+01    1.697E+01    1.685E+01    1.674E+01    1.662E+01
     1.651E+01    1.640E+01    1.628E+01    1.617E+01    1.607E+01    1.596E+01    1.585E+01    1.575E+01    1.564E+01    1.554E+01
     1.544E+01    1.534E+01    1.524E+01    1.514E+01    1.505E+01    1.495E+01    1.486E+01    1.477E+01    1.468E+01    1.459E+01
     1.450E+01    1.441E+01    1.432E+01    1.424E+01    1.415E+01    1.407E+01    1.399E+01    1.391E+01    1.383E+01    1.375E+01
     1.367E+01    1.359E+01    1.352E+01    1.344E+01    1.337E+01    1.330E+01    1.322E+01    1.315E+01    1.308E+01    1.301E+01
     1.295E+01    1.288E+01    1.281E+01    1.275E+01    1.268E+01    1.262E+01    1.256E+01    1.250E+01    1.244E+01    1.238E+01
     1.232E+01    1.226E+01    1.220E+01    1.214E+01    1.209E+01    1.203E+01    1.197E+01    1.192E+01    1.187E+01    1.181E+01
     1.176E+01    1.171E+01    1.166E+01    1.161E+01    1.155E+01    1.150E+01    1.146E+01    1.141E+01    1.136E+01    1.131E+01
     1.126E+01    1.122E+01    1.117E+01    1.112E+01    1.108E+01    1.103E+01    1.099E+01    1.094E+01    1.090E+01    1.085E+01
     1.081E+01    1.076E+01    1.072E+01    1.068E+01    1.063E+01    1.059E+01    1.055E+01    1.051E+01    1.047E+01    1.042E+01
     1.038E+01    1.034E+01    1.030E+01    1.026E+01    1.022E+01    1.018E+01    1.014E+01    1.010E+01    1.006E+01    1.002E+01
     9.979E+00    9.940E+00    9.901E+00    9.863E+00    9.824E+00    9.786E+00    9.748E+00    9.710E+00    9.672E+00    9.635E+00
     9.598E+00    9.561E+00    9.524E+00    9.487E+00    9.451E+00    9.415E+00    9.379E+00    9.343E+00    9.307E+00    9.272E+00
     9.236E+00    9.201E+00    9.166E+00    9.131E+00    9.097E+00    9.062E+00    9.028E+00    8.994E+00    8.960E+00    8.926E+00
     8.893E+00    8.859E+00    8.826E+00    8.793E+00    8.760E+00    8.728E+00    8.695E+00    8.663E+00    8.631E+00    8.599E+00
     8.567E+00    8.535E+00    8.504E+00    8.472E+00    8.441E+00    8.410E+00    8.379E+00    8.349E+00    8.318E+00    8.288E+00
     8.258E+00    8.228E+00    8.198E+00    8.169E+00    8.139E+00    8.110E+00    8.081E+00    8.052E+00    8.023E+00    7.995E+00
     7.966E+00    7.938E+00    7.910E+00    7.882E+00    7.855E+00    7.827E+00    7.800E+00    7.773E+00    7.746E+00    7.719E+00
     7.693E+00    7.666E+00    7.640E+00    7.614E+00    7.588E+00    7.563E+00    7.537E+00    7.512E+00    7.487E+00    7.462E+00
     7.437E+00    7.412E+00    7.388E+00    7.363E+00    7.339E+00    7.315E+00    7.292E+00    7.268E+00    7.244E+00    7.221E+00
     7.198E+00    7.175E+00    7.152E+00    7.130E+00    7.107E+00    7.085E+00    7.063E+00    7.041E+00    7.019E+00    6.997E+00
     6.975E+00    6.954E+00    6.933E+00    6.912E+00    6.891E+00    6.870E+00    6.849E+00    6.829E+00    6.809E+00    6.788E+00
     6.768E+00    6.748E+00    6.729E+00    6.709E+00    6.690E+00    6.670E+00    6.651E+00    6.632E+00    6.613E+00    6.595E+00
     6.576E+00    6.557E+00    6.539E+00    6.521E+00    6.503E+00    6.485E+00    6.467E+00    6.449E+00    6.432E+00    6.414E+00
     6.397E+00    6.379E+00    6.362E+00    6.345E+00    6.328E+00    6.312E+00    6.295E+00    6.278E+00    6.262E+00    6.245E+00
     6.229E+00    6.213E+00    6.197E+00    6.181E+00    6.165E+00    6.149E+00    6.133E+00    6.117E+00    6.102E+00    6.086E+00
     6.071E+00    6.055E+00    6.040E+00    6.025E+00    6.010E+00    5.994E+00    5.979E+00    5.964E+00    5.949E+00    5.935E+00
     5.920E+00    5.905E+00    5.890E+00    5.876E+00    5.861E+00    5.847E+00    5.832E+00    5.818E+00    5.803E+00    5.789E+00
     5.774E+00    5.760E+00    5.746E+00    5.731E+00    5.717E+00    5.703E+00    5.688E+00    5.674E+00    5.660E+00    5.646E+00
     5.631E+00    5.617E+00    5.603E+00    5.589E+00    5.574E+00    5.560E+00    5.546E+00    5.531E+00    5.517E+00    5.502E+00
     5.488E+00    5.473E+00    5.459E+00    5.444E+00    5.430E+00    5.415E+00    5.400E+00    5.386E+00    5.371E+00    5.356E+00
     5.341E+00    5.326E+00    5.311E+00    5.296E+00    5.280E+00    5.265E+00    5.250E+00    5.234E+00    5.219E+00    5.203E+00
     5.187E+00    5.171E+00    5.155E+00    5.139E+00    5.123E+00    5.107E+00    5.091E+00    5.074E+00    5.058E+00    5.042E+00
     5.025E+00    5.008E+00    4.991E+00    4.975E+00    4.958E+00    4.940E+00    4.923E+00    4.906E+00    4.889E+00    4.871E+00
     4.854E+00    4.836E+00    4.819E+00    4.801E+00    4.783E+00    4.765E+00    4.747E+00    4.729E+00    4.711E+00    4.693E+00
     4.674E+00    4.656E+00    4.638E+00    4.619E+00    4.600E+00    4.582E+00    4.563E+00    4.544E+00    4.525E+00    4.506E+00
     4.487E+00    4.467E+00    4.448E+00    4.429E+00    4.409E+00    4.389E+00    4.370E+00    4.350E+00    4.330E+00    4.310E+00
     4.290E+00    4.270E+00    4.250E+00    4.230E+00    4.210E+00    4.190E+00    4.169E+00    4.149E+00    4.129E+00    4.108E+00
     4.088E+00    4.067E+00    4.046E+00    4.026E+00    4.005E+00    3.984E+00    3.964E+00    3.943E+00    3.922E+00    3.901E+00
     3.880E+00    3.859E+00    3.838E+00    3.817E+00    3.796E+00    3.775E+00    3.754E+00    3.733E+00    3.712E+00    3.691E+00
     3.670E+00    3.649E+00    3.628E+00    3.607E+00    3.586E+00    3.565E+00    3.543E+00    3.522E+00
 Ala      Conc. = 2.75E+01
