 LCModel (Version 6.3-1L) Copyright: S.W. Provencher.          Ref.: Magn. Reson. Med. 30:672-679 (1993).                
 Slice#2 Row#6 Col#4  PD_24_press_1_raw_act
 36 lines in following concentration table = NCONC+1
    Conc.  %SD /Cr+PCr  Metabolite                                         
    0.000 999%   0.000 Ala                                                 
    0.000 999%   0.000 Asp                                                 
    0.000 999%   0.000 Cr                                                  
 1.68E+03   4%   1.000 PCr                                                 
  233.576  78%   0.139 GABA                                                
    0.000 999%   0.000 Glc                                                 
  530.531  80%   0.315 Gln                                                 
 1.26E+03  39%   0.749 Glu                                                 
  581.282   4%   0.345 GPC                                                 
    0.000 999%   0.000 PCh                                                 
  166.279  52% 9.9E-02 GSH                                                 
    0.000 999%   0.000 Ins                                                 
    0.000 999%   0.000 Lac                                                 
 2.12E+03  10%   1.258 NAA                                                 
  459.937  48%   0.273 NAAG                                                
   93.299  34% 5.5E-02 Scyllo                                              
    0.000 999%   0.000 Tau                                                 
    0.000 999%   0.000 -CrCH2                                              
  581.282   4%   0.345 GPC+PCh                                             
 2.58E+03   4%   1.531 NAA+NAAG                                            
 1.68E+03   4%   1.000 Cr+PCr                                              
 1.79E+03  45%   1.064 Glu+Gln                                             
    0.000 999%   0.000 Lip13a                                              
    0.000 999%   0.000 Lip13b                                              
    0.000 999%   0.000 Lip09                                               
 1.19E+03  15%   0.705 MM09                                                
 3.51E-02 999% 2.1E-05 Lip20                                               
 2.51E+03  13%   1.489 MM20                                                
  300.630  33%   0.179 MM12                                                
    0.000 999%   0.000 MM14                                                
 1.15E+03  17%   0.680 MM17                                                
    0.000 999%   0.000 Lip13a+Lip13b                                       
  300.630  33%   0.179 MM14+Lip13a+Lip13b+MM12                             
 1.19E+03  15%   0.705 MM09+Lip09                                          
 2.51E+03  13%   1.489 MM20+Lip20                                          
   6 lines in following misc. output table
  FWHM = 0.076 ppm    S/N =  11                                            
  Data shift = 0.000 ppm                                                   
  Ph: -27 deg      -1.1 deg/ppm                                            
  alphaB,S = 4.9E-01,   2.0E+02                                            
   14 spline knots.   Ns =11(1)                                            
  (18) 4 infls.   (15) 1 extrs.                                            
  498 points on ppm-axis = NY
      4.000000     3.992357     3.984714     3.977070     3.969427     3.961784     3.954141     3.946497     3.938854     3.931211
      3.923568     3.915925     3.908281     3.900638     3.892995     3.885352     3.877708     3.870065     3.862422     3.854779
      3.847136     3.839492     3.831849     3.824206     3.816563     3.808919     3.801276     3.793633     3.785990     3.778347
      3.770703     3.763060     3.755417     3.747774     3.740130     3.732487     3.724844     3.717201     3.709558     3.701914
      3.694271     3.686628     3.678985     3.671341     3.663698     3.656055     3.648412     3.640769     3.633125     3.625482
      3.617839     3.610196     3.602552     3.594909     3.587266     3.579623     3.571980     3.564336     3.556693     3.549050
      3.541407     3.533763     3.526120     3.518477     3.510834     3.503191     3.495547     3.487904     3.480261     3.472618
      3.464974     3.457331     3.449688     3.442045     3.434402     3.426758     3.419115     3.411472     3.403829     3.396185
      3.388542     3.380899     3.373256     3.365613     3.357969     3.350326     3.342683     3.335040     3.327396     3.319753
      3.312110     3.304467     3.296824     3.289180     3.281537     3.273894     3.266251     3.258607     3.250964     3.243321
      3.235678     3.228034     3.220391     3.212748     3.205105     3.197462     3.189818     3.182175     3.174532     3.166889
      3.159245     3.151602     3.143959     3.136316     3.128673     3.121029     3.113386     3.105743     3.098100     3.090456
      3.082813     3.075170     3.067527     3.059884     3.052240     3.044597     3.036954     3.029311     3.021667     3.014024
      3.006381     2.998738     2.991095     2.983451     2.975808     2.968165     2.960522     2.952878     2.945235     2.937592
      2.929949     2.922306     2.914662     2.907019     2.899376     2.891733     2.884089     2.876446     2.868803     2.861160
      2.853517     2.845873     2.838230     2.830587     2.822944     2.815300     2.807657     2.800014     2.792371     2.784728
      2.777084     2.769441     2.761798     2.754155     2.746511     2.738868     2.731225     2.723582     2.715939     2.708295
      2.700652     2.693009     2.685366     2.677722     2.670079     2.662436     2.654793     2.647150     2.639506     2.631863
      2.624220     2.616577     2.608933     2.601290     2.593647     2.586004     2.578361     2.570717     2.563074     2.555431
      2.547788     2.540144     2.532501     2.524858     2.517215     2.509572     2.501928     2.494285     2.486642     2.478999
      2.471355     2.463712     2.456069     2.448426     2.440783     2.433139     2.425496     2.417853     2.410210     2.402566
      2.394923     2.387280     2.379637     2.371994     2.364350     2.356707     2.349064     2.341421     2.333777     2.326134
      2.318491     2.310848     2.303205     2.295561     2.287918     2.280275     2.272632     2.264988     2.257345     2.249702
      2.242059     2.234416     2.226772     2.219129     2.211486     2.203843     2.196199     2.188556     2.180913     2.173270
      2.165627     2.157983     2.150340     2.142697     2.135054     2.127410     2.119767     2.112124     2.104481     2.096838
      2.089194     2.081551     2.073908     2.066265     2.058621     2.050978     2.043335     2.035692     2.028049     2.020405
      2.012762     2.005119     1.997476     1.989833     1.982190     1.974546     1.966903     1.959260     1.951617     1.943974
      1.936331     1.928688     1.921045     1.913402     1.905759     1.898115     1.890472     1.882829     1.875186     1.867543
      1.859900     1.852257     1.844614     1.836971     1.829327     1.821684     1.814041     1.806398     1.798755     1.791112
      1.783469     1.775826     1.768183     1.760540     1.752896     1.745253     1.737610     1.729967     1.722324     1.714681
      1.707038     1.699395     1.691752     1.684108     1.676465     1.668822     1.661179     1.653536     1.645893     1.638250
      1.630607     1.622964     1.615321     1.607677     1.600034     1.592391     1.584748     1.577105     1.569462     1.561819
      1.554176     1.546533     1.538890     1.531246     1.523603     1.515960     1.508317     1.500674     1.493031     1.485388
      1.477745     1.470102     1.462458     1.454815     1.447172     1.439529     1.431886     1.424243     1.416600     1.408957
      1.401314     1.393671     1.386027     1.378384     1.370741     1.363098     1.355455     1.347812     1.340169     1.332526
      1.324883     1.317240     1.309596     1.301953     1.294310     1.286667     1.279024     1.271381     1.263738     1.256095
      1.248452     1.240808     1.233165     1.225522     1.217879     1.210236     1.202593     1.194950     1.187307     1.179664
      1.172021     1.164377     1.156734     1.149091     1.141448     1.133805     1.126162     1.118519     1.110876     1.103233
      1.095590     1.087946     1.080303     1.072660     1.065017     1.057374     1.049731     1.042088     1.034445     1.026802
      1.019158     1.011515     1.003872     0.996229     0.988586     0.980943     0.973300     0.965657     0.958014     0.950371
      0.942727     0.935084     0.927441     0.919798     0.912155     0.904512     0.896869     0.889226     0.881583     0.873940
      0.866296     0.858653     0.851010     0.843367     0.835724     0.828081     0.820438     0.812795     0.805152     0.797508
      0.789865     0.782222     0.774579     0.766936     0.759293     0.751650     0.744007     0.736364     0.728721     0.721077
      0.713434     0.705791     0.698148     0.690505     0.682862     0.675219     0.667576     0.659933     0.652290     0.644646
      0.637003     0.629360     0.621717     0.614074     0.606431     0.598788     0.591145     0.583502     0.575858     0.568215
      0.560572     0.552929     0.545286     0.537643     0.530000     0.522357     0.514714     0.507071     0.499427     0.491784
      0.484141     0.476498     0.468855     0.461212     0.453569     0.445925     0.438282     0.430639     0.422996     0.415353
      0.407710     0.400067     0.392424     0.384780     0.377137     0.369494     0.361851     0.354208     0.346565     0.338922
      0.331278     0.323635     0.315992     0.308349     0.300706     0.293063     0.285420     0.277777     0.270133     0.262490
      0.254847     0.247204     0.239561     0.231918     0.224275     0.216631     0.208988     0.201345
 NY phased data points follow
   1.00850E+02  9.94978E+01  1.04842E+02  1.06979E+02  1.11582E+02  1.13790E+02  1.18094E+02  1.21447E+02  1.15764E+02  1.17122E+02
   1.11367E+02  1.10861E+02  1.05833E+02  1.01834E+02  1.00330E+02  9.44759E+01  8.95853E+01  9.03635E+01  8.85311E+01  8.63449E+01
   8.23339E+01  8.56608E+01  7.83057E+01  8.23581E+01  8.10888E+01  7.88406E+01  7.68651E+01  8.11519E+01  7.77000E+01  7.68087E+01
   7.91756E+01  7.68478E+01  6.83007E+01  7.08322E+01  7.16706E+01  7.21233E+01  6.88215E+01  7.15553E+01  6.77863E+01  6.98639E+01
   7.18181E+01  6.86785E+01  6.79809E+01  6.72479E+01  6.98901E+01  6.92511E+01  6.80968E+01  6.84210E+01  6.68192E+01  6.81981E+01
   6.44474E+01  6.08256E+01  6.26441E+01  6.00545E+01  6.03825E+01  6.27311E+01  5.66478E+01  5.69384E+01  5.39563E+01  5.28171E+01
   4.77883E+01  5.19616E+01  4.95078E+01  5.02484E+01  4.64657E+01  4.73319E+01  4.37250E+01  4.78969E+01  4.47333E+01  4.85150E+01
   4.82899E+01  4.57310E+01  4.29761E+01  4.43260E+01  4.47640E+01  4.35733E+01  4.53587E+01  4.07586E+01  4.64079E+01  4.26750E+01
   4.48777E+01  4.41725E+01  4.31473E+01  4.58523E+01  4.65455E+01  4.59171E+01  4.12690E+01  4.28905E+01  4.53687E+01  4.58242E+01
   4.71701E+01  4.73889E+01  4.27091E+01  5.16011E+01  4.99902E+01  4.66222E+01  5.18870E+01  5.33868E+01  6.02391E+01  6.61649E+01
   6.57292E+01  7.17421E+01  6.93027E+01  6.97693E+01  7.27099E+01  6.52281E+01  6.30564E+01  6.14769E+01  5.38196E+01  5.04857E+01
   4.86609E+01  4.45114E+01  4.34550E+01  4.60497E+01  4.03267E+01  3.96399E+01  3.82066E+01  4.59068E+01  4.38827E+01  4.13549E+01
   4.55195E+01  5.27358E+01  5.81550E+01  5.91097E+01  6.65045E+01  6.64209E+01  6.72593E+01  6.29160E+01  6.17023E+01  6.20439E+01
   5.01945E+01  5.41441E+01  4.47691E+01  3.40993E+01  3.95791E+01  3.77652E+01  3.41037E+01  3.84192E+01  3.20560E+01  3.15368E+01
   3.23475E+01  3.09685E+01  3.17567E+01  2.82832E+01  2.72155E+01  2.71436E+01  3.00617E+01  2.86316E+01  2.60538E+01  2.64645E+01
   2.68523E+01  2.83244E+01  2.55695E+01  2.67285E+01  2.82383E+01  2.51723E+01  2.26091E+01  2.45790E+01  2.25867E+01  2.37850E+01
   1.94699E+01  2.17368E+01  2.10437E+01  2.04372E+01  1.97081E+01  2.26701E+01  1.77182E+01  2.25551E+01  1.73883E+01  1.79878E+01
   1.88038E+01  1.95004E+01  1.28194E+01  1.79431E+01  1.48820E+01  1.48147E+01  1.61263E+01  1.38302E+01  1.62272E+01  1.68662E+01
   1.24464E+01  1.31513E+01  1.02409E+01  1.28571E+01  1.40922E+01  1.87456E+01  2.13431E+01  2.11985E+01  2.12642E+01  2.57329E+01
   2.66243E+01  2.45275E+01  2.43462E+01  2.06775E+01  2.45037E+01  2.37599E+01  2.46819E+01  2.15244E+01  2.10866E+01  2.44785E+01
   2.88157E+01  2.35663E+01  2.18691E+01  2.18866E+01  1.96196E+01  2.07624E+01  1.85317E+01  1.94660E+01  2.11467E+01  2.25500E+01
   2.46443E+01  2.35648E+01  2.65784E+01  3.02143E+01  2.34043E+01  2.47047E+01  2.65913E+01  2.77857E+01  2.43781E+01  2.27411E+01
   2.64939E+01  2.61238E+01  2.09293E+01  2.73318E+01  2.11124E+01  2.69940E+01  2.55254E+01  2.90698E+01  2.80651E+01  2.65664E+01
   2.94356E+01  2.64813E+01  2.80356E+01  2.92777E+01  2.98482E+01  2.91857E+01  3.03191E+01  2.79038E+01  2.84440E+01  2.75230E+01
   3.41224E+01  3.51438E+01  2.84427E+01  3.46544E+01  3.53338E+01  3.54925E+01  3.84027E+01  3.90229E+01  3.87720E+01  4.25194E+01
   4.34794E+01  4.84979E+01  5.00300E+01  5.32557E+01  6.17904E+01  6.94151E+01  7.41760E+01  8.23395E+01  8.86410E+01  8.63401E+01
   8.58745E+01  7.56974E+01  7.06590E+01  7.04671E+01  5.96685E+01  5.98056E+01  4.85817E+01  4.32241E+01  3.49778E+01  3.33827E+01
   2.65655E+01  3.37329E+01  2.99964E+01  3.05141E+01  2.68532E+01  2.59448E+01  2.42447E+01  2.59067E+01  2.46742E+01  2.51414E+01
   2.32518E+01  2.35574E+01  2.16858E+01  2.00340E+01  2.29659E+01  2.41547E+01  2.12489E+01  2.31742E+01  2.19856E+01  2.46149E+01
   2.45122E+01  2.18564E+01  1.98371E+01  2.05606E+01  2.16876E+01  2.17199E+01  1.94140E+01  1.72065E+01  1.83357E+01  1.94032E+01
   2.27144E+01  2.17935E+01  2.55395E+01  2.12187E+01  2.83707E+01  2.45779E+01  2.68480E+01  2.55982E+01  2.31969E+01  2.09463E+01
   2.25949E+01  2.23600E+01  2.08342E+01  2.15963E+01  1.83933E+01  2.30787E+01  1.81650E+01  2.18350E+01  1.81870E+01  2.13117E+01
   2.13950E+01  1.84089E+01  1.77055E+01  1.73005E+01  1.69375E+01  1.46718E+01  7.69027E+00  1.37713E+01  1.35731E+01  1.26050E+01
   1.08283E+01  1.02649E+01  9.47280E+00  8.48727E+00  5.06725E+00  1.02718E+01  4.49983E+00  6.65087E+00  5.86879E+00  5.83402E+00
   5.72010E+00  9.48636E+00  6.28624E+00  5.02471E+00  6.24218E+00 -7.65102E-01  4.50910E+00  4.78826E+00  4.94943E+00  3.76210E+00
   1.00573E+01  8.96481E+00  3.10827E+00  7.85395E+00  4.63493E+00  3.13693E+00  3.23628E+00  6.03853E+00  7.76300E+00  5.06842E+00
   2.31289E+00  3.96687E+00  1.57213E+00  3.40573E+00  3.84460E+00  4.13335E+00  5.40416E+00  5.33290E+00  6.42514E+00  6.08568E+00
   3.36041E+00  3.47812E+00  3.08980E+00  2.37099E+00  6.12961E+00  2.33403E+00  6.19631E+00 -3.87601E-01 -1.46577E+00  2.07875E+00
   2.45944E+00 -4.06596E-01 -1.69731E+00  6.10632E+00  1.33653E+00  3.36210E+00  7.48082E-01  2.54265E+00  4.69118E-02  1.06902E+00
   2.87494E+00  7.23590E+00  3.27286E+00  4.53736E+00  4.27733E+00  8.91731E+00  1.14569E+01  9.22371E+00  8.41660E+00  1.44214E+01
   3.12759E+00  9.10320E+00  8.38700E+00  1.05103E+01  1.33143E+01  1.15348E+01  7.37561E+00  1.18158E+01  8.04052E+00  6.01127E+00
   8.14444E+00  1.03906E+01  7.45981E+00  8.97869E+00  4.26823E+00  9.88481E+00  6.95436E+00  6.78259E+00  4.41648E+00  7.32112E+00
   7.32733E+00  7.18753E+00  4.12664E+00  5.66483E+00  7.57252E+00  3.61346E+00  3.29227E+00  4.67687E+00  2.90614E+00  7.77983E+00
   3.85213E+00  3.02891E+00  9.15086E+00  5.90995E+00  8.13405E+00  4.85639E+00  4.10143E+00  8.26021E+00  5.63238E+00  9.81366E+00
   8.02320E+00  4.46281E+00  4.98953E+00  9.36793E+00  6.42127E+00  3.95366E+00  4.55667E+00  6.53244E+00  1.04740E+01  7.10263E+00
   7.66343E+00  4.93676E+00  9.21049E+00  4.87088E+00  6.09942E+00  7.03597E+00  2.81176E+00  6.09119E+00  1.92900E+00  7.65901E+00
   6.14071E+00  4.51414E+00  2.27693E+00  4.04896E+00  7.31927E+00  4.62519E+00  9.84665E+00  3.40331E+00  4.86532E+00  3.10860E+00
   5.89606E+00  5.26916E+00  7.74099E+00  8.14366E+00  1.32203E+00  4.77022E+00  3.03927E+00  7.60549E+00  3.08811E+00  7.84699E+00
   4.95310E+00  5.32607E+00  7.95949E+00  4.34118E+00  4.93671E+00  9.37254E+00  2.15308E+00  8.93600E+00  4.27769E+00  7.49797E+00
   5.42066E+00  7.96647E+00  5.54352E+00  9.96116E+00  6.12668E+00  4.78328E+00  7.34941E+00  7.99886E+00
 NY points of the fit to the data follow
   1.00278E+02  1.01336E+02  1.03378E+02  1.06394E+02  1.09781E+02  1.12843E+02  1.14988E+02  1.15750E+02  1.15077E+02  1.13350E+02
   1.11043E+02  1.08400E+02  1.05388E+02  1.01969E+02  9.82971E+01  9.48175E+01  9.20256E+01  8.99505E+01  8.82584E+01  8.65057E+01
   8.43842E+01  8.24147E+01  8.11842E+01  8.02585E+01  7.94610E+01  7.87956E+01  7.83077E+01  7.79774E+01  7.77336E+01  7.74964E+01
   7.70921E+01  7.64182E+01  7.55591E+01  7.46328E+01  7.36638E+01  7.26982E+01  7.18088E+01  7.09891E+01  7.02257E+01  6.95813E+01
   6.90794E+01  6.85784E+01  6.80085E+01  6.73890E+01  6.66929E+01  6.59502E+01  6.51966E+01  6.44904E+01  6.38465E+01  6.31996E+01
   6.24937E+01  6.16962E+01  6.08440E+01  6.00136E+01  5.91782E+01  5.83138E+01  5.74568E+01  5.66201E+01  5.57828E+01  5.49947E+01
   5.42881E+01  5.36007E+01  5.28949E+01  5.22104E+01  5.15735E+01  5.09714E+01  5.03905E+01  4.98223E+01  4.92725E+01  4.87436E+01
   4.82297E+01  4.77285E+01  4.72398E+01  4.67678E+01  4.63259E+01  4.59883E+01  4.58169E+01  4.56495E+01  4.54159E+01  4.52171E+01
   4.51793E+01  4.53157E+01  4.55342E+01  4.57202E+01  4.57743E+01  4.56210E+01  4.52523E+01  4.47318E+01  4.41437E+01  4.35489E+01
   4.29942E+01  4.27040E+01  4.35593E+01  4.55304E+01  4.72669E+01  4.86760E+01  5.07973E+01  5.44147E+01  5.92575E+01  6.44593E+01
   6.91151E+01  7.22704E+01  7.33276E+01  7.23959E+01  7.00957E+01  6.70582E+01  6.35347E+01  5.94721E+01  5.48763E+01  5.00846E+01
   4.58870E+01  4.29539E+01  4.12131E+01  3.99841E+01  3.86238E+01  3.78278E+01  3.88113E+01  4.05485E+01  4.20519E+01  4.41572E+01
   4.78004E+01  5.28450E+01  5.83691E+01  6.33444E+01  6.68574E+01  6.83071E+01  6.77386E+01  6.57261E+01  6.29115E+01  5.95639E+01
   5.56068E+01  5.10205E+01  4.61061E+01  4.16466E+01  3.84067E+01  3.64291E+01  3.50353E+01  3.33497E+01  3.11117E+01  2.93255E+01
   2.86335E+01  2.82896E+01  2.80050E+01  2.77176E+01  2.74048E+01  2.70731E+01  2.67484E+01  2.64405E+01  2.61396E+01  2.58330E+01
   2.54665E+01  2.50734E+01  2.47379E+01  2.44758E+01  2.42561E+01  2.39764E+01  2.35904E+01  2.31665E+01  2.27905E+01  2.24976E+01
   2.22803E+01  2.20939E+01  2.18666E+01  2.15423E+01  2.11194E+01  2.06426E+01  2.02163E+01  1.99153E+01  1.96456E+01  1.92800E+01
   1.87674E+01  1.82441E+01  1.78998E+01  1.77694E+01  1.77193E+01  1.76467E+01  1.75037E+01  1.73842E+01  1.74161E+01  1.75739E+01
   1.78101E+01  1.81140E+01  1.84541E+01  1.87902E+01  1.91704E+01  1.96774E+01  2.03482E+01  2.10669E+01  2.16945E+01  2.21412E+01
   2.24416E+01  2.26923E+01  2.29418E+01  2.32124E+01  2.34268E+01  2.35623E+01  2.36799E+01  2.38769E+01  2.41697E+01  2.44388E+01
   2.46481E+01  2.47677E+01  2.46561E+01  2.42810E+01  2.37598E+01  2.32818E+01  2.28123E+01  2.22945E+01  2.19168E+01  2.18896E+01
   2.22415E+01  2.27604E+01  2.33111E+01  2.39033E+01  2.44289E+01  2.46104E+01  2.43572E+01  2.38309E+01  2.32769E+01  2.28759E+01
   2.26942E+01  2.28033E+01  2.32208E+01  2.38275E+01  2.45490E+01  2.52504E+01  2.58459E+01  2.63465E+01  2.67820E+01  2.72245E+01
   2.76266E+01  2.79365E+01  2.82203E+01  2.86341E+01  2.92051E+01  2.97379E+01  3.00533E+01  3.02044E+01  3.02840E+01  3.03126E+01
   3.03648E+01  3.05399E+01  3.08988E+01  3.13934E+01  3.20120E+01  3.29771E+01  3.41107E+01  3.51716E+01  3.65423E+01  3.96865E+01
   4.46156E+01  4.91874E+01  5.29596E+01  5.71749E+01  6.28162E+01  6.94869E+01  7.60541E+01  8.14773E+01  8.47887E+01  8.52538E+01
   8.29921E+01  7.88618E+01  7.38239E+01  6.83985E+01  6.25804E+01  5.62453E+01  4.96072E+01  4.35089E+01  3.89477E+01  3.62188E+01
   3.43401E+01  3.20201E+01  2.90055E+01  2.67322E+01  2.57945E+01  2.52125E+01  2.47045E+01  2.42350E+01  2.37795E+01  2.33224E+01
   2.28897E+01  2.25018E+01  2.21620E+01  2.18581E+01  2.15835E+01  2.13275E+01  2.10908E+01  2.08841E+01  2.07096E+01  2.05705E+01
   2.04669E+01  2.03962E+01  2.03608E+01  2.03651E+01  2.04081E+01  2.04928E+01  2.06223E+01  2.07945E+01  2.10065E+01  2.12587E+01
   2.15445E+01  2.18514E+01  2.21662E+01  2.24718E+01  2.27496E+01  2.29865E+01  2.31675E+01  2.32751E+01  2.32962E+01  2.32225E+01
   2.30494E+01  2.27741E+01  2.23956E+01  2.19195E+01  2.13553E+01  2.07147E+01  2.00121E+01  1.92630E+01  1.84835E+01  1.76893E+01
   1.68950E+01  1.61137E+01  1.53563E+01  1.46314E+01  1.39455E+01  1.33024E+01  1.27041E+01  1.21507E+01  1.16407E+01  1.11718E+01
   1.07407E+01  1.03438E+01  9.97712E+00  9.63716E+00  9.32043E+00  9.02381E+00  8.74455E+00  8.48030E+00  8.22920E+00  7.98979E+00
   7.76093E+00  7.54177E+00  7.33168E+00  7.13026E+00  6.93727E+00  6.75259E+00  6.57615E+00  6.40786E+00  6.24761E+00  6.09530E+00
   5.95076E+00  5.81372E+00  5.68383E+00  5.56058E+00  5.44336E+00  5.33151E+00  5.22428E+00  5.12085E+00  5.02034E+00  4.92189E+00
   4.82466E+00  4.72795E+00  4.63117E+00  4.53378E+00  4.43530E+00  4.33553E+00  4.23449E+00  4.13250E+00  4.03014E+00  3.92820E+00
   3.82770E+00  3.72990E+00  3.63626E+00  3.54842E+00  3.46812E+00  3.39720E+00  3.33757E+00  3.29124E+00  3.26031E+00  3.24687E+00
   3.25307E+00  3.28104E+00  3.33295E+00  3.41094E+00  3.51710E+00  3.65338E+00  3.82148E+00  4.02279E+00  4.25829E+00  4.52838E+00
   4.83270E+00  5.16999E+00  5.53796E+00  5.93314E+00  6.35087E+00  6.78522E+00  7.22905E+00  7.67411E+00  8.11128E+00  8.53086E+00
   8.92290E+00  9.27766E+00  9.58596E+00  9.83966E+00  1.00321E+01  1.01583E+01  1.02156E+01  1.02033E+01  1.01229E+01  9.97810E+00
   9.77449E+00  9.51928E+00  9.22091E+00  8.88861E+00  8.53196E+00  8.16051E+00  7.78333E+00  7.40878E+00  7.04417E+00  6.69564E+00
   6.36808E+00  6.06510E+00  5.78918E+00  5.54165E+00  5.32290E+00  5.13253E+00  4.96950E+00  4.83231E+00  4.71918E+00  4.62811E+00
   4.55702E+00  4.50382E+00  4.46651E+00  4.44318E+00  4.43212E+00  4.43170E+00  4.44047E+00  4.45714E+00  4.48054E+00  4.50970E+00
   4.54371E+00  4.58179E+00  4.62323E+00  4.66742E+00  4.71381E+00  4.76195E+00  4.81139E+00  4.86175E+00  4.91266E+00  4.96380E+00
   5.01490E+00  5.06568E+00  5.11591E+00  5.16537E+00  5.21401E+00  5.26179E+00  5.30871E+00  5.35475E+00  5.39990E+00  5.44415E+00
   5.48751E+00  5.53000E+00  5.57165E+00  5.61249E+00  5.65252E+00  5.69177E+00  5.73028E+00  5.76809E+00  5.80526E+00  5.84180E+00
   5.87776E+00  5.91318E+00  5.94811E+00  5.98260E+00  6.01672E+00  6.05050E+00  6.08397E+00  6.11720E+00  6.15025E+00  6.18318E+00
   6.21604E+00  6.24887E+00  6.28173E+00  6.31469E+00  6.34780E+00  6.38113E+00  6.41473E+00  6.44865E+00  6.48295E+00  6.51770E+00
   6.55298E+00  6.58883E+00  6.62532E+00  6.66250E+00  6.70044E+00  6.73923E+00  6.77893E+00  6.81960E+00
 NY background values follow
     9.240E+01    9.170E+01    9.099E+01    9.028E+01    8.958E+01    8.887E+01    8.816E+01    8.746E+01    8.675E+01    8.604E+01
     8.533E+01    8.463E+01    8.392E+01    8.322E+01    8.251E+01    8.181E+01    8.110E+01    8.040E+01    7.970E+01    7.900E+01
     7.830E+01    7.761E+01    7.691E+01    7.622E+01    7.553E+01    7.484E+01    7.415E+01    7.347E+01    7.279E+01    7.211E+01
     7.143E+01    7.076E+01    7.009E+01    6.942E+01    6.876E+01    6.810E+01    6.744E+01    6.679E+01    6.614E+01    6.549E+01
     6.485E+01    6.421E+01    6.358E+01    6.295E+01    6.232E+01    6.170E+01    6.109E+01    6.048E+01    5.987E+01    5.927E+01
     5.867E+01    5.808E+01    5.750E+01    5.692E+01    5.634E+01    5.577E+01    5.520E+01    5.464E+01    5.409E+01    5.353E+01
     5.299E+01    5.245E+01    5.191E+01    5.138E+01    5.086E+01    5.034E+01    4.982E+01    4.931E+01    4.881E+01    4.831E+01
     4.782E+01    4.733E+01    4.685E+01    4.637E+01    4.590E+01    4.544E+01    4.498E+01    4.452E+01    4.408E+01    4.363E+01
     4.320E+01    4.276E+01    4.234E+01    4.192E+01    4.150E+01    4.110E+01    4.069E+01    4.030E+01    3.991E+01    3.952E+01
     3.914E+01    3.877E+01    3.840E+01    3.804E+01    3.769E+01    3.734E+01    3.699E+01    3.666E+01    3.632E+01    3.600E+01
     3.567E+01    3.536E+01    3.504E+01    3.474E+01    3.444E+01    3.414E+01    3.384E+01    3.356E+01    3.327E+01    3.299E+01
     3.272E+01    3.245E+01    3.218E+01    3.192E+01    3.166E+01    3.141E+01    3.116E+01    3.091E+01    3.067E+01    3.043E+01
     3.019E+01    2.996E+01    2.973E+01    2.950E+01    2.928E+01    2.906E+01    2.884E+01    2.863E+01    2.842E+01    2.821E+01
     2.800E+01    2.780E+01    2.759E+01    2.740E+01    2.720E+01    2.700E+01    2.681E+01    2.662E+01    2.643E+01    2.625E+01
     2.606E+01    2.588E+01    2.570E+01    2.552E+01    2.535E+01    2.518E+01    2.501E+01    2.484E+01    2.467E+01    2.451E+01
     2.435E+01    2.420E+01    2.405E+01    2.390E+01    2.375E+01    2.361E+01    2.347E+01    2.333E+01    2.320E+01    2.307E+01
     2.294E+01    2.282E+01    2.270E+01    2.259E+01    2.248E+01    2.237E+01    2.227E+01    2.217E+01    2.207E+01    2.198E+01
     2.190E+01    2.181E+01    2.174E+01    2.166E+01    2.159E+01    2.153E+01    2.147E+01    2.141E+01    2.136E+01    2.132E+01
     2.128E+01    2.124E+01    2.121E+01    2.118E+01    2.116E+01    2.115E+01    2.113E+01    2.113E+01    2.112E+01    2.112E+01
     2.112E+01    2.113E+01    2.114E+01    2.115E+01    2.117E+01    2.119E+01    2.121E+01    2.123E+01    2.126E+01    2.129E+01
     2.132E+01    2.135E+01    2.139E+01    2.142E+01    2.146E+01    2.150E+01    2.154E+01    2.158E+01    2.162E+01    2.166E+01
     2.171E+01    2.175E+01    2.179E+01    2.183E+01    2.188E+01    2.192E+01    2.196E+01    2.200E+01    2.204E+01    2.208E+01
     2.212E+01    2.216E+01    2.219E+01    2.223E+01    2.226E+01    2.229E+01    2.232E+01    2.234E+01    2.236E+01    2.239E+01
     2.240E+01    2.242E+01    2.243E+01    2.244E+01    2.245E+01    2.246E+01    2.246E+01    2.246E+01    2.246E+01    2.246E+01
     2.245E+01    2.244E+01    2.243E+01    2.241E+01    2.239E+01    2.237E+01    2.234E+01    2.232E+01    2.228E+01    2.225E+01
     2.221E+01    2.217E+01    2.213E+01    2.208E+01    2.203E+01    2.198E+01    2.192E+01    2.186E+01    2.180E+01    2.173E+01
     2.166E+01    2.158E+01    2.151E+01    2.142E+01    2.134E+01    2.125E+01    2.116E+01    2.106E+01    2.096E+01    2.085E+01
     2.075E+01    2.063E+01    2.052E+01    2.040E+01    2.027E+01    2.014E+01    2.001E+01    1.988E+01    1.974E+01    1.959E+01
     1.945E+01    1.930E+01    1.915E+01    1.899E+01    1.883E+01    1.867E+01    1.850E+01    1.833E+01    1.816E+01    1.798E+01
     1.780E+01    1.762E+01    1.744E+01    1.725E+01    1.706E+01    1.687E+01    1.668E+01    1.648E+01    1.628E+01    1.608E+01
     1.587E+01    1.566E+01    1.546E+01    1.524E+01    1.503E+01    1.481E+01    1.460E+01    1.438E+01    1.416E+01    1.393E+01
     1.371E+01    1.348E+01    1.325E+01    1.302E+01    1.279E+01    1.256E+01    1.232E+01    1.209E+01    1.185E+01    1.161E+01
     1.138E+01    1.114E+01    1.090E+01    1.065E+01    1.041E+01    1.017E+01    9.931E+00    9.689E+00    9.449E+00    9.208E+00
     8.968E+00    8.729E+00    8.491E+00    8.254E+00    8.018E+00    7.784E+00    7.551E+00    7.319E+00    7.090E+00    6.862E+00
     6.637E+00    6.414E+00    6.193E+00    5.975E+00    5.760E+00    5.547E+00    5.338E+00    5.131E+00    4.928E+00    4.729E+00
     4.533E+00    4.341E+00    4.153E+00    3.969E+00    3.790E+00    3.614E+00    3.444E+00    3.278E+00    3.117E+00    2.960E+00
     2.810E+00    2.664E+00    2.524E+00    2.389E+00    2.260E+00    2.137E+00    2.018E+00    1.905E+00    1.797E+00    1.694E+00
     1.597E+00    1.504E+00    1.417E+00    1.334E+00    1.256E+00    1.183E+00    1.115E+00    1.051E+00    9.925E-01    9.382E-01
     8.883E-01    8.429E-01    8.019E-01    7.652E-01    7.328E-01    7.046E-01    6.806E-01    6.606E-01    6.447E-01    6.328E-01
     6.247E-01    6.206E-01    6.202E-01    6.235E-01    6.306E-01    6.412E-01    6.554E-01    6.731E-01    6.943E-01    7.188E-01
     7.467E-01    7.778E-01    8.121E-01    8.496E-01    8.901E-01    9.337E-01    9.802E-01    1.030E+00    1.082E+00    1.137E+00
     1.194E+00    1.255E+00    1.317E+00    1.382E+00    1.449E+00    1.518E+00    1.589E+00    1.662E+00    1.736E+00    1.813E+00
     1.890E+00    1.970E+00    2.050E+00    2.132E+00    2.215E+00    2.298E+00    2.383E+00    2.469E+00    2.555E+00    2.641E+00
     2.729E+00    2.816E+00    2.904E+00    2.992E+00    3.080E+00    3.167E+00    3.255E+00    3.342E+00    3.429E+00    3.515E+00
     3.601E+00    3.686E+00    3.770E+00    3.853E+00    3.935E+00    4.016E+00    4.096E+00    4.174E+00    4.251E+00    4.326E+00
     4.400E+00    4.471E+00    4.541E+00    4.609E+00    4.675E+00    4.738E+00    4.801E+00    4.861E+00    4.920E+00    4.977E+00
     5.032E+00    5.086E+00    5.139E+00    5.190E+00    5.240E+00    5.289E+00    5.336E+00    5.383E+00    5.428E+00    5.473E+00
     5.516E+00    5.559E+00    5.601E+00    5.642E+00    5.683E+00    5.722E+00    5.762E+00    5.801E+00    5.840E+00    5.878E+00
     5.916E+00    5.954E+00    5.991E+00    6.029E+00    6.067E+00    6.104E+00    6.142E+00    6.180E+00    6.218E+00    6.257E+00
     6.296E+00    6.335E+00    6.375E+00    6.416E+00    6.457E+00    6.499E+00    6.542E+00    6.585E+00
 PCr      Conc. = 1.68E+03
