 LCModel (Version 6.3-1L) Copyright: S.W. Provencher.          Ref.: Magn. Reson. Med. 30:672-679 (1993).                
 Slice#2 Row#5 Col#13  PD_24_press_1_raw_act
 36 lines in following concentration table = NCONC+1
    Conc.  %SD /Cr+PCr  Metabolite                                         
 4.96E+03  33%  52.837 Ala                                                 
   30.884  61%   0.329 Asp                                                 
   93.869 109%   1.000 Cr                                                  
    0.000 999%   0.000 PCr                                                 
   18.448  61%   0.197 GABA                                                
   18.527  61%   0.197 Glc                                                 
  553.447 124%   5.896 Gln                                                 
 1.75E+03  55%  18.657 Glu                                                 
   38.440 295%   0.410 GPC                                                 
   15.901 710%   0.169 PCh                                                 
    0.000 999%   0.000 GSH                                                 
  457.364  83%   4.872 Ins                                                 
  659.689 225%   7.028 Lac                                                 
  358.006  40%   3.814 NAA                                                 
    0.000 999%   0.000 NAAG                                                
    6.472  59% 6.9E-02 Scyllo                                              
   31.680  60%   0.337 Tau                                                 
    8.831 191% 9.4E-02 -CrCH2                                              
   54.341  67%   0.579 GPC+PCh                                             
  358.006  40%   3.814 NAA+NAAG                                            
   93.869 109%   1.000 Cr+PCr                                              
 2.30E+03  57%  24.553 Glu+Gln                                             
 7.67E+04  13% 816.652 Lip13a                                              
   43.459 832%   0.463 Lip13b                                              
 1.55E+04  16% 165.594 Lip09                                               
 9.23E+03  23%  98.350 MM09                                                
 1.09E+03  68%  11.614 Lip20                                               
 1.47E+03  48%  15.705 MM20                                                
 9.19E+03  26%  97.872 MM12                                                
 7.78E+04  11% 829.022+MM14                                                
 3.81E+04  15% 405.524+MM17                                                
 7.67E+04  13% 817.115 Lip13a+Lip13b                                       
 1.64E+05   6% 1.7E+03 MM14+Lip13a+Lip13b+MM12                             
 2.48E+04  11% 263.944 MM09+Lip09                                          
 2.56E+03  21%  27.319 MM20+Lip20                                          
   6 lines in following misc. output table
  FWHM = 0.199 ppm    S/N =  76                                            
  Data shift = 0.153 ppm                                                   
  Ph:  46 deg       0.6 deg/ppm                                            
  alphaB,S = 8.5E+01,   2.0E+02                                            
    6 spline knots.   Ns = 9(2)                                            
   2 inflections.     1 extrema                                            
  498 points on ppm-axis = NY
      4.000000     3.992357     3.984714     3.977070     3.969427     3.961784     3.954141     3.946497     3.938854     3.931211
      3.923568     3.915925     3.908281     3.900638     3.892995     3.885352     3.877708     3.870065     3.862422     3.854779
      3.847136     3.839492     3.831849     3.824206     3.816563     3.808919     3.801276     3.793633     3.785990     3.778347
      3.770703     3.763060     3.755417     3.747774     3.740130     3.732487     3.724844     3.717201     3.709558     3.701914
      3.694271     3.686628     3.678985     3.671341     3.663698     3.656055     3.648412     3.640769     3.633125     3.625482
      3.617839     3.610196     3.602552     3.594909     3.587266     3.579623     3.571980     3.564336     3.556693     3.549050
      3.541407     3.533763     3.526120     3.518477     3.510834     3.503191     3.495547     3.487904     3.480261     3.472618
      3.464974     3.457331     3.449688     3.442045     3.434402     3.426758     3.419115     3.411472     3.403829     3.396185
      3.388542     3.380899     3.373256     3.365613     3.357969     3.350326     3.342683     3.335040     3.327396     3.319753
      3.312110     3.304467     3.296824     3.289180     3.281537     3.273894     3.266251     3.258607     3.250964     3.243321
      3.235678     3.228034     3.220391     3.212748     3.205105     3.197462     3.189818     3.182175     3.174532     3.166889
      3.159245     3.151602     3.143959     3.136316     3.128673     3.121029     3.113386     3.105743     3.098100     3.090456
      3.082813     3.075170     3.067527     3.059884     3.052240     3.044597     3.036954     3.029311     3.021667     3.014024
      3.006381     2.998738     2.991095     2.983451     2.975808     2.968165     2.960522     2.952878     2.945235     2.937592
      2.929949     2.922306     2.914662     2.907019     2.899376     2.891733     2.884089     2.876446     2.868803     2.861160
      2.853517     2.845873     2.838230     2.830587     2.822944     2.815300     2.807657     2.800014     2.792371     2.784728
      2.777084     2.769441     2.761798     2.754155     2.746511     2.738868     2.731225     2.723582     2.715939     2.708295
      2.700652     2.693009     2.685366     2.677722     2.670079     2.662436     2.654793     2.647150     2.639506     2.631863
      2.624220     2.616577     2.608933     2.601290     2.593647     2.586004     2.578361     2.570717     2.563074     2.555431
      2.547788     2.540144     2.532501     2.524858     2.517215     2.509572     2.501928     2.494285     2.486642     2.478999
      2.471355     2.463712     2.456069     2.448426     2.440783     2.433139     2.425496     2.417853     2.410210     2.402566
      2.394923     2.387280     2.379637     2.371994     2.364350     2.356707     2.349064     2.341421     2.333777     2.326134
      2.318491     2.310848     2.303205     2.295561     2.287918     2.280275     2.272632     2.264988     2.257345     2.249702
      2.242059     2.234416     2.226772     2.219129     2.211486     2.203843     2.196199     2.188556     2.180913     2.173270
      2.165627     2.157983     2.150340     2.142697     2.135054     2.127410     2.119767     2.112124     2.104481     2.096838
      2.089194     2.081551     2.073908     2.066265     2.058621     2.050978     2.043335     2.035692     2.028049     2.020405
      2.012762     2.005119     1.997476     1.989833     1.982190     1.974546     1.966903     1.959260     1.951617     1.943974
      1.936331     1.928688     1.921045     1.913402     1.905759     1.898115     1.890472     1.882829     1.875186     1.867543
      1.859900     1.852257     1.844614     1.836971     1.829327     1.821684     1.814041     1.806398     1.798755     1.791112
      1.783469     1.775826     1.768183     1.760540     1.752896     1.745253     1.737610     1.729967     1.722324     1.714681
      1.707038     1.699395     1.691752     1.684108     1.676465     1.668822     1.661179     1.653536     1.645893     1.638250
      1.630607     1.622964     1.615321     1.607677     1.600034     1.592391     1.584748     1.577105     1.569462     1.561819
      1.554176     1.546533     1.538890     1.531246     1.523603     1.515960     1.508317     1.500674     1.493031     1.485388
      1.477745     1.470102     1.462458     1.454815     1.447172     1.439529     1.431886     1.424243     1.416600     1.408957
      1.401314     1.393671     1.386027     1.378384     1.370741     1.363098     1.355455     1.347812     1.340169     1.332526
      1.324883     1.317240     1.309596     1.301953     1.294310     1.286667     1.279024     1.271381     1.263738     1.256095
      1.248452     1.240808     1.233165     1.225522     1.217879     1.210236     1.202593     1.194950     1.187307     1.179664
      1.172021     1.164377     1.156734     1.149091     1.141448     1.133805     1.126162     1.118519     1.110876     1.103233
      1.095590     1.087946     1.080303     1.072660     1.065017     1.057374     1.049731     1.042088     1.034445     1.026802
      1.019158     1.011515     1.003872     0.996229     0.988586     0.980943     0.973300     0.965657     0.958014     0.950371
      0.942727     0.935084     0.927441     0.919798     0.912155     0.904512     0.896869     0.889226     0.881583     0.873940
      0.866296     0.858653     0.851010     0.843367     0.835724     0.828081     0.820438     0.812795     0.805152     0.797508
      0.789865     0.782222     0.774579     0.766936     0.759293     0.751650     0.744007     0.736364     0.728721     0.721077
      0.713434     0.705791     0.698148     0.690505     0.682862     0.675219     0.667576     0.659933     0.652290     0.644646
      0.637003     0.629360     0.621717     0.614074     0.606431     0.598788     0.591145     0.583502     0.575858     0.568215
      0.560572     0.552929     0.545286     0.537643     0.530000     0.522357     0.514714     0.507071     0.499427     0.491784
      0.484141     0.476498     0.468855     0.461212     0.453569     0.445925     0.438282     0.430639     0.422996     0.415353
      0.407710     0.400067     0.392424     0.384780     0.377137     0.369494     0.361851     0.354208     0.346565     0.338922
      0.331278     0.323635     0.315992     0.308349     0.300706     0.293063     0.285420     0.277777     0.270133     0.262490
      0.254847     0.247204     0.239561     0.231918     0.224275     0.216631     0.208988     0.201345
 NY phased data points follow
   7.25149E+00  1.09511E+01  1.08719E+01  8.73278E+00  6.62930E+00  1.22642E+01  1.04384E+01  8.91881E+00  1.11365E+01  1.21619E+01
   8.77395E+00  7.33539E+00  9.44860E+00  7.61822E+00  1.17188E+01  7.65456E+00  9.87132E+00  8.88441E+00  1.16763E+01  1.19873E+01
   9.58059E+00  1.05542E+01  1.23578E+01  9.26653E+00  7.74076E+00  7.76856E+00  5.33958E+00  8.96541E+00  5.83409E+00  8.81213E+00
   1.05173E+01  9.94771E+00  7.55620E+00  7.68558E+00  7.87208E+00  7.68717E+00  9.62391E+00  1.12016E+01  7.54141E+00  8.52167E+00
   1.10517E+01  9.76840E+00  7.12621E+00  6.06541E+00  8.01034E+00  1.07371E+01  9.35470E+00  8.54292E+00  9.68544E+00  1.02140E+01
   1.20769E+01  8.28434E+00  1.16884E+01  9.07378E+00  8.02534E+00  9.38468E+00  8.50710E+00  1.24775E+01  9.04604E+00  9.09422E+00
   9.38442E+00  8.49994E+00  7.11302E+00  8.91008E+00  1.10582E+01  9.62626E+00  8.42852E+00  7.72795E+00  7.93754E+00  1.06844E+01
   8.88279E+00  6.25526E+00  8.32282E+00  1.00643E+01  9.89123E+00  9.50431E+00  8.42687E+00  7.71972E+00  8.23361E+00  8.32549E+00
   6.32367E+00  8.28855E+00  8.30457E+00  6.81251E+00  1.03705E+01  1.10689E+01  6.55779E+00  7.84390E+00  9.99728E+00  1.13442E+01
   1.01217E+01  6.90300E+00  9.29790E+00  1.00071E+01  8.69344E+00  8.65551E+00  1.15484E+01  1.13241E+01  1.31564E+01  1.15277E+01
   7.96760E+00  7.18146E+00  9.73153E+00  7.77232E+00  5.20003E+00  6.46407E+00  5.68208E+00  1.01955E+01  1.22132E+01  9.78022E+00
   8.12438E+00  7.74445E+00  8.76278E+00  1.05573E+01  1.01201E+01  1.20932E+01  1.04475E+01  1.01321E+01  7.49534E+00  1.15655E+01
   1.09560E+01  8.13084E+00  1.34217E+01  1.17213E+01  9.59681E+00  9.93542E+00  1.18280E+01  1.16533E+01  7.64754E+00  1.09359E+01
   9.80121E+00  9.31493E+00  9.65969E+00  9.08248E+00  1.34889E+01  8.51381E+00  9.13687E+00  9.47466E+00  1.07444E+01  9.26229E+00
   1.20669E+01  1.16864E+01  8.49699E+00  8.52238E+00  1.32523E+01  9.99489E+00  1.11050E+01  1.26090E+01  1.06967E+01  1.08578E+01
   8.27797E+00  1.28621E+01  1.18327E+01  1.16830E+01  1.06197E+01  1.15832E+01  9.77377E+00  7.94507E+00  1.14680E+01  1.00004E+01
   9.92709E+00  1.06181E+01  8.72389E+00  1.14441E+01  1.24913E+01  1.06909E+01  9.71473E+00  1.44134E+01  9.06159E+00  1.35453E+01
   1.22888E+01  1.19670E+01  1.02096E+01  1.05126E+01  1.40198E+01  1.08826E+01  1.39192E+01  8.13857E+00  9.97304E+00  1.14263E+01
   1.34550E+01  1.19865E+01  1.06183E+01  1.47927E+01  1.24285E+01  1.33672E+01  1.32336E+01  1.29742E+01  1.43327E+01  1.33668E+01
   1.45698E+01  1.30163E+01  8.06115E+00  1.41874E+01  1.46166E+01  1.45943E+01  1.18118E+01  1.42937E+01  1.15096E+01  1.40684E+01
   1.51979E+01  1.42142E+01  1.36127E+01  1.48550E+01  1.73836E+01  1.71451E+01  1.87576E+01  2.06433E+01  1.80232E+01  1.63783E+01
   1.61097E+01  1.69744E+01  1.81071E+01  1.62353E+01  1.82007E+01  2.07503E+01  2.06659E+01  1.92031E+01  2.24904E+01  1.80977E+01
   1.91015E+01  2.19649E+01  2.15849E+01  2.23507E+01  2.54321E+01  2.85314E+01  2.78364E+01  2.54316E+01  2.44846E+01  2.47552E+01
   2.33940E+01  2.81249E+01  2.97875E+01  2.94449E+01  3.11237E+01  3.05279E+01  3.17033E+01  3.13438E+01  3.43192E+01  3.33866E+01
   3.44386E+01  3.84445E+01  4.08495E+01  3.76813E+01  4.07482E+01  4.37695E+01  4.39074E+01  4.45520E+01  4.60299E+01  4.85285E+01
   4.88143E+01  5.01195E+01  5.22664E+01  5.38343E+01  5.47417E+01  5.44832E+01  5.81269E+01  5.55735E+01  6.07616E+01  5.88948E+01
   6.01319E+01  6.44406E+01  6.66915E+01  6.48784E+01  6.98907E+01  7.15847E+01  7.44187E+01  7.66157E+01  8.01839E+01  8.20997E+01
   8.15375E+01  8.67133E+01  8.55252E+01  8.91639E+01  9.53963E+01  9.66145E+01  9.94196E+01  1.05026E+02  1.06843E+02  1.10321E+02
   1.14771E+02  1.17465E+02  1.21969E+02  1.24061E+02  1.32180E+02  1.34363E+02  1.39210E+02  1.43589E+02  1.52095E+02  1.52342E+02
   1.62338E+02  1.65596E+02  1.71132E+02  1.78081E+02  1.83844E+02  1.87756E+02  1.96731E+02  1.99324E+02  2.06257E+02  2.11055E+02
   2.14922E+02  2.21645E+02  2.29081E+02  2.38785E+02  2.41730E+02  2.48335E+02  2.57540E+02  2.66983E+02  2.73550E+02  2.82525E+02
   2.89044E+02  2.92907E+02  3.07742E+02  3.12813E+02  3.20257E+02  3.31453E+02  3.36498E+02  3.45563E+02  3.48359E+02  3.52420E+02
   3.58660E+02  3.59918E+02  3.68142E+02  3.71837E+02  3.73424E+02  3.76855E+02  3.80594E+02  3.84403E+02  3.87126E+02  3.89816E+02
   3.85615E+02  3.84692E+02  3.85544E+02  3.82345E+02  3.80824E+02  3.75558E+02  3.73885E+02  3.65784E+02  3.63101E+02  3.58516E+02
   3.52430E+02  3.49533E+02  3.46635E+02  3.45178E+02  3.43558E+02  3.38057E+02  3.35814E+02  3.32460E+02  3.29693E+02  3.29365E+02
   3.25422E+02  3.23127E+02  3.21152E+02  3.16903E+02  3.12554E+02  3.09756E+02  3.09090E+02  3.07968E+02  3.05284E+02  3.00146E+02
   2.99629E+02  2.95561E+02  2.90561E+02  2.89470E+02  2.84756E+02  2.86380E+02  2.79653E+02  2.77920E+02  2.73886E+02  2.69605E+02
   2.68501E+02  2.64384E+02  2.57740E+02  2.54742E+02  2.53668E+02  2.47426E+02  2.41071E+02  2.41647E+02  2.30621E+02  2.26753E+02
   2.21856E+02  2.23480E+02  2.17237E+02  2.15003E+02  2.05144E+02  2.02840E+02  2.00355E+02  1.91430E+02  1.86919E+02  1.86469E+02
   1.79010E+02  1.74651E+02  1.68170E+02  1.68739E+02  1.61676E+02  1.57312E+02  1.53799E+02  1.49628E+02  1.43499E+02  1.45461E+02
   1.37995E+02  1.31704E+02  1.29146E+02  1.27349E+02  1.24200E+02  1.18665E+02  1.13739E+02  1.11183E+02  1.10449E+02  1.06139E+02
   1.02749E+02  1.02881E+02  9.64975E+01  9.43991E+01  9.23584E+01  9.07347E+01  8.45012E+01  8.17681E+01  8.05212E+01  7.62288E+01
   7.51635E+01  7.18358E+01  7.21088E+01  7.03354E+01  6.45361E+01  6.16076E+01  6.22508E+01  6.14840E+01  5.94972E+01  5.59703E+01
   5.61237E+01  5.07719E+01  5.00543E+01  5.11242E+01  4.68797E+01  4.79322E+01  4.35646E+01  4.38574E+01  4.24635E+01  4.06893E+01
   3.76746E+01  3.46431E+01  3.70793E+01  3.86177E+01  3.72451E+01  3.66879E+01  3.25921E+01  3.02829E+01  3.04341E+01  2.96212E+01
   2.85597E+01  2.78836E+01  2.43029E+01  2.37682E+01  2.76732E+01  2.25856E+01  2.54372E+01  2.19744E+01  2.05692E+01  2.09617E+01
   1.81095E+01  1.88832E+01  1.83232E+01  1.69616E+01  1.91281E+01  1.71649E+01  1.58865E+01  1.57360E+01  1.37394E+01  1.41453E+01
   1.64016E+01  1.41897E+01  1.43748E+01  1.50302E+01  1.19440E+01  1.39711E+01  9.66331E+00  1.02771E+01  1.13983E+01  8.50482E+00
   1.03039E+01  1.03209E+01  5.87168E+00  8.67230E+00  7.86925E+00  6.77980E+00  1.04699E+01  8.72673E+00  6.94439E+00  9.74639E+00
   3.89105E+00  7.59979E+00  6.31231E+00  5.73880E+00  3.34840E+00  6.19982E+00  5.78547E+00  5.52171E+00
 NY points of the fit to the data follow
   9.51333E+00  9.69025E+00  9.43295E+00  9.57563E+00  9.31897E+00  9.52716E+00  9.36515E+00  9.82548E+00  9.58349E+00  1.01046E+01
   9.73083E+00  1.03081E+01  9.71804E+00  1.02496E+01  9.33123E+00  9.98155E+00  8.93859E+00  9.56790E+00  8.47722E+00  9.15829E+00
   8.22776E+00  9.08434E+00  8.34905E+00  9.20591E+00  8.67465E+00  9.43894E+00  9.03144E+00  9.57586E+00  9.25565E+00  9.60102E+00
   9.42369E+00  9.53209E+00  9.38833E+00  9.25866E+00  9.21656E+00  8.93599E+00  9.13254E+00  8.79229E+00  9.23731E+00  8.89877E+00
   9.48860E+00  9.11157E+00  9.74874E+00  9.22856E+00  9.87867E+00  9.35262E+00  1.00347E+01  9.59048E+00  1.00914E+01  9.55848E+00
   9.87946E+00  9.29646E+00  9.43225E+00  8.91963E+00  9.00866E+00  8.78939E+00  8.98475E+00  8.85353E+00  9.00201E+00  8.90804E+00
   8.97960E+00  8.90421E+00  8.91118E+00  8.80572E+00  8.81599E+00  8.71137E+00  8.72336E+00  8.62890E+00  8.66273E+00  8.58522E+00
   8.63074E+00  8.53609E+00  8.56413E+00  8.44855E+00  8.46796E+00  8.33864E+00  8.35751E+00  8.21743E+00  8.24541E+00  8.10441E+00
   8.13843E+00  8.01665E+00  8.06379E+00  7.96146E+00  8.04084E+00  8.02481E+00  8.10651E+00  8.14981E+00  8.22591E+00  8.34839E+00
   8.41037E+00  8.60597E+00  8.63792E+00  8.86699E+00  8.85390E+00  9.07037E+00  9.01028E+00  9.20332E+00  9.12068E+00  9.30727E+00
   9.20392E+00  9.37370E+00  9.25759E+00  9.42153E+00  9.29903E+00  9.46527E+00  9.34235E+00  9.51085E+00  9.40888E+00  9.61948E+00
   9.52513E+00  9.71500E+00  9.62853E+00  9.79017E+00  9.73031E+00  9.87476E+00  9.85043E+00  9.97273E+00  9.97758E+00  1.00605E+01
   1.00713E+01  1.01007E+01  1.01288E+01  1.01558E+01  1.02224E+01  1.02950E+01  1.03641E+01  1.04296E+01  1.04923E+01  1.05502E+01
   1.06062E+01  1.06539E+01  1.07038E+01  1.07447E+01  1.07837E+01  1.07952E+01  1.08165E+01  1.07916E+01  1.07982E+01  1.07561E+01
   1.07579E+01  1.07156E+01  1.07177E+01  1.06795E+01  1.06858E+01  1.06489E+01  1.06668E+01  1.06543E+01  1.06907E+01  1.07279E+01
   1.07768E+01  1.08173E+01  1.08647E+01  1.09068E+01  1.09461E+01  1.09866E+01  1.10126E+01  1.10450E+01  1.10546E+01  1.10799E+01
   1.10822E+01  1.11011E+01  1.10946E+01  1.11012E+01  1.10929E+01  1.10935E+01  1.10915E+01  1.10878E+01  1.10954E+01  1.10880E+01
   1.11140E+01  1.11137E+01  1.11559E+01  1.11645E+01  1.12263E+01  1.12434E+01  1.13197E+01  1.13486E+01  1.14348E+01  1.14803E+01
   1.15712E+01  1.16334E+01  1.17241E+01  1.18186E+01  1.19389E+01  1.20864E+01  1.22450E+01  1.24675E+01  1.26680E+01  1.29296E+01
   1.31469E+01  1.34137E+01  1.35353E+01  1.38102E+01  1.38533E+01  1.41339E+01  1.41089E+01  1.44710E+01  1.45270E+01  1.49466E+01
   1.50833E+01  1.55547E+01  1.58412E+01  1.62586E+01  1.65892E+01  1.68479E+01  1.72105E+01  1.73406E+01  1.76397E+01  1.76659E+01
   1.79098E+01  1.79494E+01  1.82269E+01  1.83520E+01  1.87020E+01  1.89860E+01  1.94249E+01  1.98545E+01  2.03594E+01  2.08906E+01
   2.14967E+01  2.21010E+01  2.27344E+01  2.33530E+01  2.39115E+01  2.44884E+01  2.49813E+01  2.55822E+01  2.60862E+01  2.66878E+01
   2.73019E+01  2.79293E+01  2.86110E+01  2.92710E+01  3.00728E+01  3.07927E+01  3.17688E+01  3.25670E+01  3.37466E+01  3.45508E+01
   3.57930E+01  3.66553E+01  3.80833E+01  3.90163E+01  4.04822E+01  4.14866E+01  4.31354E+01  4.42876E+01  4.60426E+01  4.73129E+01
   4.90803E+01  5.04099E+01  5.20393E+01  5.33835E+01  5.48111E+01  5.61943E+01  5.74946E+01  5.89562E+01  6.01423E+01  6.17420E+01
   6.29475E+01  6.47357E+01  6.60100E+01  6.79756E+01  6.93706E+01  7.14840E+01  7.31021E+01  7.54092E+01  7.72119E+01  7.96925E+01
   8.16896E+01  8.43526E+01  8.66033E+01  8.95095E+01  9.21152E+01  9.53425E+01  9.83735E+01  1.01931E+02  1.05351E+02  1.09237E+02
   1.13096E+02  1.17350E+02  1.21750E+02  1.26360E+02  1.31075E+02  1.35938E+02  1.40913E+02  1.45970E+02  1.51132E+02  1.56352E+02
   1.61654E+02  1.66988E+02  1.72387E+02  1.77809E+02  1.83284E+02  1.88797E+02  1.94368E+02  1.99991E+02  2.05690E+02  2.11472E+02
   2.17361E+02  2.23377E+02  2.29543E+02  2.35891E+02  2.42450E+02  2.49258E+02  2.56362E+02  2.63843E+02  2.71887E+02  2.80606E+02
   2.88675E+02  2.97664E+02  3.05513E+02  3.14564E+02  3.21573E+02  3.29898E+02  3.35279E+02  3.43095E+02  3.47537E+02  3.54162E+02
   3.57771E+02  3.63383E+02  3.66771E+02  3.71668E+02  3.74915E+02  3.78662E+02  3.81691E+02  3.83894E+02  3.86140E+02  3.86520E+02
   3.87314E+02  3.85939E+02  3.85398E+02  3.82370E+02  3.80219E+02  3.75525E+02  3.72298E+02  3.66710E+02  3.63327E+02  3.57652E+02
   3.54649E+02  3.49655E+02  3.47491E+02  3.43148E+02  3.41431E+02  3.37334E+02  3.35865E+02  3.32415E+02  3.31054E+02  3.28417E+02
   3.26268E+02  3.23514E+02  3.20866E+02  3.17913E+02  3.14586E+02  3.11592E+02  3.07886E+02  3.05655E+02  3.02572E+02  3.00535E+02
   2.97629E+02  2.95587E+02  2.92687E+02  2.90430E+02  2.87374E+02  2.84706E+02  2.81429E+02  2.78340E+02  2.74801E+02  2.71326E+02
   2.67402E+02  2.63466E+02  2.59249E+02  2.54937E+02  2.50527E+02  2.46014E+02  2.41551E+02  2.37121E+02  2.32723E+02  2.28360E+02
   2.24033E+02  2.19741E+02  2.15475E+02  2.11225E+02  2.06977E+02  2.02718E+02  1.98433E+02  1.94112E+02  1.89746E+02  1.85333E+02
   1.80874E+02  1.76376E+02  1.71852E+02  1.67316E+02  1.62786E+02  1.58285E+02  1.53832E+02  1.49449E+02  1.45153E+02  1.40961E+02
   1.36885E+02  1.32934E+02  1.29114E+02  1.25426E+02  1.21869E+02  1.18438E+02  1.15126E+02  1.11924E+02  1.08824E+02  1.05814E+02
   1.02886E+02  1.00030E+02  9.72377E+01  9.45015E+01  9.18151E+01  8.91742E+01  8.65749E+01  8.40154E+01  8.14943E+01  7.90118E+01
   7.65683E+01  7.41654E+01  7.18046E+01  6.94884E+01  6.72186E+01  6.49981E+01  6.28285E+01  6.07124E+01  5.86511E+01  5.66466E+01
   5.46997E+01  5.28117E+01  5.09827E+01  4.92134E+01  4.75031E+01  4.58520E+01  4.42589E+01  4.27234E+01  4.12439E+01  3.98196E+01
   3.84486E+01  3.71298E+01  3.58612E+01  3.46416E+01  3.34686E+01  3.23411E+01  3.12568E+01  3.02144E+01  2.92118E+01  2.82477E+01
   2.73199E+01  2.64274E+01  2.55681E+01  2.47409E+01  2.39440E+01  2.31763E+01  2.24362E+01  2.17228E+01  2.10344E+01  2.03702E+01
   1.97288E+01  1.91095E+01  1.85109E+01  1.79325E+01  1.73729E+01  1.68316E+01  1.63075E+01  1.58002E+01  1.53085E+01  1.48322E+01
   1.43701E+01  1.39221E+01  1.34872E+01  1.30651E+01  1.26550E+01  1.22568E+01  1.18695E+01  1.14931E+01  1.11268E+01  1.07705E+01
   1.04235E+01  1.00858E+01  9.75654E+00  9.43594E+00  9.12318E+00  8.81841E+00  8.52088E+00  8.23079E+00  7.94740E+00  7.67092E+00
   7.40066E+00  7.13687E+00  6.87885E+00  6.62690E+00  6.38035E+00  6.13950E+00  5.90374E+00  5.67342E+00
 NY background values follow
     5.373E+00    5.351E+00    5.329E+00    5.307E+00    5.284E+00    5.262E+00    5.240E+00    5.218E+00    5.196E+00    5.173E+00
     5.151E+00    5.129E+00    5.106E+00    5.084E+00    5.062E+00    5.039E+00    5.017E+00    4.994E+00    4.972E+00    4.950E+00
     4.927E+00    4.905E+00    4.882E+00    4.860E+00    4.837E+00    4.815E+00    4.792E+00    4.770E+00    4.747E+00    4.724E+00
     4.702E+00    4.679E+00    4.657E+00    4.634E+00    4.611E+00    4.589E+00    4.566E+00    4.543E+00    4.521E+00    4.498E+00
     4.475E+00    4.453E+00    4.430E+00    4.407E+00    4.384E+00    4.362E+00    4.339E+00    4.316E+00    4.293E+00    4.271E+00
     4.248E+00    4.225E+00    4.202E+00    4.179E+00    4.157E+00    4.134E+00    4.111E+00    4.088E+00    4.065E+00    4.042E+00
     4.020E+00    3.997E+00    3.974E+00    3.951E+00    3.928E+00    3.905E+00    3.882E+00    3.859E+00    3.837E+00    3.814E+00
     3.791E+00    3.768E+00    3.745E+00    3.722E+00    3.699E+00    3.676E+00    3.653E+00    3.630E+00    3.607E+00    3.584E+00
     3.561E+00    3.539E+00    3.516E+00    3.493E+00    3.470E+00    3.447E+00    3.424E+00    3.401E+00    3.378E+00    3.355E+00
     3.332E+00    3.309E+00    3.286E+00    3.263E+00    3.240E+00    3.217E+00    3.194E+00    3.171E+00    3.149E+00    3.126E+00
     3.103E+00    3.080E+00    3.057E+00    3.034E+00    3.011E+00    2.988E+00    2.965E+00    2.942E+00    2.919E+00    2.896E+00
     2.874E+00    2.851E+00    2.828E+00    2.805E+00    2.782E+00    2.759E+00    2.736E+00    2.713E+00    2.691E+00    2.668E+00
     2.645E+00    2.622E+00    2.599E+00    2.576E+00    2.554E+00    2.531E+00    2.508E+00    2.485E+00    2.463E+00    2.440E+00
     2.417E+00    2.394E+00    2.371E+00    2.349E+00    2.326E+00    2.303E+00    2.281E+00    2.258E+00    2.235E+00    2.213E+00
     2.190E+00    2.167E+00    2.145E+00    2.122E+00    2.099E+00    2.077E+00    2.054E+00    2.032E+00    2.009E+00    1.986E+00
     1.964E+00    1.941E+00    1.919E+00    1.896E+00    1.874E+00    1.851E+00    1.829E+00    1.807E+00    1.784E+00    1.762E+00
     1.739E+00    1.717E+00    1.695E+00    1.672E+00    1.650E+00    1.628E+00    1.605E+00    1.583E+00    1.561E+00    1.538E+00
     1.516E+00    1.494E+00    1.472E+00    1.449E+00    1.427E+00    1.405E+00    1.383E+00    1.361E+00    1.339E+00    1.317E+00
     1.294E+00    1.272E+00    1.250E+00    1.228E+00    1.206E+00    1.184E+00    1.162E+00    1.140E+00    1.118E+00    1.096E+00
     1.074E+00    1.052E+00    1.030E+00    1.008E+00    9.857E-01    9.637E-01    9.417E-01    9.197E-01    8.977E-01    8.757E-01
     8.537E-01    8.317E-01    8.097E-01    7.877E-01    7.657E-01    7.437E-01    7.218E-01    6.998E-01    6.778E-01    6.558E-01
     6.338E-01    6.118E-01    5.898E-01    5.678E-01    5.458E-01    5.238E-01    5.018E-01    4.797E-01    4.577E-01    4.357E-01
     4.136E-01    3.916E-01    3.696E-01    3.475E-01    3.254E-01    3.034E-01    2.813E-01    2.592E-01    2.371E-01    2.150E-01
     1.928E-01    1.707E-01    1.486E-01    1.264E-01    1.042E-01    8.204E-02    5.985E-02    3.764E-02    1.542E-02   -6.823E-03
    -2.908E-02   -5.134E-02   -7.363E-02   -9.593E-02   -1.182E-01   -1.406E-01   -1.629E-01   -1.853E-01   -2.077E-01   -2.301E-01
    -2.525E-01   -2.750E-01   -2.974E-01   -3.199E-01   -3.424E-01   -3.649E-01   -3.875E-01   -4.101E-01   -4.326E-01   -4.553E-01
    -4.779E-01   -5.006E-01   -5.233E-01   -5.460E-01   -5.687E-01   -5.915E-01   -6.142E-01   -6.371E-01   -6.599E-01   -6.828E-01
    -7.057E-01   -7.286E-01   -7.515E-01   -7.745E-01   -7.975E-01   -8.206E-01   -8.436E-01   -8.667E-01   -8.899E-01   -9.130E-01
    -9.362E-01   -9.595E-01   -9.827E-01   -1.006E+00   -1.029E+00   -1.053E+00   -1.076E+00   -1.100E+00   -1.123E+00   -1.146E+00
    -1.170E+00   -1.194E+00   -1.217E+00   -1.241E+00   -1.265E+00   -1.288E+00   -1.312E+00   -1.336E+00   -1.360E+00   -1.384E+00
    -1.407E+00   -1.431E+00   -1.455E+00   -1.480E+00   -1.504E+00   -1.528E+00   -1.552E+00   -1.576E+00   -1.600E+00   -1.625E+00
    -1.649E+00   -1.673E+00   -1.698E+00   -1.722E+00   -1.747E+00   -1.771E+00   -1.796E+00   -1.821E+00   -1.845E+00   -1.870E+00
    -1.895E+00   -1.920E+00   -1.945E+00   -1.970E+00   -1.995E+00   -2.020E+00   -2.045E+00   -2.070E+00   -2.095E+00   -2.121E+00
    -2.146E+00   -2.171E+00   -2.197E+00   -2.222E+00   -2.248E+00   -2.274E+00   -2.299E+00   -2.325E+00   -2.351E+00   -2.376E+00
    -2.402E+00   -2.428E+00   -2.454E+00   -2.480E+00   -2.506E+00   -2.532E+00   -2.559E+00   -2.585E+00   -2.611E+00   -2.638E+00
    -2.664E+00   -2.690E+00   -2.717E+00   -2.743E+00   -2.770E+00   -2.797E+00   -2.823E+00   -2.850E+00   -2.877E+00   -2.904E+00
    -2.931E+00   -2.958E+00   -2.985E+00   -3.012E+00   -3.039E+00   -3.066E+00   -3.093E+00   -3.121E+00   -3.148E+00   -3.175E+00
    -3.203E+00   -3.230E+00   -3.258E+00   -3.285E+00   -3.313E+00   -3.341E+00   -3.368E+00   -3.396E+00   -3.424E+00   -3.452E+00
    -3.480E+00   -3.508E+00   -3.536E+00   -3.564E+00   -3.592E+00   -3.620E+00   -3.648E+00   -3.676E+00   -3.705E+00   -3.733E+00
    -3.761E+00   -3.790E+00   -3.818E+00   -3.847E+00   -3.875E+00   -3.904E+00   -3.933E+00   -3.962E+00   -3.990E+00   -4.019E+00
    -4.048E+00   -4.077E+00   -4.106E+00   -4.135E+00   -4.164E+00   -4.193E+00   -4.222E+00   -4.251E+00   -4.281E+00   -4.310E+00
    -4.339E+00   -4.369E+00   -4.398E+00   -4.427E+00   -4.457E+00   -4.487E+00   -4.516E+00   -4.546E+00   -4.576E+00   -4.605E+00
    -4.635E+00   -4.665E+00   -4.695E+00   -4.725E+00   -4.755E+00   -4.785E+00   -4.815E+00   -4.845E+00   -4.875E+00   -4.905E+00
    -4.935E+00   -4.966E+00   -4.996E+00   -5.026E+00   -5.057E+00   -5.087E+00   -5.118E+00   -5.148E+00   -5.179E+00   -5.209E+00
    -5.240E+00   -5.271E+00   -5.301E+00   -5.332E+00   -5.363E+00   -5.394E+00   -5.425E+00   -5.456E+00   -5.487E+00   -5.518E+00
    -5.549E+00   -5.580E+00   -5.611E+00   -5.642E+00   -5.673E+00   -5.705E+00   -5.736E+00   -5.767E+00   -5.799E+00   -5.830E+00
    -5.862E+00   -5.893E+00   -5.925E+00   -5.956E+00   -5.988E+00   -6.020E+00   -6.051E+00   -6.083E+00   -6.115E+00   -6.147E+00
    -6.179E+00   -6.211E+00   -6.243E+00   -6.275E+00   -6.307E+00   -6.339E+00   -6.371E+00   -6.403E+00   -6.435E+00   -6.467E+00
    -6.500E+00   -6.532E+00   -6.564E+00   -6.597E+00   -6.629E+00   -6.661E+00   -6.694E+00   -6.726E+00   -6.759E+00   -6.792E+00
    -6.824E+00   -6.857E+00   -6.890E+00   -6.922E+00   -6.955E+00   -6.988E+00   -7.021E+00   -7.054E+00
 Ala      Conc. = 4.96E+03
