 LCModel (Version 6.3-1L) Copyright: S.W. Provencher.          Ref.: Magn. Reson. Med. 30:672-679 (1993).                
 Slice#1 Row#11 Col#9  PD_24_press_1_raw_act
 36 lines in following concentration table = NCONC+1
    Conc.  %SD /Cr+PCr  Metabolite                                         
   72.947 126%   0.105 Ala                                                 
  122.002 129%   0.176 Asp                                                 
    5.232 999% 7.5E-03 Cr                                                  
  688.753  30%   0.992 PCr                                                 
    0.000 999%   0.000 GABA                                                
   18.828 552% 2.7E-02 Glc                                                 
  485.466  41%   0.700 Gln                                                 
  878.413  25%   1.266 Glu                                                 
  349.413  45%   0.503 GPC                                                 
   47.655 334% 6.9E-02 PCh                                                 
  198.280  31%   0.286 GSH                                                 
  613.522  35%   0.884 Ins                                                 
    0.000 999%   0.000 Lac                                                 
 1.46E+03   7%   2.100 NAA                                                 
  172.322  62%   0.248 NAAG                                                
   91.210  24%   0.131 Scyllo                                              
  110.866 140%   0.160 Tau                                                 
  178.197  51%   0.257 -CrCH2                                              
  397.068   5%   0.572 GPC+PCh                                             
 1.63E+03   4%   2.348 NAA+NAAG                                            
  693.984   6%   1.000 Cr+PCr                                              
 1.36E+03  23%   1.965 Glu+Gln                                             
 1.71E+03  21%   2.459 Lip13a                                              
    0.000 999%   0.000 Lip13b                                              
  256.321  86%   0.369 Lip09                                               
  785.621  28%   1.132 MM09                                                
  190.843  87%   0.275 Lip20                                               
 1.71E+03  17%   2.466 MM20                                                
  238.319  56%   0.343 MM12                                                
  539.944  49%   0.778 MM14                                                
  116.885 118%   0.168 MM17                                                
 1.71E+03  21%   2.459 Lip13a+Lip13b                                       
 2.48E+03  10%   3.580 MM14+Lip13a+Lip13b+MM12                             
 1.04E+03  13%   1.501 MM09+Lip09                                          
 1.90E+03  14%   2.741 MM20+Lip20                                          
   6 lines in following misc. output table
  FWHM = 0.054 ppm    S/N =   9                                            
  Data shift =-0.023 ppm                                                   
  Ph: -49 deg      -6.1 deg/ppm                                            
  alphaB,S = 8.5E+01,   2.0E+02                                            
   14 spline knots.   Ns = 7(1)                                            
   2 inflections.     1 extrema                                            
  498 points on ppm-axis = NY
      4.000000     3.992357     3.984714     3.977070     3.969427     3.961784     3.954141     3.946497     3.938854     3.931211
      3.923568     3.915925     3.908281     3.900638     3.892995     3.885352     3.877708     3.870065     3.862422     3.854779
      3.847136     3.839492     3.831849     3.824206     3.816563     3.808919     3.801276     3.793633     3.785990     3.778347
      3.770703     3.763060     3.755417     3.747774     3.740130     3.732487     3.724844     3.717201     3.709558     3.701914
      3.694271     3.686628     3.678985     3.671341     3.663698     3.656055     3.648412     3.640769     3.633125     3.625482
      3.617839     3.610196     3.602552     3.594909     3.587266     3.579623     3.571980     3.564336     3.556693     3.549050
      3.541407     3.533763     3.526120     3.518477     3.510834     3.503191     3.495547     3.487904     3.480261     3.472618
      3.464974     3.457331     3.449688     3.442045     3.434402     3.426758     3.419115     3.411472     3.403829     3.396185
      3.388542     3.380899     3.373256     3.365613     3.357969     3.350326     3.342683     3.335040     3.327396     3.319753
      3.312110     3.304467     3.296824     3.289180     3.281537     3.273894     3.266251     3.258607     3.250964     3.243321
      3.235678     3.228034     3.220391     3.212748     3.205105     3.197462     3.189818     3.182175     3.174532     3.166889
      3.159245     3.151602     3.143959     3.136316     3.128673     3.121029     3.113386     3.105743     3.098100     3.090456
      3.082813     3.075170     3.067527     3.059884     3.052240     3.044597     3.036954     3.029311     3.021667     3.014024
      3.006381     2.998738     2.991095     2.983451     2.975808     2.968165     2.960522     2.952878     2.945235     2.937592
      2.929949     2.922306     2.914662     2.907019     2.899376     2.891733     2.884089     2.876446     2.868803     2.861160
      2.853517     2.845873     2.838230     2.830587     2.822944     2.815300     2.807657     2.800014     2.792371     2.784728
      2.777084     2.769441     2.761798     2.754155     2.746511     2.738868     2.731225     2.723582     2.715939     2.708295
      2.700652     2.693009     2.685366     2.677722     2.670079     2.662436     2.654793     2.647150     2.639506     2.631863
      2.624220     2.616577     2.608933     2.601290     2.593647     2.586004     2.578361     2.570717     2.563074     2.555431
      2.547788     2.540144     2.532501     2.524858     2.517215     2.509572     2.501928     2.494285     2.486642     2.478999
      2.471355     2.463712     2.456069     2.448426     2.440783     2.433139     2.425496     2.417853     2.410210     2.402566
      2.394923     2.387280     2.379637     2.371994     2.364350     2.356707     2.349064     2.341421     2.333777     2.326134
      2.318491     2.310848     2.303205     2.295561     2.287918     2.280275     2.272632     2.264988     2.257345     2.249702
      2.242059     2.234416     2.226772     2.219129     2.211486     2.203843     2.196199     2.188556     2.180913     2.173270
      2.165627     2.157983     2.150340     2.142697     2.135054     2.127410     2.119767     2.112124     2.104481     2.096838
      2.089194     2.081551     2.073908     2.066265     2.058621     2.050978     2.043335     2.035692     2.028049     2.020405
      2.012762     2.005119     1.997476     1.989833     1.982190     1.974546     1.966903     1.959260     1.951617     1.943974
      1.936331     1.928688     1.921045     1.913402     1.905759     1.898115     1.890472     1.882829     1.875186     1.867543
      1.859900     1.852257     1.844614     1.836971     1.829327     1.821684     1.814041     1.806398     1.798755     1.791112
      1.783469     1.775826     1.768183     1.760540     1.752896     1.745253     1.737610     1.729967     1.722324     1.714681
      1.707038     1.699395     1.691752     1.684108     1.676465     1.668822     1.661179     1.653536     1.645893     1.638250
      1.630607     1.622964     1.615321     1.607677     1.600034     1.592391     1.584748     1.577105     1.569462     1.561819
      1.554176     1.546533     1.538890     1.531246     1.523603     1.515960     1.508317     1.500674     1.493031     1.485388
      1.477745     1.470102     1.462458     1.454815     1.447172     1.439529     1.431886     1.424243     1.416600     1.408957
      1.401314     1.393671     1.386027     1.378384     1.370741     1.363098     1.355455     1.347812     1.340169     1.332526
      1.324883     1.317240     1.309596     1.301953     1.294310     1.286667     1.279024     1.271381     1.263738     1.256095
      1.248452     1.240808     1.233165     1.225522     1.217879     1.210236     1.202593     1.194950     1.187307     1.179664
      1.172021     1.164377     1.156734     1.149091     1.141448     1.133805     1.126162     1.118519     1.110876     1.103233
      1.095590     1.087946     1.080303     1.072660     1.065017     1.057374     1.049731     1.042088     1.034445     1.026802
      1.019158     1.011515     1.003872     0.996229     0.988586     0.980943     0.973300     0.965657     0.958014     0.950371
      0.942727     0.935084     0.927441     0.919798     0.912155     0.904512     0.896869     0.889226     0.881583     0.873940
      0.866296     0.858653     0.851010     0.843367     0.835724     0.828081     0.820438     0.812795     0.805152     0.797508
      0.789865     0.782222     0.774579     0.766936     0.759293     0.751650     0.744007     0.736364     0.728721     0.721077
      0.713434     0.705791     0.698148     0.690505     0.682862     0.675219     0.667576     0.659933     0.652290     0.644646
      0.637003     0.629360     0.621717     0.614074     0.606431     0.598788     0.591145     0.583502     0.575858     0.568215
      0.560572     0.552929     0.545286     0.537643     0.530000     0.522357     0.514714     0.507071     0.499427     0.491784
      0.484141     0.476498     0.468855     0.461212     0.453569     0.445925     0.438282     0.430639     0.422996     0.415353
      0.407710     0.400067     0.392424     0.384780     0.377137     0.369494     0.361851     0.354208     0.346565     0.338922
      0.331278     0.323635     0.315992     0.308349     0.300706     0.293063     0.285420     0.277777     0.270133     0.262490
      0.254847     0.247204     0.239561     0.231918     0.224275     0.216631     0.208988     0.201345
 NY phased data points follow
  -7.17753E+00 -1.26734E+01 -5.27996E+00 -1.55730E+01 -7.78157E+00 -1.12783E+01 -2.74735E+00 -2.16479E+00  2.52314E+00 -3.24047E+00
   5.40207E+00  2.77022E+00  7.26343E-01 -6.54687E+00 -3.43089E-01 -6.64547E+00 -7.34657E+00 -1.24560E+01 -5.88416E+00 -1.44594E+01
  -4.54312E+00 -1.11231E+01 -6.35371E+00 -1.39185E+01 -7.65519E+00 -9.45493E+00 -2.19520E+00 -9.83338E+00 -2.87719E+00 -1.30656E+01
  -4.89840E+00 -7.75798E+00 -6.53043E-01 -5.68764E+00 -3.12268E+00 -5.94103E+00 -9.89301E+00 -1.65887E+01 -6.68729E+00 -1.28767E+01
  -3.20978E+00 -8.75137E+00 -4.81108E+00 -9.85229E+00 -5.34642E+00 -3.14638E+00 -1.35781E+00 -5.09145E+00 -3.37703E+00 -2.08938E+00
  -5.81021E+00 -5.96305E+00 -8.29941E+00 -8.32094E+00 -7.36471E+00 -1.14104E+01 -7.69756E+00 -6.86660E+00 -2.49284E+00 -1.06183E+01
  -6.96530E+00 -9.50922E+00 -9.94615E+00 -1.23545E+01 -9.42027E+00 -1.36018E+01 -9.05234E+00 -1.52415E+01 -5.08666E+00 -1.19052E+01
  -7.04468E+00 -9.75446E+00 -7.61927E+00 -1.54814E+01 -4.88673E+00 -1.25741E+01 -9.45014E+00 -9.77821E+00 -2.82394E+00 -1.08147E+01
  -5.54175E+00 -9.69754E+00 -6.81643E+00 -9.65314E+00 -5.85369E+00 -7.79489E+00 -4.77395E+00 -7.02408E+00 -2.22122E+00 -4.53856E+00
  -3.70451E+00 -2.88737E+00 -4.00989E+00 -4.44353E+00 -5.10437E+00 -1.97546E+00 -1.68672E+00 -2.65796E+00  7.17308E-02  9.17443E+00
   1.49276E+01  2.05847E+01  2.62331E+01  2.83464E+01  2.43785E+01  2.24999E+01  1.59787E+01  2.67632E+00 -1.20299E-01  1.10370E+00
  -2.44552E+00 -4.08401E+00 -5.29432E+00 -9.75187E+00 -4.38789E+00 -7.96956E+00 -4.16045E+00 -4.89624E+00 -9.58694E+00 -5.78680E+00
  -6.00659E+00 -4.55082E+00 -3.72267E+00 -5.29088E+00  3.27478E+00  6.04500E+00  1.28008E+01  1.77782E+01  2.14301E+01  8.72196E+00
   6.63538E+00  2.99859E+00  1.78710E+00 -3.19688E+00 -7.23133E-01 -5.44106E+00 -3.86308E+00 -5.03519E+00 -1.36865E+00 -1.14333E+01
  -7.61462E+00 -6.65428E+00 -7.79743E+00 -6.40069E+00 -6.74742E+00 -1.13591E+01 -5.60099E+00 -1.12235E+01 -8.43573E+00 -1.00360E+01
  -7.66302E+00 -9.88587E+00 -9.51968E+00 -1.01883E+01 -8.42388E+00 -1.19824E+01 -4.72999E+00 -7.58099E+00 -1.08746E+01 -7.07128E+00
  -9.37375E+00 -9.61734E+00 -8.90759E+00 -1.05924E+01 -8.99068E+00 -6.98698E+00 -1.00810E+01 -8.13757E+00 -7.03949E+00 -1.62064E+01
  -1.32715E+01 -1.53948E+01 -1.37218E+01 -1.60858E+01 -1.77771E+01 -1.71886E+01 -1.48242E+01 -1.81971E+01 -1.51929E+01 -1.37129E+01
  -1.41889E+01 -1.15345E+01 -1.31753E+01 -9.72828E+00 -1.20737E+01 -1.07247E+01 -1.16599E+01 -1.06010E+01 -8.16894E+00 -8.51389E+00
  -1.03286E+01 -5.86438E+00 -9.59234E+00 -1.33010E+01 -1.01356E+01 -8.47590E+00 -8.67462E+00 -9.84001E+00 -6.89640E+00 -8.32264E+00
  -4.61282E+00 -6.64990E+00 -4.02688E+00 -5.71929E+00 -3.44334E+00 -1.76325E+00 -2.26865E-01 -4.46797E+00 -5.81000E+00 -2.82462E+00
  -5.15404E+00 -4.84288E+00 -6.27024E+00 -4.08462E+00 -7.95567E-01  2.18289E+00 -3.31649E-01 -1.06390E+00  4.71848E-01 -3.01030E+00
  -5.81932E+00 -8.31692E+00 -5.30919E+00 -6.64281E+00 -2.50223E+00 -3.38780E+00 -3.57219E+00 -1.21791E+00 -3.29415E+00  2.91990E+00
   3.47353E-01  1.00937E+00 -3.23285E+00 -1.91414E+00 -8.89628E-01  1.06642E-01  3.46106E-01 -2.29093E+00 -4.22712E+00 -9.60930E-01
  -1.31234E+00 -3.35502E+00 -1.75861E+00 -3.82292E+00  9.54317E-01 -4.11126E+00 -1.41991E+00  2.63765E+00  1.02855E+00 -3.72527E+00
   4.62293E+00  3.18396E+00  6.27355E+00  7.34545E+00  1.58023E+01  1.28651E+01  2.63212E+01  2.85881E+01  3.87354E+01  4.20268E+01
   5.18835E+01  4.97843E+01  4.50224E+01  3.63181E+01  2.32792E+01  1.46649E+01  1.06724E+01  7.63946E+00  6.44011E+00  2.40277E+00
   2.35871E+00 -1.15278E-01 -1.22941E+00 -2.43454E+00 -4.89437E+00  1.57678E+00 -5.54237E+00  8.19755E-01 -1.71648E+00 -2.63135E+00
  -2.03668E+00 -2.92606E+00 -1.16982E+00  3.16428E-01 -4.73247E+00 -1.67210E+00 -6.19163E+00 -2.86895E-01 -2.23297E+00 -1.70250E+00
   2.21205E-01 -1.66139E-01 -5.55669E+00 -3.80257E+00 -2.63161E+00 -6.06759E+00 -2.68619E+00 -4.49274E+00 -4.57711E+00 -7.77650E+00
  -4.08440E+00 -6.98521E+00 -2.91453E+00 -3.14003E+00 -7.02114E-01 -3.99286E+00 -5.45660E+00 -1.67035E+00 -2.28050E+00 -4.03963E+00
  -1.37146E+00 -2.54969E+00 -4.17314E-01 -3.18048E+00 -2.07323E+00 -2.28530E+00 -4.99280E-01 -4.67881E+00  1.04069E+00 -4.81623E+00
  -2.73202E+00  9.68486E-01 -1.52752E+00 -1.38893E+00 -2.10214E+00 -2.10419E+00 -9.67067E-01  3.48754E+00  4.91721E+00 -8.95247E-01
  -2.83503E+00  6.28708E-01 -2.78070E+00 -5.64978E+00  1.66378E+00  2.03177E+00  7.18714E-01  3.41781E-01  5.25632E-01  2.10944E+00
   3.09057E+00  5.15028E-01 -4.76172E-01  4.37108E+00  3.28696E+00  7.00564E+00  6.22981E+00  1.10527E+01  4.56855E+00  4.40453E+00
   6.93505E+00  9.73502E+00  9.19418E+00  9.12437E+00  8.92556E+00  6.42797E+00  7.08340E+00  7.04118E+00  6.93116E+00  6.33989E+00
   7.50826E+00  6.40194E+00  8.55776E+00  6.11806E+00  9.93137E+00  5.62841E+00  7.95517E+00  4.17897E+00  1.72234E+00  6.16361E+00
   3.14742E+00 -6.87942E-01  2.10313E+00  3.35627E+00  3.29755E+00 -2.32478E+00  2.55205E+00 -2.86105E+00  7.08265E-01 -1.18470E+00
   3.73309E+00  8.81415E-01  1.48405E+00 -1.24271E+00  2.99518E+00  8.37220E-01 -1.08278E+00 -3.85421E+00 -3.44910E+00 -2.65635E+00
  -5.99609E-01  2.63846E+00 -1.23581E+00  1.24673E+00  1.21160E+00  3.13927E+00  3.06146E+00  4.77252E+00  4.86284E+00  3.32200E+00
   3.84752E+00  1.11806E+00  1.53920E+00  3.96560E+00  7.08335E+00  4.35584E+00  4.35489E+00  5.16857E+00  5.54883E+00  9.36173E+00
   4.84522E+00  7.14373E+00  4.76195E+00  2.87976E+00  6.50738E+00  8.69343E+00  1.25414E+00  7.99299E+00  2.15860E+00  4.84891E+00
  -6.66647E-01  3.28736E+00  3.98690E+00  3.57934E+00  2.00004E+00  3.69431E+00  3.67892E+00  7.35708E-01  1.66057E+00  5.46540E-01
   9.69029E-01 -1.46337E+00 -4.94453E+00  1.35772E+00  7.52721E-01  1.84903E+00  1.63102E+00  6.63249E-01  1.76003E+00 -1.95246E+00
   2.27716E+00  1.91883E+00  3.49969E-01 -2.61490E+00 -2.84237E-01 -4.89313E-01  4.02452E-01 -5.00690E+00 -2.28561E-01  1.01096E+00
  -4.97411E-01 -3.28126E-01  2.63131E-01 -3.05956E+00 -1.17514E+00 -3.42866E+00  1.41497E+00 -5.60861E-01  9.62837E-01 -5.30558E+00
   4.03104E+00 -3.02044E+00  1.74534E+00 -2.64229E-01  9.88217E-01 -3.42036E-01  1.31086E+00 -2.80492E+00 -4.64520E-01  6.22405E-01
   1.77967E-01  1.77437E-02 -3.25608E-01  1.45535E+00  7.91577E-02 -3.61723E+00  3.21110E+00 -6.10849E-01 -5.72242E-01  1.27970E+00
  -1.63342E+00 -5.26009E-01 -1.30302E+00  2.77723E-01 -1.70598E+00 -2.96739E+00 -1.68908E+00 -4.86282E+00 -8.62022E-01  3.13506E+00
  -5.07250E-01  1.18139E+00  2.19783E+00 -1.56090E-01 -1.18537E+00 -2.22450E+00  7.78195E-01  1.24701E+00
 NY points of the fit to the data follow
  -1.01978E+01 -1.01997E+01 -9.88074E+00 -9.04720E+00 -7.77719E+00 -6.10729E+00 -4.11374E+00 -1.98954E+00 -3.94704E-02  1.36162E+00
   1.86667E+00  1.32345E+00 -9.99849E-02 -1.99977E+00 -3.90342E+00 -5.50268E+00 -6.76702E+00 -7.79510E+00 -8.49442E+00 -8.76482E+00
  -8.88762E+00 -8.98979E+00 -9.08136E+00 -9.11084E+00 -9.09641E+00 -8.96023E+00 -8.59087E+00 -7.93606E+00 -7.00942E+00 -5.92750E+00
  -4.89230E+00 -4.16902E+00 -3.96582E+00 -4.33197E+00 -5.15797E+00 -6.22772E+00 -7.32329E+00 -8.27896E+00 -8.89742E+00 -9.04260E+00
  -8.79912E+00 -8.24860E+00 -7.48946E+00 -6.62715E+00 -5.76842E+00 -5.02359E+00 -4.50919E+00 -4.35920E+00 -4.63276E+00 -5.28616E+00
  -6.20167E+00 -7.16082E+00 -7.95795E+00 -8.52920E+00 -8.86965E+00 -8.96654E+00 -8.84553E+00 -8.60053E+00 -8.34981E+00 -8.17605E+00
  -8.13618E+00 -8.25370E+00 -8.49867E+00 -8.80263E+00 -9.06779E+00 -9.21500E+00 -9.23367E+00 -9.14770E+00 -8.97331E+00 -8.74430E+00
  -8.50944E+00 -8.30788E+00 -8.16956E+00 -8.11068E+00 -8.13463E+00 -8.22624E+00 -8.36222E+00 -8.52225E+00 -8.66640E+00 -8.73315E+00
  -8.58335E+00 -8.20247E+00 -7.64600E+00 -6.95550E+00 -6.19889E+00 -5.49348E+00 -4.99950E+00 -4.85336E+00 -5.10623E+00 -5.67607E+00
  -6.39224E+00 -7.05698E+00 -7.53484E+00 -7.80458E+00 -7.83527E+00 -7.20952E+00 -5.14652E+00 -1.71683E+00  2.92449E+00  8.68405E+00
   1.50712E+01  2.11215E+01  2.55574E+01  2.71820E+01  2.54427E+01  2.08000E+01  1.45140E+01  8.09871E+00  2.61569E+00 -1.69338E+00
  -4.99818E+00 -7.17099E+00 -8.02447E+00 -8.25543E+00 -8.32269E+00 -8.32833E+00 -8.29780E+00 -8.22594E+00 -8.09289E+00 -7.80830E+00
  -6.97046E+00 -5.25380E+00 -2.76971E+00  4.58180E-01  4.29679E+00  8.31883E+00  1.18453E+01  1.40818E+01  1.43911E+01  1.26610E+01
   9.39521E+00  5.45728E+00  1.68698E+00 -1.48874E+00 -4.07489E+00 -6.10983E+00 -7.32339E+00 -7.72718E+00 -7.78036E+00 -7.65277E+00
  -7.44821E+00 -7.25209E+00 -7.10737E+00 -7.04038E+00 -7.06494E+00 -7.15927E+00 -7.29751E+00 -7.46623E+00 -7.64550E+00 -7.81590E+00
  -7.96010E+00 -8.07242E+00 -8.15649E+00 -8.22016E+00 -8.29164E+00 -8.38033E+00 -8.49542E+00 -8.64795E+00 -8.82048E+00 -9.00508E+00
  -9.16636E+00 -9.24534E+00 -9.21291E+00 -9.09917E+00 -8.97497E+00 -8.91848E+00 -8.98082E+00 -9.14852E+00 -9.36997E+00 -9.62173E+00
  -9.89921E+00 -1.01617E+01 -1.03996E+01 -1.06062E+01 -1.07675E+01 -1.08772E+01 -1.09042E+01 -1.08318E+01 -1.06970E+01 -1.05642E+01
  -1.04844E+01 -1.04323E+01 -1.03336E+01 -1.01356E+01 -9.82491E+00 -9.41920E+00 -8.91338E+00 -8.27784E+00 -7.54497E+00 -6.82018E+00
  -6.25720E+00 -5.97020E+00 -5.96520E+00 -6.17146E+00 -6.47886E+00 -6.77309E+00 -6.95679E+00 -6.91282E+00 -6.57529E+00 -5.95963E+00
  -5.15440E+00 -4.29775E+00 -3.58883E+00 -3.27310E+00 -3.46343E+00 -4.15656E+00 -5.30337E+00 -6.71330E+00 -8.04873E+00 -8.92744E+00
  -9.12552E+00 -8.57031E+00 -7.34340E+00 -5.70422E+00 -4.06053E+00 -2.86931E+00 -2.45758E+00 -2.87463E+00 -3.97976E+00 -5.51853E+00
  -7.01955E+00 -8.04995E+00 -8.40395E+00 -8.01519E+00 -6.98652E+00 -5.55415E+00 -4.10862E+00 -2.95852E+00 -2.21563E+00 -1.85678E+00
  -1.76902E+00 -1.84737E+00 -1.96848E+00 -1.98269E+00 -1.82387E+00 -1.54595E+00 -1.25768E+00 -1.01305E+00 -8.41178E-01 -7.79728E-01
  -8.56788E-01 -1.01333E+00 -1.13895E+00 -1.14455E+00 -9.92672E-01 -7.13839E-01 -3.28678E-01  1.17830E-01  6.07927E-01  1.26207E+00
   2.15679E+00  3.30866E+00  4.83458E+00  7.50687E+00  1.18641E+01  1.74781E+01  2.41360E+01  3.15542E+01  3.89576E+01  4.51108E+01
   4.85799E+01  4.81987E+01  4.37326E+01  3.61578E+01  2.73136E+01  1.90717E+01  1.23125E+01  6.95133E+00  2.82246E+00  3.59665E-01
  -5.92993E-01 -1.05399E+00 -1.33980E+00 -1.52829E+00 -1.68167E+00 -1.84138E+00 -2.01654E+00 -2.21033E+00 -2.41222E+00 -2.60507E+00
  -2.77724E+00 -2.92534E+00 -3.04548E+00 -3.13731E+00 -3.20939E+00 -3.27189E+00 -3.33101E+00 -3.38497E+00 -3.42879E+00 -3.45993E+00
  -3.47733E+00 -3.47914E+00 -3.46686E+00 -3.44473E+00 -3.41857E+00 -3.39185E+00 -3.36570E+00 -3.33934E+00 -3.31095E+00 -3.27891E+00
  -3.24218E+00 -3.19953E+00 -3.15208E+00 -3.10236E+00 -3.05271E+00 -3.00439E+00 -2.95764E+00 -2.91235E+00 -2.86837E+00 -2.82417E+00
  -2.77812E+00 -2.72898E+00 -2.67522E+00 -2.61536E+00 -2.54787E+00 -2.47097E+00 -2.38266E+00 -2.28049E+00 -2.16082E+00 -2.01651E+00
  -1.83412E+00 -1.61980E+00 -1.39570E+00 -1.17488E+00 -9.78161E-01 -8.35409E-01 -7.75548E-01 -8.15126E-01 -9.29054E-01 -1.04902E+00
  -1.10989E+00 -1.05259E+00 -8.41309E-01 -4.78892E-01  1.62733E-03  5.55985E-01  1.13460E+00  1.66965E+00  2.11528E+00  2.48262E+00
   2.80800E+00  3.12815E+00  3.46072E+00  3.80841E+00  4.18664E+00  4.61004E+00  5.06121E+00  5.52413E+00  5.98620E+00  6.43532E+00
   6.85937E+00  7.24633E+00  7.58466E+00  7.86380E+00  8.07462E+00  8.20982E+00  8.26438E+00  8.23578E+00  8.12423E+00  7.93255E+00
   7.66604E+00  7.33214E+00  6.94006E+00  6.50032E+00  6.02427E+00  5.52350E+00  5.00936E+00  4.49254E+00  3.98276E+00  3.48849E+00
   3.01689E+00  2.57362E+00  2.16293E+00  1.78772E+00  1.44974E+00  1.14978E+00  8.87875E-01  6.63414E-01  4.75411E-01  3.22641E-01
   2.03866E-01  1.17911E-01  6.37812E-02  4.06568E-02  4.79918E-02  8.54969E-02  1.53181E-01  2.51240E-01  3.80000E-01  5.39767E-01
   7.30761E-01  9.52956E-01  1.20597E+00  1.48882E+00  1.79980E+00  2.13631E+00  2.49476E+00  2.87052E+00  3.25792E+00  3.65023E+00
   4.03980E+00  4.41828E+00  4.77690E+00  5.10679E+00  5.39939E+00  5.64676E+00  5.84200E+00  5.97958E+00  6.05570E+00  6.06843E+00
   6.01783E+00  5.90587E+00  5.73640E+00  5.51487E+00  5.24811E+00  4.94391E+00  4.61065E+00  4.25685E+00  3.89089E+00  3.52067E+00
   3.15334E+00  2.79508E+00  2.45102E+00  2.12515E+00  1.82038E+00  1.53858E+00  1.28077E+00  1.04710E+00  8.37130E-01  6.49857E-01
   4.83984E-01  3.37963E-01  2.10147E-01  9.87985E-02  2.22413E-03 -8.12205E-02 -1.53024E-01 -2.14566E-01 -2.67074E-01 -3.11685E-01
  -3.49382E-01 -3.81042E-01 -4.07385E-01 -4.29059E-01 -4.46611E-01 -4.60556E-01 -4.71311E-01 -4.79247E-01 -4.84645E-01 -4.87782E-01
  -4.88883E-01 -4.88187E-01 -4.85859E-01 -4.82059E-01 -4.76895E-01 -4.70501E-01 -4.62983E-01 -4.54468E-01 -4.45021E-01 -4.34723E-01
  -4.23614E-01 -4.11776E-01 -3.99264E-01 -3.86151E-01 -3.72457E-01 -3.58224E-01 -3.43469E-01 -3.28256E-01 -3.12613E-01 -2.96586E-01
  -2.80171E-01 -2.63394E-01 -2.46264E-01 -2.28833E-01 -2.11112E-01 -1.93128E-01 -1.74865E-01 -1.56349E-01 -1.37589E-01 -1.18628E-01
  -9.94653E-02 -8.01156E-02 -6.05594E-02 -4.08242E-02 -2.09157E-02 -8.70691E-04  1.93246E-02  3.96604E-02  6.01551E-02  8.07768E-02
   1.01522E-01  1.22361E-01  1.43319E-01  1.64386E-01  1.85577E-01  2.06859E-01  2.28232E-01  2.49678E-01
 NY background values follow
    -1.271E+01   -1.268E+01   -1.266E+01   -1.263E+01   -1.261E+01   -1.258E+01   -1.256E+01   -1.253E+01   -1.251E+01   -1.248E+01
    -1.246E+01   -1.243E+01   -1.241E+01   -1.238E+01   -1.236E+01   -1.233E+01   -1.230E+01   -1.228E+01   -1.225E+01   -1.223E+01
    -1.220E+01   -1.218E+01   -1.215E+01   -1.213E+01   -1.210E+01   -1.208E+01   -1.205E+01   -1.203E+01   -1.200E+01   -1.198E+01
    -1.195E+01   -1.192E+01   -1.190E+01   -1.187E+01   -1.185E+01   -1.182E+01   -1.180E+01   -1.177E+01   -1.175E+01   -1.172E+01
    -1.170E+01   -1.167E+01   -1.165E+01   -1.162E+01   -1.159E+01   -1.157E+01   -1.154E+01   -1.152E+01   -1.149E+01   -1.147E+01
    -1.144E+01   -1.142E+01   -1.139E+01   -1.137E+01   -1.134E+01   -1.132E+01   -1.129E+01   -1.126E+01   -1.124E+01   -1.121E+01
    -1.119E+01   -1.116E+01   -1.114E+01   -1.111E+01   -1.109E+01   -1.106E+01   -1.104E+01   -1.101E+01   -1.099E+01   -1.096E+01
    -1.094E+01   -1.091E+01   -1.088E+01   -1.086E+01   -1.083E+01   -1.081E+01   -1.078E+01   -1.076E+01   -1.073E+01   -1.071E+01
    -1.068E+01   -1.066E+01   -1.063E+01   -1.061E+01   -1.058E+01   -1.055E+01   -1.053E+01   -1.050E+01   -1.048E+01   -1.045E+01
    -1.043E+01   -1.040E+01   -1.038E+01   -1.035E+01   -1.033E+01   -1.030E+01   -1.028E+01   -1.025E+01   -1.022E+01   -1.020E+01
    -1.017E+01   -1.015E+01   -1.012E+01   -1.010E+01   -1.007E+01   -1.005E+01   -1.002E+01   -9.996E+00   -9.970E+00   -9.945E+00
    -9.920E+00   -9.894E+00   -9.869E+00   -9.843E+00   -9.818E+00   -9.793E+00   -9.767E+00   -9.742E+00   -9.716E+00   -9.691E+00
    -9.666E+00   -9.640E+00   -9.615E+00   -9.589E+00   -9.564E+00   -9.539E+00   -9.513E+00   -9.488E+00   -9.462E+00   -9.437E+00
    -9.412E+00   -9.386E+00   -9.361E+00   -9.335E+00   -9.310E+00   -9.285E+00   -9.259E+00   -9.234E+00   -9.208E+00   -9.183E+00
    -9.158E+00   -9.132E+00   -9.107E+00   -9.081E+00   -9.056E+00   -9.031E+00   -9.005E+00   -8.980E+00   -8.954E+00   -8.929E+00
    -8.903E+00   -8.878E+00   -8.853E+00   -8.827E+00   -8.802E+00   -8.776E+00   -8.751E+00   -8.726E+00   -8.700E+00   -8.675E+00
    -8.649E+00   -8.624E+00   -8.599E+00   -8.573E+00   -8.548E+00   -8.522E+00   -8.497E+00   -8.471E+00   -8.446E+00   -8.421E+00
    -8.395E+00   -8.370E+00   -8.344E+00   -8.319E+00   -8.294E+00   -8.268E+00   -8.243E+00   -8.217E+00   -8.192E+00   -8.166E+00
    -8.141E+00   -8.116E+00   -8.090E+00   -8.065E+00   -8.039E+00   -8.014E+00   -7.988E+00   -7.963E+00   -7.938E+00   -7.912E+00
    -7.887E+00   -7.861E+00   -7.836E+00   -7.811E+00   -7.785E+00   -7.760E+00   -7.734E+00   -7.709E+00   -7.683E+00   -7.658E+00
    -7.633E+00   -7.607E+00   -7.582E+00   -7.556E+00   -7.531E+00   -7.505E+00   -7.480E+00   -7.455E+00   -7.429E+00   -7.404E+00
    -7.378E+00   -7.353E+00   -7.327E+00   -7.302E+00   -7.277E+00   -7.251E+00   -7.226E+00   -7.200E+00   -7.175E+00   -7.149E+00
    -7.124E+00   -7.099E+00   -7.073E+00   -7.048E+00   -7.022E+00   -6.997E+00   -6.971E+00   -6.946E+00   -6.921E+00   -6.895E+00
    -6.870E+00   -6.844E+00   -6.819E+00   -6.793E+00   -6.768E+00   -6.742E+00   -6.717E+00   -6.692E+00   -6.666E+00   -6.641E+00
    -6.615E+00   -6.590E+00   -6.564E+00   -6.539E+00   -6.514E+00   -6.488E+00   -6.463E+00   -6.437E+00   -6.412E+00   -6.386E+00
    -6.361E+00   -6.336E+00   -6.310E+00   -6.285E+00   -6.259E+00   -6.234E+00   -6.208E+00   -6.183E+00   -6.157E+00   -6.132E+00
    -6.107E+00   -6.081E+00   -6.056E+00   -6.030E+00   -6.005E+00   -5.979E+00   -5.954E+00   -5.929E+00   -5.903E+00   -5.878E+00
    -5.852E+00   -5.827E+00   -5.801E+00   -5.776E+00   -5.751E+00   -5.725E+00   -5.700E+00   -5.674E+00   -5.649E+00   -5.623E+00
    -5.598E+00   -5.572E+00   -5.547E+00   -5.522E+00   -5.496E+00   -5.471E+00   -5.445E+00   -5.420E+00   -5.394E+00   -5.369E+00
    -5.344E+00   -5.318E+00   -5.293E+00   -5.267E+00   -5.242E+00   -5.216E+00   -5.191E+00   -5.165E+00   -5.140E+00   -5.115E+00
    -5.089E+00   -5.064E+00   -5.038E+00   -5.013E+00   -4.987E+00   -4.962E+00   -4.937E+00   -4.911E+00   -4.886E+00   -4.860E+00
    -4.835E+00   -4.809E+00   -4.784E+00   -4.758E+00   -4.733E+00   -4.708E+00   -4.682E+00   -4.657E+00   -4.631E+00   -4.606E+00
    -4.580E+00   -4.555E+00   -4.529E+00   -4.504E+00   -4.479E+00   -4.453E+00   -4.428E+00   -4.402E+00   -4.377E+00   -4.351E+00
    -4.326E+00   -4.301E+00   -4.275E+00   -4.250E+00   -4.224E+00   -4.199E+00   -4.173E+00   -4.148E+00   -4.122E+00   -4.097E+00
    -4.072E+00   -4.046E+00   -4.021E+00   -3.995E+00   -3.970E+00   -3.944E+00   -3.919E+00   -3.894E+00   -3.868E+00   -3.843E+00
    -3.817E+00   -3.792E+00   -3.766E+00   -3.741E+00   -3.715E+00   -3.690E+00   -3.665E+00   -3.639E+00   -3.614E+00   -3.588E+00
    -3.563E+00   -3.537E+00   -3.512E+00   -3.487E+00   -3.461E+00   -3.436E+00   -3.410E+00   -3.385E+00   -3.359E+00   -3.334E+00
    -3.309E+00   -3.283E+00   -3.258E+00   -3.232E+00   -3.207E+00   -3.181E+00   -3.156E+00   -3.130E+00   -3.105E+00   -3.080E+00
    -3.054E+00   -3.029E+00   -3.003E+00   -2.978E+00   -2.952E+00   -2.927E+00   -2.902E+00   -2.876E+00   -2.851E+00   -2.825E+00
    -2.800E+00   -2.774E+00   -2.749E+00   -2.724E+00   -2.698E+00   -2.673E+00   -2.647E+00   -2.622E+00   -2.596E+00   -2.571E+00
    -2.546E+00   -2.520E+00   -2.495E+00   -2.469E+00   -2.444E+00   -2.418E+00   -2.393E+00   -2.368E+00   -2.342E+00   -2.317E+00
    -2.291E+00   -2.266E+00   -2.240E+00   -2.215E+00   -2.190E+00   -2.164E+00   -2.139E+00   -2.113E+00   -2.088E+00   -2.062E+00
    -2.037E+00   -2.012E+00   -1.986E+00   -1.961E+00   -1.935E+00   -1.910E+00   -1.884E+00   -1.859E+00   -1.834E+00   -1.808E+00
    -1.783E+00   -1.757E+00   -1.732E+00   -1.706E+00   -1.681E+00   -1.656E+00   -1.630E+00   -1.605E+00   -1.579E+00   -1.554E+00
    -1.528E+00   -1.503E+00   -1.478E+00   -1.452E+00   -1.427E+00   -1.401E+00   -1.376E+00   -1.351E+00   -1.325E+00   -1.300E+00
    -1.274E+00   -1.249E+00   -1.223E+00   -1.198E+00   -1.173E+00   -1.147E+00   -1.122E+00   -1.096E+00   -1.071E+00   -1.045E+00
    -1.020E+00   -9.947E-01   -9.692E-01   -9.438E-01   -9.184E-01   -8.930E-01   -8.676E-01   -8.422E-01   -8.167E-01   -7.913E-01
    -7.659E-01   -7.405E-01   -7.151E-01   -6.897E-01   -6.643E-01   -6.389E-01   -6.134E-01   -5.880E-01   -5.626E-01   -5.372E-01
    -5.118E-01   -4.864E-01   -4.610E-01   -4.356E-01   -4.102E-01   -3.847E-01   -3.593E-01   -3.339E-01   -3.085E-01   -2.831E-01
    -2.577E-01   -2.323E-01   -2.069E-01   -1.815E-01   -1.561E-01   -1.307E-01   -1.053E-01   -7.986E-02
 Ala      Conc. = 7.29E+01
