 LCModel (Version 6.3-1L) Copyright: S.W. Provencher.          Ref.: Magn. Reson. Med. 30:672-679 (1993).                
 Slice#2 Row#4 Col#3  PD_24_press_1_raw_act
 36 lines in following concentration table = NCONC+1
    Conc.  %SD /Cr+PCr  Metabolite                                         
    0.000 999%   0.000 Ala                                                 
   12.950 252% 9.3E-02 Asp                                                 
    0.000 999%   0.000 Cr                                                  
  139.206  33%   1.000 PCr                                                 
    6.197 317% 4.5E-02 GABA                                                
    9.637 204% 6.9E-02 Glc                                                 
 1.23E+03  34%   8.846 Gln                                                 
 1.20E+03  39%   8.611 Glu                                                 
    0.000 999%   0.000 GPC                                                 
   19.717  88%   0.142 PCh                                                 
    3.383 999% 2.4E-02 GSH                                                 
  450.002  57%   3.233 Ins                                                 
    0.000 999%   0.000 Lac                                                 
   93.123  55%   0.669 NAA                                                 
    0.000 999%   0.000 NAAG                                                
    2.125 306% 1.5E-02 Scyllo                                              
   13.735 238% 9.9E-02 Tau                                                 
    3.078 999% 2.2E-02 -CrCH2                                              
   19.717  88%   0.142 GPC+PCh                                             
   93.123  55%   0.669 NAA+NAAG                                            
  139.206  33%   1.000 Cr+PCr                                              
 2.43E+03  33%  17.457 Glu+Gln                                             
    0.000 999%   0.000 Lip13a                                              
    0.000 999%   0.000 Lip13b                                              
    0.000 999%   0.000 Lip09                                               
   81.814 133%   0.588 MM09                                                
    0.000 999%   0.000 Lip20                                               
    0.000 999%   0.000 MM20                                                
   29.677 252%   0.213 MM12                                                
 1.56E+03  16%  11.231+MM14                                                
 1.18E+03  15%   8.481+MM17                                                
    0.000 999%   0.000 Lip13a+Lip13b                                       
 1.59E+03  29%  11.444 MM14+Lip13a+Lip13b+MM12                             
   81.814 133%   0.588 MM09+Lip09                                          
    0.000 999%   0.000 MM20+Lip20                                          
   6 lines in following misc. output table
  FWHM = 0.099 ppm    S/N =   2                                            
  Data shift = 0.107 ppm                                                   
  Ph:  58 deg     -22.3 deg/ppm                                            
  alphaB,S = 3.0E-01,   1.1E+02                                            
   14 spline knots.   Ns = 9(1)                                            
  ( 4) 2 infls.   ( 1) 1 extrs.                                            
  498 points on ppm-axis = NY
      4.000000     3.992357     3.984714     3.977070     3.969427     3.961784     3.954141     3.946497     3.938854     3.931211
      3.923568     3.915925     3.908281     3.900638     3.892995     3.885352     3.877708     3.870065     3.862422     3.854779
      3.847136     3.839492     3.831849     3.824206     3.816563     3.808919     3.801276     3.793633     3.785990     3.778347
      3.770703     3.763060     3.755417     3.747774     3.740130     3.732487     3.724844     3.717201     3.709558     3.701914
      3.694271     3.686628     3.678985     3.671341     3.663698     3.656055     3.648412     3.640769     3.633125     3.625482
      3.617839     3.610196     3.602552     3.594909     3.587266     3.579623     3.571980     3.564336     3.556693     3.549050
      3.541407     3.533763     3.526120     3.518477     3.510834     3.503191     3.495547     3.487904     3.480261     3.472618
      3.464974     3.457331     3.449688     3.442045     3.434402     3.426758     3.419115     3.411472     3.403829     3.396185
      3.388542     3.380899     3.373256     3.365613     3.357969     3.350326     3.342683     3.335040     3.327396     3.319753
      3.312110     3.304467     3.296824     3.289180     3.281537     3.273894     3.266251     3.258607     3.250964     3.243321
      3.235678     3.228034     3.220391     3.212748     3.205105     3.197462     3.189818     3.182175     3.174532     3.166889
      3.159245     3.151602     3.143959     3.136316     3.128673     3.121029     3.113386     3.105743     3.098100     3.090456
      3.082813     3.075170     3.067527     3.059884     3.052240     3.044597     3.036954     3.029311     3.021667     3.014024
      3.006381     2.998738     2.991095     2.983451     2.975808     2.968165     2.960522     2.952878     2.945235     2.937592
      2.929949     2.922306     2.914662     2.907019     2.899376     2.891733     2.884089     2.876446     2.868803     2.861160
      2.853517     2.845873     2.838230     2.830587     2.822944     2.815300     2.807657     2.800014     2.792371     2.784728
      2.777084     2.769441     2.761798     2.754155     2.746511     2.738868     2.731225     2.723582     2.715939     2.708295
      2.700652     2.693009     2.685366     2.677722     2.670079     2.662436     2.654793     2.647150     2.639506     2.631863
      2.624220     2.616577     2.608933     2.601290     2.593647     2.586004     2.578361     2.570717     2.563074     2.555431
      2.547788     2.540144     2.532501     2.524858     2.517215     2.509572     2.501928     2.494285     2.486642     2.478999
      2.471355     2.463712     2.456069     2.448426     2.440783     2.433139     2.425496     2.417853     2.410210     2.402566
      2.394923     2.387280     2.379637     2.371994     2.364350     2.356707     2.349064     2.341421     2.333777     2.326134
      2.318491     2.310848     2.303205     2.295561     2.287918     2.280275     2.272632     2.264988     2.257345     2.249702
      2.242059     2.234416     2.226772     2.219129     2.211486     2.203843     2.196199     2.188556     2.180913     2.173270
      2.165627     2.157983     2.150340     2.142697     2.135054     2.127410     2.119767     2.112124     2.104481     2.096838
      2.089194     2.081551     2.073908     2.066265     2.058621     2.050978     2.043335     2.035692     2.028049     2.020405
      2.012762     2.005119     1.997476     1.989833     1.982190     1.974546     1.966903     1.959260     1.951617     1.943974
      1.936331     1.928688     1.921045     1.913402     1.905759     1.898115     1.890472     1.882829     1.875186     1.867543
      1.859900     1.852257     1.844614     1.836971     1.829327     1.821684     1.814041     1.806398     1.798755     1.791112
      1.783469     1.775826     1.768183     1.760540     1.752896     1.745253     1.737610     1.729967     1.722324     1.714681
      1.707038     1.699395     1.691752     1.684108     1.676465     1.668822     1.661179     1.653536     1.645893     1.638250
      1.630607     1.622964     1.615321     1.607677     1.600034     1.592391     1.584748     1.577105     1.569462     1.561819
      1.554176     1.546533     1.538890     1.531246     1.523603     1.515960     1.508317     1.500674     1.493031     1.485388
      1.477745     1.470102     1.462458     1.454815     1.447172     1.439529     1.431886     1.424243     1.416600     1.408957
      1.401314     1.393671     1.386027     1.378384     1.370741     1.363098     1.355455     1.347812     1.340169     1.332526
      1.324883     1.317240     1.309596     1.301953     1.294310     1.286667     1.279024     1.271381     1.263738     1.256095
      1.248452     1.240808     1.233165     1.225522     1.217879     1.210236     1.202593     1.194950     1.187307     1.179664
      1.172021     1.164377     1.156734     1.149091     1.141448     1.133805     1.126162     1.118519     1.110876     1.103233
      1.095590     1.087946     1.080303     1.072660     1.065017     1.057374     1.049731     1.042088     1.034445     1.026802
      1.019158     1.011515     1.003872     0.996229     0.988586     0.980943     0.973300     0.965657     0.958014     0.950371
      0.942727     0.935084     0.927441     0.919798     0.912155     0.904512     0.896869     0.889226     0.881583     0.873940
      0.866296     0.858653     0.851010     0.843367     0.835724     0.828081     0.820438     0.812795     0.805152     0.797508
      0.789865     0.782222     0.774579     0.766936     0.759293     0.751650     0.744007     0.736364     0.728721     0.721077
      0.713434     0.705791     0.698148     0.690505     0.682862     0.675219     0.667576     0.659933     0.652290     0.644646
      0.637003     0.629360     0.621717     0.614074     0.606431     0.598788     0.591145     0.583502     0.575858     0.568215
      0.560572     0.552929     0.545286     0.537643     0.530000     0.522357     0.514714     0.507071     0.499427     0.491784
      0.484141     0.476498     0.468855     0.461212     0.453569     0.445925     0.438282     0.430639     0.422996     0.415353
      0.407710     0.400067     0.392424     0.384780     0.377137     0.369494     0.361851     0.354208     0.346565     0.338922
      0.331278     0.323635     0.315992     0.308349     0.300706     0.293063     0.285420     0.277777     0.270133     0.262490
      0.254847     0.247204     0.239561     0.231918     0.224275     0.216631     0.208988     0.201345
 NY phased data points follow
   5.65125E+01  5.38495E+01  5.71588E+01  5.29972E+01  5.73105E+01  5.29186E+01  5.31948E+01  5.48829E+01  5.35585E+01  5.24911E+01
   5.06326E+01  5.03773E+01  5.20577E+01  4.94076E+01  4.94102E+01  4.76580E+01  4.63640E+01  4.83462E+01  4.92096E+01  4.96278E+01
   4.69515E+01  4.62701E+01  4.44074E+01  4.84652E+01  4.81495E+01  4.22147E+01  4.16193E+01  4.53906E+01  4.45414E+01  4.35322E+01
   4.51919E+01  4.38489E+01  4.41939E+01  4.39673E+01  4.40568E+01  4.68997E+01  4.20368E+01  4.15897E+01  4.24544E+01  4.66831E+01
   4.18544E+01  4.13340E+01  3.96140E+01  3.91993E+01  4.19000E+01  3.77697E+01  4.04740E+01  3.99617E+01  3.85399E+01  3.95028E+01
   3.82187E+01  3.73784E+01  3.79928E+01  4.12185E+01  3.83299E+01  3.47583E+01  3.69517E+01  3.58460E+01  3.66845E+01  3.48019E+01
   3.12445E+01  3.39068E+01  3.45256E+01  3.90023E+01  3.02630E+01  3.41824E+01  3.08683E+01  2.87894E+01  3.62072E+01  3.25749E+01
   3.62689E+01  3.14324E+01  3.33604E+01  3.01924E+01  3.01672E+01  3.51051E+01  3.03943E+01  3.06145E+01  3.18717E+01  3.12169E+01
   3.06003E+01  2.98047E+01  2.94474E+01  2.64208E+01  2.92557E+01  2.88998E+01  2.86336E+01  2.78186E+01  2.48409E+01  2.65254E+01
   2.60249E+01  2.68430E+01  2.89101E+01  2.65796E+01  2.51750E+01  2.22668E+01  2.84895E+01  2.62809E+01  2.58246E+01  2.61602E+01
   2.85793E+01  2.78356E+01  2.43943E+01  2.42835E+01  2.31605E+01  2.54625E+01  2.51319E+01  2.56486E+01  2.36306E+01  2.75447E+01
   2.46465E+01  2.28518E+01  2.35732E+01  2.57377E+01  2.18293E+01  2.37909E+01  2.35093E+01  2.35613E+01  2.00406E+01  2.17397E+01
   2.05287E+01  2.34513E+01  2.46258E+01  2.16762E+01  2.09422E+01  2.73666E+01  2.01919E+01  2.55171E+01  2.38431E+01  2.54414E+01
   2.03275E+01  2.18874E+01  2.01627E+01  2.48260E+01  1.95540E+01  2.44556E+01  2.14468E+01  1.91872E+01  2.00484E+01  2.10022E+01
   2.12602E+01  2.28356E+01  1.85160E+01  1.84864E+01  1.93806E+01  1.94651E+01  2.05857E+01  1.58555E+01  1.71719E+01  1.90090E+01
   1.47948E+01  2.12286E+01  1.73952E+01  1.29226E+01  1.73000E+01  1.21833E+01  1.45100E+01  1.58754E+01  1.52844E+01  1.38165E+01
   1.75986E+01  1.78431E+01  1.58429E+01  1.39282E+01  1.46353E+01  1.25342E+01  1.64799E+01  1.49928E+01  1.17205E+01  1.58163E+01
   1.32515E+01  1.48587E+01  1.49000E+01  1.08638E+01  1.09556E+01  1.46081E+01  1.50412E+01  1.18534E+01  1.29815E+01  1.35216E+01
   5.53394E+00  1.33772E+01  1.10915E+01  1.64645E+01  1.19929E+01  1.05963E+01  1.06295E+01  1.04633E+01  1.14945E+01  1.26414E+01
   9.39063E+00  9.91958E+00  8.96455E+00  1.02421E+01  9.84920E+00  1.18544E+01  1.31083E+01  8.79312E+00  1.24439E+01  8.92948E+00
   1.04557E+01  1.33174E+01  1.51888E+01  1.19201E+01  1.72747E+01  9.90307E+00  1.38019E+01  1.13813E+01  1.06329E+01  1.18872E+01
   1.18440E+01  1.20907E+01  1.18348E+01  1.18285E+01  1.34884E+01  1.54112E+01  1.41979E+01  1.19368E+01  1.26245E+01  1.57983E+01
   1.42589E+01  1.31162E+01  1.48987E+01  1.39830E+01  1.64339E+01  1.51130E+01  1.67965E+01  1.58567E+01  1.45308E+01  1.73952E+01
   1.62559E+01  1.53473E+01  1.96106E+01  1.79373E+01  1.67244E+01  1.81331E+01  1.69943E+01  1.66992E+01  1.75755E+01  1.76458E+01
   1.56197E+01  1.73174E+01  1.96167E+01  1.87861E+01  1.82634E+01  1.93537E+01  2.07202E+01  2.19937E+01  2.25314E+01  2.09636E+01
   2.51537E+01  2.10167E+01  2.14949E+01  2.65780E+01  2.68289E+01  2.40749E+01  2.52298E+01  3.15713E+01  2.91588E+01  2.96469E+01
   2.81555E+01  3.18336E+01  3.17640E+01  3.41685E+01  3.30478E+01  3.43119E+01  3.85046E+01  3.56346E+01  3.40745E+01  3.25097E+01
   3.23496E+01  3.60987E+01  3.45965E+01  3.67128E+01  3.80909E+01  3.93106E+01  4.08015E+01  3.91859E+01  3.79028E+01  3.85102E+01
   3.95577E+01  4.57273E+01  4.18888E+01  4.45243E+01  4.43317E+01  4.66737E+01  4.46893E+01  4.51227E+01  4.80528E+01  4.62634E+01
   4.77042E+01  4.54766E+01  5.08531E+01  4.90301E+01  4.80283E+01  5.32121E+01  4.89464E+01  4.76309E+01  5.50019E+01  5.19310E+01
   5.24128E+01  5.11777E+01  5.06296E+01  5.18226E+01  5.19418E+01  5.13016E+01  4.89563E+01  5.00172E+01  5.09837E+01  5.15918E+01
   5.15934E+01  5.35041E+01  5.13683E+01  5.59415E+01  5.37527E+01  5.13934E+01  5.62025E+01  5.52800E+01  5.05427E+01  5.14209E+01
   5.03447E+01  4.76311E+01  5.19638E+01  5.11108E+01  4.73425E+01  5.18638E+01  4.78406E+01  4.86646E+01  4.51767E+01  4.38780E+01
   4.27726E+01  4.55481E+01  4.60295E+01  4.64010E+01  4.96754E+01  4.46432E+01  3.94454E+01  3.91895E+01  4.26531E+01  4.25463E+01
   3.83165E+01  3.85305E+01  3.46725E+01  3.68991E+01  3.54680E+01  3.50637E+01  3.62660E+01  3.62275E+01  3.56115E+01  3.37916E+01
   3.45304E+01  3.38208E+01  3.63896E+01  3.40261E+01  3.30321E+01  3.38285E+01  3.24036E+01  3.15261E+01  2.99023E+01  3.16137E+01
   3.44667E+01  3.07459E+01  3.12337E+01  3.30442E+01  3.08010E+01  3.01149E+01  2.88044E+01  2.92019E+01  3.31411E+01  2.97686E+01
   3.15610E+01  3.09865E+01  3.09339E+01  2.95758E+01  2.88665E+01  2.83318E+01  2.87595E+01  2.83928E+01  2.38378E+01  2.77011E+01
   2.12986E+01  2.15069E+01  2.47461E+01  2.29858E+01  2.28299E+01  2.39997E+01  2.17341E+01  2.46214E+01  2.16763E+01  1.86256E+01
   2.22767E+01  2.13113E+01  1.85134E+01  2.08979E+01  2.23255E+01  1.95295E+01  2.14838E+01  2.19303E+01  1.91318E+01  1.85505E+01
   1.66362E+01  1.80872E+01  1.92665E+01  1.55927E+01  1.76521E+01  2.04867E+01  1.77865E+01  1.79352E+01  1.68007E+01  1.98381E+01
   2.23281E+01  1.90549E+01  1.93294E+01  2.06629E+01  1.75453E+01  1.60107E+01  1.51088E+01  1.85305E+01  1.41720E+01  1.30676E+01
   1.63792E+01  1.51323E+01  1.76761E+01  1.47242E+01  1.23273E+01  1.56448E+01  1.42257E+01  1.94908E+01  1.42764E+01  1.66856E+01
   1.70611E+01  1.46184E+01  1.41150E+01  1.32173E+01  1.24716E+01  1.34026E+01  1.43711E+01  1.36540E+01  1.20581E+01  1.43963E+01
   1.17563E+01  1.44816E+01  1.40569E+01  1.57315E+01  1.28913E+01  1.41928E+01  1.34284E+01  1.34950E+01  1.13914E+01  1.02107E+01
   1.18887E+01  1.26387E+01  1.35934E+01  1.18921E+01  1.33637E+01  1.38793E+01  1.04002E+01  1.29683E+01  1.29500E+01  1.24886E+01
   1.02335E+01  1.16596E+01  1.14604E+01  1.21519E+01  1.43308E+01  9.92864E+00  1.01571E+01  1.04516E+01  1.40563E+01  1.07372E+01
   1.11968E+01  9.50189E+00  1.30961E+01  8.02459E+00  1.09318E+01  9.92411E+00  1.15977E+01  8.90951E+00  1.28376E+01  9.63634E+00
   9.44643E+00  7.54423E+00  9.57924E+00  1.47044E+01  9.25906E+00  8.77403E+00  1.09084E+01  1.09797E+01  1.04952E+01  1.15925E+01
   1.08289E+01  1.26853E+01  6.15060E+00  6.10718E+00  6.56146E+00  8.28385E+00  7.93745E+00  1.05243E+01
 NY points of the fit to the data follow
   5.45256E+01  5.40899E+01  5.36953E+01  5.33600E+01  5.31106E+01  5.29026E+01  5.27095E+01  5.25303E+01  5.23245E+01  5.20639E+01
   5.17479E+01  5.13832E+01  5.09829E+01  5.05708E+01  5.01669E+01  4.97691E+01  4.93660E+01  4.89432E+01  4.84822E+01  4.80121E+01
   4.75967E+01  4.71642E+01  4.66543E+01  4.61320E+01  4.56782E+01  4.53320E+01  4.51294E+01  4.50633E+01  4.50842E+01  4.51251E+01
   4.51207E+01  4.49941E+01  4.46763E+01  4.41786E+01  4.35969E+01  4.30719E+01  4.27406E+01  4.26039E+01  4.24901E+01  4.22395E+01
   4.17953E+01  4.11647E+01  4.04937E+01  4.00939E+01  4.00832E+01  4.02924E+01  4.05352E+01  4.06263E+01  4.04450E+01  3.99569E+01
   3.93131E+01  3.87013E+01  3.81637E+01  3.76935E+01  3.72527E+01  3.67905E+01  3.62845E+01  3.57741E+01  3.53599E+01  3.50989E+01
   3.49245E+01  3.47461E+01  3.45322E+01  3.42961E+01  3.40531E+01  3.38117E+01  3.35738E+01  3.33345E+01  3.30806E+01  3.28050E+01
   3.25345E+01  3.22961E+01  3.20894E+01  3.19071E+01  3.17224E+01  3.15161E+01  3.12815E+01  3.10212E+01  3.07391E+01  3.04335E+01
   3.01002E+01  2.97388E+01  2.93591E+01  2.89877E+01  2.86271E+01  2.82760E+01  2.79453E+01  2.76478E+01  2.73894E+01  2.71656E+01
   2.69704E+01  2.67940E+01  2.66255E+01  2.64608E+01  2.63152E+01  2.62129E+01  2.61596E+01  2.61495E+01  2.61476E+01  2.61264E+01
   2.60764E+01  2.60007E+01  2.58912E+01  2.57413E+01  2.55559E+01  2.53474E+01  2.51271E+01  2.49106E+01  2.47065E+01  2.44963E+01
   2.42571E+01  2.39712E+01  2.36433E+01  2.33088E+01  2.30351E+01  2.28416E+01  2.26770E+01  2.25497E+01  2.25090E+01  2.25618E+01
   2.26949E+01  2.28915E+01  2.31229E+01  2.33629E+01  2.35861E+01  2.37473E+01  2.38039E+01  2.37454E+01  2.35808E+01  2.33214E+01
   2.29871E+01  2.26110E+01  2.22128E+01  2.17698E+01  2.12393E+01  2.06107E+01  1.99380E+01  1.93667E+01  1.90278E+01  1.88080E+01
   1.86137E+01  1.84279E+01  1.82465E+01  1.80677E+01  1.78908E+01  1.77149E+01  1.75389E+01  1.73623E+01  1.71846E+01  1.70063E+01
   1.68286E+01  1.66521E+01  1.64754E+01  1.62971E+01  1.61173E+01  1.59376E+01  1.57604E+01  1.55869E+01  1.54166E+01  1.52494E+01
   1.50857E+01  1.49258E+01  1.47692E+01  1.46152E+01  1.44633E+01  1.43128E+01  1.41635E+01  1.40157E+01  1.38705E+01  1.37302E+01
   1.35949E+01  1.34615E+01  1.33258E+01  1.31889E+01  1.30558E+01  1.29313E+01  1.28184E+01  1.27141E+01  1.26161E+01  1.25259E+01
   1.24449E+01  1.23729E+01  1.23096E+01  1.22559E+01  1.22105E+01  1.21619E+01  1.20977E+01  1.20028E+01  1.18600E+01  1.16735E+01
   1.14468E+01  1.11881E+01  1.09307E+01  1.07370E+01  1.06606E+01  1.07311E+01  1.09755E+01  1.13913E+01  1.19284E+01  1.25257E+01
   1.30818E+01  1.34274E+01  1.34813E+01  1.32888E+01  1.28891E+01  1.23467E+01  1.17920E+01  1.13617E+01  1.11146E+01  1.11228E+01
   1.13724E+01  1.17831E+01  1.23061E+01  1.28790E+01  1.33427E+01  1.36008E+01  1.37904E+01  1.40690E+01  1.44529E+01  1.48927E+01
   1.52275E+01  1.52271E+01  1.50047E+01  1.48171E+01  1.46930E+01  1.46907E+01  1.49330E+01  1.54875E+01  1.61659E+01  1.68913E+01
   1.76815E+01  1.84917E+01  1.91875E+01  1.96088E+01  1.97681E+01  1.99020E+01  2.01159E+01  2.03436E+01  2.05747E+01  2.07992E+01
   2.09686E+01  2.10507E+01  2.10733E+01  2.11127E+01  2.12567E+01  2.15505E+01  2.19192E+01  2.21888E+01  2.23755E+01  2.26218E+01
   2.29994E+01  2.35755E+01  2.44264E+01  2.54648E+01  2.64499E+01  2.74073E+01  2.83531E+01  2.92448E+01  3.00736E+01  3.08389E+01
   3.14750E+01  3.19285E+01  3.22384E+01  3.24665E+01  3.26834E+01  3.29510E+01  3.32796E+01  3.36138E+01  3.38732E+01  3.40110E+01
   3.40849E+01  3.42600E+01  3.46078E+01  3.50364E+01  3.55191E+01  3.60578E+01  3.66218E+01  3.71995E+01  3.78179E+01  3.84794E+01
   3.91790E+01  3.99067E+01  4.06491E+01  4.13991E+01  4.21705E+01  4.29734E+01  4.37981E+01  4.46299E+01  4.54553E+01  4.62588E+01
   4.70221E+01  4.77241E+01  4.83484E+01  4.88883E+01  4.93381E+01  4.96956E+01  4.99623E+01  5.01439E+01  5.02491E+01  5.02894E+01
   5.02796E+01  5.02369E+01  5.01781E+01  5.01190E+01  5.00747E+01  5.00573E+01  5.00757E+01  5.01351E+01  5.02369E+01  5.03784E+01
   5.05530E+01  5.07509E+01  5.09598E+01  5.11658E+01  5.13542E+01  5.15100E+01  5.16186E+01  5.16674E+01  5.16457E+01  5.15456E+01
   5.13623E+01  5.10936E+01  5.07406E+01  5.03071E+01  4.97995E+01  4.92261E+01  4.85969E+01  4.79230E+01  4.72158E+01  4.64870E+01
   4.57474E+01  4.50073E+01  4.42757E+01  4.35601E+01  4.28667E+01  4.21999E+01  4.15629E+01  4.09573E+01  4.03836E+01  3.98413E+01
   3.93290E+01  3.88448E+01  3.83861E+01  3.79505E+01  3.75350E+01  3.71371E+01  3.67540E+01  3.63835E+01  3.60232E+01  3.56713E+01
   3.53261E+01  3.49861E+01  3.46501E+01  3.43172E+01  3.39866E+01  3.36575E+01  3.33295E+01  3.30022E+01  3.26754E+01  3.23488E+01
   3.20222E+01  3.16958E+01  3.13693E+01  3.10428E+01  3.07163E+01  3.03898E+01  3.00632E+01  2.97367E+01  2.94104E+01  2.90844E+01
   2.87588E+01  2.84340E+01  2.81101E+01  2.77874E+01  2.74661E+01  2.71465E+01  2.68288E+01  2.65134E+01  2.62005E+01  2.58904E+01
   2.55834E+01  2.52798E+01  2.49799E+01  2.46840E+01  2.43924E+01  2.41053E+01  2.38230E+01  2.35458E+01  2.32738E+01  2.30073E+01
   2.27462E+01  2.24907E+01  2.22407E+01  2.19960E+01  2.17563E+01  2.15215E+01  2.12909E+01  2.10641E+01  2.08404E+01  2.06193E+01
   2.04000E+01  2.01818E+01  1.99643E+01  1.97469E+01  1.95292E+01  1.93109E+01  1.90921E+01  1.88728E+01  1.86531E+01  1.84334E+01
   1.82141E+01  1.79956E+01  1.77786E+01  1.75636E+01  1.73514E+01  1.71426E+01  1.69378E+01  1.67375E+01  1.65422E+01  1.63523E+01
   1.61679E+01  1.59893E+01  1.58164E+01  1.56493E+01  1.54878E+01  1.53318E+01  1.51810E+01  1.50353E+01  1.48943E+01  1.47579E+01
   1.46257E+01  1.44975E+01  1.43731E+01  1.42521E+01  1.41345E+01  1.40199E+01  1.39082E+01  1.37991E+01  1.36926E+01  1.35884E+01
   1.34865E+01  1.33865E+01  1.32885E+01  1.31922E+01  1.30975E+01  1.30044E+01  1.29126E+01  1.28221E+01  1.27328E+01  1.26445E+01
   1.25570E+01  1.24704E+01  1.23845E+01  1.22992E+01  1.22145E+01  1.21303E+01  1.20467E+01  1.19635E+01  1.18808E+01  1.17986E+01
   1.17168E+01  1.16355E+01  1.15545E+01  1.14739E+01  1.13937E+01  1.13138E+01  1.12342E+01  1.11549E+01  1.10759E+01  1.09972E+01
   1.09187E+01  1.08404E+01  1.07623E+01  1.06844E+01  1.06067E+01  1.05291E+01  1.04516E+01  1.03742E+01  1.02970E+01  1.02198E+01
   1.01426E+01  1.00655E+01  9.98843E+00  9.91133E+00  9.83422E+00  9.75706E+00  9.67985E+00  9.60257E+00  9.52520E+00  9.44772E+00
   9.37012E+00  9.29238E+00  9.21447E+00  9.13640E+00  9.05813E+00  8.97966E+00  8.90096E+00  8.82203E+00
 NY background values follow
     5.275E+01    5.239E+01    5.204E+01    5.168E+01    5.133E+01    5.097E+01    5.062E+01    5.027E+01    4.992E+01    4.957E+01
     4.922E+01    4.887E+01    4.852E+01    4.817E+01    4.783E+01    4.748E+01    4.714E+01    4.680E+01    4.646E+01    4.612E+01
     4.578E+01    4.544E+01    4.510E+01    4.477E+01    4.444E+01    4.410E+01    4.377E+01    4.345E+01    4.312E+01    4.280E+01
     4.247E+01    4.215E+01    4.183E+01    4.152E+01    4.120E+01    4.089E+01    4.058E+01    4.027E+01    3.996E+01    3.966E+01
     3.936E+01    3.906E+01    3.876E+01    3.846E+01    3.817E+01    3.788E+01    3.760E+01    3.731E+01    3.703E+01    3.675E+01
     3.647E+01    3.620E+01    3.593E+01    3.566E+01    3.539E+01    3.513E+01    3.487E+01    3.461E+01    3.435E+01    3.410E+01
     3.385E+01    3.360E+01    3.335E+01    3.311E+01    3.286E+01    3.262E+01    3.238E+01    3.215E+01    3.192E+01    3.168E+01
     3.145E+01    3.123E+01    3.100E+01    3.078E+01    3.056E+01    3.034E+01    3.012E+01    2.991E+01    2.970E+01    2.949E+01
     2.928E+01    2.907E+01    2.887E+01    2.866E+01    2.846E+01    2.827E+01    2.807E+01    2.787E+01    2.768E+01    2.749E+01
     2.730E+01    2.711E+01    2.693E+01    2.674E+01    2.656E+01    2.638E+01    2.620E+01    2.602E+01    2.584E+01    2.567E+01
     2.549E+01    2.532E+01    2.515E+01    2.498E+01    2.481E+01    2.464E+01    2.447E+01    2.430E+01    2.413E+01    2.397E+01
     2.380E+01    2.364E+01    2.347E+01    2.331E+01    2.315E+01    2.298E+01    2.282E+01    2.266E+01    2.250E+01    2.233E+01
     2.217E+01    2.201E+01    2.185E+01    2.169E+01    2.152E+01    2.136E+01    2.120E+01    2.103E+01    2.087E+01    2.071E+01
     2.054E+01    2.038E+01    2.021E+01    2.004E+01    1.988E+01    1.971E+01    1.954E+01    1.937E+01    1.920E+01    1.902E+01
     1.885E+01    1.868E+01    1.851E+01    1.833E+01    1.816E+01    1.799E+01    1.781E+01    1.764E+01    1.747E+01    1.730E+01
     1.713E+01    1.696E+01    1.679E+01    1.662E+01    1.646E+01    1.629E+01    1.613E+01    1.596E+01    1.580E+01    1.565E+01
     1.549E+01    1.533E+01    1.518E+01    1.503E+01    1.488E+01    1.474E+01    1.460E+01    1.446E+01    1.432E+01    1.419E+01
     1.406E+01    1.393E+01    1.381E+01    1.369E+01    1.357E+01    1.346E+01    1.335E+01    1.325E+01    1.315E+01    1.305E+01
     1.296E+01    1.287E+01    1.279E+01    1.271E+01    1.264E+01    1.257E+01    1.251E+01    1.246E+01    1.240E+01    1.236E+01
     1.232E+01    1.229E+01    1.226E+01    1.224E+01    1.222E+01    1.221E+01    1.221E+01    1.221E+01    1.223E+01    1.224E+01
     1.227E+01    1.230E+01    1.234E+01    1.239E+01    1.245E+01    1.251E+01    1.258E+01    1.266E+01    1.275E+01    1.284E+01
     1.295E+01    1.306E+01    1.318E+01    1.331E+01    1.345E+01    1.360E+01    1.376E+01    1.392E+01    1.410E+01    1.429E+01
     1.448E+01    1.469E+01    1.491E+01    1.513E+01    1.537E+01    1.562E+01    1.588E+01    1.615E+01    1.642E+01    1.671E+01
     1.701E+01    1.732E+01    1.764E+01    1.796E+01    1.830E+01    1.864E+01    1.899E+01    1.934E+01    1.970E+01    2.007E+01
     2.045E+01    2.083E+01    2.121E+01    2.160E+01    2.200E+01    2.239E+01    2.280E+01    2.320E+01    2.361E+01    2.402E+01
     2.443E+01    2.484E+01    2.526E+01    2.568E+01    2.609E+01    2.651E+01    2.693E+01    2.734E+01    2.776E+01    2.817E+01
     2.859E+01    2.900E+01    2.941E+01    2.981E+01    3.022E+01    3.061E+01    3.101E+01    3.140E+01    3.179E+01    3.217E+01
     3.254E+01    3.291E+01    3.328E+01    3.364E+01    3.399E+01    3.433E+01    3.467E+01    3.500E+01    3.533E+01    3.565E+01
     3.596E+01    3.626E+01    3.655E+01    3.684E+01    3.712E+01    3.740E+01    3.766E+01    3.792E+01    3.817E+01    3.841E+01
     3.864E+01    3.886E+01    3.907E+01    3.928E+01    3.948E+01    3.966E+01    3.984E+01    4.001E+01    4.017E+01    4.032E+01
     4.046E+01    4.059E+01    4.071E+01    4.082E+01    4.092E+01    4.101E+01    4.109E+01    4.116E+01    4.121E+01    4.126E+01
     4.130E+01    4.132E+01    4.133E+01    4.133E+01    4.132E+01    4.130E+01    4.127E+01    4.122E+01    4.117E+01    4.110E+01
     4.102E+01    4.093E+01    4.083E+01    4.072E+01    4.059E+01    4.046E+01    4.032E+01    4.017E+01    4.001E+01    3.984E+01
     3.966E+01    3.947E+01    3.928E+01    3.908E+01    3.886E+01    3.865E+01    3.842E+01    3.819E+01    3.795E+01    3.771E+01
     3.746E+01    3.720E+01    3.694E+01    3.667E+01    3.640E+01    3.612E+01    3.584E+01    3.555E+01    3.526E+01    3.497E+01
     3.467E+01    3.437E+01    3.407E+01    3.376E+01    3.345E+01    3.314E+01    3.283E+01    3.251E+01    3.219E+01    3.188E+01
     3.156E+01    3.124E+01    3.092E+01    3.060E+01    3.028E+01    2.996E+01    2.964E+01    2.932E+01    2.900E+01    2.868E+01
     2.836E+01    2.805E+01    2.773E+01    2.741E+01    2.710E+01    2.679E+01    2.647E+01    2.616E+01    2.585E+01    2.555E+01
     2.524E+01    2.494E+01    2.463E+01    2.434E+01    2.404E+01    2.374E+01    2.345E+01    2.316E+01    2.287E+01    2.259E+01
     2.231E+01    2.203E+01    2.176E+01    2.149E+01    2.122E+01    2.095E+01    2.069E+01    2.044E+01    2.018E+01    1.993E+01
     1.969E+01    1.945E+01    1.921E+01    1.898E+01    1.876E+01    1.853E+01    1.832E+01    1.811E+01    1.790E+01    1.770E+01
     1.750E+01    1.731E+01    1.712E+01    1.694E+01    1.676E+01    1.659E+01    1.642E+01    1.625E+01    1.609E+01    1.593E+01
     1.578E+01    1.563E+01    1.548E+01    1.534E+01    1.520E+01    1.506E+01    1.493E+01    1.480E+01    1.468E+01    1.455E+01
     1.443E+01    1.431E+01    1.420E+01    1.409E+01    1.398E+01    1.387E+01    1.376E+01    1.366E+01    1.356E+01    1.346E+01
     1.336E+01    1.326E+01    1.317E+01    1.307E+01    1.298E+01    1.289E+01    1.280E+01    1.272E+01    1.263E+01    1.254E+01
     1.246E+01    1.237E+01    1.229E+01    1.220E+01    1.212E+01    1.204E+01    1.196E+01    1.188E+01    1.179E+01    1.171E+01
     1.163E+01    1.155E+01    1.147E+01    1.139E+01    1.131E+01    1.124E+01    1.116E+01    1.108E+01    1.100E+01    1.092E+01
     1.085E+01    1.077E+01    1.069E+01    1.061E+01    1.054E+01    1.046E+01    1.038E+01    1.031E+01    1.023E+01    1.015E+01
     1.008E+01    1.000E+01    9.926E+00    9.849E+00    9.773E+00    9.696E+00    9.620E+00    9.543E+00    9.466E+00    9.390E+00
     9.312E+00    9.235E+00    9.158E+00    9.080E+00    9.003E+00    8.925E+00    8.846E+00    8.768E+00
 Asp      Conc. = 1.30E+01
