 LCModel (Version 6.3-1L) Copyright: S.W. Provencher.          Ref.: Magn. Reson. Med. 30:672-679 (1993).                
 Slice#1 Row#12 Col#5  PD_24_press_1_raw_act
 36 lines in following concentration table = NCONC+1
    Conc.  %SD /Cr+PCr  Metabolite                                         
  116.529 144%   0.111 Ala                                                 
    0.000 999%   0.000 Asp                                                 
    0.000 999%   0.000 Cr                                                  
 1.05E+03   6%   1.000 PCr                                                 
    9.167 999% 8.7E-03 GABA                                                
  113.038 125%   0.107 Glc                                                 
  464.141  81%   0.441 Gln                                                 
 1.13E+03  38%   1.075 Glu                                                 
  446.177   6%   0.424 GPC                                                 
    0.000 999%   0.000 PCh                                                 
  324.944  28%   0.309 GSH                                                 
 1.80E+03  17%   1.707 Ins                                                 
   74.497 258% 7.1E-02 Lac                                                 
 2.00E+03   7%   1.898 NAA                                                 
   35.649 410% 3.4E-02 NAAG                                                
  250.102  11%   0.238+Scyllo                                              
  910.053  22%   0.865 Tau                                                 
  681.112  18%   0.647 -CrCH2                                              
  446.177   6%   0.424 GPC+PCh                                             
 2.03E+03   4%   1.932 NAA+NAAG                                            
 1.05E+03   6%   1.000 Cr+PCr                                              
 1.60E+03  44%   1.516 Glu+Gln                                             
 1.08E+03  29%   1.030 Lip13a                                              
    0.000 999%   0.000 Lip13b                                              
  265.484  66%   0.252 Lip09                                               
 1.10E+03  18%   1.042 MM09                                                
  209.910  55%   0.199 Lip20                                               
 1.85E+03  19%   1.758 MM20                                                
  310.893  53%   0.295 MM12                                                
  619.135  38%   0.588 MM14                                                
  478.419  33%   0.455 MM17                                                
 1.08E+03  29%   1.030 Lip13a+Lip13b                                       
 2.01E+03  17%   1.913 MM14+Lip13a+Lip13b+MM12                             
 1.36E+03  11%   1.294 MM09+Lip09                                          
 2.06E+03  17%   1.957 MM20+Lip20                                          
   6 lines in following misc. output table
  FWHM = 0.076 ppm    S/N =  10                                            
  Data shift =-0.015 ppm                                                   
  Ph:-105 deg     -28.3 deg/ppm                                            
  alphaB,S = 7.9E-01,   5.1E+01                                            
   14 spline knots.   Ns =11(1)                                            
  (18)10 infls.   (19) 1 extrs.                                            
  498 points on ppm-axis = NY
      4.000000     3.992357     3.984714     3.977070     3.969427     3.961784     3.954141     3.946497     3.938854     3.931211
      3.923568     3.915925     3.908281     3.900638     3.892995     3.885352     3.877708     3.870065     3.862422     3.854779
      3.847136     3.839492     3.831849     3.824206     3.816563     3.808919     3.801276     3.793633     3.785990     3.778347
      3.770703     3.763060     3.755417     3.747774     3.740130     3.732487     3.724844     3.717201     3.709558     3.701914
      3.694271     3.686628     3.678985     3.671341     3.663698     3.656055     3.648412     3.640769     3.633125     3.625482
      3.617839     3.610196     3.602552     3.594909     3.587266     3.579623     3.571980     3.564336     3.556693     3.549050
      3.541407     3.533763     3.526120     3.518477     3.510834     3.503191     3.495547     3.487904     3.480261     3.472618
      3.464974     3.457331     3.449688     3.442045     3.434402     3.426758     3.419115     3.411472     3.403829     3.396185
      3.388542     3.380899     3.373256     3.365613     3.357969     3.350326     3.342683     3.335040     3.327396     3.319753
      3.312110     3.304467     3.296824     3.289180     3.281537     3.273894     3.266251     3.258607     3.250964     3.243321
      3.235678     3.228034     3.220391     3.212748     3.205105     3.197462     3.189818     3.182175     3.174532     3.166889
      3.159245     3.151602     3.143959     3.136316     3.128673     3.121029     3.113386     3.105743     3.098100     3.090456
      3.082813     3.075170     3.067527     3.059884     3.052240     3.044597     3.036954     3.029311     3.021667     3.014024
      3.006381     2.998738     2.991095     2.983451     2.975808     2.968165     2.960522     2.952878     2.945235     2.937592
      2.929949     2.922306     2.914662     2.907019     2.899376     2.891733     2.884089     2.876446     2.868803     2.861160
      2.853517     2.845873     2.838230     2.830587     2.822944     2.815300     2.807657     2.800014     2.792371     2.784728
      2.777084     2.769441     2.761798     2.754155     2.746511     2.738868     2.731225     2.723582     2.715939     2.708295
      2.700652     2.693009     2.685366     2.677722     2.670079     2.662436     2.654793     2.647150     2.639506     2.631863
      2.624220     2.616577     2.608933     2.601290     2.593647     2.586004     2.578361     2.570717     2.563074     2.555431
      2.547788     2.540144     2.532501     2.524858     2.517215     2.509572     2.501928     2.494285     2.486642     2.478999
      2.471355     2.463712     2.456069     2.448426     2.440783     2.433139     2.425496     2.417853     2.410210     2.402566
      2.394923     2.387280     2.379637     2.371994     2.364350     2.356707     2.349064     2.341421     2.333777     2.326134
      2.318491     2.310848     2.303205     2.295561     2.287918     2.280275     2.272632     2.264988     2.257345     2.249702
      2.242059     2.234416     2.226772     2.219129     2.211486     2.203843     2.196199     2.188556     2.180913     2.173270
      2.165627     2.157983     2.150340     2.142697     2.135054     2.127410     2.119767     2.112124     2.104481     2.096838
      2.089194     2.081551     2.073908     2.066265     2.058621     2.050978     2.043335     2.035692     2.028049     2.020405
      2.012762     2.005119     1.997476     1.989833     1.982190     1.974546     1.966903     1.959260     1.951617     1.943974
      1.936331     1.928688     1.921045     1.913402     1.905759     1.898115     1.890472     1.882829     1.875186     1.867543
      1.859900     1.852257     1.844614     1.836971     1.829327     1.821684     1.814041     1.806398     1.798755     1.791112
      1.783469     1.775826     1.768183     1.760540     1.752896     1.745253     1.737610     1.729967     1.722324     1.714681
      1.707038     1.699395     1.691752     1.684108     1.676465     1.668822     1.661179     1.653536     1.645893     1.638250
      1.630607     1.622964     1.615321     1.607677     1.600034     1.592391     1.584748     1.577105     1.569462     1.561819
      1.554176     1.546533     1.538890     1.531246     1.523603     1.515960     1.508317     1.500674     1.493031     1.485388
      1.477745     1.470102     1.462458     1.454815     1.447172     1.439529     1.431886     1.424243     1.416600     1.408957
      1.401314     1.393671     1.386027     1.378384     1.370741     1.363098     1.355455     1.347812     1.340169     1.332526
      1.324883     1.317240     1.309596     1.301953     1.294310     1.286667     1.279024     1.271381     1.263738     1.256095
      1.248452     1.240808     1.233165     1.225522     1.217879     1.210236     1.202593     1.194950     1.187307     1.179664
      1.172021     1.164377     1.156734     1.149091     1.141448     1.133805     1.126162     1.118519     1.110876     1.103233
      1.095590     1.087946     1.080303     1.072660     1.065017     1.057374     1.049731     1.042088     1.034445     1.026802
      1.019158     1.011515     1.003872     0.996229     0.988586     0.980943     0.973300     0.965657     0.958014     0.950371
      0.942727     0.935084     0.927441     0.919798     0.912155     0.904512     0.896869     0.889226     0.881583     0.873940
      0.866296     0.858653     0.851010     0.843367     0.835724     0.828081     0.820438     0.812795     0.805152     0.797508
      0.789865     0.782222     0.774579     0.766936     0.759293     0.751650     0.744007     0.736364     0.728721     0.721077
      0.713434     0.705791     0.698148     0.690505     0.682862     0.675219     0.667576     0.659933     0.652290     0.644646
      0.637003     0.629360     0.621717     0.614074     0.606431     0.598788     0.591145     0.583502     0.575858     0.568215
      0.560572     0.552929     0.545286     0.537643     0.530000     0.522357     0.514714     0.507071     0.499427     0.491784
      0.484141     0.476498     0.468855     0.461212     0.453569     0.445925     0.438282     0.430639     0.422996     0.415353
      0.407710     0.400067     0.392424     0.384780     0.377137     0.369494     0.361851     0.354208     0.346565     0.338922
      0.331278     0.323635     0.315992     0.308349     0.300706     0.293063     0.285420     0.277777     0.270133     0.262490
      0.254847     0.247204     0.239561     0.231918     0.224275     0.216631     0.208988     0.201345
 NY phased data points follow
  -8.56274E+01 -8.53271E+01 -8.24233E+01 -8.29746E+01 -7.89305E+01 -7.79262E+01 -7.47301E+01 -7.18281E+01 -7.34312E+01 -6.92574E+01
  -6.34260E+01 -6.24974E+01 -6.70001E+01 -6.86227E+01 -6.74187E+01 -6.66544E+01 -6.81136E+01 -7.19237E+01 -6.69940E+01 -7.41697E+01
  -7.05674E+01 -7.46651E+01 -7.36810E+01 -7.37199E+01 -6.69650E+01 -6.85540E+01 -6.45030E+01 -6.55286E+01 -6.28952E+01 -6.39512E+01
  -6.14120E+01 -6.04077E+01 -5.89175E+01 -6.11613E+01 -5.86153E+01 -5.70821E+01 -6.02580E+01 -6.19454E+01 -5.46782E+01 -5.70431E+01
  -5.77601E+01 -5.64037E+01 -5.38335E+01 -5.74195E+01 -5.10071E+01 -5.24403E+01 -5.41757E+01 -5.30922E+01 -5.19150E+01 -5.14958E+01
  -5.20061E+01 -5.28997E+01 -5.29418E+01 -5.02550E+01 -5.17431E+01 -5.13230E+01 -4.88194E+01 -5.33361E+01 -4.90131E+01 -5.12219E+01
  -4.81385E+01 -5.06343E+01 -5.14579E+01 -5.19800E+01 -4.78024E+01 -5.07623E+01 -4.58523E+01 -4.77255E+01 -4.46828E+01 -4.79754E+01
  -4.77655E+01 -4.51257E+01 -4.33064E+01 -4.19548E+01 -4.46339E+01 -4.57574E+01 -4.03840E+01 -4.59040E+01 -4.20706E+01 -4.12115E+01
  -3.91986E+01 -4.13735E+01 -3.64208E+01 -3.97531E+01 -3.70830E+01 -3.63692E+01 -3.93486E+01 -3.31902E+01 -3.72879E+01 -3.37839E+01
  -3.29931E+01 -3.04333E+01 -3.16276E+01 -3.27617E+01 -2.96714E+01 -2.91793E+01 -2.92570E+01 -2.83850E+01 -2.37442E+01 -1.64736E+01
  -1.33517E+01 -1.37423E+01 -9.93711E+00 -1.36696E+01 -8.01118E+00 -1.82138E+01 -1.86479E+01 -2.76011E+01 -2.25633E+01 -2.41971E+01
  -2.82415E+01 -2.86943E+01 -3.28150E+01 -3.01166E+01 -3.18356E+01 -3.42245E+01 -3.40658E+01 -3.45129E+01 -3.22365E+01 -3.08773E+01
  -3.05623E+01 -2.71486E+01 -2.56121E+01 -2.15983E+01 -1.70345E+01 -1.69740E+01 -1.11444E+01 -6.75994E+00 -5.71672E+00 -1.17170E+01
  -1.47633E+01 -1.58078E+01 -1.49167E+01 -1.57117E+01 -2.35204E+01 -2.18941E+01 -2.34345E+01 -2.43946E+01 -2.71756E+01 -2.82235E+01
  -3.06394E+01 -2.75917E+01 -2.86034E+01 -2.84729E+01 -2.65670E+01 -3.05905E+01 -2.87744E+01 -3.31755E+01 -2.99768E+01 -2.40881E+01
  -2.17413E+01 -2.65383E+01 -2.69522E+01 -2.70057E+01 -2.49093E+01 -2.80823E+01 -2.73791E+01 -2.11992E+01 -2.44812E+01 -2.21672E+01
  -2.69646E+01 -2.32285E+01 -2.15556E+01 -3.03351E+01 -2.70207E+01 -2.97494E+01 -2.57640E+01 -2.52839E+01 -2.50825E+01 -2.93120E+01
  -2.69941E+01 -2.84242E+01 -2.99887E+01 -2.54800E+01 -3.32557E+01 -2.73453E+01 -2.76141E+01 -2.58050E+01 -2.59091E+01 -2.83426E+01
  -2.32793E+01 -2.13294E+01 -2.58471E+01 -2.24715E+01 -2.03577E+01 -2.46702E+01 -2.35178E+01 -2.45170E+01 -2.78208E+01 -2.08806E+01
  -2.18017E+01 -2.27235E+01 -2.26832E+01 -2.47000E+01 -2.28044E+01 -1.92685E+01 -1.72863E+01 -1.66732E+01 -2.11382E+01 -1.67502E+01
  -1.64110E+01 -1.79197E+01 -1.50983E+01 -1.47255E+01 -1.15980E+01 -1.35421E+01 -1.62106E+01 -1.33271E+01 -1.47417E+01 -1.40101E+01
  -1.07420E+01 -1.40419E+01 -1.08355E+01 -1.14939E+01 -1.11043E+01 -8.41095E+00 -1.40674E+01 -1.01890E+01 -1.14754E+01 -1.33750E+01
  -1.63058E+01 -1.75308E+01 -1.40808E+01 -1.30567E+01 -9.28528E+00 -8.65603E+00 -1.21339E+01 -9.74411E+00 -1.09506E+01 -7.56145E+00
  -1.07613E+01 -8.08538E+00 -1.18714E+01 -3.60650E+00 -9.54970E+00 -6.90499E+00 -7.64727E+00 -4.76565E+00 -4.59525E+00 -6.19273E+00
  -7.84381E+00 -7.10556E+00 -1.12044E+01 -9.78281E+00 -6.78644E+00 -4.23839E+00 -3.27033E+00 -7.71690E-01 -2.26649E+00 -2.11751E+00
  -7.47016E-01  2.47853E+00  7.50968E+00  9.40900E+00  1.29963E+01  2.30553E+01  2.58342E+01  3.41804E+01  3.83314E+01  4.02209E+01
   4.19913E+01  4.34681E+01  3.67480E+01  3.13135E+01  2.45271E+01  2.13356E+01  2.04556E+01  1.47445E+01  1.36892E+01  1.07204E+01
   4.56477E+00  1.87761E+00 -4.81815E-01 -2.93631E+00 -3.58869E+00 -5.21726E+00 -7.23223E+00 -3.81457E+00 -3.97514E+00 -8.74396E-01
  -3.80561E+00 -4.30472E+00 -4.79216E+00 -5.82632E+00 -2.74453E+00 -5.93208E+00 -6.67187E+00 -5.12513E+00 -4.77055E+00 -4.62162E+00
  -5.39841E+00 -1.09849E+00 -1.01675E+01 -3.76045E+00 -5.30215E+00 -3.17821E+00 -4.99419E+00 -5.24363E+00 -7.84675E+00 -3.14551E-01
  -3.80630E+00 -3.46984E+00 -1.38504E+00 -9.38483E-02 -4.81303E-01 -1.49293E+00 -4.78038E+00  1.21058E+00  6.65959E-01  6.82482E-01
  -8.24002E-01  7.34894E+00  1.61016E+00 -1.69964E+00  1.06031E+00  2.47811E+00 -2.30440E+00  3.16975E+00  1.33959E+00  1.89684E+00
  -8.13757E-01 -1.81364E-01  1.78164E+00  2.48949E+00  1.59726E+00  4.21599E-01 -2.49321E+00  2.14867E+00  9.86079E-02  8.26723E-01
   5.22925E+00  1.97818E+00  8.57871E-01 -2.14713E-01  1.73641E+00  2.86309E+00 -1.39585E+00  4.91401E+00  1.22028E+00  3.99004E+00
   7.16189E+00  7.12154E+00  7.07899E+00  6.89823E+00  9.53901E+00  4.81743E+00  5.27636E+00  8.38342E+00  8.35620E+00  7.08849E+00
   6.90489E+00  8.35675E+00  6.65299E+00  5.81229E+00  5.71628E+00  7.16037E+00  6.61972E+00  3.96558E+00  5.22722E+00  3.66653E+00
   6.34560E+00  7.06642E+00  1.01182E+01  8.00837E+00  9.09731E+00  8.37698E+00  2.71062E+00  6.90895E+00  4.78757E+00  8.17247E+00
   5.84281E+00  2.11140E+00  6.38683E+00  7.99865E+00  4.49304E+00  5.87538E+00  4.89983E+00  9.18425E+00  2.88985E+00  6.80685E+00
   5.96194E+00  5.22724E+00  3.43672E+00  3.61604E+00  3.62322E+00  5.40607E+00  2.67663E+00  3.96257E+00  5.74191E+00  6.88482E+00
   6.06009E+00  4.88598E+00  5.27129E+00  6.90445E+00  5.76463E+00  3.82878E+00  7.15282E+00  8.26410E+00  9.86958E+00  1.19194E+01
   1.28363E+01  1.05799E+01  8.18415E+00  1.44163E+01  1.33288E+01  1.74600E+01  1.49677E+01  1.27720E+01  1.84914E+01  1.73225E+01
   1.39836E+01  1.36881E+01  1.44014E+01  1.52145E+01  1.21896E+01  1.52014E+01  1.10524E+01  1.41590E+01  1.01271E+01  1.47677E+01
   9.59977E+00  8.09071E+00  8.55021E+00  1.01399E+01  9.75504E+00  1.41147E+01  6.24549E+00  7.30281E+00  7.16921E+00  1.13873E+01
   1.13446E+01  7.37087E+00  7.07976E+00  1.17323E+01  6.54127E+00  7.71675E+00  7.05169E+00  9.99836E+00  9.48345E+00  8.73143E+00
   6.14282E+00  1.11325E+01  4.13943E+00  1.02614E+01  4.82401E+00  8.08852E+00  1.10416E+01  7.07759E+00  8.92333E+00  8.31669E+00
   8.21566E+00  9.32912E+00  9.87645E+00  7.53111E+00  5.71460E+00  5.28068E+00  7.49370E+00  1.14386E+01  7.90827E+00  8.09142E+00
   3.48745E+00  7.34008E+00  6.22748E+00  7.55733E+00  4.99877E+00  7.87746E+00  3.84622E+00  8.80617E+00  7.15913E+00  3.43580E+00
   7.88240E+00  5.08012E+00  7.03783E+00  4.50545E+00  4.48257E+00  5.18195E+00  9.47562E+00  5.53918E+00  1.07866E+01  8.47301E+00
   5.95084E+00  8.01677E+00  6.46502E+00  6.92976E+00  6.70905E+00  4.67084E+00  7.53654E+00  1.03184E+01  5.96469E+00  1.01321E+01
   9.13986E+00  1.04490E+01  6.70946E+00  4.74333E+00  9.90408E+00  1.00043E+01  7.33634E+00  6.95041E+00
 NY points of the fit to the data follow
  -7.92477E+01 -7.89632E+01 -7.86050E+01 -7.85147E+01 -7.82097E+01 -7.70968E+01 -7.52455E+01 -7.35258E+01 -7.20124E+01 -6.97591E+01
  -6.73233E+01 -6.64833E+01 -6.73708E+01 -6.84341E+01 -6.86863E+01 -6.85315E+01 -6.84454E+01 -6.81544E+01 -6.80149E+01 -6.84757E+01
  -6.88893E+01 -6.90536E+01 -6.89723E+01 -6.85419E+01 -6.79190E+01 -6.70957E+01 -6.59616E+01 -6.46578E+01 -6.33636E+01 -6.20152E+01
  -6.06183E+01 -5.95625E+01 -5.92406E+01 -5.95066E+01 -5.98493E+01 -6.00663E+01 -6.01187E+01 -5.98740E+01 -5.92608E+01 -5.85942E+01
  -5.79900E+01 -5.71278E+01 -5.59121E+01 -5.46241E+01 -5.35069E+01 -5.25768E+01 -5.17868E+01 -5.13742E+01 -5.16922E+01 -5.26144E+01
  -5.33776E+01 -5.36465E+01 -5.35817E+01 -5.33540E+01 -5.30263E+01 -5.26702E+01 -5.24405E+01 -5.22813E+01 -5.19589E+01 -5.15785E+01
  -5.11486E+01 -5.08008E+01 -5.05449E+01 -5.01863E+01 -4.96287E+01 -4.89667E+01 -4.81960E+01 -4.74049E+01 -4.68176E+01 -4.64000E+01
  -4.59822E+01 -4.54273E+01 -4.48006E+01 -4.43325E+01 -4.40057E+01 -4.37109E+01 -4.33887E+01 -4.33838E+01 -4.32113E+01 -4.26376E+01
  -4.18647E+01 -4.07876E+01 -3.93518E+01 -3.78689E+01 -3.68350E+01 -3.63318E+01 -3.58133E+01 -3.53345E+01 -3.55827E+01 -3.64465E+01
  -3.70004E+01 -3.66429E+01 -3.57950E+01 -3.48169E+01 -3.29293E+01 -3.09153E+01 -2.88911E+01 -2.58652E+01 -2.18089E+01 -1.77693E+01
  -1.47367E+01 -1.25284E+01 -1.06563E+01 -1.05449E+01 -1.32319E+01 -1.70436E+01 -1.98567E+01 -2.15620E+01 -2.31533E+01 -2.49127E+01
  -2.65866E+01 -2.87709E+01 -3.13046E+01 -3.31748E+01 -3.44801E+01 -3.52247E+01 -3.49908E+01 -3.40657E+01 -3.30484E+01 -3.11789E+01
  -2.90496E+01 -2.69762E+01 -2.42114E+01 -2.05991E+01 -1.67051E+01 -1.34202E+01 -1.10330E+01 -8.99947E+00 -8.12175E+00 -9.71039E+00
  -1.29648E+01 -1.57756E+01 -1.74608E+01 -1.86700E+01 -2.01156E+01 -2.15523E+01 -2.32133E+01 -2.53726E+01 -2.70400E+01 -2.79675E+01
  -2.85476E+01 -2.85637E+01 -2.83958E+01 -2.83101E+01 -2.82809E+01 -2.82034E+01 -2.80656E+01 -2.78754E+01 -2.76650E+01 -2.74967E+01
  -2.73972E+01 -2.73428E+01 -2.73306E+01 -2.73017E+01 -2.72080E+01 -2.71095E+01 -2.70140E+01 -2.69398E+01 -2.69033E+01 -2.68342E+01
  -2.67352E+01 -2.66320E+01 -2.64801E+01 -2.62699E+01 -2.60696E+01 -2.60073E+01 -2.61425E+01 -2.63542E+01 -2.65291E+01 -2.65699E+01
  -2.65359E+01 -2.65375E+01 -2.65863E+01 -2.66230E+01 -2.66192E+01 -2.65904E+01 -2.65455E+01 -2.63917E+01 -2.60908E+01 -2.57639E+01
  -2.55132E+01 -2.53191E+01 -2.50214E+01 -2.45392E+01 -2.39375E+01 -2.32763E+01 -2.25769E+01 -2.18639E+01 -2.10266E+01 -2.01789E+01
  -1.95136E+01 -1.90157E+01 -1.86527E+01 -1.83862E+01 -1.82059E+01 -1.79663E+01 -1.75422E+01 -1.70559E+01 -1.66336E+01 -1.62315E+01
  -1.57081E+01 -1.52926E+01 -1.51233E+01 -1.50957E+01 -1.52368E+01 -1.55165E+01 -1.59190E+01 -1.62168E+01 -1.62505E+01 -1.61803E+01
  -1.58854E+01 -1.52242E+01 -1.44115E+01 -1.37862E+01 -1.34372E+01 -1.32113E+01 -1.31058E+01 -1.34818E+01 -1.42655E+01 -1.48423E+01
  -1.49829E+01 -1.48079E+01 -1.44122E+01 -1.38014E+01 -1.28924E+01 -1.19705E+01 -1.13397E+01 -1.09751E+01 -1.06775E+01 -1.02663E+01
  -9.76449E+00 -9.26076E+00 -8.70099E+00 -8.03827E+00 -7.43004E+00 -6.98214E+00 -6.72531E+00 -6.54655E+00 -6.41939E+00 -6.46701E+00
  -6.59447E+00 -6.57754E+00 -6.36623E+00 -6.01144E+00 -5.46928E+00 -4.76777E+00 -4.11500E+00 -3.59267E+00 -2.98389E+00 -1.58223E+00
   4.02933E-01  2.86520E+00  6.79492E+00  1.07279E+01  1.46807E+01  1.98961E+01  2.62572E+01  3.24778E+01  3.71231E+01  4.05076E+01
   4.32119E+01  4.28921E+01  3.79359E+01  3.10457E+01  2.56771E+01  2.22275E+01  1.92004E+01  1.59814E+01  1.30074E+01  9.29796E+00
   4.86660E+00  1.40145E+00 -1.09453E+00 -2.79353E+00 -3.41943E+00 -3.68992E+00 -3.90111E+00 -4.08519E+00 -4.22390E+00 -4.33362E+00
  -4.42112E+00 -4.48255E+00 -4.51983E+00 -4.54595E+00 -4.56591E+00 -4.57902E+00 -4.57905E+00 -4.55765E+00 -4.51479E+00 -4.44886E+00
  -4.35746E+00 -4.24415E+00 -4.11129E+00 -3.95848E+00 -3.78720E+00 -3.59656E+00 -3.38634E+00 -3.15602E+00 -2.90687E+00 -2.64124E+00
  -2.36176E+00 -2.07241E+00 -1.77842E+00 -1.48421E+00 -1.19512E+00 -9.16284E-01 -6.52611E-01 -4.08074E-01 -1.86013E-01  1.09114E-02
   1.80950E-01  3.24253E-01  4.41936E-01  5.37432E-01  6.16551E-01  6.89405E-01  7.68883E-01  8.36861E-01  9.10586E-01  9.91197E-01
   1.04870E+00  1.11504E+00  1.19987E+00  1.26642E+00  1.29897E+00  1.28911E+00  1.26722E+00  1.26471E+00  1.20926E+00  1.14293E+00
   1.21577E+00  1.47710E+00  1.85427E+00  2.24972E+00  2.66378E+00  3.13428E+00  3.58887E+00  3.94950E+00  4.24741E+00  4.54397E+00
   4.85859E+00  5.18079E+00  5.48232E+00  5.75761E+00  5.96819E+00  6.07259E+00  6.13821E+00  6.19409E+00  6.19037E+00  6.17034E+00
   6.22370E+00  6.38333E+00  6.59646E+00  6.79361E+00  6.97731E+00  7.16470E+00  7.29104E+00  7.32112E+00  7.29967E+00  7.26408E+00
   7.23165E+00  7.18530E+00  7.10728E+00  7.00692E+00  6.86475E+00  6.68218E+00  6.48740E+00  6.28560E+00  6.08719E+00  5.90293E+00
   5.72935E+00  5.56616E+00  5.41437E+00  5.27566E+00  5.15149E+00  5.04354E+00  4.95309E+00  4.88153E+00  4.82984E+00  4.79926E+00
   4.79070E+00  4.80541E+00  4.84439E+00  4.90907E+00  5.00064E+00  5.12084E+00  5.27123E+00  5.45383E+00  5.67040E+00  5.92299E+00
   6.21320E+00  6.54268E+00  6.91228E+00  7.32249E+00  7.77253E+00  8.26078E+00  8.78395E+00  9.33756E+00  9.91516E+00  1.05090E+01
   1.11092E+01  1.17050E+01  1.22842E+01  1.28341E+01  1.33416E+01  1.37942E+01  1.41800E+01  1.44891E+01  1.47134E+01  1.48475E+01
   1.48888E+01  1.48376E+01  1.46972E+01  1.44738E+01  1.41757E+01  1.38136E+01  1.33992E+01  1.29451E+01  1.24640E+01  1.19686E+01
   1.14701E+01  1.09790E+01  1.05041E+01  1.00525E+01  9.62955E+00  9.23909E+00  8.88324E+00  8.56301E+00  8.27798E+00  8.02714E+00
   7.80852E+00  7.62003E+00  7.45896E+00  7.32279E+00  7.20870E+00  7.11426E+00  7.03692E+00  6.97466E+00  6.92531E+00  6.88725E+00
   6.85876E+00  6.83865E+00  6.82559E+00  6.81876E+00  6.81711E+00  6.82007E+00  6.82682E+00  6.83702E+00  6.85004E+00  6.86565E+00
   6.88334E+00  6.90297E+00  6.92412E+00  6.94675E+00  6.97053E+00  6.99546E+00  7.02125E+00  7.04793E+00  7.07525E+00  7.10331E+00
   7.13185E+00  7.16099E+00  7.19048E+00  7.22044E+00  7.25068E+00  7.28133E+00  7.31219E+00  7.34339E+00  7.37473E+00  7.40637E+00
   7.43813E+00  7.47018E+00  7.50231E+00  7.53470E+00  7.56714E+00  7.59983E+00  7.63260E+00  7.66561E+00  7.69868E+00  7.73197E+00
   7.76533E+00  7.79894E+00  7.83263E+00  7.86657E+00  7.90060E+00  7.93488E+00  7.96926E+00  8.00393E+00  8.03873E+00  8.07383E+00
   8.10906E+00  8.14461E+00  8.18033E+00  8.21641E+00  8.25269E+00  8.28936E+00  8.32624E+00  8.36355E+00
 NY background values follow
    -8.406E+01   -8.362E+01   -8.317E+01   -8.272E+01   -8.228E+01   -8.183E+01   -8.139E+01   -8.094E+01   -8.049E+01   -8.005E+01
    -7.960E+01   -7.916E+01   -7.871E+01   -7.827E+01   -7.782E+01   -7.738E+01   -7.693E+01   -7.649E+01   -7.605E+01   -7.560E+01
    -7.516E+01   -7.472E+01   -7.427E+01   -7.383E+01   -7.339E+01   -7.295E+01   -7.251E+01   -7.207E+01   -7.163E+01   -7.120E+01
    -7.076E+01   -7.032E+01   -6.989E+01   -6.945E+01   -6.902E+01   -6.859E+01   -6.815E+01   -6.772E+01   -6.729E+01   -6.686E+01
    -6.644E+01   -6.601E+01   -6.558E+01   -6.516E+01   -6.473E+01   -6.431E+01   -6.389E+01   -6.347E+01   -6.305E+01   -6.263E+01
    -6.222E+01   -6.180E+01   -6.139E+01   -6.098E+01   -6.057E+01   -6.016E+01   -5.975E+01   -5.934E+01   -5.894E+01   -5.853E+01
    -5.813E+01   -5.773E+01   -5.733E+01   -5.693E+01   -5.653E+01   -5.614E+01   -5.575E+01   -5.536E+01   -5.497E+01   -5.458E+01
    -5.419E+01   -5.381E+01   -5.342E+01   -5.304E+01   -5.266E+01   -5.228E+01   -5.191E+01   -5.153E+01   -5.116E+01   -5.079E+01
    -5.042E+01   -5.005E+01   -4.968E+01   -4.932E+01   -4.896E+01   -4.860E+01   -4.824E+01   -4.789E+01   -4.753E+01   -4.718E+01
    -4.683E+01   -4.648E+01   -4.614E+01   -4.579E+01   -4.545E+01   -4.511E+01   -4.477E+01   -4.444E+01   -4.410E+01   -4.377E+01
    -4.344E+01   -4.311E+01   -4.279E+01   -4.246E+01   -4.214E+01   -4.182E+01   -4.150E+01   -4.118E+01   -4.087E+01   -4.056E+01
    -4.024E+01   -3.994E+01   -3.963E+01   -3.932E+01   -3.902E+01   -3.872E+01   -3.842E+01   -3.812E+01   -3.782E+01   -3.753E+01
    -3.724E+01   -3.695E+01   -3.666E+01   -3.637E+01   -3.608E+01   -3.580E+01   -3.552E+01   -3.524E+01   -3.496E+01   -3.468E+01
    -3.441E+01   -3.413E+01   -3.386E+01   -3.359E+01   -3.332E+01   -3.305E+01   -3.279E+01   -3.253E+01   -3.226E+01   -3.200E+01
    -3.174E+01   -3.149E+01   -3.123E+01   -3.098E+01   -3.073E+01   -3.047E+01   -3.023E+01   -2.998E+01   -2.973E+01   -2.949E+01
    -2.924E+01   -2.900E+01   -2.876E+01   -2.852E+01   -2.828E+01   -2.805E+01   -2.781E+01   -2.758E+01   -2.735E+01   -2.712E+01
    -2.689E+01   -2.666E+01   -2.643E+01   -2.621E+01   -2.598E+01   -2.576E+01   -2.554E+01   -2.532E+01   -2.510E+01   -2.488E+01
    -2.467E+01   -2.445E+01   -2.424E+01   -2.402E+01   -2.381E+01   -2.360E+01   -2.339E+01   -2.318E+01   -2.298E+01   -2.277E+01
    -2.256E+01   -2.236E+01   -2.216E+01   -2.196E+01   -2.176E+01   -2.156E+01   -2.136E+01   -2.116E+01   -2.096E+01   -2.077E+01
    -2.058E+01   -2.038E+01   -2.019E+01   -2.000E+01   -1.981E+01   -1.962E+01   -1.943E+01   -1.925E+01   -1.906E+01   -1.888E+01
    -1.870E+01   -1.852E+01   -1.834E+01   -1.816E+01   -1.798E+01   -1.780E+01   -1.763E+01   -1.745E+01   -1.728E+01   -1.711E+01
    -1.694E+01   -1.677E+01   -1.660E+01   -1.643E+01   -1.627E+01   -1.610E+01   -1.594E+01   -1.578E+01   -1.562E+01   -1.546E+01
    -1.530E+01   -1.514E+01   -1.498E+01   -1.483E+01   -1.468E+01   -1.452E+01   -1.437E+01   -1.422E+01   -1.408E+01   -1.393E+01
    -1.378E+01   -1.364E+01   -1.350E+01   -1.335E+01   -1.321E+01   -1.307E+01   -1.294E+01   -1.280E+01   -1.266E+01   -1.253E+01
    -1.239E+01   -1.226E+01   -1.213E+01   -1.200E+01   -1.187E+01   -1.174E+01   -1.161E+01   -1.148E+01   -1.136E+01   -1.123E+01
    -1.111E+01   -1.098E+01   -1.086E+01   -1.074E+01   -1.062E+01   -1.049E+01   -1.037E+01   -1.026E+01   -1.014E+01   -1.002E+01
    -9.903E+00   -9.787E+00   -9.672E+00   -9.557E+00   -9.443E+00   -9.329E+00   -9.216E+00   -9.103E+00   -8.991E+00   -8.880E+00
    -8.769E+00   -8.659E+00   -8.549E+00   -8.439E+00   -8.330E+00   -8.222E+00   -8.114E+00   -8.006E+00   -7.899E+00   -7.792E+00
    -7.686E+00   -7.580E+00   -7.475E+00   -7.370E+00   -7.265E+00   -7.161E+00   -7.057E+00   -6.954E+00   -6.851E+00   -6.748E+00
    -6.646E+00   -6.544E+00   -6.443E+00   -6.342E+00   -6.241E+00   -6.140E+00   -6.040E+00   -5.941E+00   -5.841E+00   -5.742E+00
    -5.644E+00   -5.545E+00   -5.447E+00   -5.349E+00   -5.252E+00   -5.155E+00   -5.058E+00   -4.961E+00   -4.865E+00   -4.769E+00
    -4.674E+00   -4.578E+00   -4.483E+00   -4.388E+00   -4.294E+00   -4.199E+00   -4.105E+00   -4.011E+00   -3.918E+00   -3.824E+00
    -3.731E+00   -3.638E+00   -3.545E+00   -3.453E+00   -3.361E+00   -3.269E+00   -3.177E+00   -3.086E+00   -2.994E+00   -2.903E+00
    -2.813E+00   -2.722E+00   -2.632E+00   -2.542E+00   -2.452E+00   -2.362E+00   -2.273E+00   -2.183E+00   -2.095E+00   -2.006E+00
    -1.917E+00   -1.829E+00   -1.741E+00   -1.653E+00   -1.566E+00   -1.478E+00   -1.391E+00   -1.304E+00   -1.218E+00   -1.131E+00
    -1.045E+00   -9.590E-01   -8.733E-01   -7.877E-01   -7.024E-01   -6.173E-01   -5.324E-01   -4.477E-01   -3.633E-01   -2.791E-01
    -1.950E-01   -1.113E-01   -2.768E-02    5.567E-02    1.388E-01    2.217E-01    3.044E-01    3.868E-01    4.690E-01    5.510E-01
     6.327E-01    7.142E-01    7.954E-01    8.763E-01    9.571E-01    1.038E+00    1.118E+00    1.198E+00    1.277E+00    1.357E+00
     1.436E+00    1.515E+00    1.593E+00    1.671E+00    1.749E+00    1.827E+00    1.904E+00    1.981E+00    2.058E+00    2.134E+00
     2.211E+00    2.286E+00    2.362E+00    2.437E+00    2.512E+00    2.586E+00    2.661E+00    2.734E+00    2.808E+00    2.881E+00
     2.954E+00    3.026E+00    3.098E+00    3.170E+00    3.241E+00    3.312E+00    3.383E+00    3.453E+00    3.523E+00    3.593E+00
     3.662E+00    3.731E+00    3.799E+00    3.867E+00    3.935E+00    4.002E+00    4.069E+00    4.135E+00    4.201E+00    4.266E+00
     4.331E+00    4.396E+00    4.460E+00    4.524E+00    4.588E+00    4.650E+00    4.713E+00    4.775E+00    4.837E+00    4.898E+00
     4.958E+00    5.019E+00    5.078E+00    5.137E+00    5.196E+00    5.255E+00    5.312E+00    5.370E+00    5.427E+00    5.483E+00
     5.539E+00    5.594E+00    5.649E+00    5.703E+00    5.757E+00    5.810E+00    5.863E+00    5.915E+00    5.967E+00    6.018E+00
     6.069E+00    6.119E+00    6.168E+00    6.217E+00    6.266E+00    6.314E+00    6.361E+00    6.408E+00    6.455E+00    6.501E+00
     6.546E+00    6.591E+00    6.636E+00    6.681E+00    6.725E+00    6.768E+00    6.812E+00    6.855E+00    6.898E+00    6.940E+00
     6.982E+00    7.024E+00    7.066E+00    7.107E+00    7.149E+00    7.190E+00    7.231E+00    7.271E+00    7.312E+00    7.352E+00
     7.393E+00    7.433E+00    7.473E+00    7.514E+00    7.554E+00    7.594E+00    7.634E+00    7.674E+00    7.714E+00    7.754E+00
     7.795E+00    7.835E+00    7.875E+00    7.916E+00    7.957E+00    7.997E+00    8.038E+00    8.079E+00
 Ala      Conc. = 1.17E+02
