 LCModel (Version 6.3-1L) Copyright: S.W. Provencher.          Ref.: Magn. Reson. Med. 30:672-679 (1993).                
 Slice#1 Row#6 Col#14  PD_24_press_1_raw_act
 36 lines in following concentration table = NCONC+1
    Conc.  %SD /Cr+PCr  Metabolite                                         
   43.940  45%   1.032 Ala                                                 
   10.332  41%   0.243 Asp                                                 
   28.094  76%   0.660 Cr                                                  
   14.475 153%   0.340 PCr                                                 
    6.282  41%   0.148 GABA                                                
    6.251  41%   0.147 Glc                                                 
    6.869 430%   0.161 Gln                                                 
   67.332  55%   1.582 Glu                                                 
   25.960  29%   0.610 GPC                                                 
    0.000 999%   0.000 PCh                                                 
   17.056  79%   0.401 GSH                                                 
   80.817  56%   1.898 Ins                                                 
    0.000 999%   0.000 Lac                                                 
   88.129  27%   2.070 NAA                                                 
    0.000 999%   0.000 NAAG                                                
    2.139  40% 5.0E-02 Scyllo                                              
   10.498  40%   0.247 Tau                                                 
    4.123  96% 9.7E-02 -CrCH2                                              
   25.960  29%   0.610 GPC+PCh                                             
   88.129  27%   2.070 NAA+NAAG                                            
   42.569  35%   1.000 Cr+PCr                                              
   74.202  59%   1.743 Glu+Gln                                             
    0.000 999%   0.000 Lip13a                                              
 1.03E+04  25% 241.204 Lip13b                                              
 7.31E+03  15% 171.743 Lip09                                               
 6.61E+03  16% 155.298 MM09                                                
  271.382  88%   6.375 Lip20                                               
    0.000 999%   0.000 MM20                                                
 7.51E+03  20% 176.395 MM12                                                
 2.66E+03  44%  62.530 MM14                                                
 2.77E+03  25%  65.129 MM17                                                
 1.03E+04  25% 241.204 Lip13a+Lip13b                                       
 2.04E+04   9% 480.130 MM14+Lip13a+Lip13b+MM12                             
 1.39E+04   9% 327.041 MM09+Lip09                                          
  271.382  88%   6.375 MM20+Lip20                                          
   6 lines in following misc. output table
  FWHM = 0.038 ppm    S/N =  20                                            
  Data shift = 0.008 ppm                                                   
  Ph: -78 deg     -18.9 deg/ppm                                            
  alphaB,S = 1.2E+00,   6.5E+00                                            
   14 spline knots.   Ns = 5(1)                                            
  ( 7) 4 infls.   ( 6) 2 extrs.                                            
  498 points on ppm-axis = NY
      4.000000     3.992357     3.984714     3.977070     3.969427     3.961784     3.954141     3.946497     3.938854     3.931211
      3.923568     3.915925     3.908281     3.900638     3.892995     3.885352     3.877708     3.870065     3.862422     3.854779
      3.847136     3.839492     3.831849     3.824206     3.816563     3.808919     3.801276     3.793633     3.785990     3.778347
      3.770703     3.763060     3.755417     3.747774     3.740130     3.732487     3.724844     3.717201     3.709558     3.701914
      3.694271     3.686628     3.678985     3.671341     3.663698     3.656055     3.648412     3.640769     3.633125     3.625482
      3.617839     3.610196     3.602552     3.594909     3.587266     3.579623     3.571980     3.564336     3.556693     3.549050
      3.541407     3.533763     3.526120     3.518477     3.510834     3.503191     3.495547     3.487904     3.480261     3.472618
      3.464974     3.457331     3.449688     3.442045     3.434402     3.426758     3.419115     3.411472     3.403829     3.396185
      3.388542     3.380899     3.373256     3.365613     3.357969     3.350326     3.342683     3.335040     3.327396     3.319753
      3.312110     3.304467     3.296824     3.289180     3.281537     3.273894     3.266251     3.258607     3.250964     3.243321
      3.235678     3.228034     3.220391     3.212748     3.205105     3.197462     3.189818     3.182175     3.174532     3.166889
      3.159245     3.151602     3.143959     3.136316     3.128673     3.121029     3.113386     3.105743     3.098100     3.090456
      3.082813     3.075170     3.067527     3.059884     3.052240     3.044597     3.036954     3.029311     3.021667     3.014024
      3.006381     2.998738     2.991095     2.983451     2.975808     2.968165     2.960522     2.952878     2.945235     2.937592
      2.929949     2.922306     2.914662     2.907019     2.899376     2.891733     2.884089     2.876446     2.868803     2.861160
      2.853517     2.845873     2.838230     2.830587     2.822944     2.815300     2.807657     2.800014     2.792371     2.784728
      2.777084     2.769441     2.761798     2.754155     2.746511     2.738868     2.731225     2.723582     2.715939     2.708295
      2.700652     2.693009     2.685366     2.677722     2.670079     2.662436     2.654793     2.647150     2.639506     2.631863
      2.624220     2.616577     2.608933     2.601290     2.593647     2.586004     2.578361     2.570717     2.563074     2.555431
      2.547788     2.540144     2.532501     2.524858     2.517215     2.509572     2.501928     2.494285     2.486642     2.478999
      2.471355     2.463712     2.456069     2.448426     2.440783     2.433139     2.425496     2.417853     2.410210     2.402566
      2.394923     2.387280     2.379637     2.371994     2.364350     2.356707     2.349064     2.341421     2.333777     2.326134
      2.318491     2.310848     2.303205     2.295561     2.287918     2.280275     2.272632     2.264988     2.257345     2.249702
      2.242059     2.234416     2.226772     2.219129     2.211486     2.203843     2.196199     2.188556     2.180913     2.173270
      2.165627     2.157983     2.150340     2.142697     2.135054     2.127410     2.119767     2.112124     2.104481     2.096838
      2.089194     2.081551     2.073908     2.066265     2.058621     2.050978     2.043335     2.035692     2.028049     2.020405
      2.012762     2.005119     1.997476     1.989833     1.982190     1.974546     1.966903     1.959260     1.951617     1.943974
      1.936331     1.928688     1.921045     1.913402     1.905759     1.898115     1.890472     1.882829     1.875186     1.867543
      1.859900     1.852257     1.844614     1.836971     1.829327     1.821684     1.814041     1.806398     1.798755     1.791112
      1.783469     1.775826     1.768183     1.760540     1.752896     1.745253     1.737610     1.729967     1.722324     1.714681
      1.707038     1.699395     1.691752     1.684108     1.676465     1.668822     1.661179     1.653536     1.645893     1.638250
      1.630607     1.622964     1.615321     1.607677     1.600034     1.592391     1.584748     1.577105     1.569462     1.561819
      1.554176     1.546533     1.538890     1.531246     1.523603     1.515960     1.508317     1.500674     1.493031     1.485388
      1.477745     1.470102     1.462458     1.454815     1.447172     1.439529     1.431886     1.424243     1.416600     1.408957
      1.401314     1.393671     1.386027     1.378384     1.370741     1.363098     1.355455     1.347812     1.340169     1.332526
      1.324883     1.317240     1.309596     1.301953     1.294310     1.286667     1.279024     1.271381     1.263738     1.256095
      1.248452     1.240808     1.233165     1.225522     1.217879     1.210236     1.202593     1.194950     1.187307     1.179664
      1.172021     1.164377     1.156734     1.149091     1.141448     1.133805     1.126162     1.118519     1.110876     1.103233
      1.095590     1.087946     1.080303     1.072660     1.065017     1.057374     1.049731     1.042088     1.034445     1.026802
      1.019158     1.011515     1.003872     0.996229     0.988586     0.980943     0.973300     0.965657     0.958014     0.950371
      0.942727     0.935084     0.927441     0.919798     0.912155     0.904512     0.896869     0.889226     0.881583     0.873940
      0.866296     0.858653     0.851010     0.843367     0.835724     0.828081     0.820438     0.812795     0.805152     0.797508
      0.789865     0.782222     0.774579     0.766936     0.759293     0.751650     0.744007     0.736364     0.728721     0.721077
      0.713434     0.705791     0.698148     0.690505     0.682862     0.675219     0.667576     0.659933     0.652290     0.644646
      0.637003     0.629360     0.621717     0.614074     0.606431     0.598788     0.591145     0.583502     0.575858     0.568215
      0.560572     0.552929     0.545286     0.537643     0.530000     0.522357     0.514714     0.507071     0.499427     0.491784
      0.484141     0.476498     0.468855     0.461212     0.453569     0.445925     0.438282     0.430639     0.422996     0.415353
      0.407710     0.400067     0.392424     0.384780     0.377137     0.369494     0.361851     0.354208     0.346565     0.338922
      0.331278     0.323635     0.315992     0.308349     0.300706     0.293063     0.285420     0.277777     0.270133     0.262490
      0.254847     0.247204     0.239561     0.231918     0.224275     0.216631     0.208988     0.201345
 NY phased data points follow
   7.38531E+00  6.61391E+00  6.75091E+00  5.97185E+00  5.25085E+00  6.73251E+00  1.11779E+01  5.17634E+00  7.64330E+00  8.75711E+00
   8.56327E+00  8.78410E+00  1.06376E+01  1.07607E+01  1.08143E+01  1.01289E+01  6.44972E+00  7.88808E+00  9.88954E+00  8.68458E+00
   1.16640E+01  6.47395E+00  7.65513E+00  8.22037E+00  7.84311E+00  8.69858E+00  8.57096E+00  1.12501E+01  6.93671E+00  9.32645E+00
   9.60225E+00  8.05871E+00  1.01416E+01  9.29611E+00  1.01142E+01  1.09832E+01  9.32066E+00  9.10306E+00  1.05598E+01  1.05151E+01
   8.34927E+00  8.72137E+00  6.26217E+00  6.05216E+00  8.68772E+00  7.61742E+00  7.48484E+00  8.75717E+00  1.10003E+01  1.13226E+01
   9.08926E+00  1.01186E+01  9.69971E+00  9.60921E+00  1.07840E+01  8.60819E+00  9.40152E+00  1.12565E+01  8.80512E+00  9.83849E+00
   1.02325E+01  1.20943E+01  1.00628E+01  8.65445E+00  7.15702E+00  1.06371E+01  6.63717E+00  9.82348E+00  8.73405E+00  7.10307E+00
   1.04957E+01  8.68742E+00  8.15511E+00  1.06578E+01  8.49328E+00  8.14548E+00  6.40542E+00  1.01136E+01  7.03837E+00  8.80599E+00
   6.44884E+00  9.12580E+00  1.07296E+01  9.31747E+00  7.71319E+00  1.05667E+01  1.07404E+01  1.06548E+01  1.02263E+01  8.04866E+00
   1.07137E+01  7.90000E+00  8.73255E+00  8.56068E+00  8.27490E+00  8.50586E+00  6.98190E+00  5.49065E+00  6.05593E+00  7.22991E+00
   1.01551E+01  1.00372E+01  1.38130E+01  1.44143E+01  1.55476E+01  1.38765E+01  1.19865E+01  1.20592E+01  1.32472E+01  1.16100E+01
   1.18809E+01  1.09089E+01  1.13155E+01  8.29012E+00  1.11079E+01  9.70878E+00  9.63152E+00  8.68442E+00  9.97610E+00  9.94767E+00
   9.70485E+00  6.66320E+00  6.64443E+00  6.51342E+00  8.68228E+00  8.85152E+00  1.07271E+01  1.17484E+01  1.32647E+01  1.33479E+01
   1.17112E+01  1.18334E+01  1.25738E+01  1.07526E+01  1.08185E+01  1.15299E+01  8.86959E+00  1.02458E+01  8.29412E+00  1.06454E+01
   9.42573E+00  1.09145E+01  1.08731E+01  1.15629E+01  9.60388E+00  1.25985E+01  1.22774E+01  1.32769E+01  1.10406E+01  1.02691E+01
   1.28372E+01  1.06480E+01  1.38251E+01  1.24747E+01  1.12104E+01  1.04869E+01  1.24952E+01  1.27378E+01  1.10060E+01  1.33042E+01
   1.28261E+01  1.23624E+01  1.16746E+01  1.16735E+01  1.40207E+01  1.13474E+01  1.24099E+01  1.58109E+01  1.26860E+01  1.08446E+01
   1.22165E+01  1.06499E+01  1.34658E+01  1.32636E+01  1.61937E+01  1.30481E+01  1.11684E+01  1.15055E+01  1.13472E+01  1.42472E+01
   1.34368E+01  1.36496E+01  1.21858E+01  1.32289E+01  1.36682E+01  1.27726E+01  1.21087E+01  1.44698E+01  1.21148E+01  1.17676E+01
   1.33559E+01  1.61482E+01  1.20434E+01  1.16089E+01  1.35669E+01  1.32395E+01  1.47030E+01  1.49698E+01  1.37606E+01  1.60572E+01
   1.23180E+01  1.26939E+01  1.79867E+01  1.49447E+01  1.51916E+01  1.41837E+01  1.31095E+01  1.32715E+01  1.73112E+01  1.27625E+01
   1.32130E+01  1.35095E+01  1.35344E+01  1.28263E+01  1.57106E+01  1.62388E+01  1.49157E+01  1.74988E+01  1.71861E+01  1.66377E+01
   1.82539E+01  1.43778E+01  1.30582E+01  1.69478E+01  1.64458E+01  1.58499E+01  1.40783E+01  1.59406E+01  1.48365E+01  1.49699E+01
   1.44754E+01  1.72244E+01  1.63072E+01  1.61603E+01  1.71542E+01  1.68553E+01  1.36487E+01  1.65714E+01  1.88792E+01  1.45109E+01
   1.75858E+01  1.42219E+01  1.70595E+01  1.67640E+01  1.99408E+01  1.51078E+01  1.63770E+01  1.68811E+01  1.76025E+01  1.80198E+01
   1.99154E+01  1.79469E+01  1.62624E+01  1.61619E+01  1.94684E+01  1.60041E+01  1.48189E+01  1.27713E+01  1.53147E+01  1.62464E+01
   1.89992E+01  2.43080E+01  2.61629E+01  2.39465E+01  2.33867E+01  2.06618E+01  2.35350E+01  2.02295E+01  2.06147E+01  1.80261E+01
   2.14793E+01  1.85067E+01  1.72577E+01  2.04284E+01  2.06775E+01  2.06414E+01  2.12260E+01  2.07209E+01  2.19207E+01  2.31239E+01
   2.33303E+01  2.17724E+01  2.19838E+01  2.31145E+01  2.42280E+01  2.36805E+01  2.63819E+01  2.23776E+01  2.35625E+01  2.22924E+01
   2.48787E+01  2.36624E+01  2.47263E+01  2.38394E+01  2.41983E+01  2.79751E+01  2.68338E+01  2.66930E+01  2.81306E+01  2.92338E+01
   3.00373E+01  2.72742E+01  2.97635E+01  2.82381E+01  2.84246E+01  3.01727E+01  3.09163E+01  3.02910E+01  3.18528E+01  3.07036E+01
   3.18038E+01  3.28644E+01  3.27245E+01  3.15091E+01  3.35091E+01  3.44911E+01  3.18764E+01  3.30282E+01  3.54696E+01  3.64663E+01
   3.84250E+01  3.71785E+01  3.97938E+01  3.61994E+01  3.92091E+01  3.83150E+01  3.99116E+01  4.04289E+01  4.24751E+01  4.13049E+01
   4.24922E+01  4.12733E+01  4.13103E+01  4.42283E+01  4.56007E+01  4.49521E+01  4.60056E+01  5.03068E+01  5.27611E+01  5.44420E+01
   5.57900E+01  5.94421E+01  5.83066E+01  6.02789E+01  6.24121E+01  6.40177E+01  6.43075E+01  6.62120E+01  6.81934E+01  6.90040E+01
   6.73225E+01  6.98627E+01  7.27296E+01  7.26674E+01  7.51696E+01  7.56175E+01  7.33436E+01  7.63168E+01  7.20105E+01  7.60783E+01
   7.49742E+01  7.73304E+01  7.81773E+01  7.78521E+01  8.26059E+01  8.23877E+01  8.18381E+01  8.26249E+01  8.49368E+01  8.54738E+01
   8.43476E+01  8.45398E+01  8.33462E+01  8.59778E+01  8.59910E+01  8.56937E+01  8.36745E+01  8.51945E+01  8.45246E+01  8.67616E+01
   8.52446E+01  8.37057E+01  8.46496E+01  8.54506E+01  8.36522E+01  8.52991E+01  8.29861E+01  8.20383E+01  8.02894E+01  7.94774E+01
   8.13784E+01  7.86884E+01  7.71655E+01  7.90620E+01  7.84934E+01  7.44065E+01  7.41857E+01  7.46197E+01  7.16760E+01  7.32927E+01
   7.01496E+01  6.97657E+01  7.01870E+01  6.82836E+01  6.70769E+01  6.74658E+01  6.40318E+01  6.32032E+01  6.26089E+01  6.27107E+01
   5.85241E+01  5.78065E+01  5.91364E+01  5.55119E+01  5.62219E+01  5.26425E+01  5.25230E+01  5.16099E+01  5.06781E+01  5.23425E+01
   4.70403E+01  4.70842E+01  4.57762E+01  4.63139E+01  4.36186E+01  4.41850E+01  4.12985E+01  4.23894E+01  4.39171E+01  4.01845E+01
   3.85610E+01  3.57864E+01  3.72023E+01  3.40840E+01  3.13693E+01  3.36486E+01  3.10006E+01  3.29657E+01  3.01702E+01  3.04079E+01
   2.98555E+01  3.05069E+01  2.74287E+01  2.31242E+01  2.64991E+01  2.40535E+01  2.36557E+01  2.21512E+01  2.44354E+01  2.20999E+01
   2.20653E+01  2.25318E+01  1.97599E+01  2.19223E+01  1.68014E+01  2.10750E+01  1.82855E+01  1.66387E+01  1.76279E+01  1.57201E+01
   1.59816E+01  1.45090E+01  1.48120E+01  1.36527E+01  1.10673E+01  1.10463E+01  1.24730E+01  1.04358E+01  1.09639E+01  8.23270E+00
   8.21567E+00  1.11602E+01  8.31327E+00  9.09770E+00  8.50002E+00  7.84371E+00  1.12354E+01  7.92845E+00  7.95529E+00  8.51127E+00
   6.96244E+00  6.75668E+00  6.37133E+00  5.30319E+00  6.03890E+00  5.02901E+00  4.59801E+00  4.88332E+00  6.37005E+00  5.39187E+00
   3.21407E+00  4.32621E+00  3.56470E+00  6.20412E+00  5.78441E+00  4.79601E+00  4.94801E+00  2.29193E+00
 NY points of the fit to the data follow
   8.00082E+00  7.89242E+00  7.77693E+00  7.70498E+00  7.62809E+00  7.59464E+00  7.45742E+00  7.39037E+00  7.74418E+00  8.37698E+00
   9.04149E+00  9.61136E+00  9.96249E+00  9.97292E+00  9.66804E+00  9.27516E+00  8.96468E+00  8.55211E+00  8.20171E+00  8.07962E+00
   8.03349E+00  8.08665E+00  8.26717E+00  8.54036E+00  8.70280E+00  8.54662E+00  8.34289E+00  8.22037E+00  8.08002E+00  8.02754E+00
   8.25156E+00  8.59859E+00  8.85155E+00  9.05257E+00  9.33839E+00  9.51669E+00  9.40090E+00  9.20878E+00  9.03192E+00  8.83934E+00
   8.58222E+00  8.34083E+00  8.12908E+00  7.91402E+00  7.87127E+00  8.20916E+00  8.85870E+00  9.58328E+00  1.01276E+01  1.03307E+01
   1.01660E+01  9.74969E+00  9.31415E+00  8.95356E+00  8.62528E+00  8.39688E+00  8.35266E+00  8.43567E+00  8.62653E+00  8.90952E+00
   9.20825E+00  9.41388E+00  9.43509E+00  9.31603E+00  9.13249E+00  8.94221E+00  8.81148E+00  8.73306E+00  8.72895E+00  8.82681E+00
   8.93667E+00  9.02844E+00  9.14511E+00  9.26427E+00  9.34653E+00  9.38682E+00  9.42054E+00  9.40335E+00  9.30680E+00  9.22018E+00
   9.16263E+00  9.09057E+00  9.10554E+00  9.26205E+00  9.44705E+00  9.55752E+00  9.56985E+00  9.45854E+00  9.24594E+00  9.04392E+00
   8.95853E+00  8.96399E+00  9.00230E+00  9.10953E+00  9.22278E+00  9.27097E+00  9.02395E+00  7.79482E+00  6.50435E+00  6.77824E+00
   8.34948E+00  1.05784E+01  1.31186E+01  1.50732E+01  1.54531E+01  1.44673E+01  1.32576E+01  1.22511E+01  1.09397E+01  9.95903E+00
   9.76581E+00  9.74787E+00  9.76044E+00  9.79093E+00  9.82349E+00  9.87032E+00  9.91216E+00  9.93786E+00  9.95433E+00  9.94993E+00
   9.88729E+00  9.59578E+00  8.79181E+00  8.29052E+00  8.71803E+00  9.77846E+00  1.11775E+01  1.26494E+01  1.35921E+01  1.36103E+01
   1.30812E+01  1.25860E+01  1.21441E+01  1.15015E+01  1.11106E+01  1.09384E+01  1.07601E+01  1.06183E+01  1.05858E+01  1.06479E+01
   1.07841E+01  1.09740E+01  1.11496E+01  1.12877E+01  1.13870E+01  1.14502E+01  1.15010E+01  1.15405E+01  1.15694E+01  1.16107E+01
   1.16560E+01  1.16949E+01  1.17245E+01  1.17612E+01  1.18103E+01  1.18744E+01  1.19810E+01  1.21002E+01  1.21622E+01  1.21563E+01
   1.20861E+01  1.20102E+01  1.20004E+01  1.20705E+01  1.21999E+01  1.23413E+01  1.24469E+01  1.25087E+01  1.25311E+01  1.25358E+01
   1.25537E+01  1.25865E+01  1.26479E+01  1.26566E+01  1.26048E+01  1.25575E+01  1.25586E+01  1.26122E+01  1.26865E+01  1.27629E+01
   1.28184E+01  1.28466E+01  1.29080E+01  1.29959E+01  1.29915E+01  1.29268E+01  1.28540E+01  1.28408E+01  1.29427E+01  1.31479E+01
   1.34040E+01  1.36343E+01  1.37936E+01  1.39167E+01  1.39687E+01  1.39323E+01  1.38848E+01  1.38459E+01  1.38113E+01  1.37764E+01
   1.37901E+01  1.38808E+01  1.40489E+01  1.42735E+01  1.45314E+01  1.47948E+01  1.49618E+01  1.49774E+01  1.49168E+01  1.47793E+01
   1.45035E+01  1.41302E+01  1.39396E+01  1.41158E+01  1.45370E+01  1.50969E+01  1.57512E+01  1.62899E+01  1.65015E+01  1.63018E+01
   1.57976E+01  1.52178E+01  1.46521E+01  1.43460E+01  1.44464E+01  1.48526E+01  1.53760E+01  1.58409E+01  1.61831E+01  1.63711E+01
   1.63601E+01  1.62270E+01  1.61037E+01  1.60574E+01  1.61625E+01  1.63847E+01  1.66421E+01  1.68890E+01  1.70990E+01  1.71467E+01
   1.70038E+01  1.67857E+01  1.66373E+01  1.65623E+01  1.65943E+01  1.68067E+01  1.71344E+01  1.74246E+01  1.75840E+01  1.76635E+01
   1.76533E+01  1.75852E+01  1.75380E+01  1.75856E+01  1.75590E+01  1.67257E+01  1.48852E+01  1.42722E+01  1.54872E+01  1.77533E+01
   2.07311E+01  2.37559E+01  2.53823E+01  2.50503E+01  2.38195E+01  2.27292E+01  2.14519E+01  1.99178E+01  1.93719E+01  1.92588E+01
   1.92140E+01  1.92255E+01  1.93014E+01  1.94205E+01  1.95920E+01  1.98017E+01  2.00284E+01  2.02518E+01  2.04719E+01  2.06859E+01
   2.08953E+01  2.11147E+01  2.13557E+01  2.16268E+01  2.19306E+01  2.22628E+01  2.26228E+01  2.30093E+01  2.34121E+01  2.38307E+01
   2.42662E+01  2.47141E+01  2.51709E+01  2.56362E+01  2.61082E+01  2.65827E+01  2.70561E+01  2.75258E+01  2.79875E+01  2.84361E+01
   2.88695E+01  2.92841E+01  2.96775E+01  3.00479E+01  3.03944E+01  3.07168E+01  3.10161E+01  3.12945E+01  3.15553E+01  3.18022E+01
   3.20400E+01  3.22743E+01  3.25109E+01  3.27560E+01  3.30156E+01  3.32957E+01  3.36017E+01  3.39380E+01  3.43075E+01  3.47100E+01
   3.51378E+01  3.55582E+01  3.59082E+01  3.64935E+01  3.76334E+01  3.90175E+01  4.03617E+01  4.15650E+01  4.24600E+01  4.29736E+01
   4.31359E+01  4.30572E+01  4.32001E+01  4.37078E+01  4.47516E+01  4.64586E+01  4.85485E+01  5.06730E+01  5.25163E+01  5.41155E+01
   5.56864E+01  5.71532E+01  5.84439E+01  5.98468E+01  6.13337E+01  6.28410E+01  6.43326E+01  6.57812E+01  6.71637E+01  6.84612E+01
   6.96596E+01  7.07506E+01  7.17320E+01  7.26082E+01  7.33903E+01  7.40946E+01  7.47417E+01  7.53545E+01  7.59565E+01  7.65689E+01
   7.72094E+01  7.78903E+01  7.86172E+01  7.93888E+01  8.01967E+01  8.10260E+01  8.18570E+01  8.26663E+01  8.34291E+01  8.41211E+01
   8.47202E+01  8.52082E+01  8.55725E+01  8.58065E+01  8.59102E+01  8.58898E+01  8.57570E+01  8.55279E+01  8.52217E+01  8.48587E+01
   8.44590E+01  8.40408E+01  8.36187E+01  8.32032E+01  8.27998E+01  8.24088E+01  8.20257E+01  8.16417E+01  8.12446E+01  8.08201E+01
   8.03530E+01  7.98289E+01  7.92346E+01  7.85597E+01  7.77973E+01  7.69445E+01  7.60021E+01  7.49752E+01  7.38722E+01  7.27043E+01
   7.14848E+01  7.02283E+01  6.89497E+01  6.76635E+01  6.63827E+01  6.51189E+01  6.38811E+01  6.26762E+01  6.15082E+01  6.03787E+01
   5.92871E+01  5.82308E+01  5.72054E+01  5.62055E+01  5.52249E+01  5.42569E+01  5.32950E+01  5.23330E+01  5.13653E+01  5.03873E+01
   4.93952E+01  4.83865E+01  4.73596E+01  4.63141E+01  4.52507E+01  4.41709E+01  4.30769E+01  4.19716E+01  4.08585E+01  3.97412E+01
   3.86236E+01  3.75097E+01  3.64033E+01  3.53081E+01  3.42275E+01  3.31647E+01  3.21223E+01  3.11028E+01  3.01081E+01  2.91398E+01
   2.81991E+01  2.72868E+01  2.64034E+01  2.55492E+01  2.47240E+01  2.39276E+01  2.31596E+01  2.24192E+01  2.17058E+01  2.10184E+01
   2.03561E+01  1.97179E+01  1.91029E+01  1.85100E+01  1.79381E+01  1.73862E+01  1.68534E+01  1.63387E+01  1.58411E+01  1.53598E+01
   1.48938E+01  1.44424E+01  1.40047E+01  1.35801E+01  1.31678E+01  1.27672E+01  1.23776E+01  1.19983E+01  1.16290E+01  1.12690E+01
   1.09178E+01  1.05751E+01  1.02403E+01  9.91299E+00  9.59289E+00  9.27961E+00  8.97281E+00  8.67215E+00  8.37734E+00  8.08812E+00
   7.80424E+00  7.52545E+00  7.25151E+00  6.98220E+00  6.71732E+00  6.45670E+00  6.20017E+00  5.94755E+00  5.69868E+00  5.45339E+00
   5.21158E+00  4.97312E+00  4.73790E+00  4.50577E+00  4.27663E+00  4.05038E+00  3.82695E+00  3.60624E+00
 NY background values follow
     6.036E+00    6.058E+00    6.080E+00    6.101E+00    6.123E+00    6.144E+00    6.166E+00    6.187E+00    6.208E+00    6.229E+00
     6.251E+00    6.272E+00    6.293E+00    6.313E+00    6.334E+00    6.355E+00    6.376E+00    6.396E+00    6.416E+00    6.437E+00
     6.457E+00    6.477E+00    6.497E+00    6.517E+00    6.536E+00    6.556E+00    6.576E+00    6.595E+00    6.614E+00    6.633E+00
     6.652E+00    6.671E+00    6.689E+00    6.708E+00    6.726E+00    6.744E+00    6.762E+00    6.780E+00    6.798E+00    6.815E+00
     6.832E+00    6.849E+00    6.866E+00    6.883E+00    6.899E+00    6.916E+00    6.932E+00    6.948E+00    6.964E+00    6.979E+00
     6.995E+00    7.010E+00    7.025E+00    7.040E+00    7.055E+00    7.070E+00    7.085E+00    7.100E+00    7.115E+00    7.130E+00
     7.145E+00    7.159E+00    7.174E+00    7.189E+00    7.204E+00    7.219E+00    7.234E+00    7.249E+00    7.264E+00    7.279E+00
     7.295E+00    7.310E+00    7.326E+00    7.342E+00    7.358E+00    7.375E+00    7.391E+00    7.408E+00    7.425E+00    7.442E+00
     7.460E+00    7.477E+00    7.495E+00    7.514E+00    7.533E+00    7.552E+00    7.571E+00    7.591E+00    7.611E+00    7.632E+00
     7.653E+00    7.674E+00    7.696E+00    7.718E+00    7.741E+00    7.764E+00    7.787E+00    7.811E+00    7.836E+00    7.861E+00
     7.886E+00    7.912E+00    7.938E+00    7.964E+00    7.992E+00    8.019E+00    8.047E+00    8.076E+00    8.105E+00    8.134E+00
     8.164E+00    8.194E+00    8.225E+00    8.256E+00    8.288E+00    8.320E+00    8.353E+00    8.386E+00    8.420E+00    8.454E+00
     8.489E+00    8.524E+00    8.559E+00    8.595E+00    8.632E+00    8.669E+00    8.707E+00    8.745E+00    8.784E+00    8.823E+00
     8.862E+00    8.902E+00    8.943E+00    8.984E+00    9.026E+00    9.068E+00    9.111E+00    9.154E+00    9.198E+00    9.242E+00
     9.287E+00    9.332E+00    9.378E+00    9.424E+00    9.470E+00    9.517E+00    9.564E+00    9.612E+00    9.660E+00    9.708E+00
     9.757E+00    9.806E+00    9.855E+00    9.904E+00    9.954E+00    1.000E+01    1.005E+01    1.011E+01    1.016E+01    1.021E+01
     1.026E+01    1.031E+01    1.036E+01    1.041E+01    1.046E+01    1.052E+01    1.057E+01    1.062E+01    1.067E+01    1.072E+01
     1.078E+01    1.083E+01    1.088E+01    1.093E+01    1.099E+01    1.104E+01    1.109E+01    1.114E+01    1.119E+01    1.125E+01
     1.130E+01    1.135E+01    1.140E+01    1.145E+01    1.150E+01    1.156E+01    1.161E+01    1.166E+01    1.171E+01    1.176E+01
     1.181E+01    1.186E+01    1.191E+01    1.196E+01    1.201E+01    1.206E+01    1.211E+01    1.216E+01    1.221E+01    1.225E+01
     1.230E+01    1.235E+01    1.240E+01    1.245E+01    1.249E+01    1.254E+01    1.259E+01    1.263E+01    1.268E+01    1.273E+01
     1.277E+01    1.282E+01    1.286E+01    1.291E+01    1.295E+01    1.300E+01    1.304E+01    1.308E+01    1.313E+01    1.317E+01
     1.321E+01    1.326E+01    1.330E+01    1.334E+01    1.338E+01    1.342E+01    1.346E+01    1.350E+01    1.354E+01    1.358E+01
     1.362E+01    1.366E+01    1.370E+01    1.373E+01    1.377E+01    1.381E+01    1.385E+01    1.388E+01    1.392E+01    1.395E+01
     1.399E+01    1.402E+01    1.405E+01    1.408E+01    1.412E+01    1.415E+01    1.418E+01    1.421E+01    1.424E+01    1.427E+01
     1.430E+01    1.432E+01    1.435E+01    1.438E+01    1.440E+01    1.443E+01    1.445E+01    1.448E+01    1.450E+01    1.452E+01
     1.454E+01    1.456E+01    1.458E+01    1.460E+01    1.462E+01    1.464E+01    1.465E+01    1.467E+01    1.468E+01    1.470E+01
     1.471E+01    1.472E+01    1.473E+01    1.474E+01    1.475E+01    1.476E+01    1.477E+01    1.478E+01    1.478E+01    1.479E+01
     1.479E+01    1.480E+01    1.480E+01    1.480E+01    1.480E+01    1.480E+01    1.480E+01    1.480E+01    1.479E+01    1.479E+01
     1.478E+01    1.478E+01    1.477E+01    1.477E+01    1.476E+01    1.475E+01    1.474E+01    1.473E+01    1.472E+01    1.470E+01
     1.469E+01    1.467E+01    1.466E+01    1.464E+01    1.463E+01    1.461E+01    1.459E+01    1.457E+01    1.455E+01    1.453E+01
     1.450E+01    1.448E+01    1.446E+01    1.443E+01    1.441E+01    1.438E+01    1.435E+01    1.432E+01    1.429E+01    1.426E+01
     1.423E+01    1.420E+01    1.417E+01    1.414E+01    1.410E+01    1.407E+01    1.403E+01    1.399E+01    1.395E+01    1.392E+01
     1.388E+01    1.384E+01    1.379E+01    1.375E+01    1.371E+01    1.367E+01    1.362E+01    1.358E+01    1.353E+01    1.348E+01
     1.344E+01    1.339E+01    1.334E+01    1.329E+01    1.324E+01    1.319E+01    1.313E+01    1.308E+01    1.303E+01    1.297E+01
     1.292E+01    1.286E+01    1.280E+01    1.274E+01    1.269E+01    1.263E+01    1.257E+01    1.251E+01    1.244E+01    1.238E+01
     1.232E+01    1.225E+01    1.219E+01    1.212E+01    1.206E+01    1.199E+01    1.192E+01    1.185E+01    1.179E+01    1.172E+01
     1.165E+01    1.157E+01    1.150E+01    1.143E+01    1.136E+01    1.128E+01    1.121E+01    1.113E+01    1.105E+01    1.098E+01
     1.090E+01    1.082E+01    1.074E+01    1.066E+01    1.058E+01    1.050E+01    1.042E+01    1.033E+01    1.025E+01    1.017E+01
     1.008E+01    9.996E+00    9.910E+00    9.823E+00    9.735E+00    9.647E+00    9.558E+00    9.468E+00    9.377E+00    9.286E+00
     9.194E+00    9.101E+00    9.008E+00    8.914E+00    8.820E+00    8.724E+00    8.628E+00    8.531E+00    8.434E+00    8.336E+00
     8.237E+00    8.138E+00    8.038E+00    7.937E+00    7.836E+00    7.734E+00    7.631E+00    7.527E+00    7.423E+00    7.319E+00
     7.213E+00    7.107E+00    7.001E+00    6.893E+00    6.785E+00    6.677E+00    6.567E+00    6.457E+00    6.347E+00    6.236E+00
     6.124E+00    6.011E+00    5.898E+00    5.785E+00    5.670E+00    5.555E+00    5.440E+00    5.324E+00    5.207E+00    5.089E+00
     4.971E+00    4.852E+00    4.733E+00    4.613E+00    4.493E+00    4.372E+00    4.250E+00    4.128E+00    4.005E+00    3.881E+00
     3.757E+00    3.632E+00    3.507E+00    3.381E+00    3.255E+00    3.128E+00    3.000E+00    2.872E+00    2.743E+00    2.614E+00
     2.485E+00    2.355E+00    2.225E+00    2.094E+00    1.963E+00    1.831E+00    1.699E+00    1.567E+00    1.434E+00    1.302E+00
     1.169E+00    1.035E+00    9.016E-01    7.677E-01    6.337E-01    4.995E-01    3.651E-01    2.305E-01    9.583E-02   -3.898E-02
    -1.739E-01   -3.089E-01   -4.439E-01   -5.790E-01   -7.141E-01   -8.492E-01   -9.843E-01   -1.119E+00   -1.254E+00   -1.389E+00
    -1.524E+00   -1.659E+00   -1.794E+00   -1.928E+00   -2.063E+00   -2.197E+00   -2.331E+00   -2.465E+00
 Ala      Conc. = 4.39E+01
