 LCModel (Version 6.3-1L) Copyright: S.W. Provencher.          Ref.: Magn. Reson. Med. 30:672-679 (1993).                
 Slice#3 Row#4 Col#7  PD_24_press_1_raw_act
 36 lines in following concentration table = NCONC+1
    Conc.  %SD /Cr+PCr  Metabolite                                         
  203.704  54%   0.114 Ala                                                 
    0.000 999%   0.000 Asp                                                 
  548.517  39%   0.307 Cr                                                  
 1.24E+03  18%   0.693 PCr                                                 
    0.000 999%   0.000 GABA                                                
    0.000 999%   0.000 Glc                                                 
  695.374  31%   0.389 Gln                                                 
 1.39E+03  17%   0.777 Glu                                                 
  643.729   3%   0.360 GPC                                                 
    0.000 999%   0.000 PCh                                                 
  562.647  12%   0.314 GSH                                                 
   50.721 487% 2.8E-02 Ins                                                 
  309.626  66%   0.173 Lac                                                 
 1.92E+03   4%   1.073 NAA                                                 
    0.000 999%   0.000 NAAG                                                
   36.173  73% 2.0E-02 Scyllo                                              
    0.000 999%   0.000 Tau                                                 
    0.000 999%   0.000 -CrCH2                                              
  643.729   3%   0.360 GPC+PCh                                             
 1.92E+03   4%   1.073 NAA+NAAG                                            
 1.79E+03   3%   1.000 Cr+PCr                                              
 2.09E+03  17%   1.165 Glu+Gln                                             
    0.000 999%   0.000 Lip13a                                              
  831.729  47%   0.465 Lip13b                                              
  178.808  70%   0.100 Lip09                                               
 1.17E+03  20%   0.652 MM09                                                
  131.132  58% 7.3E-02 Lip20                                               
 2.54E+03  15%   1.419 MM20                                                
  238.727  61%   0.133 MM12                                                
 2.58E+03  17%   1.442 MM14                                                
 1.26E+03  22%   0.703 MM17                                                
  831.729  47%   0.465 Lip13a+Lip13b                                       
 3.65E+03  13%   2.041 MM14+Lip13a+Lip13b+MM12                             
 1.35E+03  16%   0.752 MM09+Lip09                                          
 2.67E+03  14%   1.492 MM20+Lip20                                          
   6 lines in following misc. output table
  FWHM = 0.046 ppm    S/N =  11                                            
  Data shift =-0.008 ppm                                                   
  Ph:  -7 deg      -7.4 deg/ppm                                            
  alphaB,S = 6.6E-01,   1.0E+02                                            
   14 spline knots.   Ns = 7(1)                                            
  (13) 4 infls.   ( 7) 1 extrs.                                            
  498 points on ppm-axis = NY
      4.000000     3.992357     3.984714     3.977070     3.969427     3.961784     3.954141     3.946497     3.938854     3.931211
      3.923568     3.915925     3.908281     3.900638     3.892995     3.885352     3.877708     3.870065     3.862422     3.854779
      3.847136     3.839492     3.831849     3.824206     3.816563     3.808919     3.801276     3.793633     3.785990     3.778347
      3.770703     3.763060     3.755417     3.747774     3.740130     3.732487     3.724844     3.717201     3.709558     3.701914
      3.694271     3.686628     3.678985     3.671341     3.663698     3.656055     3.648412     3.640769     3.633125     3.625482
      3.617839     3.610196     3.602552     3.594909     3.587266     3.579623     3.571980     3.564336     3.556693     3.549050
      3.541407     3.533763     3.526120     3.518477     3.510834     3.503191     3.495547     3.487904     3.480261     3.472618
      3.464974     3.457331     3.449688     3.442045     3.434402     3.426758     3.419115     3.411472     3.403829     3.396185
      3.388542     3.380899     3.373256     3.365613     3.357969     3.350326     3.342683     3.335040     3.327396     3.319753
      3.312110     3.304467     3.296824     3.289180     3.281537     3.273894     3.266251     3.258607     3.250964     3.243321
      3.235678     3.228034     3.220391     3.212748     3.205105     3.197462     3.189818     3.182175     3.174532     3.166889
      3.159245     3.151602     3.143959     3.136316     3.128673     3.121029     3.113386     3.105743     3.098100     3.090456
      3.082813     3.075170     3.067527     3.059884     3.052240     3.044597     3.036954     3.029311     3.021667     3.014024
      3.006381     2.998738     2.991095     2.983451     2.975808     2.968165     2.960522     2.952878     2.945235     2.937592
      2.929949     2.922306     2.914662     2.907019     2.899376     2.891733     2.884089     2.876446     2.868803     2.861160
      2.853517     2.845873     2.838230     2.830587     2.822944     2.815300     2.807657     2.800014     2.792371     2.784728
      2.777084     2.769441     2.761798     2.754155     2.746511     2.738868     2.731225     2.723582     2.715939     2.708295
      2.700652     2.693009     2.685366     2.677722     2.670079     2.662436     2.654793     2.647150     2.639506     2.631863
      2.624220     2.616577     2.608933     2.601290     2.593647     2.586004     2.578361     2.570717     2.563074     2.555431
      2.547788     2.540144     2.532501     2.524858     2.517215     2.509572     2.501928     2.494285     2.486642     2.478999
      2.471355     2.463712     2.456069     2.448426     2.440783     2.433139     2.425496     2.417853     2.410210     2.402566
      2.394923     2.387280     2.379637     2.371994     2.364350     2.356707     2.349064     2.341421     2.333777     2.326134
      2.318491     2.310848     2.303205     2.295561     2.287918     2.280275     2.272632     2.264988     2.257345     2.249702
      2.242059     2.234416     2.226772     2.219129     2.211486     2.203843     2.196199     2.188556     2.180913     2.173270
      2.165627     2.157983     2.150340     2.142697     2.135054     2.127410     2.119767     2.112124     2.104481     2.096838
      2.089194     2.081551     2.073908     2.066265     2.058621     2.050978     2.043335     2.035692     2.028049     2.020405
      2.012762     2.005119     1.997476     1.989833     1.982190     1.974546     1.966903     1.959260     1.951617     1.943974
      1.936331     1.928688     1.921045     1.913402     1.905759     1.898115     1.890472     1.882829     1.875186     1.867543
      1.859900     1.852257     1.844614     1.836971     1.829327     1.821684     1.814041     1.806398     1.798755     1.791112
      1.783469     1.775826     1.768183     1.760540     1.752896     1.745253     1.737610     1.729967     1.722324     1.714681
      1.707038     1.699395     1.691752     1.684108     1.676465     1.668822     1.661179     1.653536     1.645893     1.638250
      1.630607     1.622964     1.615321     1.607677     1.600034     1.592391     1.584748     1.577105     1.569462     1.561819
      1.554176     1.546533     1.538890     1.531246     1.523603     1.515960     1.508317     1.500674     1.493031     1.485388
      1.477745     1.470102     1.462458     1.454815     1.447172     1.439529     1.431886     1.424243     1.416600     1.408957
      1.401314     1.393671     1.386027     1.378384     1.370741     1.363098     1.355455     1.347812     1.340169     1.332526
      1.324883     1.317240     1.309596     1.301953     1.294310     1.286667     1.279024     1.271381     1.263738     1.256095
      1.248452     1.240808     1.233165     1.225522     1.217879     1.210236     1.202593     1.194950     1.187307     1.179664
      1.172021     1.164377     1.156734     1.149091     1.141448     1.133805     1.126162     1.118519     1.110876     1.103233
      1.095590     1.087946     1.080303     1.072660     1.065017     1.057374     1.049731     1.042088     1.034445     1.026802
      1.019158     1.011515     1.003872     0.996229     0.988586     0.980943     0.973300     0.965657     0.958014     0.950371
      0.942727     0.935084     0.927441     0.919798     0.912155     0.904512     0.896869     0.889226     0.881583     0.873940
      0.866296     0.858653     0.851010     0.843367     0.835724     0.828081     0.820438     0.812795     0.805152     0.797508
      0.789865     0.782222     0.774579     0.766936     0.759293     0.751650     0.744007     0.736364     0.728721     0.721077
      0.713434     0.705791     0.698148     0.690505     0.682862     0.675219     0.667576     0.659933     0.652290     0.644646
      0.637003     0.629360     0.621717     0.614074     0.606431     0.598788     0.591145     0.583502     0.575858     0.568215
      0.560572     0.552929     0.545286     0.537643     0.530000     0.522357     0.514714     0.507071     0.499427     0.491784
      0.484141     0.476498     0.468855     0.461212     0.453569     0.445925     0.438282     0.430639     0.422996     0.415353
      0.407710     0.400067     0.392424     0.384780     0.377137     0.369494     0.361851     0.354208     0.346565     0.338922
      0.331278     0.323635     0.315992     0.308349     0.300706     0.293063     0.285420     0.277777     0.270133     0.262490
      0.254847     0.247204     0.239561     0.231918     0.224275     0.216631     0.208988     0.201345
 NY phased data points follow
   6.78470E+01  6.29140E+01  6.83870E+01  6.66102E+01  6.67704E+01  7.76184E+01  8.08403E+01  8.66917E+01  9.75726E+01  9.48723E+01
   9.93701E+01  9.47791E+01  9.62151E+01  9.22967E+01  8.29624E+01  7.73240E+01  7.19434E+01  6.66418E+01  6.18004E+01  5.85102E+01
   5.60270E+01  5.34621E+01  5.33639E+01  5.66953E+01  5.51090E+01  5.18018E+01  5.84860E+01  5.32200E+01  5.85788E+01  6.19621E+01
   6.28120E+01  6.33839E+01  5.76124E+01  5.95675E+01  5.51963E+01  4.94818E+01  4.74662E+01  4.89208E+01  4.59332E+01  4.71735E+01
   4.29710E+01  4.47599E+01  4.62725E+01  4.58966E+01  4.99338E+01  4.13963E+01  4.90751E+01  4.98766E+01  4.57189E+01  4.41775E+01
   4.14204E+01  4.14385E+01  4.22096E+01  3.80515E+01  3.73862E+01  3.83539E+01  3.81438E+01  3.60664E+01  3.50554E+01  3.48400E+01
   3.19767E+01  3.06524E+01  2.55976E+01  2.88597E+01  2.48611E+01  2.44926E+01  2.12049E+01  2.51111E+01  1.94324E+01  2.20525E+01
   2.14331E+01  2.62526E+01  2.29202E+01  2.62822E+01  2.39761E+01  2.19003E+01  2.55475E+01  2.46262E+01  2.26963E+01  2.08248E+01
   2.24080E+01  2.22134E+01  2.05845E+01  2.50964E+01  2.35341E+01  2.33314E+01  2.88801E+01  1.89024E+01  2.19858E+01  2.25026E+01
   2.03001E+01  2.01762E+01  2.60076E+01  2.10230E+01  2.12221E+01  1.23073E+01  2.15655E+01  2.19581E+01  2.99711E+01  4.01967E+01
   5.03426E+01  6.33066E+01  7.39611E+01  8.52871E+01  7.72187E+01  6.16994E+01  5.51442E+01  4.47134E+01  3.65305E+01  3.87397E+01
   2.68725E+01  2.23913E+01  2.44713E+01  2.43120E+01  2.00559E+01  1.96485E+01  2.02011E+01  2.44025E+01  1.63789E+01  1.71695E+01
   1.97693E+01  2.13540E+01  2.81244E+01  3.11952E+01  4.56235E+01  5.08008E+01  6.18940E+01  6.89589E+01  6.88548E+01  6.01957E+01
   5.24304E+01  4.58515E+01  3.71440E+01  2.57616E+01  2.77076E+01  2.18285E+01  1.39568E+01  1.63192E+01  1.41139E+01  1.06214E+01
   1.71907E+01  9.77252E+00  1.15045E+01  6.25775E+00  1.84909E+01  7.98704E+00  1.35677E+01  5.62564E+00  1.25553E+01  7.33576E+00
   1.11797E+01  6.05720E+00  1.11358E+01  1.08021E+01  9.48839E+00  5.53764E+00  7.99078E+00  8.24907E+00  9.18459E+00  6.20980E+00
   7.35362E+00  3.49956E+00  1.82638E+00  5.17213E+00  4.50273E+00  1.53798E+00  7.59440E+00  2.96746E+00  7.28841E+00 -3.22416E+00
  -5.42363E-01 -2.89803E+00  1.57629E+00 -8.60658E-01 -2.25760E+00 -3.59520E+00 -5.29096E+00  3.87609E-02  8.44218E+00 -1.35630E+00
  -3.32033E+00 -6.67458E+00 -5.39152E+00 -5.24212E+00 -8.40571E+00 -4.38179E-01 -2.38841E+00 -3.83917E+00  1.94979E+00  3.81244E+00
   5.73934E+00  7.72422E+00  4.76538E+00  8.23953E+00  1.09665E+01  8.86614E+00  7.82712E+00  6.61202E+00  3.54128E+00  1.94878E+00
   5.65433E+00  4.27657E+00  9.70098E+00  4.11364E+00  5.55260E+00  4.83102E+00  3.22233E+00  8.83553E-01  1.98547E+00 -1.20876E+00
  -1.41474E-01  2.60603E+00  1.73369E+00  1.03513E+01  1.23790E+01  1.39529E+01  1.61983E+01  8.80838E+00  9.14697E+00 -1.13898E+00
   3.18625E+00  3.30534E+00  1.11391E+00  5.98224E+00  5.21090E+00  1.14545E+01  5.56822E+00  1.29022E+01  9.54417E+00  1.24817E+01
   9.03228E+00  8.47240E+00  1.00580E+01  8.49116E+00  7.19313E+00  1.28918E+01  1.12007E+01  8.17908E+00  7.39258E+00  1.29826E+01
   1.05979E+01  5.67540E+00  5.81942E+00  8.01594E+00  1.01757E+01  1.14306E+01  1.08716E+01  1.16456E+01  1.34443E+01  1.60329E+01
   1.74385E+01  1.57282E+01  1.30057E+01  1.42412E+01  2.12870E+01  2.29866E+01  3.43537E+01  4.62134E+01  5.69974E+01  6.63228E+01
   7.79845E+01  7.57953E+01  6.23930E+01  4.72939E+01  3.76447E+01  3.27372E+01  2.43344E+01  2.54886E+01  1.51202E+01  1.10831E+01
   1.03562E+01  7.44555E+00  6.94744E+00  6.38689E+00  7.17002E+00  4.04689E+00  5.42217E+00  6.23805E+00  9.39488E+00 -8.77922E-01
   7.78644E+00  4.36016E+00  3.04349E+00  5.21303E+00  5.50443E+00  7.48815E+00  9.20933E+00  7.13652E+00  4.85758E+00  5.07343E+00
   5.98101E+00  5.70244E+00  1.00925E+00  2.60134E+00  6.47627E+00  4.35682E+00  5.91324E+00  8.62554E+00  1.16086E+01  7.31193E+00
   9.10623E+00  6.75644E+00  8.15485E+00  8.01328E+00  1.22545E+01  8.64717E+00  1.25983E+01  7.30644E+00  9.92094E+00  1.00425E+01
   1.22780E+01  1.29821E+01  1.23772E+01  1.05596E+01  1.06787E+01  9.63745E+00  1.12379E+01  8.27480E+00  1.11645E+01  1.30276E+01
   1.17754E+01  8.22058E+00  1.16113E+01  9.59399E+00  1.72085E+01  1.70579E+01  1.25197E+01  1.48096E+01  1.49576E+01  1.11039E+01
   1.53254E+01  1.50848E+01  1.20965E+01  1.43877E+01  1.69194E+01  1.21640E+01  1.07330E+01  1.66286E+01  1.92756E+01  1.82463E+01
   1.69374E+01  1.72757E+01  1.48793E+01  1.78959E+01  1.75748E+01  1.94431E+01  1.56591E+01  1.64001E+01  1.60079E+01  1.44915E+01
   1.39985E+01  1.28732E+01  1.12969E+01  1.46823E+01  1.02544E+01  1.01202E+01  1.14603E+01  6.79444E+00  8.16829E+00  1.12105E+01
   7.40592E+00  2.34604E+00  3.75511E+00  4.44874E+00  2.39237E+00  4.43809E-01  5.25804E-01 -2.94416E+00 -1.94628E+00 -2.15434E+00
   2.16217E-01 -1.57758E+00 -3.59112E+00 -6.17802E+00 -3.48411E+00 -1.92190E+00  7.91573E-01 -5.55768E+00 -2.85052E+00 -1.50852E+00
  -3.90055E+00 -2.03723E+00  7.54252E-01 -9.17087E-01 -4.48559E+00 -3.18776E-01 -2.81664E+00 -2.60538E+00  2.16625E-01 -1.93871E+00
   7.39330E-01 -8.75256E-01  3.53296E+00  2.09999E+00 -2.60275E-01 -9.76576E-01  9.67786E-01  3.28395E+00  2.32146E+00  4.52814E+00
   8.07662E-01  6.30070E+00 -1.03174E+00  3.43690E+00  4.95021E+00  8.36596E+00  6.82592E+00  7.69022E+00  4.60757E+00  7.56905E+00
   6.41110E+00  6.68331E+00  5.66641E+00  1.04521E+00  3.44188E+00  1.91010E+00  5.67642E+00 -9.18525E-02  1.37966E+00  8.81259E-01
   3.90798E+00 -2.52027E+00 -2.35995E+00  1.40479E+00 -4.24357E-01 -6.40546E-01 -3.17139E+00  1.56414E+00  3.32403E+00  1.80477E+00
  -3.67050E-01  3.04778E+00  1.07655E+00 -4.38892E+00  1.30072E+00 -3.63916E+00  5.24607E-01  1.15098E+00  2.30084E+00 -1.52337E+00
  -1.81932E-01 -2.87855E+00  8.69040E-01 -1.87820E+00 -2.90896E-01 -1.76960E+00 -2.73872E-01 -1.94243E+00 -6.57810E+00 -1.89474E+00
  -5.20405E-01 -2.15042E-01  4.84823E-02 -3.00024E+00  1.19891E+00 -1.37778E+00 -1.68201E+00  2.94737E+00 -2.05660E+00 -2.87896E+00
  -4.65058E+00 -7.74755E-01 -3.32455E+00 -1.46573E+00  2.25248E-01 -5.18812E+00 -4.86783E+00 -4.46183E+00 -3.52112E+00 -7.67841E+00
  -2.97353E-01 -5.12648E+00 -1.77643E+00 -4.22980E+00 -2.68330E+00 -2.81797E+00 -5.06073E+00 -6.33205E+00  1.70004E+00 -4.06655E+00
  -4.84499E+00 -3.78848E+00 -2.50313E+00 -5.42840E+00 -1.17963E+00 -3.17170E+00 -7.42525E+00 -3.27264E+00 -3.05456E+00  4.62098E-01
  -5.59393E+00 -2.95778E-02 -4.04794E+00 -3.05185E+00 -3.42577E+00 -6.42238E-01 -3.56126E+00 -6.60593E+00
 NY points of the fit to the data follow
   6.37141E+01  6.37081E+01  6.42741E+01  6.58410E+01  6.86296E+01  7.29321E+01  7.86100E+01  8.51380E+01  9.16311E+01  9.65345E+01
   9.81787E+01  9.61072E+01  9.13687E+01  8.55051E+01  7.98805E+01  7.51706E+01  7.10491E+01  6.69273E+01  6.32361E+01  6.05819E+01
   5.85222E+01  5.70865E+01  5.58489E+01  5.46841E+01  5.37629E+01  5.33756E+01  5.38641E+01  5.54021E+01  5.79245E+01  6.08723E+01
   6.29880E+01  6.30927E+01  6.11423E+01  5.80123E+01  5.46465E+01  5.17466E+01  4.96191E+01  4.80297E+01  4.67938E+01  4.61941E+01
   4.59831E+01  4.56611E+01  4.52673E+01  4.49696E+01  4.46378E+01  4.41903E+01  4.36325E+01  4.28722E+01  4.20586E+01  4.14927E+01
   4.09860E+01  4.03175E+01  3.95478E+01  3.87342E+01  3.77999E+01  3.68833E+01  3.61110E+01  3.53473E+01  3.45064E+01  3.36994E+01
   3.29862E+01  3.23288E+01  3.16985E+01  3.10809E+01  3.05028E+01  2.99765E+01  2.94853E+01  2.90154E+01  2.85607E+01  2.81207E+01
   2.76917E+01  2.72706E+01  2.68520E+01  2.64335E+01  2.60172E+01  2.56065E+01  2.52053E+01  2.48170E+01  2.44514E+01  2.41449E+01
   2.39254E+01  2.38045E+01  2.37874E+01  2.38481E+01  2.39360E+01  2.39645E+01  2.37922E+01  2.33258E+01  2.26516E+01  2.19580E+01
   2.13640E+01  2.08939E+01  2.05182E+01  2.01820E+01  1.99222E+01  2.00856E+01  2.16842E+01  2.55344E+01  3.18811E+01  4.09481E+01
   5.21296E+01  6.40980E+01  7.45975E+01  7.98189E+01  7.67952E+01  6.72038E+01  5.59092E+01  4.62966E+01  3.92174E+01  3.38938E+01
   2.84131E+01  2.20709E+01  1.77182E+01  1.63823E+01  1.58813E+01  1.55929E+01  1.54067E+01  1.53052E+01  1.53276E+01  1.56537E+01
   1.70327E+01  2.03939E+01  2.60014E+01  3.40554E+01  4.41166E+01  5.50385E+01  6.49979E+01  7.09272E+01  6.99320E+01  6.26360E+01
   5.29779E+01  4.42020E+01  3.72942E+01  3.17069E+01  2.58834E+01  1.90917E+01  1.36938E+01  1.16382E+01  1.12474E+01  1.15438E+01
   1.20115E+01  1.22651E+01  1.22179E+01  1.19972E+01  1.16500E+01  1.12308E+01  1.08043E+01  1.03363E+01  9.80631E+00  9.24679E+00
   8.66982E+00  8.19451E+00  7.81792E+00  7.51787E+00  7.25247E+00  6.99112E+00  6.69461E+00  6.32683E+00  5.91804E+00  5.49270E+00
   5.11284E+00  4.91010E+00  4.95050E+00  5.11322E+00  5.15381E+00  4.89202E+00  4.34109E+00  3.70747E+00  3.21369E+00  2.86877E+00
   2.48796E+00  2.01492E+00  1.45677E+00  9.00624E-01  4.89684E-01  2.26686E-01  1.38147E-01  2.47799E-01  3.97081E-01  3.69675E-01
   1.21325E-01 -1.78813E-01 -3.37797E-01 -3.01027E-01 -1.15711E-01  1.68803E-01  6.89091E-01  1.69972E+00  3.14187E+00  4.62788E+00
   5.65956E+00  5.97885E+00  5.65633E+00  4.93101E+00  4.10874E+00  3.42939E+00  2.98404E+00  2.94570E+00  3.49481E+00  4.62399E+00
   6.07077E+00  7.44723E+00  8.37793E+00  8.58476E+00  8.00953E+00  6.68960E+00  4.86518E+00  2.84132E+00  1.15747E+00  4.29599E-01
   9.76458E-01  2.61512E+00  4.78433E+00  7.06835E+00  9.06488E+00  1.01285E+01  9.72620E+00  8.02770E+00  5.55695E+00  2.91363E+00
   8.92957E-01 -9.20710E-02  5.93185E-02  1.30384E+00  3.27137E+00  5.44350E+00  7.11570E+00  8.09533E+00  8.52600E+00  8.67375E+00
   8.69710E+00  8.58420E+00  8.57016E+00  8.97940E+00  9.74064E+00  1.05635E+01  1.12843E+01  1.16560E+01  1.14350E+01  1.06874E+01
   9.68681E+00  8.76210E+00  8.31374E+00  8.58204E+00  9.36219E+00  1.02384E+01  1.10594E+01  1.17833E+01  1.23183E+01  1.27184E+01
   1.32239E+01  1.38273E+01  1.45716E+01  1.63358E+01  2.00928E+01  2.61309E+01  3.48248E+01  4.58165E+01  5.78992E+01  6.89308E+01
   7.49961E+01  7.26096E+01  6.30214E+01  5.12296E+01  4.09727E+01  3.33113E+01  2.76156E+01  2.18785E+01  1.50812E+01  1.00249E+01
   8.34167E+00  7.65860E+00  7.27677E+00  7.07654E+00  6.89381E+00  6.65356E+00  6.37869E+00  6.08597E+00  5.79688E+00  5.53005E+00
   5.28494E+00  5.05750E+00  4.86773E+00  4.72820E+00  4.62793E+00  4.55829E+00  4.51992E+00  4.51994E+00  4.56398E+00  4.64615E+00
   4.76357E+00  4.92185E+00  5.12378E+00  5.36926E+00  5.65565E+00  5.97972E+00  6.33760E+00  6.72268E+00  7.12863E+00  7.54822E+00
   7.97096E+00  8.38584E+00  8.78256E+00  9.15083E+00  9.48058E+00  9.76314E+00  9.99241E+00  1.01653E+01  1.02819E+01  1.03450E+01
   1.03598E+01  1.03344E+01  1.02805E+01  1.02123E+01  1.01457E+01  1.00974E+01  1.00845E+01  1.01245E+01  1.02364E+01  1.04445E+01
   1.07860E+01  1.12741E+01  1.18652E+01  1.25138E+01  1.31360E+01  1.36276E+01  1.38793E+01  1.37754E+01  1.33335E+01  1.28345E+01
   1.25831E+01  1.27033E+01  1.31588E+01  1.38550E+01  1.46916E+01  1.55614E+01  1.63323E+01  1.67945E+01  1.68255E+01  1.66171E+01
   1.64048E+01  1.63419E+01  1.63939E+01  1.64357E+01  1.64050E+01  1.63578E+01  1.61359E+01  1.55069E+01  1.44414E+01  1.32800E+01
   1.24404E+01  1.20795E+01  1.20792E+01  1.22457E+01  1.23839E+01  1.22815E+01  1.17963E+01  1.08378E+01  9.37285E+00  7.71278E+00
   6.14442E+00  4.80904E+00  3.65173E+00  2.51635E+00  1.50125E+00  7.95492E-01  3.05423E-01 -4.91617E-02 -3.12834E-01 -5.14294E-01
  -6.72582E-01 -8.00263E-01 -9.05460E-01 -9.93110E-01 -1.06579E+00 -1.12446E+00 -1.16921E+00 -1.19977E+00 -1.21560E+00 -1.21578E+00
  -1.19901E+00 -1.16371E+00 -1.10834E+00 -1.03144E+00 -9.31528E-01 -8.06949E-01 -6.55895E-01 -4.76708E-01 -2.68120E-01 -2.93190E-02
   2.40136E-01  5.40289E-01  8.70530E-01  1.22925E+00  1.61362E+00  2.01969E+00  2.44245E+00  2.87588E+00  3.31285E+00  3.74506E+00
   4.16332E+00  4.55799E+00  4.91952E+00  5.23865E+00  5.50673E+00  5.71599E+00  5.86007E+00  5.93451E+00  5.93698E+00  5.86727E+00
   5.72717E+00  5.52039E+00  5.25252E+00  4.93086E+00  4.56402E+00  4.16132E+00  3.73227E+00  3.28626E+00  2.83240E+00  2.37922E+00
   1.93433E+00  1.50405E+00  1.09338E+00  7.06092E-01  3.44933E-01  1.16682E-02 -2.92951E-01 -5.69136E-01 -8.17830E-01 -1.04038E+00
  -1.23833E+00 -1.41342E+00 -1.56759E+00 -1.70298E+00 -1.82167E+00 -1.92553E+00 -2.01617E+00 -2.09512E+00 -2.16386E+00 -2.22386E+00
  -2.27635E+00 -2.32229E+00 -2.36245E+00 -2.39758E+00 -2.42850E+00 -2.45594E+00 -2.48045E+00 -2.50237E+00 -2.52203E+00 -2.53982E+00
  -2.55619E+00 -2.57153E+00 -2.58603E+00 -2.59977E+00 -2.61285E+00 -2.62545E+00 -2.63781E+00 -2.65003E+00 -2.66207E+00 -2.67390E+00
  -2.68555E+00 -2.69720E+00 -2.70898E+00 -2.72086E+00 -2.73274E+00 -2.74459E+00 -2.75647E+00 -2.76852E+00 -2.78079E+00 -2.79319E+00
  -2.80559E+00 -2.81799E+00 -2.83048E+00 -2.84316E+00 -2.85599E+00 -2.86885E+00 -2.88164E+00 -2.89440E+00 -2.90724E+00 -2.92019E+00
  -2.93315E+00 -2.94598E+00 -2.95865E+00 -2.97123E+00 -2.98380E+00 -2.99632E+00 -3.00867E+00 -3.02072E+00 -3.03249E+00 -3.04408E+00
  -3.05550E+00 -3.06667E+00 -3.07745E+00 -3.08777E+00 -3.09766E+00 -3.10722E+00 -3.11640E+00 -3.12507E+00
 NY background values follow
     6.264E+01    6.209E+01    6.154E+01    6.098E+01    6.043E+01    5.988E+01    5.933E+01    5.877E+01    5.822E+01    5.767E+01
     5.712E+01    5.656E+01    5.601E+01    5.546E+01    5.491E+01    5.436E+01    5.381E+01    5.326E+01    5.271E+01    5.217E+01
     5.162E+01    5.107E+01    5.053E+01    4.999E+01    4.945E+01    4.891E+01    4.837E+01    4.783E+01    4.729E+01    4.676E+01
     4.623E+01    4.570E+01    4.517E+01    4.464E+01    4.412E+01    4.360E+01    4.308E+01    4.256E+01    4.205E+01    4.154E+01
     4.103E+01    4.052E+01    4.001E+01    3.951E+01    3.901E+01    3.852E+01    3.803E+01    3.754E+01    3.705E+01    3.657E+01
     3.609E+01    3.561E+01    3.514E+01    3.467E+01    3.420E+01    3.374E+01    3.328E+01    3.283E+01    3.237E+01    3.192E+01
     3.148E+01    3.104E+01    3.060E+01    3.016E+01    2.973E+01    2.930E+01    2.888E+01    2.846E+01    2.804E+01    2.763E+01
     2.722E+01    2.681E+01    2.641E+01    2.602E+01    2.562E+01    2.523E+01    2.485E+01    2.447E+01    2.409E+01    2.372E+01
     2.335E+01    2.298E+01    2.262E+01    2.226E+01    2.191E+01    2.156E+01    2.122E+01    2.088E+01    2.054E+01    2.021E+01
     1.989E+01    1.956E+01    1.925E+01    1.893E+01    1.863E+01    1.832E+01    1.802E+01    1.772E+01    1.743E+01    1.714E+01
     1.686E+01    1.658E+01    1.630E+01    1.603E+01    1.576E+01    1.550E+01    1.523E+01    1.498E+01    1.472E+01    1.447E+01
     1.422E+01    1.398E+01    1.374E+01    1.350E+01    1.327E+01    1.304E+01    1.281E+01    1.258E+01    1.236E+01    1.214E+01
     1.193E+01    1.171E+01    1.150E+01    1.130E+01    1.109E+01    1.089E+01    1.069E+01    1.049E+01    1.030E+01    1.010E+01
     9.913E+00    9.725E+00    9.539E+00    9.356E+00    9.175E+00    8.996E+00    8.818E+00    8.643E+00    8.470E+00    8.299E+00
     8.130E+00    7.963E+00    7.798E+00    7.635E+00    7.475E+00    7.316E+00    7.160E+00    7.006E+00    6.854E+00    6.705E+00
     6.558E+00    6.413E+00    6.270E+00    6.130E+00    5.992E+00    5.857E+00    5.724E+00    5.593E+00    5.465E+00    5.340E+00
     5.216E+00    5.096E+00    4.978E+00    4.863E+00    4.750E+00    4.640E+00    4.532E+00    4.427E+00    4.325E+00    4.225E+00
     4.129E+00    4.035E+00    3.943E+00    3.855E+00    3.769E+00    3.687E+00    3.607E+00    3.530E+00    3.456E+00    3.384E+00
     3.316E+00    3.251E+00    3.189E+00    3.129E+00    3.073E+00    3.019E+00    2.968E+00    2.919E+00    2.873E+00    2.830E+00
     2.789E+00    2.750E+00    2.713E+00    2.678E+00    2.646E+00    2.615E+00    2.587E+00    2.560E+00    2.535E+00    2.511E+00
     2.490E+00    2.470E+00    2.451E+00    2.433E+00    2.417E+00    2.403E+00    2.389E+00    2.376E+00    2.365E+00    2.354E+00
     2.344E+00    2.335E+00    2.327E+00    2.319E+00    2.312E+00    2.305E+00    2.299E+00    2.293E+00    2.287E+00    2.282E+00
     2.276E+00    2.271E+00    2.265E+00    2.260E+00    2.254E+00    2.248E+00    2.241E+00    2.234E+00    2.227E+00    2.219E+00
     2.211E+00    2.202E+00    2.193E+00    2.184E+00    2.174E+00    2.163E+00    2.152E+00    2.141E+00    2.130E+00    2.117E+00
     2.105E+00    2.092E+00    2.078E+00    2.065E+00    2.050E+00    2.035E+00    2.020E+00    2.005E+00    1.989E+00    1.972E+00
     1.955E+00    1.938E+00    1.920E+00    1.902E+00    1.883E+00    1.864E+00    1.844E+00    1.824E+00    1.804E+00    1.783E+00
     1.761E+00    1.739E+00    1.717E+00    1.694E+00    1.671E+00    1.648E+00    1.624E+00    1.599E+00    1.574E+00    1.549E+00
     1.523E+00    1.496E+00    1.470E+00    1.442E+00    1.415E+00    1.387E+00    1.358E+00    1.329E+00    1.299E+00    1.269E+00
     1.238E+00    1.207E+00    1.175E+00    1.143E+00    1.110E+00    1.076E+00    1.042E+00    1.008E+00    9.724E-01    9.365E-01
     9.000E-01    8.629E-01    8.252E-01    7.868E-01    7.478E-01    7.081E-01    6.677E-01    6.266E-01    5.848E-01    5.424E-01
     4.992E-01    4.553E-01    4.107E-01    3.653E-01    3.192E-01    2.723E-01    2.247E-01    1.762E-01    1.270E-01    7.702E-02
     2.622E-02   -2.541E-02   -7.786E-02   -1.311E-01   -1.853E-01   -2.402E-01   -2.961E-01   -3.528E-01   -4.103E-01   -4.687E-01
    -5.277E-01   -5.875E-01   -6.479E-01   -7.089E-01   -7.705E-01   -8.325E-01   -8.950E-01   -9.580E-01   -1.021E+00   -1.085E+00
    -1.149E+00   -1.213E+00   -1.277E+00   -1.341E+00   -1.406E+00   -1.470E+00   -1.534E+00   -1.599E+00   -1.663E+00   -1.727E+00
    -1.791E+00   -1.854E+00   -1.917E+00   -1.980E+00   -2.043E+00   -2.104E+00   -2.166E+00   -2.227E+00   -2.287E+00   -2.347E+00
    -2.405E+00   -2.464E+00   -2.521E+00   -2.577E+00   -2.633E+00   -2.688E+00   -2.741E+00   -2.794E+00   -2.845E+00   -2.896E+00
    -2.945E+00   -2.993E+00   -3.039E+00   -3.085E+00   -3.129E+00   -3.172E+00   -3.213E+00   -3.253E+00   -3.292E+00   -3.330E+00
    -3.366E+00   -3.401E+00   -3.435E+00   -3.467E+00   -3.499E+00   -3.529E+00   -3.557E+00   -3.585E+00   -3.611E+00   -3.636E+00
    -3.660E+00   -3.682E+00   -3.703E+00   -3.723E+00   -3.742E+00   -3.760E+00   -3.776E+00   -3.791E+00   -3.805E+00   -3.817E+00
    -3.829E+00   -3.839E+00   -3.848E+00   -3.856E+00   -3.863E+00   -3.868E+00   -3.872E+00   -3.876E+00   -3.877E+00   -3.878E+00
    -3.878E+00   -3.876E+00   -3.873E+00   -3.869E+00   -3.864E+00   -3.858E+00   -3.851E+00   -3.842E+00   -3.832E+00   -3.821E+00
    -3.810E+00   -3.797E+00   -3.783E+00   -3.769E+00   -3.753E+00   -3.737E+00   -3.720E+00   -3.702E+00   -3.684E+00   -3.665E+00
    -3.646E+00   -3.626E+00   -3.605E+00   -3.585E+00   -3.564E+00   -3.542E+00   -3.521E+00   -3.499E+00   -3.477E+00   -3.455E+00
    -3.433E+00   -3.411E+00   -3.389E+00   -3.367E+00   -3.345E+00   -3.323E+00   -3.302E+00   -3.281E+00   -3.260E+00   -3.240E+00
    -3.220E+00   -3.201E+00   -3.182E+00   -3.164E+00   -3.146E+00   -3.129E+00   -3.113E+00   -3.098E+00   -3.083E+00   -3.070E+00
    -3.057E+00   -3.045E+00   -3.035E+00   -3.025E+00   -3.017E+00   -3.009E+00   -3.003E+00   -2.997E+00   -2.992E+00   -2.988E+00
    -2.985E+00   -2.983E+00   -2.982E+00   -2.981E+00   -2.981E+00   -2.982E+00   -2.984E+00   -2.986E+00   -2.989E+00   -2.992E+00
    -2.996E+00   -3.000E+00   -3.005E+00   -3.010E+00   -3.016E+00   -3.022E+00   -3.028E+00   -3.035E+00   -3.042E+00   -3.049E+00
    -3.057E+00   -3.064E+00   -3.072E+00   -3.080E+00   -3.088E+00   -3.096E+00   -3.105E+00   -3.113E+00   -3.121E+00   -3.129E+00
    -3.137E+00   -3.145E+00   -3.153E+00   -3.160E+00   -3.168E+00   -3.175E+00   -3.182E+00   -3.188E+00
 Ala      Conc. = 2.04E+02
