 LCModel (Version 6.3-1L) Copyright: S.W. Provencher.          Ref.: Magn. Reson. Med. 30:672-679 (1993).                
 Slice#1 Row#2 Col#10  PD_24_press_1_raw_act
 36 lines in following concentration table = NCONC+1
    Conc.  %SD /Cr+PCr  Metabolite                                         
 2.47E+03  13%   9.153 Ala                                                 
   60.716  43%   0.225 Asp                                                 
    0.000 999%   0.000 Cr                                                  
  270.318  19%   1.000 PCr                                                 
   36.541  43%   0.135 GABA                                                
   37.747  42%   0.140 Glc                                                 
 1.52E+03  36%   5.618 Gln                                                 
 1.58E+03  40%   5.853 Glu                                                 
  173.164  12%   0.641 GPC                                                 
    0.000 999%   0.000 PCh                                                 
   32.339 332%   0.120 GSH                                                 
  621.025  36%   2.297 Ins                                                 
 3.53E+03   8%  13.044 Lac                                                 
  448.206  14%   1.658 NAA                                                 
    0.000 999%   0.000 NAAG                                                
   13.583  38% 5.0E-02 Scyllo                                              
   64.492  40%   0.239 Tau                                                 
   25.798  77% 9.5E-02 -CrCH2                                              
  173.164  12%   0.641 GPC+PCh                                             
  448.206  14%   1.658 NAA+NAAG                                            
  270.318  19%   1.000 Cr+PCr                                              
 3.10E+03  31%  11.471 Glu+Gln                                             
    0.000 999%   0.000 Lip13a                                              
    0.000 999%   0.000 Lip13b                                              
    0.000 999%   0.000 Lip09                                               
  572.688  14%   2.119 MM09                                                
    0.000 999%   0.000 Lip20                                               
  858.941  14%   3.178 MM20                                                
  171.787  14%   0.635 MM12                                                
  430.447  14%   1.592 MM14                                                
  214.637  15%   0.794 MM17                                                
    0.000 999%   0.000 Lip13a+Lip13b                                       
  602.234  14%   2.228 MM14+Lip13a+Lip13b+MM12                             
  572.688  14%   2.119 MM09+Lip09                                          
  858.941  14%   3.178 MM20+Lip20                                          
   6 lines in following misc. output table
  FWHM = 0.138 ppm    S/N =   3                                            
  Data shift = 0.054 ppm                                                   
  Ph: -61 deg     -23.4 deg/ppm                                            
  alphaB,S = 8.5E+01,   4.1E+02                                            
   14 spline knots.   Ns = 8(2)                                            
   2 inflections.     1 extrema                                            
  498 points on ppm-axis = NY
      4.000000     3.992357     3.984714     3.977070     3.969427     3.961784     3.954141     3.946497     3.938854     3.931211
      3.923568     3.915925     3.908281     3.900638     3.892995     3.885352     3.877708     3.870065     3.862422     3.854779
      3.847136     3.839492     3.831849     3.824206     3.816563     3.808919     3.801276     3.793633     3.785990     3.778347
      3.770703     3.763060     3.755417     3.747774     3.740130     3.732487     3.724844     3.717201     3.709558     3.701914
      3.694271     3.686628     3.678985     3.671341     3.663698     3.656055     3.648412     3.640769     3.633125     3.625482
      3.617839     3.610196     3.602552     3.594909     3.587266     3.579623     3.571980     3.564336     3.556693     3.549050
      3.541407     3.533763     3.526120     3.518477     3.510834     3.503191     3.495547     3.487904     3.480261     3.472618
      3.464974     3.457331     3.449688     3.442045     3.434402     3.426758     3.419115     3.411472     3.403829     3.396185
      3.388542     3.380899     3.373256     3.365613     3.357969     3.350326     3.342683     3.335040     3.327396     3.319753
      3.312110     3.304467     3.296824     3.289180     3.281537     3.273894     3.266251     3.258607     3.250964     3.243321
      3.235678     3.228034     3.220391     3.212748     3.205105     3.197462     3.189818     3.182175     3.174532     3.166889
      3.159245     3.151602     3.143959     3.136316     3.128673     3.121029     3.113386     3.105743     3.098100     3.090456
      3.082813     3.075170     3.067527     3.059884     3.052240     3.044597     3.036954     3.029311     3.021667     3.014024
      3.006381     2.998738     2.991095     2.983451     2.975808     2.968165     2.960522     2.952878     2.945235     2.937592
      2.929949     2.922306     2.914662     2.907019     2.899376     2.891733     2.884089     2.876446     2.868803     2.861160
      2.853517     2.845873     2.838230     2.830587     2.822944     2.815300     2.807657     2.800014     2.792371     2.784728
      2.777084     2.769441     2.761798     2.754155     2.746511     2.738868     2.731225     2.723582     2.715939     2.708295
      2.700652     2.693009     2.685366     2.677722     2.670079     2.662436     2.654793     2.647150     2.639506     2.631863
      2.624220     2.616577     2.608933     2.601290     2.593647     2.586004     2.578361     2.570717     2.563074     2.555431
      2.547788     2.540144     2.532501     2.524858     2.517215     2.509572     2.501928     2.494285     2.486642     2.478999
      2.471355     2.463712     2.456069     2.448426     2.440783     2.433139     2.425496     2.417853     2.410210     2.402566
      2.394923     2.387280     2.379637     2.371994     2.364350     2.356707     2.349064     2.341421     2.333777     2.326134
      2.318491     2.310848     2.303205     2.295561     2.287918     2.280275     2.272632     2.264988     2.257345     2.249702
      2.242059     2.234416     2.226772     2.219129     2.211486     2.203843     2.196199     2.188556     2.180913     2.173270
      2.165627     2.157983     2.150340     2.142697     2.135054     2.127410     2.119767     2.112124     2.104481     2.096838
      2.089194     2.081551     2.073908     2.066265     2.058621     2.050978     2.043335     2.035692     2.028049     2.020405
      2.012762     2.005119     1.997476     1.989833     1.982190     1.974546     1.966903     1.959260     1.951617     1.943974
      1.936331     1.928688     1.921045     1.913402     1.905759     1.898115     1.890472     1.882829     1.875186     1.867543
      1.859900     1.852257     1.844614     1.836971     1.829327     1.821684     1.814041     1.806398     1.798755     1.791112
      1.783469     1.775826     1.768183     1.760540     1.752896     1.745253     1.737610     1.729967     1.722324     1.714681
      1.707038     1.699395     1.691752     1.684108     1.676465     1.668822     1.661179     1.653536     1.645893     1.638250
      1.630607     1.622964     1.615321     1.607677     1.600034     1.592391     1.584748     1.577105     1.569462     1.561819
      1.554176     1.546533     1.538890     1.531246     1.523603     1.515960     1.508317     1.500674     1.493031     1.485388
      1.477745     1.470102     1.462458     1.454815     1.447172     1.439529     1.431886     1.424243     1.416600     1.408957
      1.401314     1.393671     1.386027     1.378384     1.370741     1.363098     1.355455     1.347812     1.340169     1.332526
      1.324883     1.317240     1.309596     1.301953     1.294310     1.286667     1.279024     1.271381     1.263738     1.256095
      1.248452     1.240808     1.233165     1.225522     1.217879     1.210236     1.202593     1.194950     1.187307     1.179664
      1.172021     1.164377     1.156734     1.149091     1.141448     1.133805     1.126162     1.118519     1.110876     1.103233
      1.095590     1.087946     1.080303     1.072660     1.065017     1.057374     1.049731     1.042088     1.034445     1.026802
      1.019158     1.011515     1.003872     0.996229     0.988586     0.980943     0.973300     0.965657     0.958014     0.950371
      0.942727     0.935084     0.927441     0.919798     0.912155     0.904512     0.896869     0.889226     0.881583     0.873940
      0.866296     0.858653     0.851010     0.843367     0.835724     0.828081     0.820438     0.812795     0.805152     0.797508
      0.789865     0.782222     0.774579     0.766936     0.759293     0.751650     0.744007     0.736364     0.728721     0.721077
      0.713434     0.705791     0.698148     0.690505     0.682862     0.675219     0.667576     0.659933     0.652290     0.644646
      0.637003     0.629360     0.621717     0.614074     0.606431     0.598788     0.591145     0.583502     0.575858     0.568215
      0.560572     0.552929     0.545286     0.537643     0.530000     0.522357     0.514714     0.507071     0.499427     0.491784
      0.484141     0.476498     0.468855     0.461212     0.453569     0.445925     0.438282     0.430639     0.422996     0.415353
      0.407710     0.400067     0.392424     0.384780     0.377137     0.369494     0.361851     0.354208     0.346565     0.338922
      0.331278     0.323635     0.315992     0.308349     0.300706     0.293063     0.285420     0.277777     0.270133     0.262490
      0.254847     0.247204     0.239561     0.231918     0.224275     0.216631     0.208988     0.201345
 NY phased data points follow
   3.53459E+00  1.99436E+00  1.99376E+00  6.05022E+00  4.31248E+00  2.08350E+00  7.34339E+00  7.40693E+00  6.52286E+00  2.47409E+00
   1.78644E+00  3.92135E+00  5.09884E+00  2.53659E+00  6.27587E+00  1.87725E-01 -2.72297E-01  1.37046E+00  7.27808E+00  4.47715E+00
   6.38980E+00  2.38728E-01  2.54936E+00  2.75439E+00  2.85074E+00  3.19407E+00  5.71264E+00  1.04800E+00  1.40658E+00 -1.63927E-01
   5.07156E+00  5.91666E-01  4.62923E+00  1.80900E+00  3.89873E+00  1.67730E+00  5.87875E+00 -8.49114E-01  2.58657E+00  2.26321E+00
   6.06251E+00  3.84838E+00 -3.98972E-02  5.37296E+00  4.13333E+00  4.79203E+00  4.20273E+00  4.94883E+00  4.07360E+00  1.00820E+00
  -1.50113E+00  1.22284E+00  3.35575E+00 -6.00574E-01  1.82073E+00  1.32662E+00  3.62045E+00  2.62664E+00  2.75849E+00  1.18229E+00
   7.59974E+00 -6.28002E-01  2.84131E+00  2.51321E+00  4.80367E+00  1.96715E+00  1.10367E+00  4.27569E+00  2.43889E+00  1.31631E-01
   1.08912E+00 -4.12029E-01  1.30601E-01 -4.50719E-01 -4.15425E-01  1.39396E+00  2.54437E+00 -6.09243E-01  2.49644E+00  2.54923E+00
  -1.36250E+00  3.28728E+00  5.10181E+00  1.32891E+00  3.41058E+00  1.50426E+00  1.60453E+00  1.86794E+00  7.72822E-01  1.07535E+00
   3.73702E+00  5.35100E+00 -4.88412E-01  4.95472E+00 -3.84060E-01  3.43182E+00  5.14485E+00  5.13570E+00  5.55216E+00  5.18116E+00
   3.02850E+00  6.64540E+00  9.75296E+00  1.30038E+01  7.56165E+00  2.53422E+00  8.17815E+00  3.30241E+00  6.50194E+00  5.31163E+00
   4.20642E+00  2.68415E+00  1.74516E+00  5.90465E-01  3.11263E+00  1.76925E+00  1.79087E+00  1.70712E+00  3.22643E+00 -1.33112E+00
   2.34838E+00 -6.31493E-01  3.46148E+00  4.29361E+00  3.39672E+00  3.56553E+00  6.52962E+00  3.79418E+00  3.43475E+00  4.98855E+00
   1.89937E+00  4.64030E+00  3.31203E+00  2.19798E+00  4.14928E+00  2.43519E+00 -6.41855E-01  2.34009E+00  1.02134E+00  2.33633E+00
  -2.47475E-01  2.92590E+00 -6.04437E-02  5.08071E+00  1.31554E+00  3.26596E+00  3.07787E+00 -3.24032E+00  2.97823E+00  5.43721E-01
   2.82756E+00 -1.17449E+00  8.40750E-01 -1.93050E+00  1.55915E+00 -3.64297E+00  3.60569E-01 -3.16567E+00 -3.81907E+00 -1.06194E+00
  -9.91675E-01 -2.69059E+00  4.90077E-01  1.63510E+00 -3.03682E+00 -1.13860E+00  1.64019E-01  1.53673E+00 -4.44326E-01  5.06257E-01
   2.83548E+00 -2.75121E-01 -7.84580E-02 -2.98770E+00 -4.12343E+00 -1.96248E+00 -8.79294E-01 -4.91349E+00  1.80202E+00  2.03735E-01
   6.13391E-01 -2.75611E+00 -2.55914E+00  3.74056E-01 -3.72340E+00 -2.68658E+00 -3.77111E+00  1.28859E+00  2.87552E+00 -1.32964E+00
   2.49459E+00 -4.65822E+00 -3.44386E+00  8.55192E-01  1.83367E+00  3.52466E-01 -3.86616E-01 -2.65386E+00 -9.81733E-01 -1.47136E+00
  -1.63539E+00 -9.40841E-01  1.43181E+00 -9.54430E-01 -5.53579E-01  1.41677E+00  1.17732E+00  2.19183E+00 -2.81320E-01 -5.44839E+00
  -3.98394E-02  1.48771E+00  8.83985E-01 -1.27661E+00 -1.36056E+00  2.23163E+00  1.74769E+00 -1.37328E-01  2.17267E+00 -1.11170E+00
   7.67525E-01 -3.29468E-01  4.26146E+00 -2.18064E+00  1.60474E+00 -5.90399E-01  3.02162E+00 -1.23756E+00  2.53069E+00  4.86195E+00
  -2.73133E+00  2.61812E-01  1.28552E+00  3.06354E+00  5.66353E-01 -2.36583E+00  5.29207E-01  1.08233E+00  7.61591E-01 -2.88670E-01
   2.69427E+00  4.49949E+00  7.10560E+00  3.20419E+00  3.11751E+00  4.46844E+00  2.51084E+00  3.07407E+00  5.87638E+00  2.06374E+00
   5.65447E+00  3.07664E-01  3.85247E+00  3.61422E+00  4.12109E+00  4.93747E+00  5.58957E+00  7.61178E+00  7.70159E+00  1.35876E+01
   8.84274E+00  1.42215E+01  1.49779E+01  1.01848E+01  8.53458E+00  7.64429E+00  9.73132E+00  9.12143E+00  7.61344E+00  5.24424E+00
   8.63576E+00  3.48966E+00  2.16693E+00  5.62171E+00  4.93171E+00  7.01970E+00  4.44219E+00  6.42104E+00  2.69072E+00  4.80418E+00
   4.54699E+00 -6.50918E-01  3.91649E+00  2.13314E+00  7.19256E+00 -2.79272E-02  4.04367E+00  1.93331E+00  3.70509E+00  1.32015E+00
   3.20650E+00 -3.74647E-01  5.62020E+00  3.59143E-01  2.24719E+00  2.98583E+00  1.94054E+00  2.98322E+00  3.66326E+00  1.74878E+00
   6.02564E+00  1.28777E+00  5.15321E+00  2.26853E+00  3.22271E+00 -1.32077E-01  2.47237E+00  6.07867E-01  4.70611E-01  1.91532E-01
   4.69605E+00  2.21116E+00  5.61123E+00  3.39444E+00  5.25744E+00  8.29128E+00  4.51148E+00  6.06926E+00  5.39265E+00  5.66503E+00
   6.95418E+00  8.50718E+00  5.37652E+00  7.36481E+00  5.96140E+00  7.78498E+00  1.02516E+01  6.79108E+00  1.04623E+01  1.32691E+01
   9.88014E+00  1.17404E+01  1.15679E+01  1.41910E+01  1.27054E+01  1.27957E+01  1.48271E+01  1.38400E+01  1.69594E+01  1.89642E+01
   1.96731E+01  2.06212E+01  2.10182E+01  2.08983E+01  2.18944E+01  1.95736E+01  1.75267E+01  1.56851E+01  1.69503E+01  1.48056E+01
   1.07117E+01  1.07115E+01  6.22093E+00  7.81817E+00  6.65423E+00  9.17243E+00  8.09212E+00  6.86006E+00  8.67405E+00  8.18769E+00
   4.91773E+00  3.73557E+00  6.27022E+00  8.32385E+00  2.88644E+00  3.86551E+00  4.82945E+00  5.07494E+00  4.38479E+00  5.27933E+00
   4.13229E+00  4.60515E+00  5.68757E+00  2.22703E+00  5.14033E+00  2.70460E+00  2.75630E+00  4.61845E+00  4.26282E+00  6.84488E+00
   3.36658E+00  5.87445E+00  7.93216E+00  4.37637E+00  4.65012E+00  4.43659E+00  2.41892E+00  5.03799E+00  5.36839E+00  5.86465E+00
   3.26746E+00  9.12934E+00  6.83454E+00  4.94663E+00  2.45713E+00  4.44286E-01  3.64831E+00  5.09703E+00  2.28355E+00  1.18381E+00
   4.54879E+00  2.30374E+00  6.32137E+00  6.48529E+00  1.23683E+00  3.16950E+00  2.25636E+00  2.24487E+00 -1.18258E+00  3.97703E+00
   1.96528E+00  1.42774E+00  3.65837E+00 -3.88029E-01  9.84631E-01 -4.58593E-01  5.28262E+00 -1.90419E-01  2.92242E+00  2.97472E+00
   8.44135E-01  3.09411E+00  1.77595E+00  2.75926E+00 -5.41587E-01  1.21053E+00  4.54034E-01  2.74314E+00  4.59939E+00  3.62192E+00
   5.41298E+00  3.15789E+00 -1.15265E+00  2.58652E+00  9.46970E-01  1.21466E+00  7.70588E-01  2.47608E+00  3.49892E+00  1.68108E+00
   1.02581E+00 -1.47336E+00 -1.61344E+00  2.98468E+00 -1.45903E+00  2.29159E+00 -2.36519E+00  1.49815E+00 -1.35688E+00  9.25998E-01
   2.48294E+00 -6.77000E-01  1.27302E+00  3.40773E+00  3.71539E-02  4.08468E-01  3.37285E+00  5.08351E-02  2.07216E+00  1.45327E+00
   3.31290E+00  3.99051E+00  3.31211E+00  5.93248E-01  1.92630E+00  1.09806E+00 -1.23381E+00  3.65640E+00 -1.80973E+00  1.83395E+00
  -1.24700E-01  1.44219E+00  1.77353E+00 -3.35819E-01 -1.22770E-01  2.84189E+00  1.15852E+00 -3.47173E-02  2.66555E+00 -2.01615E-01
  -2.15714E+00  3.58096E-01 -3.12010E+00 -2.33176E+00 -9.40786E-01 -1.18107E+00  2.01342E+00  7.97080E-01 -3.19890E-01 -1.93431E-01
   2.35188E+00 -2.72325E+00  5.78944E-01  2.92877E+00  3.88132E+00  1.15758E+00 -8.24311E-01 -4.45368E+00
 NY points of the fit to the data follow
   2.57593E+00  3.37041E+00  3.00601E+00  3.63339E+00  3.37630E+00  3.68364E+00  3.59501E+00  3.66105E+00  3.79805E+00  3.79767E+00
   3.99060E+00  3.94865E+00  4.09741E+00  3.91566E+00  3.94546E+00  3.66719E+00  3.70782E+00  3.54273E+00  3.58771E+00  3.48114E+00
   3.50875E+00  3.33316E+00  3.29880E+00  3.07664E+00  3.01490E+00  2.71126E+00  2.74173E+00  2.38448E+00  2.58845E+00  2.24743E+00
   2.69579E+00  2.36521E+00  3.02248E+00  2.66613E+00  3.39307E+00  2.95141E+00  3.63425E+00  3.09875E+00  3.67625E+00  3.13020E+00
   3.68172E+00  3.19735E+00  3.73579E+00  3.36800E+00  3.88428E+00  3.63032E+00  3.93604E+00  3.53760E+00  3.63980E+00  3.19603E+00
   3.19132E+00  2.80175E+00  2.83858E+00  2.61253E+00  2.68442E+00  2.45274E+00  2.48505E+00  2.23579E+00  2.22251E+00  2.02444E+00
   2.00462E+00  1.79254E+00  1.79586E+00  1.59155E+00  1.61090E+00  1.43701E+00  1.49702E+00  1.37688E+00  1.48781E+00  1.39238E+00
   1.50103E+00  1.38238E+00  1.46394E+00  1.31216E+00  1.36675E+00  1.19319E+00  1.22920E+00  1.04730E+00  1.07344E+00  8.96369E-01
   9.33190E-01  7.56068E-01  7.91342E-01  6.08604E-01  6.42122E-01  5.34688E-01  8.47821E-01  8.74262E-01  1.31677E+00  1.43807E+00
   1.92859E+00  2.12455E+00  2.65626E+00  2.92667E+00  3.50317E+00  3.84038E+00  4.42420E+00  4.79079E+00  5.31250E+00  5.66121E+00
   6.04220E+00  6.31782E+00  6.46752E+00  6.61733E+00  6.47825E+00  6.47579E+00  6.06589E+00  5.91306E+00  5.30902E+00  5.05833E+00
   4.39856E+00  4.24798E+00  3.65985E+00  3.56133E+00  3.08118E+00  3.01080E+00  2.64282E+00  2.61059E+00  2.38633E+00  2.42529E+00
   2.41073E+00  2.54956E+00  2.85900E+00  3.03340E+00  3.36088E+00  3.45464E+00  3.75709E+00  3.70890E+00  3.94895E+00  3.72863E+00
   3.88119E+00  3.50207E+00  3.56257E+00  3.08099E+00  3.06390E+00  2.53719E+00  2.46257E+00  1.94175E+00  1.83073E+00  1.35294E+00
   1.22141E+00  7.99748E-01  6.61330E-01  3.15626E-01  1.87106E-01 -5.58296E-02 -1.41327E-01 -2.18367E-01 -2.54148E-01 -3.11791E-01
  -3.45745E-01 -3.93917E-01 -4.30943E-01 -4.73679E-01 -5.15127E-01 -5.57023E-01 -6.02296E-01 -6.40132E-01 -6.88908E-01 -7.19226E-01
  -7.74912E-01 -7.97501E-01 -8.49568E-01 -8.65803E-01 -9.11949E-01 -9.31562E-01 -9.70808E-01 -9.94816E-01 -1.02505E+00 -1.05385E+00
  -1.07537E+00 -1.11414E+00 -1.11728E+00 -1.15775E+00 -1.13702E+00 -1.17262E+00 -1.12674E+00 -1.16022E+00 -1.11602E+00 -1.15295E+00
  -1.13386E+00 -1.19221E+00 -1.18872E+00 -1.25181E+00 -1.24738E+00 -1.26164E+00 -1.19807E+00 -1.14611E+00 -1.03554E+00 -8.99936E-01
  -7.63968E-01 -6.30626E-01 -4.95816E-01 -4.89808E-01 -5.05054E-01 -5.86802E-01 -5.70995E-01 -6.60383E-01 -4.95577E-01 -4.94806E-01
  -1.30587E-01 -2.17262E-01  2.48172E-01 -3.99805E-02  4.60210E-01 -1.33041E-01  3.29314E-01 -4.74344E-01  1.39954E-01 -7.46813E-01
   1.07419E-01 -7.83505E-01  2.90948E-01 -6.05762E-01  5.65335E-01 -3.87984E-01  7.55596E-01 -2.41492E-01  8.29223E-01 -1.36360E-01
   7.67915E-01  1.09600E-05  8.48973E-01  3.78831E-01  1.16513E+00  1.03606E+00  1.67093E+00  1.61821E+00  2.02905E+00  1.92556E+00
   2.03266E+00  1.96071E+00  2.04723E+00  2.04103E+00  2.15173E+00  2.23737E+00  2.46228E+00  2.46686E+00  2.74325E+00  2.61547E+00
   2.89148E+00  2.55790E+00  2.79247E+00  2.41954E+00  2.97488E+00  2.80715E+00  3.49223E+00  3.56431E+00  4.25198E+00  4.51978E+00
   5.15328E+00  5.59094E+00  6.13606E+00  6.73898E+00  7.12333E+00  7.83227E+00  7.94901E+00  8.75851E+00  8.66012E+00  9.52161E+00
   9.14668E+00  9.96134E+00  9.27591E+00  9.84126E+00  8.91686E+00  9.22945E+00  8.15654E+00  8.24681E+00  7.16196E+00  7.07700E+00
   6.06091E+00  5.89239E+00  5.04085E+00  4.83552E+00  4.14287E+00  3.90261E+00  3.36872E+00  3.10545E+00  2.75942E+00  2.56644E+00
   2.50504E+00  2.46262E+00  2.42950E+00  2.43296E+00  2.41927E+00  2.43506E+00  2.44097E+00  2.47158E+00  2.48966E+00  2.52834E+00
   2.55560E+00  2.60004E+00  2.63838E+00  2.69727E+00  2.75035E+00  2.81663E+00  2.87771E+00  2.94748E+00  3.01204E+00  3.08271E+00
   3.14881E+00  3.22411E+00  3.29994E+00  3.38934E+00  3.48762E+00  3.60887E+00  3.75417E+00  3.94197E+00  4.18731E+00  4.53593E+00
   5.08607E+00  5.92788E+00  6.31261E+00  7.12630E+00  7.20018E+00  7.82682E+00  7.56131E+00  7.91578E+00  7.21775E+00  7.83768E+00
   7.24293E+00  7.97957E+00  7.47799E+00  8.08366E+00  7.60338E+00  7.92585E+00  7.49982E+00  7.54608E+00  7.47082E+00  7.42853E+00
   8.27153E+00  8.81004E+00  1.02174E+01  1.06279E+01  1.24187E+01  1.24032E+01  1.43202E+01  1.36306E+01  1.53185E+01  1.49473E+01
   1.63768E+01  1.61599E+01  1.70253E+01  1.67566E+01  1.68521E+01  1.65046E+01  1.57836E+01  1.55155E+01  1.38052E+01  1.32572E+01
   1.10533E+01  1.06795E+01  8.45749E+00  8.65947E+00  6.78012E+00  7.85631E+00  6.82137E+00  8.13911E+00  7.54899E+00  8.68245E+00
   8.28642E+00  9.04639E+00  8.79372E+00  9.24439E+00  9.15378E+00  9.48015E+00  9.54715E+00  9.91337E+00  9.57494E+00  9.08908E+00
   8.47693E+00  7.46527E+00  6.70429E+00  5.52664E+00  4.81481E+00  4.35967E+00  4.03770E+00  3.80282E+00  3.63028E+00  3.50769E+00
   3.42536E+00  3.37876E+00  3.36260E+00  3.37479E+00  3.41133E+00  3.47075E+00  3.54923E+00  3.64513E+00  3.75423E+00  3.87425E+00
   4.00028E+00  4.12944E+00  4.25634E+00  4.37779E+00  4.48826E+00  4.58472E+00  4.66210E+00  4.71815E+00  4.74896E+00  4.75365E+00
   4.72986E+00  4.67839E+00  4.59864E+00  4.49318E+00  4.36302E+00  4.21213E+00  4.04263E+00  3.85931E+00  3.66479E+00  3.46405E+00
   3.25957E+00  3.05590E+00  2.85488E+00  2.66023E+00  2.47288E+00  2.29563E+00  2.12845E+00  1.97322E+00  1.82910E+00  1.69725E+00
   1.57624E+00  1.46678E+00  1.36709E+00  1.27761E+00  1.19640E+00  1.12385E+00  1.05804E+00  9.99372E-01  9.46002E-01  8.98434E-01
   8.54927E-01  8.16113E-01  7.80372E-01  7.48443E-01  7.18801E-01  6.92276E-01  6.67428E-01  6.45180E-01  6.24153E-01  6.05329E-01
   5.87365E-01  5.71293E-01  5.55810E-01  5.41991E-01  5.28556E-01  5.16602E-01  5.04858E-01  4.94448E-01  4.84123E-01  4.75024E-01
   4.65908E-01  4.57922E-01  4.49827E-01  4.42789E-01  4.35580E-01  4.29370E-01  4.22933E-01  4.17437E-01  4.11664E-01  4.06792E-01
   4.01612E-01  3.97297E-01  3.92641E-01  3.88813E-01  3.84616E-01  3.81225E-01  3.77447E-01  3.74454E-01  3.71049E-01  3.68405E-01
   3.65333E-01  3.63014E-01  3.60252E-01  3.58228E-01  3.55743E-01  3.53984E-01  3.51757E-01  3.50250E-01  3.48265E-01  3.46991E-01
   3.45226E-01  3.44166E-01  3.42614E-01  3.41767E-01  3.40420E-01  3.39774E-01  3.38625E-01  3.38178E-01  3.37232E-01  3.36995E-01
   3.36260E-01  3.36240E-01  3.35730E-01  3.35954E-01  3.35711E-01  3.36232E-01  3.36319E-01  3.37218E-01
 NY background values follow
    -7.267E-01   -7.249E-01   -7.231E-01   -7.212E-01   -7.194E-01   -7.176E-01   -7.158E-01   -7.139E-01   -7.121E-01   -7.103E-01
    -7.084E-01   -7.066E-01   -7.048E-01   -7.030E-01   -7.011E-01   -6.993E-01   -6.975E-01   -6.957E-01   -6.938E-01   -6.920E-01
    -6.902E-01   -6.884E-01   -6.865E-01   -6.847E-01   -6.829E-01   -6.811E-01   -6.792E-01   -6.774E-01   -6.756E-01   -6.737E-01
    -6.719E-01   -6.701E-01   -6.683E-01   -6.664E-01   -6.646E-01   -6.628E-01   -6.610E-01   -6.591E-01   -6.573E-01   -6.555E-01
    -6.537E-01   -6.518E-01   -6.500E-01   -6.482E-01   -6.463E-01   -6.445E-01   -6.427E-01   -6.409E-01   -6.390E-01   -6.372E-01
    -6.354E-01   -6.336E-01   -6.317E-01   -6.299E-01   -6.281E-01   -6.263E-01   -6.244E-01   -6.226E-01   -6.208E-01   -6.189E-01
    -6.171E-01   -6.153E-01   -6.135E-01   -6.116E-01   -6.098E-01   -6.080E-01   -6.062E-01   -6.043E-01   -6.025E-01   -6.007E-01
    -5.989E-01   -5.970E-01   -5.952E-01   -5.934E-01   -5.915E-01   -5.897E-01   -5.879E-01   -5.861E-01   -5.842E-01   -5.824E-01
    -5.806E-01   -5.788E-01   -5.769E-01   -5.751E-01   -5.733E-01   -5.715E-01   -5.696E-01   -5.678E-01   -5.660E-01   -5.641E-01
    -5.623E-01   -5.605E-01   -5.587E-01   -5.568E-01   -5.550E-01   -5.532E-01   -5.514E-01   -5.495E-01   -5.477E-01   -5.459E-01
    -5.441E-01   -5.422E-01   -5.404E-01   -5.386E-01   -5.367E-01   -5.349E-01   -5.331E-01   -5.313E-01   -5.294E-01   -5.276E-01
    -5.258E-01   -5.240E-01   -5.221E-01   -5.203E-01   -5.185E-01   -5.167E-01   -5.148E-01   -5.130E-01   -5.112E-01   -5.094E-01
    -5.075E-01   -5.057E-01   -5.039E-01   -5.020E-01   -5.002E-01   -4.984E-01   -4.966E-01   -4.947E-01   -4.929E-01   -4.911E-01
    -4.893E-01   -4.874E-01   -4.856E-01   -4.838E-01   -4.820E-01   -4.801E-01   -4.783E-01   -4.765E-01   -4.746E-01   -4.728E-01
    -4.710E-01   -4.692E-01   -4.673E-01   -4.655E-01   -4.637E-01   -4.619E-01   -4.600E-01   -4.582E-01   -4.564E-01   -4.545E-01
    -4.527E-01   -4.509E-01   -4.491E-01   -4.472E-01   -4.454E-01   -4.436E-01   -4.418E-01   -4.399E-01   -4.381E-01   -4.363E-01
    -4.345E-01   -4.326E-01   -4.308E-01   -4.290E-01   -4.271E-01   -4.253E-01   -4.235E-01   -4.217E-01   -4.198E-01   -4.180E-01
    -4.162E-01   -4.144E-01   -4.125E-01   -4.107E-01   -4.089E-01   -4.071E-01   -4.052E-01   -4.034E-01   -4.016E-01   -3.997E-01
    -3.979E-01   -3.961E-01   -3.943E-01   -3.924E-01   -3.906E-01   -3.888E-01   -3.870E-01   -3.851E-01   -3.833E-01   -3.815E-01
    -3.797E-01   -3.778E-01   -3.760E-01   -3.742E-01   -3.723E-01   -3.705E-01   -3.687E-01   -3.669E-01   -3.650E-01   -3.632E-01
    -3.614E-01   -3.596E-01   -3.577E-01   -3.559E-01   -3.541E-01   -3.522E-01   -3.504E-01   -3.486E-01   -3.468E-01   -3.449E-01
    -3.431E-01   -3.413E-01   -3.395E-01   -3.376E-01   -3.358E-01   -3.340E-01   -3.321E-01   -3.303E-01   -3.285E-01   -3.267E-01
    -3.248E-01   -3.230E-01   -3.212E-01   -3.194E-01   -3.175E-01   -3.157E-01   -3.139E-01   -3.121E-01   -3.102E-01   -3.084E-01
    -3.066E-01   -3.047E-01   -3.029E-01   -3.011E-01   -2.993E-01   -2.974E-01   -2.956E-01   -2.938E-01   -2.920E-01   -2.901E-01
    -2.883E-01   -2.865E-01   -2.846E-01   -2.828E-01   -2.810E-01   -2.792E-01   -2.773E-01   -2.755E-01   -2.737E-01   -2.719E-01
    -2.700E-01   -2.682E-01   -2.664E-01   -2.645E-01   -2.627E-01   -2.609E-01   -2.591E-01   -2.572E-01   -2.554E-01   -2.536E-01
    -2.518E-01   -2.499E-01   -2.481E-01   -2.463E-01   -2.444E-01   -2.426E-01   -2.408E-01   -2.390E-01   -2.371E-01   -2.353E-01
    -2.335E-01   -2.316E-01   -2.298E-01   -2.280E-01   -2.262E-01   -2.243E-01   -2.225E-01   -2.207E-01   -2.189E-01   -2.170E-01
    -2.152E-01   -2.134E-01   -2.115E-01   -2.097E-01   -2.079E-01   -2.061E-01   -2.042E-01   -2.024E-01   -2.006E-01   -1.988E-01
    -1.969E-01   -1.951E-01   -1.933E-01   -1.914E-01   -1.896E-01   -1.878E-01   -1.860E-01   -1.841E-01   -1.823E-01   -1.805E-01
    -1.786E-01   -1.768E-01   -1.750E-01   -1.732E-01   -1.713E-01   -1.695E-01   -1.677E-01   -1.659E-01   -1.640E-01   -1.622E-01
    -1.604E-01   -1.585E-01   -1.567E-01   -1.549E-01   -1.531E-01   -1.512E-01   -1.494E-01   -1.476E-01   -1.457E-01   -1.439E-01
    -1.421E-01   -1.403E-01   -1.384E-01   -1.366E-01   -1.348E-01   -1.330E-01   -1.311E-01   -1.293E-01   -1.275E-01   -1.256E-01
    -1.238E-01   -1.220E-01   -1.202E-01   -1.183E-01   -1.165E-01   -1.147E-01   -1.128E-01   -1.110E-01   -1.092E-01   -1.074E-01
    -1.055E-01   -1.037E-01   -1.019E-01   -1.000E-01   -9.822E-02   -9.639E-02   -9.456E-02   -9.273E-02   -9.091E-02   -8.908E-02
    -8.725E-02   -8.542E-02   -8.359E-02   -8.177E-02   -7.994E-02   -7.811E-02   -7.628E-02   -7.445E-02   -7.262E-02   -7.080E-02
    -6.897E-02   -6.714E-02   -6.531E-02   -6.348E-02   -6.166E-02   -5.983E-02   -5.800E-02   -5.617E-02   -5.434E-02   -5.251E-02
    -5.069E-02   -4.886E-02   -4.703E-02   -4.520E-02   -4.337E-02   -4.154E-02   -3.972E-02   -3.789E-02   -3.606E-02   -3.423E-02
    -3.240E-02   -3.057E-02   -2.875E-02   -2.692E-02   -2.509E-02   -2.326E-02   -2.143E-02   -1.960E-02   -1.778E-02   -1.595E-02
    -1.412E-02   -1.229E-02   -1.046E-02   -8.633E-03   -6.805E-03   -4.976E-03   -3.148E-03   -1.320E-03    5.090E-04    2.337E-03
     4.166E-03    5.994E-03    7.823E-03    9.651E-03    1.148E-02    1.331E-02    1.514E-02    1.697E-02    1.879E-02    2.062E-02
     2.245E-02    2.428E-02    2.611E-02    2.794E-02    2.976E-02    3.159E-02    3.342E-02    3.525E-02    3.708E-02    3.891E-02
     4.074E-02    4.256E-02    4.439E-02    4.622E-02    4.805E-02    4.988E-02    5.171E-02    5.354E-02    5.536E-02    5.719E-02
     5.902E-02    6.085E-02    6.268E-02    6.451E-02    6.634E-02    6.816E-02    6.999E-02    7.182E-02    7.365E-02    7.548E-02
     7.731E-02    7.914E-02    8.097E-02    8.279E-02    8.462E-02    8.645E-02    8.828E-02    9.011E-02    9.194E-02    9.377E-02
     9.559E-02    9.742E-02    9.925E-02    1.011E-01    1.029E-01    1.047E-01    1.066E-01    1.084E-01    1.102E-01    1.121E-01
     1.139E-01    1.157E-01    1.175E-01    1.194E-01    1.212E-01    1.230E-01    1.249E-01    1.267E-01    1.285E-01    1.303E-01
     1.322E-01    1.340E-01    1.358E-01    1.377E-01    1.395E-01    1.413E-01    1.431E-01    1.450E-01    1.468E-01    1.486E-01
     1.505E-01    1.523E-01    1.541E-01    1.559E-01    1.578E-01    1.596E-01    1.614E-01    1.633E-01    1.651E-01    1.669E-01
     1.687E-01    1.706E-01    1.724E-01    1.742E-01    1.761E-01    1.779E-01    1.797E-01    1.815E-01
 Ala      Conc. = 2.47E+03
