 LCModel (Version 6.3-1L) Copyright: S.W. Provencher.          Ref.: Magn. Reson. Med. 30:672-679 (1993).                
 Slice#1 Row#4 Col#11  PD_24_press_1_raw_act
 36 lines in following concentration table = NCONC+1
    Conc.  %SD /Cr+PCr  Metabolite                                         
    0.000 999%   0.000 Ala                                                 
    0.000 999%   0.000 Asp                                                 
    0.000 999%   0.000 Cr                                                  
 1.04E+03   7%   1.000 PCr                                                 
  113.582 134%   0.109 GABA                                                
   58.717 250% 5.6E-02 Glc                                                 
 2.20E+03  30%   2.106 Gln                                                 
 2.09E+03  37%   2.003 Glu                                                 
  377.222   8%   0.361 GPC                                                 
    0.000 999%   0.000 PCh                                                 
  236.215  59%   0.226 GSH                                                 
 1.37E+03  29%   1.307 Ins                                                 
    0.000 999%   0.000 Lac                                                 
 1.88E+03   5%   1.805 NAA                                                 
    0.000 999%   0.000 NAAG                                                
   87.537  38% 8.4E-02 Scyllo                                              
  218.497  93%   0.209 Tau                                                 
  394.837  42%   0.378 -CrCH2                                              
  377.222   8%   0.361 GPC+PCh                                             
 1.88E+03   5%   1.805 NAA+NAAG                                            
 1.04E+03   7%   1.000 Cr+PCr                                              
 4.29E+03  31%   4.109 Glu+Gln                                             
    0.000 999%   0.000 Lip13a                                              
    0.000 999%   0.000 Lip13b                                              
    0.000 999%   0.000 Lip09                                               
  958.562  16%   0.918 MM09                                                
 2.73E-02 999% 2.6E-05 Lip20                                               
 1.87E+03  16%   1.787 MM20                                                
  137.616  59%   0.132 MM12                                                
 2.25E+03   6%   2.157+MM14                                                
  686.202  24%   0.657 MM17                                                
    0.000 999%   0.000 Lip13a+Lip13b                                       
 2.39E+03   7%   2.289 MM14+Lip13a+Lip13b+MM12                             
  958.562  16%   0.918 MM09+Lip09                                          
 1.87E+03  16%   1.787 MM20+Lip20                                          
   6 lines in following misc. output table
  FWHM = 0.107 ppm    S/N =   7                                            
  Data shift = 0.076 ppm                                                   
  Ph: -16 deg      -8.9 deg/ppm                                            
  alphaB,S = 4.2E-01,   1.0E+02                                            
   14 spline knots.   Ns = 7(2)                                            
  (11) 3 infls.   ( 7) 1 extrs.                                            
  498 points on ppm-axis = NY
      4.000000     3.992357     3.984714     3.977070     3.969427     3.961784     3.954141     3.946497     3.938854     3.931211
      3.923568     3.915925     3.908281     3.900638     3.892995     3.885352     3.877708     3.870065     3.862422     3.854779
      3.847136     3.839492     3.831849     3.824206     3.816563     3.808919     3.801276     3.793633     3.785990     3.778347
      3.770703     3.763060     3.755417     3.747774     3.740130     3.732487     3.724844     3.717201     3.709558     3.701914
      3.694271     3.686628     3.678985     3.671341     3.663698     3.656055     3.648412     3.640769     3.633125     3.625482
      3.617839     3.610196     3.602552     3.594909     3.587266     3.579623     3.571980     3.564336     3.556693     3.549050
      3.541407     3.533763     3.526120     3.518477     3.510834     3.503191     3.495547     3.487904     3.480261     3.472618
      3.464974     3.457331     3.449688     3.442045     3.434402     3.426758     3.419115     3.411472     3.403829     3.396185
      3.388542     3.380899     3.373256     3.365613     3.357969     3.350326     3.342683     3.335040     3.327396     3.319753
      3.312110     3.304467     3.296824     3.289180     3.281537     3.273894     3.266251     3.258607     3.250964     3.243321
      3.235678     3.228034     3.220391     3.212748     3.205105     3.197462     3.189818     3.182175     3.174532     3.166889
      3.159245     3.151602     3.143959     3.136316     3.128673     3.121029     3.113386     3.105743     3.098100     3.090456
      3.082813     3.075170     3.067527     3.059884     3.052240     3.044597     3.036954     3.029311     3.021667     3.014024
      3.006381     2.998738     2.991095     2.983451     2.975808     2.968165     2.960522     2.952878     2.945235     2.937592
      2.929949     2.922306     2.914662     2.907019     2.899376     2.891733     2.884089     2.876446     2.868803     2.861160
      2.853517     2.845873     2.838230     2.830587     2.822944     2.815300     2.807657     2.800014     2.792371     2.784728
      2.777084     2.769441     2.761798     2.754155     2.746511     2.738868     2.731225     2.723582     2.715939     2.708295
      2.700652     2.693009     2.685366     2.677722     2.670079     2.662436     2.654793     2.647150     2.639506     2.631863
      2.624220     2.616577     2.608933     2.601290     2.593647     2.586004     2.578361     2.570717     2.563074     2.555431
      2.547788     2.540144     2.532501     2.524858     2.517215     2.509572     2.501928     2.494285     2.486642     2.478999
      2.471355     2.463712     2.456069     2.448426     2.440783     2.433139     2.425496     2.417853     2.410210     2.402566
      2.394923     2.387280     2.379637     2.371994     2.364350     2.356707     2.349064     2.341421     2.333777     2.326134
      2.318491     2.310848     2.303205     2.295561     2.287918     2.280275     2.272632     2.264988     2.257345     2.249702
      2.242059     2.234416     2.226772     2.219129     2.211486     2.203843     2.196199     2.188556     2.180913     2.173270
      2.165627     2.157983     2.150340     2.142697     2.135054     2.127410     2.119767     2.112124     2.104481     2.096838
      2.089194     2.081551     2.073908     2.066265     2.058621     2.050978     2.043335     2.035692     2.028049     2.020405
      2.012762     2.005119     1.997476     1.989833     1.982190     1.974546     1.966903     1.959260     1.951617     1.943974
      1.936331     1.928688     1.921045     1.913402     1.905759     1.898115     1.890472     1.882829     1.875186     1.867543
      1.859900     1.852257     1.844614     1.836971     1.829327     1.821684     1.814041     1.806398     1.798755     1.791112
      1.783469     1.775826     1.768183     1.760540     1.752896     1.745253     1.737610     1.729967     1.722324     1.714681
      1.707038     1.699395     1.691752     1.684108     1.676465     1.668822     1.661179     1.653536     1.645893     1.638250
      1.630607     1.622964     1.615321     1.607677     1.600034     1.592391     1.584748     1.577105     1.569462     1.561819
      1.554176     1.546533     1.538890     1.531246     1.523603     1.515960     1.508317     1.500674     1.493031     1.485388
      1.477745     1.470102     1.462458     1.454815     1.447172     1.439529     1.431886     1.424243     1.416600     1.408957
      1.401314     1.393671     1.386027     1.378384     1.370741     1.363098     1.355455     1.347812     1.340169     1.332526
      1.324883     1.317240     1.309596     1.301953     1.294310     1.286667     1.279024     1.271381     1.263738     1.256095
      1.248452     1.240808     1.233165     1.225522     1.217879     1.210236     1.202593     1.194950     1.187307     1.179664
      1.172021     1.164377     1.156734     1.149091     1.141448     1.133805     1.126162     1.118519     1.110876     1.103233
      1.095590     1.087946     1.080303     1.072660     1.065017     1.057374     1.049731     1.042088     1.034445     1.026802
      1.019158     1.011515     1.003872     0.996229     0.988586     0.980943     0.973300     0.965657     0.958014     0.950371
      0.942727     0.935084     0.927441     0.919798     0.912155     0.904512     0.896869     0.889226     0.881583     0.873940
      0.866296     0.858653     0.851010     0.843367     0.835724     0.828081     0.820438     0.812795     0.805152     0.797508
      0.789865     0.782222     0.774579     0.766936     0.759293     0.751650     0.744007     0.736364     0.728721     0.721077
      0.713434     0.705791     0.698148     0.690505     0.682862     0.675219     0.667576     0.659933     0.652290     0.644646
      0.637003     0.629360     0.621717     0.614074     0.606431     0.598788     0.591145     0.583502     0.575858     0.568215
      0.560572     0.552929     0.545286     0.537643     0.530000     0.522357     0.514714     0.507071     0.499427     0.491784
      0.484141     0.476498     0.468855     0.461212     0.453569     0.445925     0.438282     0.430639     0.422996     0.415353
      0.407710     0.400067     0.392424     0.384780     0.377137     0.369494     0.361851     0.354208     0.346565     0.338922
      0.331278     0.323635     0.315992     0.308349     0.300706     0.293063     0.285420     0.277777     0.270133     0.262490
      0.254847     0.247204     0.239561     0.231918     0.224275     0.216631     0.208988     0.201345
 NY phased data points follow
   1.14453E+00  2.02390E+00 -9.00047E-01  5.09134E+00  1.17519E+00  8.07257E+00  8.10144E+00  7.91375E+00  8.28904E+00  5.96684E+00
   6.35499E+00  7.68457E+00  3.14072E+00  3.20605E+00  4.14745E+00  1.37975E+00  4.51794E+00  2.40722E+00  2.92005E+00  2.07046E+00
   7.90376E+00  4.03214E+00  1.37504E+00  1.62910E+00  1.31196E+00 -2.32713E-01  4.71605E+00  3.33152E+00  2.56565E+00  1.17392E+00
   1.76544E+00  4.73571E+00  3.60369E+00  7.19283E+00  1.05393E+00  5.86190E+00  2.87714E+00  4.47914E+00 -8.92965E-01  4.00287E+00
   3.33201E+00  1.01380E+01  4.31969E+00  7.08787E+00  4.29920E+00  5.29562E+00  6.68626E+00  6.29558E+00  8.63976E+00  5.05779E+00
   2.91642E+00  4.87629E+00  4.49065E+00  5.55139E+00  1.91595E+00  7.04594E+00  1.09441E+00  4.64282E+00  1.32180E-01  6.26275E-01
   1.95630E+00  1.86550E+00  2.30056E-02  4.12551E+00  1.35175E-01  2.41830E+00  2.24893E-01  1.54251E+00  7.19716E-01 -1.09535E+00
   1.73943E+00  3.49666E+00  1.06864E+00  3.42201E+00  1.40847E+00 -2.30434E+00  3.55003E+00 -2.28460E+00  1.93188E+00  2.30329E+00
   6.88694E-03  1.78524E+00 -1.15183E+00  4.78870E+00  1.23696E+00 -2.39624E+00 -1.20012E+00 -2.23916E+00  1.60835E+00  1.67897E+00
   2.23040E+00  7.06533E+00  4.37078E+00  3.35450E+00  2.71982E+00  5.69727E+00  6.35037E+00  1.25171E+01  1.47971E+01  2.00307E+01
   1.53890E+01  1.33730E+01  1.48022E+01  2.03678E+01  1.59147E+01  1.55957E+01  1.57885E+01  1.36775E+01  7.16313E+00  6.32951E+00
   7.50671E+00  4.12797E+00  4.17304E+00  2.36219E+00  5.50566E+00  5.26098E+00  4.30546E+00  6.64584E+00  9.80474E-01  6.25962E+00
   9.03294E+00  8.14564E+00  1.13936E+01  1.56655E+01  1.75247E+01  1.14279E+01  1.99902E+01  1.71144E+01  1.57402E+01  1.80648E+01
   1.33067E+01  1.41940E+01  1.45631E+01  1.10462E+01  1.20232E+01  9.37321E+00  6.23784E+00  7.57180E+00  6.01255E+00  3.61213E+00
   3.47209E-01  5.81511E+00  2.16863E+00  5.00638E+00  2.22785E+00 -7.84838E-01  3.01884E+00  2.88279E+00  3.29692E-01 -3.06938E+00
   2.56812E+00 -1.66738E+00  5.46203E-01  2.53909E+00 -1.40003E+00 -1.82630E+00  2.97520E-01  4.82751E-01  3.48352E-01 -7.92966E-01
   2.22372E+00 -2.01237E+00 -1.36663E+00  2.45296E+00 -1.23553E+00 -1.22713E+00 -2.49016E-01 -2.94220E+00 -2.27337E+00 -5.77933E+00
  -6.90592E+00 -7.84989E+00 -6.09020E+00 -7.58764E+00 -7.43873E+00 -7.97040E+00 -8.21023E+00 -8.61628E+00 -5.02063E+00 -9.23075E+00
  -8.03245E+00 -8.69550E+00 -4.13524E+00 -7.73486E+00 -9.34204E+00 -5.08749E+00 -5.87471E+00 -7.16629E+00 -4.65839E+00 -6.38405E+00
  -5.27485E+00 -2.73776E+00 -4.17125E+00 -2.90551E+00 -4.12458E+00 -8.24867E+00 -5.39276E+00 -5.46824E+00 -3.49720E+00 -4.48667E+00
  -5.76995E+00 -4.08932E+00 -7.04710E+00 -3.72681E+00 -1.57703E+00 -2.82585E+00 -3.05321E+00 -3.70450E+00 -3.62104E+00 -1.40289E+00
   1.43143E-01 -2.81671E+00 -5.89386E-01  1.32546E+00  2.91528E+00  2.51826E+00 -2.31904E+00  6.24292E-01 -1.94033E+00 -7.02095E-01
  -1.85639E+00 -1.48115E+00 -8.32642E-01 -3.42345E-01  1.59966E+00 -2.99440E+00  2.06304E+00  6.61618E-01 -8.01511E-01 -5.46455E-01
   4.16744E+00 -4.80071E-01  1.76023E+00  1.81931E+00  1.62840E+00  2.50297E+00  5.43412E-01  7.22978E-02  3.16626E+00  7.65530E+00
   1.82634E+00  1.79654E+00  2.81526E+00  4.88152E+00  3.42067E+00  2.43330E+00  2.01910E+00  4.64013E+00  5.84380E+00  6.96619E+00
   4.68631E+00  3.77725E+00  6.22219E+00  1.32863E+01  2.01482E+01  2.20116E+01  2.85286E+01  2.81485E+01  3.21884E+01  3.23284E+01
   3.60786E+01  2.98449E+01  3.39428E+01  3.03504E+01  3.28463E+01  2.63628E+01  2.60000E+01  2.14468E+01  1.98252E+01  1.49845E+01
   1.06928E+01  1.06911E+01  6.61589E+00  4.45606E+00  2.42735E+00  2.59658E-01  1.17710E+00  3.33797E+00  1.14833E+00 -1.97766E+00
  -1.23049E+00  2.52917E+00 -9.68509E-01  1.37203E+00 -2.15910E-01 -1.47794E+00 -7.99323E-01 -9.82029E-01 -3.49801E+00 -1.17258E+00
  -5.49104E-01 -1.74053E+00 -3.82152E+00 -2.64109E+00 -5.48435E+00 -5.86799E+00 -4.52455E+00 -2.37411E+00 -2.60497E+00 -6.79442E-01
   1.09589E+00 -2.18715E+00  1.57620E+00 -1.34819E+00 -5.24694E+00 -4.53274E+00 -3.35559E+00 -1.13586E+00 -4.31538E+00  1.97783E+00
   2.26845E-01  9.31396E-01  3.37777E+00  3.22401E+00 -1.13265E-01  2.18924E+00  7.52981E+00  1.00942E+01  8.08794E+00  2.84430E+00
   5.57561E+00  3.79935E+00  5.39520E+00  8.04973E+00  3.47508E+00  5.57096E+00  7.96305E+00  9.37582E+00  8.31749E+00  1.02731E+01
   1.40892E+01  1.18905E+01  1.53579E+01  1.52432E+01  1.44033E+01  1.31857E+01  1.20784E+01  1.58467E+01  1.16263E+01  1.28731E+01
   8.27506E+00  4.91265E+00  4.83312E+00  4.18743E+00  2.60495E+00  2.92246E+00  1.63433E+00 -1.68612E-01 -2.52682E+00 -7.12118E+00
  -7.62527E+00 -5.38427E+00 -8.22547E+00 -8.29813E+00 -7.50126E+00 -1.04241E+01 -8.24312E+00 -1.39279E+01 -1.01351E+01 -1.11712E+01
  -9.45392E+00 -8.47028E+00 -7.27969E+00 -4.68205E+00 -4.87619E+00 -4.87738E+00 -4.61697E+00 -7.29342E+00 -7.14304E+00 -6.43524E+00
  -7.01489E+00 -4.95727E+00 -2.56161E+00 -6.06400E+00 -7.54279E+00 -6.86275E+00 -6.96222E+00 -6.21292E+00 -7.26277E+00 -8.21342E+00
  -5.30698E+00 -1.08835E+01 -8.49216E+00 -7.70024E+00 -5.78600E+00 -7.20017E+00 -6.62959E+00 -8.09609E+00 -7.66841E+00 -5.41399E+00
  -3.67151E+00 -4.59562E+00 -7.20475E+00 -4.67888E+00 -3.43513E+00 -6.27676E+00 -3.64676E+00 -4.41811E+00  8.28047E-01 -2.76123E+00
  -1.18889E+00  1.36057E+00 -4.74306E-02 -1.10013E+00  3.49003E-01  2.32182E+00 -1.39270E+00  4.14101E+00  9.65241E-01  5.92206E+00
   2.90006E+00  3.14235E+00  5.05606E+00  1.75757E+00  1.13598E+00  3.38272E+00  4.86143E+00  3.36737E-01 -9.22391E-01  1.05144E-01
   1.83660E+00  2.99907E+00 -7.46687E-01  2.78617E-01 -3.79763E+00  5.28633E-01 -5.65700E-01  8.98887E-01 -3.91538E+00  1.09976E+00
  -6.74077E-01  1.63713E+00  1.40516E-01 -2.49280E+00  4.03951E+00 -6.13759E-01  1.16630E-01 -1.77794E-01  2.06714E+00 -2.68612E+00
   2.39657E+00  9.75954E-01 -2.14281E+00  9.05378E-01  2.22610E-01 -8.60022E-01  8.32568E-01 -1.03755E+00  3.55192E+00  3.34750E+00
   1.86208E+00  2.32211E+00  3.38542E+00  3.18872E+00  4.51443E+00 -2.47664E+00  4.27200E+00  2.55195E+00  2.16989E+00  1.75228E+00
   1.59555E+00  1.99837E+00  3.03788E+00  4.92729E+00  1.53643E+00  1.46188E+00  4.26624E+00 -1.43550E+00 -3.36105E-01  8.69417E-01
   1.57704E+00  7.98341E-01 -1.05864E+00  1.11687E+00  1.43972E+00  3.36605E-01  2.91686E-01  4.64495E-01  3.67478E+00  1.89943E+00
  -1.29326E+00 -1.65913E+00  7.36594E-01  2.88107E+00  7.00787E-01  2.14487E+00  6.88986E+00  1.29818E+00  3.97341E+00  2.12328E+00
   1.71507E+00  8.33289E-01  4.27709E+00  1.25973E+00  3.64957E+00 -6.12198E-01  5.19889E+00 -2.13949E-01
 NY points of the fit to the data follow
   1.29442E+00  1.64361E+00  2.19089E+00  2.84071E+00  3.79293E+00  4.24506E+00  5.34902E+00  5.26688E+00  6.31833E+00  5.79672E+00
   6.78909E+00  5.99924E+00  6.71922E+00  5.68662E+00  6.13400E+00  4.86997E+00  5.16607E+00  4.05592E+00  4.34711E+00  3.49791E+00
   3.60133E+00  2.74980E+00  2.73834E+00  1.83278E+00  2.16052E+00  1.66072E+00  2.38610E+00  2.87134E+00  3.56964E+00  4.33346E+00
   4.36426E+00  5.00036E+00  4.38173E+00  5.11269E+00  4.19412E+00  5.15204E+00  3.97855E+00  5.01773E+00  3.72573E+00  4.90902E+00
   3.89077E+00  5.25089E+00  4.59521E+00  5.89505E+00  5.29720E+00  6.18644E+00  5.45401E+00  5.81282E+00  5.13372E+00  5.12225E+00
   4.61648E+00  4.49217E+00  4.08223E+00  3.95275E+00  3.60007E+00  3.40089E+00  3.07947E+00  2.73304E+00  2.43744E+00  2.08935E+00
   1.88963E+00  1.62278E+00  1.42296E+00  1.24927E+00  1.13575E+00  1.12293E+00  1.18094E+00  1.22374E+00  1.32438E+00  1.34064E+00
   1.44109E+00  1.39585E+00  1.52172E+00  1.41070E+00  1.47554E+00  1.28637E+00  1.27068E+00  1.11167E+00  1.21444E+00  1.16880E+00
   1.27912E+00  1.26130E+00  1.17883E+00  1.13320E+00  8.39340E-01  8.00150E-01  4.39099E-01  5.57821E-01  7.17215E-01  1.09208E+00
   1.47123E+00  1.93647E+00  2.13860E+00  2.85747E+00  4.19823E+00  5.62842E+00  8.02138E+00  9.99624E+00  1.21072E+01  1.40043E+01
   1.47601E+01  1.61467E+01  1.58628E+01  1.67209E+01  1.55860E+01  1.59206E+01  1.40492E+01  1.38665E+01  1.14783E+01  1.09253E+01
   8.58986E+00  7.91319E+00  5.98046E+00  5.85645E+00  4.46679E+00  4.71558E+00  3.62695E+00  3.99953E+00  3.37262E+00  5.20038E+00
   5.93056E+00  9.46754E+00  1.00518E+01  1.38896E+01  1.36798E+01  1.66743E+01  1.57438E+01  1.78933E+01  1.63906E+01  1.75061E+01
   1.55620E+01  1.57029E+01  1.35185E+01  1.28029E+01  1.07688E+01  9.66722E+00  7.98919E+00  6.69825E+00  5.42716E+00  4.19506E+00
   3.28388E+00  2.14710E+00  1.49123E+00  3.61072E-01  1.58940E-01 -1.82711E-01 -2.28583E-01 -5.21880E-01 -5.78540E-01 -8.44254E-01
  -8.91374E-01 -1.07524E+00 -1.14419E+00 -1.36318E+00 -1.49046E+00 -1.79458E+00 -1.89601E+00 -2.17246E+00 -2.23356E+00 -2.41731E+00
  -2.51487E+00 -2.67152E+00 -2.88422E+00 -3.02845E+00 -3.28317E+00 -3.39873E+00 -3.68337E+00 -3.83111E+00 -4.18608E+00 -4.35183E+00
  -4.70338E+00 -4.84669E+00 -5.12500E+00 -5.32106E+00 -5.43347E+00 -5.68608E+00 -5.60825E+00 -5.84731E+00 -5.65539E+00 -5.94781E+00
  -5.66578E+00 -5.96551E+00 -5.50626E+00 -5.71222E+00 -5.15322E+00 -5.24965E+00 -4.71716E+00 -4.69886E+00 -4.24748E+00 -4.18840E+00
  -3.91365E+00 -3.85251E+00 -3.69485E+00 -3.57144E+00 -3.38588E+00 -3.04645E+00 -2.80766E+00 -2.21335E+00 -1.82310E+00 -1.23941E+00
  -8.64333E-01 -6.00326E-01 -8.85585E-01 -1.03011E+00 -2.02638E+00 -2.53321E+00 -3.45553E+00 -3.93229E+00 -4.13579E+00 -4.08553E+00
  -3.87791E+00 -3.06859E+00 -2.92355E+00 -1.71410E+00 -2.07363E+00 -1.18902E+00 -2.04827E+00 -1.42778E+00 -2.55093E+00 -1.85058E+00
  -2.63948E+00 -1.76114E+00 -2.29019E+00 -1.46491E+00 -1.64314E+00 -8.93504E-01 -7.71627E-01 -2.37426E-01 -3.98201E-01 -1.40490E-01
  -2.17249E-01 -1.33770E-01  1.06319E-01  3.27593E-01  1.14484E+00  1.27782E+00  2.09518E+00  1.70407E+00  2.41753E+00  1.57765E+00
   2.15452E+00  1.05660E+00  1.64789E+00  7.14167E-01  1.37029E+00  9.28044E-01  2.72637E+00  2.83742E+00  5.19693E+00  5.51250E+00
   7.80063E+00  8.50258E+00  1.29306E+01  1.42207E+01  2.06750E+01  2.18975E+01  2.83630E+01  2.86404E+01  3.29928E+01  3.22039E+01
   3.46503E+01  3.27709E+01  3.32155E+01  3.05956E+01  2.93982E+01  2.63270E+01  2.37726E+01  2.06881E+01  1.77306E+01  1.49956E+01
   1.20284E+01  9.81199E+00  7.31022E+00  5.62127E+00  3.52594E+00  2.19581E+00  2.25646E-01 -5.37589E-01 -9.40135E-01 -1.25581E+00
  -1.51882E+00 -1.76613E+00 -1.95661E+00 -2.14347E+00 -2.32566E+00 -2.47243E+00 -2.61826E+00 -2.73268E+00 -2.85085E+00 -2.93076E+00
  -3.02536E+00 -3.07348E+00 -3.11653E+00 -3.10903E+00 -3.09517E+00 -3.03246E+00 -2.96460E+00 -2.84704E+00 -2.72286E+00 -2.56038E+00
  -2.38643E+00 -2.17902E+00 -1.96229E+00 -1.71724E+00 -1.46660E+00 -1.19628E+00 -9.26205E-01 -6.42952E-01 -3.62554E-01 -7.19761E-02
   2.17051E-01  5.20694E-01  8.29623E-01  1.16498E+00  1.51875E+00  1.91512E+00  2.34562E+00  2.83457E+00  3.37021E+00  3.97338E+00
   4.62577E+00  5.34179E+00  6.09463E+00  6.88976E+00  7.69184E+00  8.49821E+00  9.26690E+00  9.99047E+00  1.06246E+01  1.11621E+01
   1.15617E+01  1.18223E+01  1.19107E+01  1.18362E+01  1.15776E+01  1.11566E+01  1.05646E+01  9.83482E+00  8.96916E+00  8.00932E+00
   6.96311E+00  5.87573E+00  4.75590E+00  3.64727E+00  2.55484E+00  1.51680E+00  5.31438E-01 -3.70608E-01 -1.19885E+00 -1.93032E+00
  -2.58164E+00 -3.13618E+00 -3.61584E+00 -4.00821E+00 -4.33828E+00 -4.59570E+00 -4.80651E+00 -4.96058E+00 -5.08355E+00 -5.16441E+00
  -5.22751E+00 -5.26040E+00 -5.28581E+00 -5.28973E+00 -5.29339E+00 -5.28140E+00 -5.27367E+00 -5.25366E+00 -5.24029E+00 -5.21620E+00
  -5.19957E+00 -5.17250E+00 -5.15271E+00 -5.12192E+00 -5.09754E+00 -5.06112E+00 -5.02988E+00 -4.98526E+00 -4.94438E+00 -4.88858E+00
  -4.83489E+00 -4.76457E+00 -4.69453E+00 -4.60591E+00 -4.51544E+00 -4.40409E+00 -4.28838E+00 -4.14911E+00 -4.00259E+00 -3.82950E+00
  -3.64604E+00 -3.43290E+00 -3.20643E+00 -2.94765E+00 -2.67346E+00 -2.36567E+00 -2.04221E+00 -1.68624E+00 -1.31731E+00 -9.20446E-01
  -5.17193E-01 -9.47211E-02  3.23332E-01  7.47815E-01  1.15342E+00  1.54972E+00  1.91072E+00  2.24596E+00  2.53012E+00  2.77416E+00
   2.95494E+00  3.08621E+00  3.14818E+00  3.15826E+00  3.10044E+00  2.99590E+00  2.83206E+00  2.63308E+00  2.38877E+00  2.12493E+00
   1.83230E+00  1.53678E+00  1.22859E+00  9.32460E-01  6.36992E-01  3.64945E-01  1.02776E-01 -1.28977E-01 -3.45981E-01 -5.29680E-01
  -6.97478E-01 -8.32296E-01 -9.52710E-01 -1.04253E+00 -1.12095E+00 -1.17215E+00 -1.21550E+00 -1.23519E+00 -1.25049E+00 -1.24540E+00
  -1.23893E+00 -1.21483E+00 -1.19178E+00 -1.15327E+00 -1.11772E+00 -1.06837E+00 -1.02342E+00 -9.65907E-01 -9.13856E-01 -8.50172E-01
  -7.92740E-01 -7.24366E-01 -6.62829E-01 -5.90865E-01 -5.26158E-01 -4.51386E-01 -3.84167E-01 -3.07152E-01 -2.37903E-01 -1.59066E-01
  -8.81659E-02 -7.84046E-03  6.44176E-02  1.45979E-01  2.19373E-01  3.01971E-01  3.76314E-01  4.59784E-01  5.34934E-01  6.19155E-01
   6.95002E-01  7.79870E-01  8.56319E-01  9.41748E-01  1.01873E+00  1.10466E+00  1.18211E+00  1.26849E+00  1.34637E+00  1.43315E+00
   1.51143E+00  1.59859E+00  1.67723E+00  1.76475E+00  1.84375E+00  1.93161E+00  2.01096E+00  2.09918E+00  2.17888E+00  2.26745E+00
   2.34751E+00  2.43646E+00  2.51693E+00  2.60631E+00  2.68723E+00  2.77709E+00  2.85855E+00  2.94901E+00
 NY background values follow
    -4.104E+00   -4.084E+00   -4.063E+00   -4.043E+00   -4.022E+00   -4.002E+00   -3.981E+00   -3.961E+00   -3.940E+00   -3.920E+00
    -3.899E+00   -3.878E+00   -3.858E+00   -3.837E+00   -3.817E+00   -3.796E+00   -3.775E+00   -3.755E+00   -3.734E+00   -3.713E+00
    -3.693E+00   -3.672E+00   -3.651E+00   -3.631E+00   -3.610E+00   -3.589E+00   -3.569E+00   -3.548E+00   -3.528E+00   -3.507E+00
    -3.487E+00   -3.466E+00   -3.446E+00   -3.425E+00   -3.405E+00   -3.384E+00   -3.364E+00   -3.344E+00   -3.324E+00   -3.303E+00
    -3.283E+00   -3.263E+00   -3.243E+00   -3.223E+00   -3.203E+00   -3.183E+00   -3.164E+00   -3.144E+00   -3.124E+00   -3.104E+00
    -3.085E+00   -3.065E+00   -3.046E+00   -3.027E+00   -3.008E+00   -2.988E+00   -2.969E+00   -2.951E+00   -2.932E+00   -2.913E+00
    -2.894E+00   -2.876E+00   -2.858E+00   -2.839E+00   -2.821E+00   -2.803E+00   -2.786E+00   -2.768E+00   -2.750E+00   -2.733E+00
    -2.716E+00   -2.699E+00   -2.682E+00   -2.665E+00   -2.648E+00   -2.632E+00   -2.616E+00   -2.600E+00   -2.584E+00   -2.568E+00
    -2.552E+00   -2.537E+00   -2.522E+00   -2.507E+00   -2.492E+00   -2.478E+00   -2.464E+00   -2.449E+00   -2.436E+00   -2.422E+00
    -2.409E+00   -2.395E+00   -2.383E+00   -2.370E+00   -2.357E+00   -2.345E+00   -2.333E+00   -2.322E+00   -2.310E+00   -2.299E+00
    -2.288E+00   -2.278E+00   -2.267E+00   -2.257E+00   -2.248E+00   -2.238E+00   -2.229E+00   -2.220E+00   -2.212E+00   -2.204E+00
    -2.196E+00   -2.188E+00   -2.181E+00   -2.174E+00   -2.167E+00   -2.161E+00   -2.155E+00   -2.150E+00   -2.145E+00   -2.140E+00
    -2.136E+00   -2.131E+00   -2.128E+00   -2.125E+00   -2.122E+00   -2.119E+00   -2.117E+00   -2.115E+00   -2.114E+00   -2.113E+00
    -2.112E+00   -2.112E+00   -2.113E+00   -2.113E+00   -2.114E+00   -2.116E+00   -2.118E+00   -2.121E+00   -2.123E+00   -2.127E+00
    -2.131E+00   -2.135E+00   -2.139E+00   -2.144E+00   -2.150E+00   -2.155E+00   -2.161E+00   -2.168E+00   -2.175E+00   -2.182E+00
    -2.190E+00   -2.198E+00   -2.206E+00   -2.215E+00   -2.224E+00   -2.233E+00   -2.242E+00   -2.252E+00   -2.263E+00   -2.273E+00
    -2.284E+00   -2.295E+00   -2.307E+00   -2.318E+00   -2.330E+00   -2.342E+00   -2.355E+00   -2.368E+00   -2.381E+00   -2.394E+00
    -2.407E+00   -2.421E+00   -2.435E+00   -2.449E+00   -2.463E+00   -2.478E+00   -2.493E+00   -2.507E+00   -2.523E+00   -2.538E+00
    -2.553E+00   -2.569E+00   -2.585E+00   -2.601E+00   -2.617E+00   -2.633E+00   -2.649E+00   -2.666E+00   -2.683E+00   -2.700E+00
    -2.717E+00   -2.734E+00   -2.752E+00   -2.769E+00   -2.787E+00   -2.805E+00   -2.824E+00   -2.842E+00   -2.861E+00   -2.880E+00
    -2.899E+00   -2.918E+00   -2.937E+00   -2.957E+00   -2.977E+00   -2.997E+00   -3.017E+00   -3.038E+00   -3.059E+00   -3.080E+00
    -3.101E+00   -3.122E+00   -3.144E+00   -3.166E+00   -3.188E+00   -3.210E+00   -3.233E+00   -3.256E+00   -3.279E+00   -3.302E+00
    -3.326E+00   -3.350E+00   -3.374E+00   -3.398E+00   -3.422E+00   -3.447E+00   -3.472E+00   -3.498E+00   -3.523E+00   -3.549E+00
    -3.575E+00   -3.602E+00   -3.628E+00   -3.655E+00   -3.682E+00   -3.709E+00   -3.737E+00   -3.765E+00   -3.792E+00   -3.821E+00
    -3.849E+00   -3.877E+00   -3.906E+00   -3.935E+00   -3.964E+00   -3.993E+00   -4.023E+00   -4.053E+00   -4.082E+00   -4.112E+00
    -4.142E+00   -4.173E+00   -4.203E+00   -4.234E+00   -4.265E+00   -4.295E+00   -4.326E+00   -4.358E+00   -4.389E+00   -4.420E+00
    -4.452E+00   -4.483E+00   -4.515E+00   -4.547E+00   -4.579E+00   -4.611E+00   -4.643E+00   -4.675E+00   -4.707E+00   -4.739E+00
    -4.772E+00   -4.804E+00   -4.837E+00   -4.869E+00   -4.902E+00   -4.935E+00   -4.967E+00   -5.000E+00   -5.033E+00   -5.065E+00
    -5.098E+00   -5.131E+00   -5.163E+00   -5.196E+00   -5.228E+00   -5.261E+00   -5.293E+00   -5.325E+00   -5.357E+00   -5.389E+00
    -5.421E+00   -5.453E+00   -5.484E+00   -5.515E+00   -5.547E+00   -5.578E+00   -5.609E+00   -5.639E+00   -5.670E+00   -5.700E+00
    -5.730E+00   -5.759E+00   -5.789E+00   -5.818E+00   -5.847E+00   -5.876E+00   -5.904E+00   -5.932E+00   -5.960E+00   -5.987E+00
    -6.014E+00   -6.041E+00   -6.067E+00   -6.093E+00   -6.118E+00   -6.144E+00   -6.168E+00   -6.193E+00   -6.217E+00   -6.240E+00
    -6.263E+00   -6.285E+00   -6.307E+00   -6.329E+00   -6.350E+00   -6.370E+00   -6.390E+00   -6.409E+00   -6.427E+00   -6.445E+00
    -6.462E+00   -6.478E+00   -6.494E+00   -6.509E+00   -6.523E+00   -6.536E+00   -6.549E+00   -6.561E+00   -6.572E+00   -6.582E+00
    -6.591E+00   -6.599E+00   -6.606E+00   -6.613E+00   -6.618E+00   -6.623E+00   -6.626E+00   -6.629E+00   -6.630E+00   -6.630E+00
    -6.630E+00   -6.628E+00   -6.625E+00   -6.621E+00   -6.615E+00   -6.609E+00   -6.601E+00   -6.592E+00   -6.582E+00   -6.570E+00
    -6.558E+00   -6.544E+00   -6.528E+00   -6.512E+00   -6.494E+00   -6.474E+00   -6.454E+00   -6.432E+00   -6.408E+00   -6.384E+00
    -6.358E+00   -6.331E+00   -6.303E+00   -6.273E+00   -6.242E+00   -6.210E+00   -6.177E+00   -6.142E+00   -6.107E+00   -6.070E+00
    -6.031E+00   -5.992E+00   -5.952E+00   -5.910E+00   -5.867E+00   -5.823E+00   -5.778E+00   -5.732E+00   -5.685E+00   -5.636E+00
    -5.587E+00   -5.536E+00   -5.484E+00   -5.431E+00   -5.377E+00   -5.322E+00   -5.266E+00   -5.209E+00   -5.151E+00   -5.092E+00
    -5.032E+00   -4.971E+00   -4.908E+00   -4.845E+00   -4.781E+00   -4.716E+00   -4.650E+00   -4.583E+00   -4.514E+00   -4.445E+00
    -4.376E+00   -4.305E+00   -4.233E+00   -4.161E+00   -4.087E+00   -4.013E+00   -3.938E+00   -3.863E+00   -3.786E+00   -3.709E+00
    -3.632E+00   -3.553E+00   -3.474E+00   -3.395E+00   -3.314E+00   -3.233E+00   -3.152E+00   -3.070E+00   -2.988E+00   -2.905E+00
    -2.822E+00   -2.738E+00   -2.654E+00   -2.569E+00   -2.484E+00   -2.399E+00   -2.314E+00   -2.228E+00   -2.142E+00   -2.055E+00
    -1.969E+00   -1.882E+00   -1.795E+00   -1.707E+00   -1.620E+00   -1.533E+00   -1.445E+00   -1.358E+00   -1.270E+00   -1.182E+00
    -1.095E+00   -1.007E+00   -9.192E-01   -8.316E-01   -7.441E-01   -6.566E-01   -5.692E-01   -4.819E-01   -3.946E-01   -3.073E-01
    -2.201E-01   -1.329E-01   -4.582E-02    4.124E-02    1.283E-01    2.152E-01    3.022E-01    3.891E-01    4.759E-01    5.627E-01
     6.495E-01    7.362E-01    8.229E-01    9.096E-01    9.962E-01    1.083E+00    1.169E+00    1.256E+00    1.342E+00    1.429E+00
     1.515E+00    1.602E+00    1.688E+00    1.775E+00    1.861E+00    1.947E+00    2.034E+00    2.120E+00    2.206E+00    2.293E+00
     2.379E+00    2.465E+00    2.551E+00    2.637E+00    2.724E+00    2.810E+00    2.896E+00    2.982E+00
 PCr      Conc. = 1.04E+03
