 LCModel (Version 6.3-1L) Copyright: S.W. Provencher.          Ref.: Magn. Reson. Med. 30:672-679 (1993).                
 Slice#2 Row#5 Col#9  PD_24_press_1_raw_act
 36 lines in following concentration table = NCONC+1
    Conc.  %SD /Cr+PCr  Metabolite                                         
    0.000 999%   0.000 Ala                                                 
    0.000 999%   0.000 Asp                                                 
  967.792  21%   0.487 Cr                                                  
 1.02E+03  21%   0.513 PCr                                                 
    0.000 999%   0.000 GABA                                                
    0.000 999%   0.000 Glc                                                 
  965.579  23%   0.486 Gln                                                 
 2.13E+03  11%   1.073 Glu                                                 
  949.884   2%   0.478 GPC                                                 
    0.000 999%   0.000 PCh                                                 
  557.239  13%   0.280 GSH                                                 
 1.71E+03  14%   0.861 Ins                                                 
    0.000 999%   0.000 Lac                                                 
 2.74E+03   4%   1.380 NAA                                                 
    6.980 999% 3.5E-03 NAAG                                                
  112.398  24% 5.7E-02 Scyllo                                              
    0.000 999%   0.000 Tau                                                 
    0.000 999%   0.000 -CrCH2                                              
  949.884   2%   0.478 GPC+PCh                                             
 2.75E+03   3%   1.384 NAA+NAAG                                            
 1.99E+03   3%   1.000 Cr+PCr                                              
 3.10E+03  11%   1.559 Glu+Gln                                             
    0.000 999%   0.000 Lip13a                                              
  494.721  22%   0.249 Lip13b                                              
  127.462  65% 6.4E-02 Lip09                                               
 1.82E+03  11%   0.914 MM09                                                
   72.597  78% 3.7E-02 Lip20                                               
 3.69E+03  11%   1.854 MM20                                                
  359.310  50%   0.181 MM12                                                
  631.437  45%   0.318 MM14                                                
 1.07E+03  23%   0.539 MM17                                                
  494.721  22%   0.249 Lip13a+Lip13b                                       
 1.49E+03  21%   0.747 MM14+Lip13a+Lip13b+MM12                             
 1.95E+03  10%   0.979 MM09+Lip09                                          
 3.76E+03  10%   1.891 MM20+Lip20                                          
   6 lines in following misc. output table
  FWHM = 0.054 ppm    S/N =  14                                            
  Data shift = 0.000 ppm                                                   
  Ph: -18 deg      -3.9 deg/ppm                                            
  alphaB,S = 1.8E+00,   1.7E+02                                            
   14 spline knots.   Ns = 6(1)                                            
  ( 9) 4 infls.   ( 3) 1 extrs.                                            
  498 points on ppm-axis = NY
      4.000000     3.992357     3.984714     3.977070     3.969427     3.961784     3.954141     3.946497     3.938854     3.931211
      3.923568     3.915925     3.908281     3.900638     3.892995     3.885352     3.877708     3.870065     3.862422     3.854779
      3.847136     3.839492     3.831849     3.824206     3.816563     3.808919     3.801276     3.793633     3.785990     3.778347
      3.770703     3.763060     3.755417     3.747774     3.740130     3.732487     3.724844     3.717201     3.709558     3.701914
      3.694271     3.686628     3.678985     3.671341     3.663698     3.656055     3.648412     3.640769     3.633125     3.625482
      3.617839     3.610196     3.602552     3.594909     3.587266     3.579623     3.571980     3.564336     3.556693     3.549050
      3.541407     3.533763     3.526120     3.518477     3.510834     3.503191     3.495547     3.487904     3.480261     3.472618
      3.464974     3.457331     3.449688     3.442045     3.434402     3.426758     3.419115     3.411472     3.403829     3.396185
      3.388542     3.380899     3.373256     3.365613     3.357969     3.350326     3.342683     3.335040     3.327396     3.319753
      3.312110     3.304467     3.296824     3.289180     3.281537     3.273894     3.266251     3.258607     3.250964     3.243321
      3.235678     3.228034     3.220391     3.212748     3.205105     3.197462     3.189818     3.182175     3.174532     3.166889
      3.159245     3.151602     3.143959     3.136316     3.128673     3.121029     3.113386     3.105743     3.098100     3.090456
      3.082813     3.075170     3.067527     3.059884     3.052240     3.044597     3.036954     3.029311     3.021667     3.014024
      3.006381     2.998738     2.991095     2.983451     2.975808     2.968165     2.960522     2.952878     2.945235     2.937592
      2.929949     2.922306     2.914662     2.907019     2.899376     2.891733     2.884089     2.876446     2.868803     2.861160
      2.853517     2.845873     2.838230     2.830587     2.822944     2.815300     2.807657     2.800014     2.792371     2.784728
      2.777084     2.769441     2.761798     2.754155     2.746511     2.738868     2.731225     2.723582     2.715939     2.708295
      2.700652     2.693009     2.685366     2.677722     2.670079     2.662436     2.654793     2.647150     2.639506     2.631863
      2.624220     2.616577     2.608933     2.601290     2.593647     2.586004     2.578361     2.570717     2.563074     2.555431
      2.547788     2.540144     2.532501     2.524858     2.517215     2.509572     2.501928     2.494285     2.486642     2.478999
      2.471355     2.463712     2.456069     2.448426     2.440783     2.433139     2.425496     2.417853     2.410210     2.402566
      2.394923     2.387280     2.379637     2.371994     2.364350     2.356707     2.349064     2.341421     2.333777     2.326134
      2.318491     2.310848     2.303205     2.295561     2.287918     2.280275     2.272632     2.264988     2.257345     2.249702
      2.242059     2.234416     2.226772     2.219129     2.211486     2.203843     2.196199     2.188556     2.180913     2.173270
      2.165627     2.157983     2.150340     2.142697     2.135054     2.127410     2.119767     2.112124     2.104481     2.096838
      2.089194     2.081551     2.073908     2.066265     2.058621     2.050978     2.043335     2.035692     2.028049     2.020405
      2.012762     2.005119     1.997476     1.989833     1.982190     1.974546     1.966903     1.959260     1.951617     1.943974
      1.936331     1.928688     1.921045     1.913402     1.905759     1.898115     1.890472     1.882829     1.875186     1.867543
      1.859900     1.852257     1.844614     1.836971     1.829327     1.821684     1.814041     1.806398     1.798755     1.791112
      1.783469     1.775826     1.768183     1.760540     1.752896     1.745253     1.737610     1.729967     1.722324     1.714681
      1.707038     1.699395     1.691752     1.684108     1.676465     1.668822     1.661179     1.653536     1.645893     1.638250
      1.630607     1.622964     1.615321     1.607677     1.600034     1.592391     1.584748     1.577105     1.569462     1.561819
      1.554176     1.546533     1.538890     1.531246     1.523603     1.515960     1.508317     1.500674     1.493031     1.485388
      1.477745     1.470102     1.462458     1.454815     1.447172     1.439529     1.431886     1.424243     1.416600     1.408957
      1.401314     1.393671     1.386027     1.378384     1.370741     1.363098     1.355455     1.347812     1.340169     1.332526
      1.324883     1.317240     1.309596     1.301953     1.294310     1.286667     1.279024     1.271381     1.263738     1.256095
      1.248452     1.240808     1.233165     1.225522     1.217879     1.210236     1.202593     1.194950     1.187307     1.179664
      1.172021     1.164377     1.156734     1.149091     1.141448     1.133805     1.126162     1.118519     1.110876     1.103233
      1.095590     1.087946     1.080303     1.072660     1.065017     1.057374     1.049731     1.042088     1.034445     1.026802
      1.019158     1.011515     1.003872     0.996229     0.988586     0.980943     0.973300     0.965657     0.958014     0.950371
      0.942727     0.935084     0.927441     0.919798     0.912155     0.904512     0.896869     0.889226     0.881583     0.873940
      0.866296     0.858653     0.851010     0.843367     0.835724     0.828081     0.820438     0.812795     0.805152     0.797508
      0.789865     0.782222     0.774579     0.766936     0.759293     0.751650     0.744007     0.736364     0.728721     0.721077
      0.713434     0.705791     0.698148     0.690505     0.682862     0.675219     0.667576     0.659933     0.652290     0.644646
      0.637003     0.629360     0.621717     0.614074     0.606431     0.598788     0.591145     0.583502     0.575858     0.568215
      0.560572     0.552929     0.545286     0.537643     0.530000     0.522357     0.514714     0.507071     0.499427     0.491784
      0.484141     0.476498     0.468855     0.461212     0.453569     0.445925     0.438282     0.430639     0.422996     0.415353
      0.407710     0.400067     0.392424     0.384780     0.377137     0.369494     0.361851     0.354208     0.346565     0.338922
      0.331278     0.323635     0.315992     0.308349     0.300706     0.293063     0.285420     0.277777     0.270133     0.262490
      0.254847     0.247204     0.239561     0.231918     0.224275     0.216631     0.208988     0.201345
 NY phased data points follow
   9.75732E+00  7.12563E+00  6.66332E+00  1.10494E+01  1.55007E+01  2.15854E+01  3.72822E+01  3.91139E+01  5.03134E+01  5.57937E+01
   6.26074E+01  6.37898E+01  5.89891E+01  4.09471E+01  4.08019E+01  3.11260E+01  2.88501E+01  2.07041E+01  1.98000E+01  1.62497E+01
   1.77771E+01  1.26072E+01  1.40375E+01  9.04976E+00  1.60618E+01  1.29552E+01  1.53366E+01  1.67735E+01  2.19763E+01  2.16921E+01
   2.53512E+01  1.74389E+01  2.20415E+01  1.66048E+01  1.15839E+01  1.28624E+01  1.17315E+01  1.09264E+01  1.78715E+01  1.30037E+01
   1.08907E+01  1.17461E+01  9.70138E+00  1.10900E+01  2.00869E+01  2.12056E+01  2.51750E+01  2.25153E+01  2.75977E+01  1.65563E+01
   1.54808E+01  1.11659E+01  1.10483E+01  1.44733E+01  7.89735E+00  1.32306E+01  1.79223E+01  1.05387E+01  1.14841E+01  9.49014E+00
   9.61129E+00  4.54231E+00  1.34334E+00 -2.83210E+00 -4.15760E-01 -4.99428E+00 -2.52239E+00 -1.86020E+00 -1.13988E+00 -3.63076E+00
  -6.25546E-01 -4.73609E-01  1.17676E+00  3.99419E+00 -1.70406E+00 -4.96751E-01 -1.93198E+00  9.95107E-01  1.10999E+00  1.48686E-01
   6.34566E-01 -7.03035E-01  2.88464E+00 -5.31892E-01  2.74220E+00  1.70959E+00  1.43540E+00  9.18819E-01  4.97264E+00  7.91581E-01
   7.03064E+00  7.54988E+00  6.71119E+00  3.02914E+00 -3.51251E+00 -4.85173E+00 -2.80829E+00 -7.28571E-01  1.25533E+01  3.44002E+01
   5.86934E+01  7.95208E+01  9.04815E+01  9.26818E+01  8.15876E+01  6.60877E+01  4.98239E+01  3.78469E+01  2.94480E+01  2.00428E+01
   1.54241E+01  7.30381E+00  4.39325E+00  4.52900E+00  5.38147E+00  2.39723E+00 -8.87797E-01 -4.28234E+00 -4.99884E+00 -7.56995E+00
  -5.52567E+00 -6.95756E+00  7.52348E+00  1.78330E+01  3.38581E+01  5.09847E+01  6.33978E+01  6.51911E+01  6.24284E+01  5.34335E+01
   4.64674E+01  2.64262E+01  1.92890E+01  6.19461E+00  1.08121E+01  1.70381E+00  4.84587E+00 -9.33294E-01  4.43416E+00  2.70539E+00
  -1.27658E+00 -2.05330E+00 -4.22861E-02 -1.52794E+00 -7.08849E-01 -4.02697E+00 -3.10461E+00 -4.27515E+00 -3.17630E+00 -9.61258E+00
  -6.33670E+00 -6.50506E+00 -3.14436E+00 -6.23926E+00 -4.41345E+00 -4.71777E+00 -3.53855E+00 -3.06809E+00 -8.62280E+00 -8.42993E+00
  -7.00469E+00 -1.01242E+01 -9.65484E+00 -9.00341E+00 -5.63092E+00 -2.05641E+00 -5.25997E+00 -7.13148E+00 -1.45860E+01 -7.76938E+00
  -1.13337E+01 -1.29772E+01 -1.27273E+01 -1.12864E+01 -9.94038E+00 -1.37751E+01 -1.48623E+01 -1.29398E+01 -1.42726E+01 -1.38377E+01
  -1.47614E+01 -1.73637E+01 -1.45363E+01 -1.68727E+01 -1.55132E+01 -1.16969E+01 -1.19820E+01 -9.33951E+00 -8.84094E+00 -5.36025E+00
  -4.01325E+00  2.15032E+00  3.02168E+00 -1.71519E-01  5.28703E+00 -1.38434E+00 -2.24242E+00 -6.31372E+00 -5.00450E+00 -5.93333E+00
  -6.51610E+00 -8.98058E+00  3.61544E+00 -1.74685E-01  1.62251E+00 -9.67644E-01 -7.51513E+00 -9.87507E+00 -1.50317E+01 -1.18317E+01
  -1.48006E+01 -6.52126E+00 -7.75938E+00 -4.11366E+00  6.93005E+00  7.29279E+00  1.20448E+01  6.45468E+00  2.65898E+00 -3.16785E+00
  -9.81600E+00 -1.50201E+01 -1.04653E+01 -1.11893E+01 -5.96768E-01 -2.18414E+00  6.99337E-01 -4.61013E-01  4.78770E+00  3.54838E+00
   7.82206E+00  1.50238E+00 -1.46686E+00  1.68954E+00 -1.18654E+00  4.99120E+00  2.22576E-01  4.43711E+00 -4.74845E+00  8.43513E-01
   1.36307E+00 -9.54515E-01 -2.31647E-01  2.51586E+00  2.57922E+00  6.29654E+00  5.53470E+00  6.63117E+00  8.61869E+00  1.06303E+01
   1.02560E+01  1.04987E+01  1.37351E+01  7.62093E+00  1.19584E+01  1.99582E+01  3.09342E+01  5.54483E+01  7.79831E+01  9.39978E+01
   9.98938E+01  9.78020E+01  8.48848E+01  6.24529E+01  5.03085E+01  3.75767E+01  2.88841E+01  1.67225E+01  1.09972E+01  2.40089E+00
   3.38927E+00 -1.94099E-01  1.81742E+00  1.46588E+00  3.00917E+00 -9.16322E-01  1.17186E+00  1.66479E+00  6.82849E-01 -3.31795E-01
  -5.53157E+00 -1.02067E+00 -2.52248E+00 -4.11694E+00 -2.97536E+00 -5.47719E+00 -2.92853E+00 -1.94836E+00  9.45055E-02 -4.77656E+00
   8.73859E-01 -1.90710E+00 -2.63934E+00 -1.50989E+00 -6.18986E-01 -7.60109E+00 -3.51102E+00 -8.75079E-01 -5.79879E+00 -8.07689E+00
  -5.53977E+00 -4.07659E+00 -4.27119E-02 -2.38791E+00  2.28479E+00 -3.60980E+00  1.58296E-01  1.86123E+00 -8.97402E-01  2.58954E+00
   1.29950E+00 -2.24435E+00  3.80152E+00 -1.90468E+00  4.29424E+00 -2.51871E+00  2.11985E+00 -2.59462E-01  1.69349E+00 -1.81131E-01
  -3.88562E+00  2.28231E+00  1.29536E+00  4.96348E-01 -4.24662E+00 -3.14323E+00 -2.04151E+00 -4.56716E+00 -2.41062E+00 -3.76255E+00
   1.20470E+00 -6.82249E+00 -4.22468E+00 -2.55504E+00 -8.94125E-01 -1.67370E+00 -4.43765E+00 -5.01004E+00 -6.04618E-01 -6.72266E+00
  -8.27397E+00 -7.24813E+00 -2.55484E+00  5.47124E-01  1.64753E+00  4.22689E+00  3.49500E+00  4.95610E+00  5.57127E+00  1.14778E+00
  -2.31491E+00  2.23304E+00  7.28181E+00  2.59047E+00  5.80904E+00  3.39784E+00 -3.15616E+00 -3.69368E+00 -4.68251E+00 -1.59738E+00
  -4.86516E+00 -2.70700E+00 -7.77022E+00  1.38441E+00 -6.43786E+00 -6.15501E+00 -4.11449E+00 -6.03696E+00 -4.35313E+00 -3.01219E+00
  -1.20792E+00 -5.65998E+00 -1.37873E+00 -4.02545E+00 -4.16704E+00 -7.09406E+00 -1.74254E+00 -4.98103E+00 -3.07641E+00 -3.11180E+00
  -2.87391E+00 -1.73022E+00 -4.25366E+00 -5.78459E+00 -7.94936E-01 -4.12223E+00  6.48965E-01 -1.96912E+00  3.68990E+00 -3.13763E+00
  -2.43591E+00  7.27938E-03  9.25879E-01 -2.57701E+00  4.84830E+00  2.92729E+00  3.67990E+00  4.81330E+00  1.16874E+00  3.06687E+00
   6.94800E+00  5.11391E+00  1.16626E+01  7.12668E+00  7.99411E+00  1.16820E+01  1.21242E+01  1.32400E+01  1.71923E+01  1.19616E+01
   1.04357E+01  6.80314E+00  1.00516E+01  5.31099E+00  6.51255E+00 -3.82482E-01  6.62183E+00  1.44705E+00  4.02514E+00 -8.10682E-01
  -1.69194E+00  5.49152E+00  7.08328E-01 -1.21502E+00 -4.85598E-02 -2.81244E+00  4.18632E+00 -8.27926E-01 -2.93370E+00 -2.08236E+00
  -1.95827E+00 -5.15275E+00  2.63781E-01 -2.04784E+00 -1.55269E+00 -4.41314E+00 -1.76035E-01 -6.36246E+00 -4.83592E+00 -7.06767E-02
  -7.29263E+00 -3.24131E+00 -4.47649E+00 -1.44615E+00 -3.85847E+00 -2.24491E+00 -1.64471E+00 -6.59723E+00 -4.60973E+00 -2.88676E+00
  -5.51068E+00 -3.60730E+00 -6.61283E+00 -2.27250E+00 -6.16197E+00 -4.69015E+00 -2.81194E+00 -4.88512E+00 -4.81570E+00 -1.94571E+00
  -6.49318E+00 -4.82415E-01 -5.20102E-01 -2.60196E+00 -7.65869E+00 -6.84358E+00 -2.27070E+00 -5.31343E+00 -5.41306E+00 -4.77465E+00
  -4.45267E+00 -5.63540E+00 -3.99709E+00 -6.93343E+00 -1.74687E+00 -3.78110E+00 -1.28420E+00 -6.31658E+00 -3.43342E+00 -3.50390E+00
  -9.43117E+00 -6.91531E+00 -9.29750E-01  4.38776E-01 -4.30840E+00 -4.67776E+00 -1.67814E+00 -5.62948E+00 -2.18499E+00 -5.43160E+00
  -1.94804E+00 -1.11292E+00 -2.00163E+00 -2.70095E+00 -2.37780E+00 -8.57266E-01 -9.60019E-02 -1.91313E+00
 NY points of the fit to the data follow
   9.95840E+00  9.83111E+00  1.01685E+01  1.12667E+01  1.40390E+01  1.93310E+01  2.74883E+01  3.75016E+01  4.71764E+01  5.41202E+01
   5.67385E+01  5.48188E+01  4.94883E+01  4.25650E+01  3.57128E+01  2.97396E+01  2.45569E+01  1.99307E+01  1.62919E+01  1.37553E+01
   1.24197E+01  1.15786E+01  1.08054E+01  1.02592E+01  1.04458E+01  1.16075E+01  1.36270E+01  1.61613E+01  1.87682E+01  2.09762E+01
   2.22797E+01  2.23377E+01  2.11795E+01  1.90823E+01  1.64069E+01  1.35641E+01  1.08709E+01  9.06455E+00  8.42223E+00  8.38797E+00
   8.88235E+00  1.01613E+01  1.24420E+01  1.55124E+01  1.85897E+01  2.08726E+01  2.17134E+01  2.08791E+01  1.87495E+01  1.58738E+01
   1.29354E+01  1.05580E+01  8.79988E+00  7.34614E+00  6.36923E+00  6.35643E+00  7.12789E+00  8.01199E+00  8.55737E+00  8.56493E+00
   7.91752E+00  6.74227E+00  5.34846E+00  4.13808E+00  3.36589E+00  3.02175E+00  3.03951E+00  3.39104E+00  3.93539E+00  4.48831E+00
   4.88646E+00  5.00845E+00  4.84480E+00  4.45031E+00  3.93501E+00  3.43817E+00  3.01474E+00  2.66433E+00  2.33165E+00  2.05550E+00
   1.93201E+00  2.08897E+00  2.57041E+00  3.19144E+00  3.66084E+00  3.73456E+00  3.33350E+00  2.57460E+00  1.70965E+00  1.02293E+00
   7.14227E-01  7.53878E-01  8.92341E-01  8.63990E-01  6.39735E-01  5.69578E-01  1.17419E+00  5.05194E+00  1.61117E+01  3.48319E+01
   5.74552E+01  7.79177E+01  9.06549E+01  9.27625E+01  8.47581E+01  7.01083E+01  5.37329E+01  3.93958E+01  2.79394E+01  1.79337E+01
   8.51570E+00  2.24115E+00  3.37017E-01 -2.58993E-01 -5.58136E-01 -7.54558E-01 -8.91214E-01 -9.57249E-01 -9.00452E-01 -6.29400E-01
   9.99141E-02  2.54833E+00  9.44294E+00  2.18640E+01  3.78748E+01  5.34937E+01  6.45961E+01  6.86422E+01  6.53188E+01  5.63823E+01
   4.49445E+01  3.38586E+01  2.42897E+01  1.57226E+01  7.55522E+00  1.29901E+00 -9.45520E-01 -1.10948E+00 -6.60310E-01 -1.56167E-01
   1.63375E-01  2.81604E-01  1.67140E-01 -1.62092E-01 -5.96715E-01 -1.08997E+00 -1.63016E+00 -2.16514E+00 -2.69724E+00 -3.15117E+00
  -3.52742E+00 -3.82646E+00 -4.03454E+00 -4.15285E+00 -4.20722E+00 -4.29549E+00 -4.56821E+00 -5.09570E+00 -5.79610E+00 -6.42101E+00
  -6.70963E+00 -6.60955E+00 -6.27765E+00 -5.96535E+00 -5.89927E+00 -6.18838E+00 -6.75817E+00 -7.39707E+00 -7.92143E+00 -8.37779E+00
  -8.93934E+00 -9.70429E+00 -1.06105E+01 -1.13639E+01 -1.17422E+01 -1.17914E+01 -1.16462E+01 -1.14523E+01 -1.13193E+01 -1.13103E+01
  -1.14114E+01 -1.15779E+01 -1.17582E+01 -1.18054E+01 -1.15643E+01 -1.08973E+01 -9.58039E+00 -7.71108E+00 -5.72051E+00 -4.17056E+00
  -3.49006E+00 -3.67244E+00 -4.46226E+00 -5.45933E+00 -6.29946E+00 -6.82181E+00 -6.91162E+00 -6.37684E+00 -5.22078E+00 -3.53698E+00
  -1.53830E+00  3.96504E-01  1.79041E+00  2.22407E+00  1.23539E+00 -1.22761E+00 -4.59925E+00 -8.10228E+00 -1.09655E+01 -1.24839E+01
  -1.21018E+01 -9.63455E+00 -5.55542E+00 -9.30735E-01  2.97426E+00  5.18008E+00  5.07884E+00  2.49087E+00 -2.22744E+00 -7.50991E+00
  -1.16942E+01 -1.39721E+01 -1.41572E+01 -1.23899E+01 -9.10791E+00 -5.30336E+00 -2.23104E+00 -2.78808E-01  8.09198E-01  1.42809E+00
   1.64637E+00  1.51762E+00  1.45821E+00  1.81296E+00  2.43551E+00  3.10334E+00  3.66502E+00  3.86547E+00  3.50426E+00  2.62723E+00
   1.62793E+00  1.00579E+00  1.03494E+00  1.66940E+00  2.66224E+00  3.82859E+00  4.80087E+00  5.37865E+00  5.74856E+00  6.21510E+00
   6.90555E+00  7.63745E+00  8.41703E+00  9.42488E+00  1.20197E+01  1.99907E+01  3.54979E+01  5.65667E+01  7.80074E+01  9.39301E+01
   1.00232E+02  9.59646E+01  8.34042E+01  6.70913E+01  5.14890E+01  3.86186E+01  2.76444E+01  1.70977E+01  8.28074E+00  4.23031E+00
   2.61891E+00  1.70844E+00  1.18204E+00  8.81623E-01  6.02480E-01  2.84635E-01 -1.00548E-01 -5.46695E-01 -1.01328E+00 -1.46495E+00
  -1.90099E+00 -2.30535E+00 -2.64204E+00 -2.90550E+00 -3.11878E+00 -3.29864E+00 -3.44759E+00 -3.56082E+00 -3.63845E+00 -3.68996E+00
  -3.71009E+00 -3.69306E+00 -3.63824E+00 -3.54608E+00 -3.41672E+00 -3.25054E+00 -3.05031E+00 -2.82048E+00 -2.56282E+00 -2.28038E+00
  -1.97880E+00 -1.66444E+00 -1.34530E+00 -1.03047E+00 -7.28947E-01 -4.49099E-01 -1.98460E-01  1.61462E-02  1.88739E-01  3.14398E-01
   3.89808E-01  4.14107E-01  3.88543E-01  3.15194E-01  1.97861E-01  4.20244E-02 -1.45449E-01 -3.56889E-01 -5.84405E-01 -8.20287E-01
  -1.05720E+00 -1.28836E+00 -1.50785E+00 -1.71103E+00 -1.89469E+00 -2.05705E+00 -2.19747E+00 -2.31634E+00 -2.41496E+00 -2.49558E+00
  -2.56116E+00 -2.61497E+00 -2.66017E+00 -2.69945E+00 -2.73485E+00 -2.76729E+00 -2.79588E+00 -2.81696E+00 -2.82312E+00 -2.80252E+00
  -2.73872E+00 -2.61117E+00 -2.39690E+00 -2.07375E+00 -1.62527E+00 -1.04684E+00 -3.51338E-01  4.27117E-01  1.23323E+00  1.99525E+00
   2.63421E+00  3.07642E+00  3.26646E+00  3.17780E+00  2.81803E+00  2.22721E+00  1.46989E+00  6.22960E-01 -2.37440E-01 -1.04692E+00
  -1.75983E+00 -2.35153E+00 -2.81664E+00 -3.16440E+00 -3.41289E+00 -3.58360E+00 -3.69731E+00 -3.77173E+00 -3.82057E+00 -3.85350E+00
  -3.87661E+00 -3.89310E+00 -3.90405E+00 -3.90917E+00 -3.90735E+00 -3.89686E+00 -3.87549E+00 -3.84058E+00 -3.78912E+00 -3.71790E+00
  -3.62354E+00 -3.50237E+00 -3.35038E+00 -3.16323E+00 -2.93642E+00 -2.66542E+00 -2.34584E+00 -1.97347E+00 -1.54449E+00 -1.05583E+00
  -5.05596E-01  1.06499E-01  7.78838E-01  1.50763E+00  2.28663E+00  3.10682E+00  3.95632E+00  4.82043E+00  5.68206E+00  6.52221E+00
   7.32068E+00  8.05674E+00  8.71001E+00  9.26157E+00  9.69500E+00  9.99725E+00  1.01594E+01  1.01769E+01  1.00500E+01  9.78383E+00
   9.38787E+00  8.87562E+00  8.26363E+00  7.57056E+00  6.81625E+00  6.02082E+00  5.20382E+00  4.38337E+00  3.57552E+00  2.79381E+00
   2.04907E+00  1.34950E+00  7.00741E-01  1.06026E-01 -4.33587E-01 -9.18813E-01 -1.35169E+00 -1.73517E+00 -2.07283E+00 -2.36868E+00
  -2.62691E+00 -2.85173E+00 -3.04704E+00 -3.21647E+00 -3.36327E+00 -3.49046E+00 -3.60074E+00 -3.69643E+00 -3.77952E+00 -3.85162E+00
  -3.91417E+00 -3.96846E+00 -4.01560E+00 -4.05651E+00 -4.09190E+00 -4.12237E+00 -4.14849E+00 -4.17078E+00 -4.18972E+00 -4.20564E+00
  -4.21878E+00 -4.22938E+00 -4.23769E+00 -4.24399E+00 -4.24848E+00 -4.25128E+00 -4.25246E+00 -4.25217E+00 -4.25056E+00 -4.24779E+00
  -4.24395E+00 -4.23905E+00 -4.23313E+00 -4.22627E+00 -4.21861E+00 -4.21023E+00 -4.20115E+00 -4.19135E+00 -4.18087E+00 -4.16979E+00
  -4.15821E+00 -4.14614E+00 -4.13357E+00 -4.12048E+00 -4.10692E+00 -4.09296E+00 -4.07867E+00 -4.06404E+00 -4.04903E+00 -4.03364E+00
  -4.01794E+00 -4.00198E+00 -3.98581E+00 -3.96937E+00 -3.95264E+00 -3.93563E+00 -3.91842E+00 -3.90106E+00 -3.88353E+00 -3.86579E+00
  -3.84782E+00 -3.82967E+00 -3.81141E+00 -3.79304E+00 -3.77455E+00 -3.75588E+00 -3.73705E+00 -3.71811E+00
 NY background values follow
     5.169E+00    5.083E+00    4.997E+00    4.912E+00    4.826E+00    4.740E+00    4.654E+00    4.568E+00    4.482E+00    4.396E+00
     4.310E+00    4.224E+00    4.138E+00    4.052E+00    3.967E+00    3.881E+00    3.795E+00    3.709E+00    3.623E+00    3.537E+00
     3.452E+00    3.366E+00    3.280E+00    3.195E+00    3.109E+00    3.024E+00    2.938E+00    2.853E+00    2.768E+00    2.683E+00
     2.597E+00    2.512E+00    2.427E+00    2.343E+00    2.258E+00    2.173E+00    2.089E+00    2.004E+00    1.920E+00    1.836E+00
     1.752E+00    1.668E+00    1.584E+00    1.500E+00    1.416E+00    1.333E+00    1.250E+00    1.167E+00    1.084E+00    1.001E+00
     9.182E-01    8.357E-01    7.534E-01    6.713E-01    5.893E-01    5.076E-01    4.261E-01    3.448E-01    2.637E-01    1.828E-01
     1.021E-01    2.169E-02   -5.850E-02   -1.384E-01   -2.181E-01   -2.976E-01   -3.767E-01   -4.557E-01   -5.343E-01   -6.126E-01
    -6.907E-01   -7.685E-01   -8.460E-01   -9.232E-01   -1.000E+00   -1.077E+00   -1.153E+00   -1.229E+00   -1.304E+00   -1.380E+00
    -1.454E+00   -1.529E+00   -1.603E+00   -1.677E+00   -1.751E+00   -1.824E+00   -1.896E+00   -1.969E+00   -2.041E+00   -2.112E+00
    -2.183E+00   -2.254E+00   -2.324E+00   -2.394E+00   -2.464E+00   -2.533E+00   -2.602E+00   -2.670E+00   -2.738E+00   -2.805E+00
    -2.872E+00   -2.938E+00   -3.005E+00   -3.070E+00   -3.135E+00   -3.200E+00   -3.265E+00   -3.328E+00   -3.392E+00   -3.455E+00
    -3.517E+00   -3.580E+00   -3.641E+00   -3.702E+00   -3.763E+00   -3.823E+00   -3.883E+00   -3.943E+00   -4.001E+00   -4.060E+00
    -4.118E+00   -4.175E+00   -4.232E+00   -4.289E+00   -4.345E+00   -4.400E+00   -4.456E+00   -4.510E+00   -4.564E+00   -4.618E+00
    -4.671E+00   -4.724E+00   -4.776E+00   -4.827E+00   -4.879E+00   -4.929E+00   -4.979E+00   -5.029E+00   -5.078E+00   -5.127E+00
    -5.175E+00   -5.222E+00   -5.270E+00   -5.316E+00   -5.362E+00   -5.408E+00   -5.453E+00   -5.498E+00   -5.542E+00   -5.586E+00
    -5.629E+00   -5.672E+00   -5.714E+00   -5.756E+00   -5.797E+00   -5.838E+00   -5.878E+00   -5.918E+00   -5.957E+00   -5.996E+00
    -6.035E+00   -6.073E+00   -6.110E+00   -6.147E+00   -6.184E+00   -6.220E+00   -6.255E+00   -6.291E+00   -6.325E+00   -6.360E+00
    -6.393E+00   -6.427E+00   -6.460E+00   -6.492E+00   -6.524E+00   -6.556E+00   -6.587E+00   -6.617E+00   -6.648E+00   -6.677E+00
    -6.707E+00   -6.736E+00   -6.764E+00   -6.792E+00   -6.820E+00   -6.847E+00   -6.874E+00   -6.900E+00   -6.926E+00   -6.951E+00
    -6.976E+00   -7.001E+00   -7.025E+00   -7.049E+00   -7.073E+00   -7.096E+00   -7.119E+00   -7.141E+00   -7.163E+00   -7.185E+00
    -7.206E+00   -7.227E+00   -7.247E+00   -7.267E+00   -7.287E+00   -7.307E+00   -7.326E+00   -7.345E+00   -7.363E+00   -7.381E+00
    -7.399E+00   -7.416E+00   -7.433E+00   -7.450E+00   -7.467E+00   -7.483E+00   -7.499E+00   -7.514E+00   -7.529E+00   -7.544E+00
    -7.559E+00   -7.573E+00   -7.588E+00   -7.601E+00   -7.615E+00   -7.628E+00   -7.641E+00   -7.654E+00   -7.666E+00   -7.679E+00
    -7.691E+00   -7.702E+00   -7.714E+00   -7.725E+00   -7.736E+00   -7.746E+00   -7.757E+00   -7.767E+00   -7.777E+00   -7.787E+00
    -7.796E+00   -7.805E+00   -7.814E+00   -7.823E+00   -7.831E+00   -7.839E+00   -7.847E+00   -7.855E+00   -7.862E+00   -7.869E+00
    -7.876E+00   -7.883E+00   -7.889E+00   -7.895E+00   -7.901E+00   -7.907E+00   -7.913E+00   -7.918E+00   -7.923E+00   -7.928E+00
    -7.932E+00   -7.937E+00   -7.941E+00   -7.945E+00   -7.948E+00   -7.952E+00   -7.955E+00   -7.958E+00   -7.961E+00   -7.963E+00
    -7.965E+00   -7.968E+00   -7.969E+00   -7.971E+00   -7.972E+00   -7.974E+00   -7.975E+00   -7.975E+00   -7.976E+00   -7.976E+00
    -7.977E+00   -7.976E+00   -7.976E+00   -7.976E+00   -7.975E+00   -7.974E+00   -7.973E+00   -7.972E+00   -7.970E+00   -7.968E+00
    -7.966E+00   -7.964E+00   -7.962E+00   -7.959E+00   -7.957E+00   -7.954E+00   -7.950E+00   -7.947E+00   -7.943E+00   -7.940E+00
    -7.936E+00   -7.932E+00   -7.927E+00   -7.923E+00   -7.918E+00   -7.913E+00   -7.908E+00   -7.902E+00   -7.897E+00   -7.891E+00
    -7.885E+00   -7.879E+00   -7.873E+00   -7.866E+00   -7.859E+00   -7.853E+00   -7.845E+00   -7.838E+00   -7.831E+00   -7.823E+00
    -7.815E+00   -7.807E+00   -7.799E+00   -7.791E+00   -7.782E+00   -7.773E+00   -7.764E+00   -7.755E+00   -7.746E+00   -7.737E+00
    -7.727E+00   -7.717E+00   -7.707E+00   -7.697E+00   -7.686E+00   -7.676E+00   -7.665E+00   -7.654E+00   -7.643E+00   -7.632E+00
    -7.620E+00   -7.609E+00   -7.597E+00   -7.585E+00   -7.573E+00   -7.560E+00   -7.548E+00   -7.535E+00   -7.522E+00   -7.509E+00
    -7.496E+00   -7.483E+00   -7.469E+00   -7.456E+00   -7.442E+00   -7.428E+00   -7.413E+00   -7.399E+00   -7.384E+00   -7.370E+00
    -7.355E+00   -7.340E+00   -7.325E+00   -7.309E+00   -7.294E+00   -7.278E+00   -7.262E+00   -7.246E+00   -7.230E+00   -7.213E+00
    -7.197E+00   -7.180E+00   -7.163E+00   -7.146E+00   -7.129E+00   -7.112E+00   -7.095E+00   -7.077E+00   -7.059E+00   -7.041E+00
    -7.023E+00   -7.005E+00   -6.987E+00   -6.968E+00   -6.950E+00   -6.931E+00   -6.912E+00   -6.893E+00   -6.874E+00   -6.855E+00
    -6.836E+00   -6.816E+00   -6.797E+00   -6.777E+00   -6.757E+00   -6.737E+00   -6.717E+00   -6.697E+00   -6.676E+00   -6.656E+00
    -6.635E+00   -6.615E+00   -6.594E+00   -6.573E+00   -6.552E+00   -6.531E+00   -6.509E+00   -6.488E+00   -6.467E+00   -6.445E+00
    -6.423E+00   -6.401E+00   -6.380E+00   -6.358E+00   -6.336E+00   -6.313E+00   -6.291E+00   -6.269E+00   -6.246E+00   -6.224E+00
    -6.201E+00   -6.178E+00   -6.156E+00   -6.133E+00   -6.110E+00   -6.087E+00   -6.064E+00   -6.040E+00   -6.017E+00   -5.994E+00
    -5.970E+00   -5.947E+00   -5.923E+00   -5.900E+00   -5.876E+00   -5.852E+00   -5.828E+00   -5.804E+00   -5.780E+00   -5.756E+00
    -5.732E+00   -5.708E+00   -5.684E+00   -5.659E+00   -5.635E+00   -5.611E+00   -5.586E+00   -5.562E+00   -5.537E+00   -5.513E+00
    -5.488E+00   -5.463E+00   -5.439E+00   -5.414E+00   -5.389E+00   -5.364E+00   -5.339E+00   -5.314E+00   -5.290E+00   -5.265E+00
    -5.240E+00   -5.214E+00   -5.189E+00   -5.164E+00   -5.139E+00   -5.114E+00   -5.089E+00   -5.063E+00   -5.038E+00   -5.013E+00
    -4.988E+00   -4.962E+00   -4.937E+00   -4.911E+00   -4.886E+00   -4.861E+00   -4.835E+00   -4.810E+00   -4.784E+00   -4.759E+00
    -4.733E+00   -4.707E+00   -4.682E+00   -4.656E+00   -4.631E+00   -4.605E+00   -4.580E+00   -4.554E+00   -4.528E+00   -4.503E+00
    -4.477E+00   -4.451E+00   -4.426E+00   -4.400E+00   -4.374E+00   -4.349E+00   -4.323E+00   -4.298E+00
 Cr       Conc. = 9.68E+02
