 LCModel (Version 6.3-1L) Copyright: S.W. Provencher.          Ref.: Magn. Reson. Med. 30:672-679 (1993).                
 Slice#3 Row#5 Col#7  PD_24_press_1_raw_act
 36 lines in following concentration table = NCONC+1
    Conc.  %SD /Cr+PCr  Metabolite                                         
  223.649  49%   0.121 Ala                                                 
    0.000 999%   0.000 Asp                                                 
  942.270  22%   0.509 Cr                                                  
  909.881  23%   0.491 PCr                                                 
    0.000 999%   0.000 GABA                                                
    0.000 999%   0.000 Glc                                                 
  539.156  39%   0.291 Gln                                                 
 1.11E+03  21%   0.597 Glu                                                 
  679.559   4%   0.367 GPC                                                 
    0.000 999%   0.000 PCh                                                 
  501.802  15%   0.271 GSH                                                 
  665.896  38%   0.360 Ins                                                 
  419.097  28%   0.226 Lac                                                 
 2.04E+03   4%   1.099 NAA                                                 
    0.000 999%   0.000 NAAG                                                
   41.036  68% 2.2E-02 Scyllo                                              
    0.000 999%   0.000 Tau                                                 
    0.000 999%   0.000 -CrCH2                                              
  679.559   4%   0.367 GPC+PCh                                             
 2.04E+03   4%   1.099 NAA+NAAG                                            
 1.85E+03   3%   1.000 Cr+PCr                                              
 1.64E+03  20%   0.888 Glu+Gln                                             
    0.000 999%   0.000 Lip13a                                              
    0.000 999%   0.000 Lip13b                                              
    0.000 999%   0.000 Lip09                                               
 1.42E+03  16%   0.768 MM09                                                
 1.69E-03 999% 9.1E-07 Lip20                                               
 2.85E+03  14%   1.539 MM20                                                
  370.611  38%   0.200 MM12                                                
 3.37E+03  12%   1.819+MM14                                                
 1.63E+03  19%   0.877 MM17                                                
    0.000 999%   0.000 Lip13a+Lip13b                                       
 3.74E+03  12%   2.019 MM14+Lip13a+Lip13b+MM12                             
 1.42E+03  16%   0.768 MM09+Lip09                                          
 2.85E+03  14%   1.539 MM20+Lip20                                          
   6 lines in following misc. output table
  FWHM = 0.038 ppm    S/N =  11                                            
  Data shift =-0.008 ppm                                                   
  Ph: -14 deg      -2.1 deg/ppm                                            
  alphaB,S = 7.2E-01,   5.1E+01                                            
   14 spline knots.   Ns = 6(1)                                            
  ( 8) 4 infls.   ( 4) 1 extrs.                                            
  498 points on ppm-axis = NY
      4.000000     3.992357     3.984714     3.977070     3.969427     3.961784     3.954141     3.946497     3.938854     3.931211
      3.923568     3.915925     3.908281     3.900638     3.892995     3.885352     3.877708     3.870065     3.862422     3.854779
      3.847136     3.839492     3.831849     3.824206     3.816563     3.808919     3.801276     3.793633     3.785990     3.778347
      3.770703     3.763060     3.755417     3.747774     3.740130     3.732487     3.724844     3.717201     3.709558     3.701914
      3.694271     3.686628     3.678985     3.671341     3.663698     3.656055     3.648412     3.640769     3.633125     3.625482
      3.617839     3.610196     3.602552     3.594909     3.587266     3.579623     3.571980     3.564336     3.556693     3.549050
      3.541407     3.533763     3.526120     3.518477     3.510834     3.503191     3.495547     3.487904     3.480261     3.472618
      3.464974     3.457331     3.449688     3.442045     3.434402     3.426758     3.419115     3.411472     3.403829     3.396185
      3.388542     3.380899     3.373256     3.365613     3.357969     3.350326     3.342683     3.335040     3.327396     3.319753
      3.312110     3.304467     3.296824     3.289180     3.281537     3.273894     3.266251     3.258607     3.250964     3.243321
      3.235678     3.228034     3.220391     3.212748     3.205105     3.197462     3.189818     3.182175     3.174532     3.166889
      3.159245     3.151602     3.143959     3.136316     3.128673     3.121029     3.113386     3.105743     3.098100     3.090456
      3.082813     3.075170     3.067527     3.059884     3.052240     3.044597     3.036954     3.029311     3.021667     3.014024
      3.006381     2.998738     2.991095     2.983451     2.975808     2.968165     2.960522     2.952878     2.945235     2.937592
      2.929949     2.922306     2.914662     2.907019     2.899376     2.891733     2.884089     2.876446     2.868803     2.861160
      2.853517     2.845873     2.838230     2.830587     2.822944     2.815300     2.807657     2.800014     2.792371     2.784728
      2.777084     2.769441     2.761798     2.754155     2.746511     2.738868     2.731225     2.723582     2.715939     2.708295
      2.700652     2.693009     2.685366     2.677722     2.670079     2.662436     2.654793     2.647150     2.639506     2.631863
      2.624220     2.616577     2.608933     2.601290     2.593647     2.586004     2.578361     2.570717     2.563074     2.555431
      2.547788     2.540144     2.532501     2.524858     2.517215     2.509572     2.501928     2.494285     2.486642     2.478999
      2.471355     2.463712     2.456069     2.448426     2.440783     2.433139     2.425496     2.417853     2.410210     2.402566
      2.394923     2.387280     2.379637     2.371994     2.364350     2.356707     2.349064     2.341421     2.333777     2.326134
      2.318491     2.310848     2.303205     2.295561     2.287918     2.280275     2.272632     2.264988     2.257345     2.249702
      2.242059     2.234416     2.226772     2.219129     2.211486     2.203843     2.196199     2.188556     2.180913     2.173270
      2.165627     2.157983     2.150340     2.142697     2.135054     2.127410     2.119767     2.112124     2.104481     2.096838
      2.089194     2.081551     2.073908     2.066265     2.058621     2.050978     2.043335     2.035692     2.028049     2.020405
      2.012762     2.005119     1.997476     1.989833     1.982190     1.974546     1.966903     1.959260     1.951617     1.943974
      1.936331     1.928688     1.921045     1.913402     1.905759     1.898115     1.890472     1.882829     1.875186     1.867543
      1.859900     1.852257     1.844614     1.836971     1.829327     1.821684     1.814041     1.806398     1.798755     1.791112
      1.783469     1.775826     1.768183     1.760540     1.752896     1.745253     1.737610     1.729967     1.722324     1.714681
      1.707038     1.699395     1.691752     1.684108     1.676465     1.668822     1.661179     1.653536     1.645893     1.638250
      1.630607     1.622964     1.615321     1.607677     1.600034     1.592391     1.584748     1.577105     1.569462     1.561819
      1.554176     1.546533     1.538890     1.531246     1.523603     1.515960     1.508317     1.500674     1.493031     1.485388
      1.477745     1.470102     1.462458     1.454815     1.447172     1.439529     1.431886     1.424243     1.416600     1.408957
      1.401314     1.393671     1.386027     1.378384     1.370741     1.363098     1.355455     1.347812     1.340169     1.332526
      1.324883     1.317240     1.309596     1.301953     1.294310     1.286667     1.279024     1.271381     1.263738     1.256095
      1.248452     1.240808     1.233165     1.225522     1.217879     1.210236     1.202593     1.194950     1.187307     1.179664
      1.172021     1.164377     1.156734     1.149091     1.141448     1.133805     1.126162     1.118519     1.110876     1.103233
      1.095590     1.087946     1.080303     1.072660     1.065017     1.057374     1.049731     1.042088     1.034445     1.026802
      1.019158     1.011515     1.003872     0.996229     0.988586     0.980943     0.973300     0.965657     0.958014     0.950371
      0.942727     0.935084     0.927441     0.919798     0.912155     0.904512     0.896869     0.889226     0.881583     0.873940
      0.866296     0.858653     0.851010     0.843367     0.835724     0.828081     0.820438     0.812795     0.805152     0.797508
      0.789865     0.782222     0.774579     0.766936     0.759293     0.751650     0.744007     0.736364     0.728721     0.721077
      0.713434     0.705791     0.698148     0.690505     0.682862     0.675219     0.667576     0.659933     0.652290     0.644646
      0.637003     0.629360     0.621717     0.614074     0.606431     0.598788     0.591145     0.583502     0.575858     0.568215
      0.560572     0.552929     0.545286     0.537643     0.530000     0.522357     0.514714     0.507071     0.499427     0.491784
      0.484141     0.476498     0.468855     0.461212     0.453569     0.445925     0.438282     0.430639     0.422996     0.415353
      0.407710     0.400067     0.392424     0.384780     0.377137     0.369494     0.361851     0.354208     0.346565     0.338922
      0.331278     0.323635     0.315992     0.308349     0.300706     0.293063     0.285420     0.277777     0.270133     0.262490
      0.254847     0.247204     0.239561     0.231918     0.224275     0.216631     0.208988     0.201345
 NY phased data points follow
   5.46735E+01  5.21064E+01  5.59231E+01  5.98522E+01  5.45443E+01  6.29694E+01  6.72614E+01  7.64986E+01  8.49717E+01  9.02604E+01
   9.47253E+01  1.01374E+02  1.04000E+02  9.94107E+01  8.82701E+01  8.22701E+01  7.55950E+01  7.05327E+01  6.50689E+01  5.73434E+01
   5.35659E+01  5.62014E+01  5.47357E+01  4.98545E+01  4.86930E+01  4.49319E+01  4.98922E+01  5.33818E+01  5.17485E+01  5.49020E+01
   5.61356E+01  6.12830E+01  5.98477E+01  5.55889E+01  5.61960E+01  5.20442E+01  4.62328E+01  4.81258E+01  4.30752E+01  4.87988E+01
   4.25846E+01  4.12730E+01  4.48076E+01  4.42699E+01  4.26422E+01  4.61319E+01  5.31994E+01  5.42730E+01  4.75399E+01  5.03342E+01
   4.35953E+01  4.24841E+01  4.42373E+01  4.05692E+01  3.73124E+01  3.59022E+01  3.63010E+01  3.91252E+01  3.56867E+01  3.75252E+01
   4.05393E+01  3.63283E+01  2.63270E+01  3.18003E+01  3.10633E+01  2.74642E+01  2.27702E+01  2.54980E+01  2.36282E+01  2.52878E+01
   2.50564E+01  3.08675E+01  2.55177E+01  2.95678E+01  2.25306E+01  2.44650E+01  2.65993E+01  2.89183E+01  2.46304E+01  2.65498E+01
   2.40868E+01  2.27681E+01  2.69584E+01  2.05999E+01  2.33663E+01  2.37302E+01  2.13195E+01  3.08468E+01  2.41459E+01  2.45844E+01
   2.36858E+01  2.48295E+01  2.38283E+01  2.20369E+01  2.33562E+01  1.97566E+01  1.98644E+01  2.10317E+01  2.07018E+01  3.24015E+01
   4.41203E+01  5.87561E+01  7.83916E+01  8.92560E+01  8.70855E+01  7.99312E+01  7.11692E+01  5.37510E+01  4.94106E+01  4.38964E+01
   3.42422E+01  3.20079E+01  2.71304E+01  3.05837E+01  2.60263E+01  1.86754E+01  1.88682E+01  2.62234E+01  2.60340E+01  1.33055E+01
   1.47356E+01  1.49826E+01  1.53187E+01  2.56451E+01  3.36907E+01  4.50037E+01  6.18774E+01  7.50806E+01  7.82747E+01  7.62737E+01
   6.22851E+01  5.99867E+01  4.77861E+01  3.65597E+01  3.51335E+01  2.78817E+01  2.26677E+01  2.02950E+01  1.17300E+01  1.56640E+01
   1.11260E+01  1.12736E+01  1.16095E+01  1.57339E+01  1.97667E+01  1.26024E+01  1.40578E+01  1.21659E+01  1.21453E+01  7.99274E+00
   1.13689E+01  1.19209E+01  1.32292E+01  1.36916E+01  1.31814E+01  9.88037E+00  7.05361E+00  1.15718E+01  1.11673E+01  6.52103E+00
   7.89978E+00  9.23454E+00  1.37749E+00  1.04723E+01  4.85626E+00  6.55763E+00  7.15891E+00  9.58264E+00  8.49749E+00  5.27793E+00
   3.15350E+00  5.44770E+00  4.54161E+00 -2.15962E-01  7.81517E-02 -5.21596E+00  1.46508E+00  8.12476E-01  5.90512E+00  1.89747E+00
   2.11501E+00  6.61264E-01 -7.24719E-01 -2.58947E+00 -6.75000E+00 -5.15778E-01 -5.53820E-01  2.07633E+00  5.53397E+00  1.33793E+00
   2.79924E+00  1.47861E+01  1.23354E+01  2.19956E+01  1.47145E+01  1.77055E+01  1.27631E+01  1.43519E+01  9.28260E+00  1.00907E+01
   1.07306E+01  1.06120E+01  8.36462E+00  1.19101E+01  1.39493E+01  1.17475E+01  8.34073E+00  8.40515E+00  9.74014E+00  2.83558E+00
   2.24623E-01  9.10497E+00  4.73570E+00  1.25831E+01  1.41009E+01  1.97665E+01  2.09678E+01  1.85970E+01  1.51845E+01  1.32607E+01
   1.29573E+01  1.04006E+01  6.60977E+00  9.92455E+00  8.68802E+00  1.56062E+01  1.19461E+01  2.23565E+01  1.61909E+01  1.88166E+01
   1.75431E+01  1.07727E+01  1.39507E+01  1.22203E+01  1.34884E+01  1.54013E+01  2.01907E+01  1.69193E+01  1.70121E+01  2.01042E+01
   1.65372E+01  1.04653E+01  1.44017E+01  1.16076E+01  1.43407E+01  1.33080E+01  2.06733E+01  2.16338E+01  2.17208E+01  1.97843E+01
   2.32892E+01  1.68990E+01  1.88310E+01  2.00386E+01  1.65524E+01  1.74449E+01  3.05111E+01  3.83343E+01  5.01306E+01  7.19485E+01
   8.97095E+01  9.63945E+01  8.87205E+01  7.14199E+01  5.08515E+01  4.26194E+01  3.43719E+01  3.25487E+01  2.78038E+01  2.19088E+01
   1.96622E+01  1.46859E+01  1.40720E+01  1.61338E+01  1.50372E+01  1.00213E+01  1.02352E+01  7.86634E+00  1.33213E+01  1.11676E+01
   8.98506E+00  1.09921E+01  1.20544E+01  1.07138E+01  1.33099E+01  1.15736E+01  1.21270E+01  1.02940E+01  1.05154E+01  9.92949E+00
   7.17496E+00  1.21969E+01  7.83026E+00  1.43805E+01  1.15970E+01  1.21503E+01  1.36362E+01  1.35132E+01  2.03158E+01  1.50358E+01
   1.69900E+01  1.13634E+01  1.02003E+01  1.51158E+01  1.71666E+01  2.03789E+01  1.77931E+01  1.80457E+01  2.06950E+01  1.60059E+01
   1.68758E+01  1.53936E+01  1.62140E+01  2.18913E+01  2.05668E+01  2.36297E+01  2.46790E+01  2.51237E+01  2.29518E+01  2.80284E+01
   2.24193E+01  2.38027E+01  2.70114E+01  2.54310E+01  3.18414E+01  3.02907E+01  2.21887E+01  2.03593E+01  2.66922E+01  2.33343E+01
   2.81252E+01  2.64807E+01  2.39199E+01  2.81880E+01  2.83570E+01  2.72444E+01  2.95094E+01  2.97280E+01  2.49661E+01  2.70705E+01
   2.99788E+01  2.96449E+01  2.36232E+01  2.90865E+01  2.80239E+01  3.14760E+01  2.33234E+01  2.62560E+01  2.00154E+01  1.47506E+01
   7.95745E+00  6.69081E+00  1.20634E+01  8.98321E+00  7.97071E+00  1.15659E+01  4.45064E+00  5.65913E+00  3.47232E+00  1.08519E+01
   8.99669E+00  1.04905E+01  8.73782E+00  9.09682E+00  2.82634E+00  9.89696E+00  1.21503E+01  6.00661E+00  1.34800E+01  7.28986E+00
   1.37110E+01  4.12630E+00  3.41153E+00  1.31243E-01  2.41663E+00  4.03468E+00  3.60400E+00  1.14882E+00  2.51029E+00  4.71280E+00
   3.15612E+00  3.99331E+00  4.68357E+00  2.76662E+00  2.41685E+00  7.14809E+00  7.05505E+00  2.49641E+00  5.30673E+00  1.07773E+01
   4.75693E+00  4.94253E+00  2.74009E+00  5.45818E+00  6.61418E+00  6.60240E+00  5.25132E+00  8.11108E+00  5.13066E+00  5.70528E+00
   8.18396E+00  1.26039E+01  7.97484E+00  7.69861E+00  1.51729E+01  1.23259E+01  1.20151E+01  1.09593E+01  8.20342E+00  1.51837E+01
   1.58357E+01  9.40820E+00  6.33766E+00  9.11836E+00  7.54643E+00  7.12834E+00  9.93607E+00 -3.07424E+00  2.64738E+00  8.38863E+00
   6.50531E+00  4.29429E+00  2.28823E+00  8.90634E+00 -2.09510E-01  3.06513E+00  1.27178E+00  4.49506E+00  5.19028E+00  4.77103E+00
   3.31340E+00  1.53076E+00  1.06756E+00  1.00818E+00  3.24577E+00 -4.05457E+00 -9.44893E-01  6.14912E+00  3.43454E+00  3.92422E+00
   3.32791E+00  2.26481E+00  2.04095E-01  2.07311E+00  7.03317E-01  4.47910E-01  1.03669E+00  4.73805E+00  1.07461E+00 -1.04828E+00
   2.12991E+00  2.47806E+00 -1.21989E-01  6.90922E+00  1.71054E+00  3.21698E+00  6.05665E-02  2.76486E+00 -4.00984E+00 -1.27983E+00
   2.54374E+00 -4.11554E+00 -2.50290E+00 -3.84145E+00 -7.96314E-01 -3.00689E-02 -8.12285E-01  7.49828E-01 -1.23894E-01  1.66260E+00
  -1.54841E+00 -2.73215E-01  5.30168E+00 -3.62950E+00 -3.11096E+00  8.24219E-01 -2.42318E+00  2.79104E-01  4.01414E+00 -3.19030E-01
   3.53473E+00  2.17800E+00 -6.81782E+00 -2.57842E+00 -4.91334E-01 -5.83131E-01 -5.33117E+00  1.16402E+00  2.75634E-01 -1.09864E+00
  -1.42611E+00 -5.72787E-01  1.72945E-01  1.91600E+00 -1.75811E+00  3.05066E+00 -2.74900E+00 -2.73201E+00
 NY points of the fit to the data follow
   5.72895E+01  5.68458E+01  5.66346E+01  5.65763E+01  5.70260E+01  5.91595E+01  6.30212E+01  6.92989E+01  7.78481E+01  8.68296E+01
   9.41777E+01  9.78508E+01  9.66515E+01  9.13517E+01  8.42910E+01  7.76319E+01  7.18796E+01  6.64652E+01  6.21071E+01  5.80187E+01
   5.53876E+01  5.41599E+01  5.32031E+01  5.19298E+01  5.01501E+01  4.84389E+01  4.79102E+01  4.86500E+01  5.08895E+01  5.46480E+01
   5.85679E+01  6.08325E+01  6.06309E+01  5.83721E+01  5.50553E+01  5.21320E+01  4.98263E+01  4.74573E+01  4.52399E+01  4.44797E+01
   4.41739E+01  4.38347E+01  4.39823E+01  4.47179E+01  4.55732E+01  4.63873E+01  4.70907E+01  4.70982E+01  4.64463E+01  4.52047E+01
   4.35050E+01  4.19355E+01  4.08819E+01  3.97904E+01  3.84268E+01  3.74350E+01  3.70403E+01  3.68582E+01  3.66373E+01  3.64138E+01
   3.60370E+01  3.53823E+01  3.44315E+01  3.33589E+01  3.24546E+01  3.17884E+01  3.12738E+01  3.09439E+01  3.07473E+01  3.06070E+01
   3.05195E+01  3.03914E+01  3.01540E+01  2.97733E+01  2.92624E+01  2.87180E+01  2.82058E+01  2.77675E+01  2.73353E+01  2.68718E+01
   2.64648E+01  2.62023E+01  2.61314E+01  2.61051E+01  2.60777E+01  2.59887E+01  2.56357E+01  2.49330E+01  2.40464E+01  2.32586E+01
   2.27521E+01  2.25660E+01  2.25139E+01  2.23268E+01  2.21063E+01  2.20372E+01  2.19176E+01  2.17057E+01  2.40641E+01  3.22907E+01
   4.44613E+01  5.98204E+01  7.66623E+01  8.88359E+01  9.09754E+01  8.31767E+01  7.00003E+01  5.71860E+01  4.82321E+01  4.17922E+01
   3.32569E+01  2.43998E+01  2.09719E+01  1.97908E+01  1.91646E+01  1.87461E+01  1.84253E+01  1.81671E+01  1.79555E+01  1.77906E+01
   1.77209E+01  1.77230E+01  1.87950E+01  2.49539E+01  3.54611E+01  4.88266E+01  6.45542E+01  7.82747E+01  8.39877E+01  7.99496E+01
   6.93210E+01  5.72434E+01  4.79521E+01  4.17298E+01  3.43722E+01  2.40571E+01  1.77893E+01  1.52631E+01  1.42978E+01  1.43310E+01
   1.48314E+01  1.52742E+01  1.55611E+01  1.56746E+01  1.54531E+01  1.50521E+01  1.46116E+01  1.40858E+01  1.35755E+01  1.29862E+01
   1.24186E+01  1.19497E+01  1.15450E+01  1.12093E+01  1.09594E+01  1.08230E+01  1.06709E+01  1.03621E+01  9.94113E+00  9.36654E+00
   8.77789E+00  8.44325E+00  8.44422E+00  8.76839E+00  9.15068E+00  9.21135E+00  8.77031E+00  8.04700E+00  7.48056E+00  7.14900E+00
   6.84756E+00  6.44937E+00  5.72125E+00  5.02085E+00  4.57286E+00  4.20994E+00  4.04759E+00  4.13736E+00  4.42410E+00  4.63272E+00
   4.56428E+00  4.29568E+00  4.06016E+00  3.99516E+00  4.06010E+00  3.88489E+00  3.84952E+00  4.49675E+00  6.03463E+00  7.99876E+00
   9.66670E+00  1.07009E+01  1.10641E+01  1.08338E+01  1.01351E+01  9.27334E+00  8.34784E+00  7.68341E+00  7.45307E+00  7.96860E+00
   9.23761E+00  1.08879E+01  1.24095E+01  1.34520E+01  1.36885E+01  1.30442E+01  1.16332E+01  9.55903E+00  7.33866E+00  5.72392E+00
   5.21607E+00  5.83840E+00  7.39619E+00  9.57004E+00  1.20497E+01  1.42213E+01  1.54192E+01  1.50973E+01  1.29108E+01  1.00327E+01
   7.60802E+00  5.84789E+00  4.94474E+00  5.18520E+00  6.90082E+00  9.40283E+00  1.16164E+01  1.30102E+01  1.37381E+01  1.42347E+01
   1.42925E+01  1.36813E+01  1.30780E+01  1.31941E+01  1.39530E+01  1.51130E+01  1.64641E+01  1.75975E+01  1.80518E+01  1.76997E+01
   1.65004E+01  1.49874E+01  1.40061E+01  1.38791E+01  1.43547E+01  1.52281E+01  1.63334E+01  1.74084E+01  1.81133E+01  1.85817E+01
   1.89825E+01  1.92591E+01  1.95677E+01  1.97549E+01  1.96399E+01  2.08883E+01  2.83376E+01  4.02268E+01  5.54309E+01  7.34153E+01
   8.81911E+01  9.27985E+01  8.60178E+01  7.21814E+01  5.76339E+01  4.71747E+01  4.03997E+01  3.20245E+01  2.12449E+01  1.65405E+01
   1.50384E+01  1.41720E+01  1.36658E+01  1.34058E+01  1.31795E+01  1.29561E+01  1.26896E+01  1.23829E+01  1.20733E+01  1.17867E+01
   1.14957E+01  1.12088E+01  1.09718E+01  1.07931E+01  1.06544E+01  1.05419E+01  1.04542E+01  1.04013E+01  1.03856E+01  1.03947E+01
   1.04381E+01  1.05229E+01  1.06525E+01  1.08286E+01  1.10537E+01  1.13317E+01  1.16627E+01  1.20442E+01  1.24768E+01  1.29587E+01
   1.34845E+01  1.40488E+01  1.46442E+01  1.52607E+01  1.58858E+01  1.65068E+01  1.71123E+01  1.76923E+01  1.82375E+01  1.87395E+01
   1.91918E+01  1.95928E+01  1.99453E+01  2.02554E+01  2.05323E+01  2.07883E+01  2.10389E+01  2.13028E+01  2.16013E+01  2.19571E+01
   2.23961E+01  2.29868E+01  2.38689E+01  2.48454E+01  2.57424E+01  2.64795E+01  2.67989E+01  2.65267E+01  2.58207E+01  2.49844E+01
   2.45118E+01  2.46357E+01  2.51674E+01  2.59501E+01  2.69844E+01  2.83104E+01  2.93022E+01  2.95604E+01  2.91919E+01  2.85020E+01
   2.77909E+01  2.70915E+01  2.63254E+01  2.58006E+01  2.52791E+01  2.45324E+01  2.32735E+01  2.09848E+01  1.76115E+01  1.36560E+01
   1.01246E+01  7.91102E+00  6.97859E+00  7.03322E+00  7.78582E+00  9.16846E+00  1.08370E+01  1.16480E+01  1.15315E+01  1.09687E+01
   1.04900E+01  1.01891E+01  9.50510E+00  8.52516E+00  7.88514E+00  7.45426E+00  7.12351E+00  6.85149E+00  6.61810E+00  6.41203E+00
   6.22639E+00  6.05697E+00  5.90144E+00  5.75880E+00  5.62884E+00  5.51184E+00  5.40844E+00  5.31968E+00  5.24705E+00  5.19229E+00
   5.15719E+00  5.14346E+00  5.15289E+00  5.18742E+00  5.24921E+00  5.34034E+00  5.46263E+00  5.61749E+00  5.80609E+00  6.02932E+00
   6.28757E+00  6.58036E+00  6.90606E+00  7.26189E+00  7.64397E+00  8.04733E+00  8.46569E+00  8.89135E+00  9.31528E+00  9.72755E+00
   1.01177E+01  1.04754E+01  1.07900E+01  1.10517E+01  1.12513E+01  1.13815E+01  1.14369E+01  1.14143E+01  1.13129E+01  1.11337E+01
   1.08804E+01  1.05587E+01  1.01762E+01  9.74224E+00  9.26659E+00  8.75954E+00  8.23149E+00  7.69268E+00  7.15268E+00  6.61997E+00
   6.10161E+00  5.60333E+00  5.12966E+00  4.68397E+00  4.26845E+00  3.88402E+00  3.53053E+00  3.20716E+00  2.91270E+00  2.64563E+00
   2.40408E+00  2.18587E+00  1.98868E+00  1.81037E+00  1.64905E+00  1.50301E+00  1.37051E+00  1.24983E+00  1.13944E+00  1.03814E+00
   9.44982E-01  8.59117E-01  7.79626E-01  7.05610E-01  6.36366E-01  5.71445E-01  5.10523E-01  4.53203E-01  3.98983E-01  3.47397E-01
   2.98171E-01  2.51206E-01  2.06398E-01  1.63500E-01  1.22196E-01  8.22581E-02  4.36482E-02  6.40804E-03 -2.95187E-02 -6.43393E-02
  -9.82806E-02 -1.31425E-01 -1.63701E-01 -1.95042E-01 -2.25532E-01 -2.55372E-01 -2.84706E-01 -3.13513E-01 -3.41681E-01 -3.69176E-01
  -3.96122E-01 -4.22697E-01 -4.48958E-01 -4.74810E-01 -5.00141E-01 -5.24978E-01 -5.49478E-01 -5.73773E-01 -5.97842E-01 -6.21554E-01
  -6.44837E-01 -6.67779E-01 -6.90540E-01 -7.13183E-01 -7.35616E-01 -7.57710E-01 -7.79457E-01 -8.00988E-01 -8.22434E-01 -8.43782E-01
  -8.64901E-01 -8.85696E-01 -9.06224E-01 -9.26630E-01 -9.46986E-01 -9.67210E-01 -9.87160E-01 -1.00680E+00
 NY background values follow
     5.588E+01    5.547E+01    5.506E+01    5.465E+01    5.423E+01    5.382E+01    5.341E+01    5.300E+01    5.258E+01    5.217E+01
     5.176E+01    5.135E+01    5.093E+01    5.052E+01    5.011E+01    4.969E+01    4.928E+01    4.887E+01    4.846E+01    4.805E+01
     4.764E+01    4.723E+01    4.682E+01    4.641E+01    4.600E+01    4.559E+01    4.518E+01    4.478E+01    4.437E+01    4.397E+01
     4.356E+01    4.316E+01    4.276E+01    4.235E+01    4.195E+01    4.155E+01    4.116E+01    4.076E+01    4.036E+01    3.997E+01
     3.957E+01    3.918E+01    3.879E+01    3.840E+01    3.801E+01    3.763E+01    3.724E+01    3.686E+01    3.647E+01    3.609E+01
     3.571E+01    3.534E+01    3.496E+01    3.459E+01    3.422E+01    3.384E+01    3.348E+01    3.311E+01    3.274E+01    3.238E+01
     3.202E+01    3.166E+01    3.130E+01    3.095E+01    3.059E+01    3.024E+01    2.989E+01    2.955E+01    2.920E+01    2.886E+01
     2.852E+01    2.818E+01    2.785E+01    2.751E+01    2.718E+01    2.685E+01    2.652E+01    2.620E+01    2.588E+01    2.556E+01
     2.524E+01    2.493E+01    2.462E+01    2.431E+01    2.400E+01    2.370E+01    2.339E+01    2.310E+01    2.280E+01    2.251E+01
     2.222E+01    2.193E+01    2.164E+01    2.136E+01    2.108E+01    2.081E+01    2.053E+01    2.026E+01    1.999E+01    1.973E+01
     1.947E+01    1.921E+01    1.895E+01    1.870E+01    1.844E+01    1.820E+01    1.795E+01    1.771E+01    1.747E+01    1.723E+01
     1.700E+01    1.677E+01    1.654E+01    1.631E+01    1.609E+01    1.587E+01    1.566E+01    1.544E+01    1.523E+01    1.502E+01
     1.482E+01    1.462E+01    1.442E+01    1.422E+01    1.403E+01    1.384E+01    1.365E+01    1.346E+01    1.328E+01    1.310E+01
     1.293E+01    1.275E+01    1.258E+01    1.241E+01    1.225E+01    1.209E+01    1.193E+01    1.177E+01    1.162E+01    1.147E+01
     1.132E+01    1.118E+01    1.104E+01    1.090E+01    1.076E+01    1.063E+01    1.050E+01    1.037E+01    1.025E+01    1.013E+01
     1.001E+01    9.890E+00    9.777E+00    9.666E+00    9.558E+00    9.452E+00    9.349E+00    9.249E+00    9.152E+00    9.057E+00
     8.965E+00    8.875E+00    8.788E+00    8.704E+00    8.623E+00    8.543E+00    8.467E+00    8.393E+00    8.322E+00    8.253E+00
     8.186E+00    8.123E+00    8.061E+00    8.003E+00    7.946E+00    7.892E+00    7.841E+00    7.792E+00    7.745E+00    7.701E+00
     7.660E+00    7.620E+00    7.583E+00    7.549E+00    7.516E+00    7.486E+00    7.458E+00    7.432E+00    7.408E+00    7.386E+00
     7.366E+00    7.348E+00    7.331E+00    7.317E+00    7.304E+00    7.292E+00    7.282E+00    7.273E+00    7.266E+00    7.260E+00
     7.256E+00    7.252E+00    7.250E+00    7.249E+00    7.249E+00    7.250E+00    7.252E+00    7.254E+00    7.258E+00    7.262E+00
     7.267E+00    7.273E+00    7.279E+00    7.285E+00    7.292E+00    7.300E+00    7.307E+00    7.315E+00    7.323E+00    7.331E+00
     7.340E+00    7.348E+00    7.356E+00    7.364E+00    7.372E+00    7.380E+00    7.387E+00    7.394E+00    7.401E+00    7.407E+00
     7.413E+00    7.419E+00    7.424E+00    7.429E+00    7.433E+00    7.437E+00    7.441E+00    7.444E+00    7.447E+00    7.449E+00
     7.451E+00    7.453E+00    7.454E+00    7.454E+00    7.454E+00    7.454E+00    7.453E+00    7.452E+00    7.451E+00    7.448E+00
     7.446E+00    7.443E+00    7.439E+00    7.435E+00    7.430E+00    7.425E+00    7.420E+00    7.414E+00    7.407E+00    7.400E+00
     7.392E+00    7.384E+00    7.375E+00    7.366E+00    7.356E+00    7.346E+00    7.335E+00    7.323E+00    7.311E+00    7.298E+00
     7.285E+00    7.271E+00    7.256E+00    7.241E+00    7.226E+00    7.209E+00    7.192E+00    7.175E+00    7.157E+00    7.138E+00
     7.118E+00    7.098E+00    7.077E+00    7.056E+00    7.034E+00    7.011E+00    6.987E+00    6.963E+00    6.938E+00    6.912E+00
     6.886E+00    6.859E+00    6.831E+00    6.802E+00    6.773E+00    6.742E+00    6.711E+00    6.680E+00    6.647E+00    6.614E+00
     6.580E+00    6.545E+00    6.509E+00    6.473E+00    6.436E+00    6.397E+00    6.358E+00    6.319E+00    6.278E+00    6.236E+00
     6.194E+00    6.151E+00    6.107E+00    6.061E+00    6.015E+00    5.969E+00    5.921E+00    5.872E+00    5.823E+00    5.772E+00
     5.721E+00    5.669E+00    5.616E+00    5.562E+00    5.508E+00    5.452E+00    5.396E+00    5.340E+00    5.283E+00    5.225E+00
     5.166E+00    5.107E+00    5.048E+00    4.988E+00    4.927E+00    4.866E+00    4.805E+00    4.743E+00    4.680E+00    4.618E+00
     4.555E+00    4.491E+00    4.428E+00    4.364E+00    4.300E+00    4.235E+00    4.171E+00    4.106E+00    4.041E+00    3.976E+00
     3.911E+00    3.846E+00    3.781E+00    3.715E+00    3.650E+00    3.585E+00    3.520E+00    3.455E+00    3.390E+00    3.325E+00
     3.260E+00    3.196E+00    3.132E+00    3.068E+00    3.004E+00    2.940E+00    2.877E+00    2.814E+00    2.751E+00    2.689E+00
     2.627E+00    2.565E+00    2.504E+00    2.443E+00    2.383E+00    2.322E+00    2.263E+00    2.203E+00    2.145E+00    2.086E+00
     2.028E+00    1.971E+00    1.914E+00    1.858E+00    1.802E+00    1.747E+00    1.692E+00    1.638E+00    1.585E+00    1.532E+00
     1.479E+00    1.428E+00    1.377E+00    1.327E+00    1.277E+00    1.228E+00    1.180E+00    1.132E+00    1.086E+00    1.040E+00
     9.947E-01    9.503E-01    9.067E-01    8.640E-01    8.221E-01    7.810E-01    7.409E-01    7.016E-01    6.631E-01    6.256E-01
     5.888E-01    5.530E-01    5.179E-01    4.836E-01    4.501E-01    4.173E-01    3.853E-01    3.540E-01    3.234E-01    2.935E-01
     2.642E-01    2.356E-01    2.076E-01    1.802E-01    1.534E-01    1.272E-01    1.015E-01    7.636E-02    5.174E-02    2.762E-02
     3.975E-03   -1.921E-02   -4.195E-02   -6.427E-02   -8.618E-02   -1.077E-01   -1.289E-01   -1.497E-01   -1.701E-01   -1.903E-01
    -2.101E-01   -2.297E-01   -2.490E-01   -2.681E-01   -2.870E-01   -3.056E-01   -3.241E-01   -3.424E-01   -3.605E-01   -3.786E-01
    -3.965E-01   -4.143E-01   -4.320E-01   -4.497E-01   -4.673E-01   -4.849E-01   -5.024E-01   -5.198E-01   -5.372E-01   -5.545E-01
    -5.718E-01   -5.890E-01   -6.062E-01   -6.233E-01   -6.404E-01   -6.575E-01   -6.745E-01   -6.914E-01   -7.083E-01   -7.252E-01
    -7.420E-01   -7.588E-01   -7.756E-01   -7.923E-01   -8.090E-01   -8.256E-01   -8.423E-01   -8.589E-01   -8.754E-01   -8.919E-01
    -9.085E-01   -9.249E-01   -9.414E-01   -9.578E-01   -9.742E-01   -9.906E-01   -1.007E+00   -1.023E+00   -1.040E+00   -1.056E+00
    -1.072E+00   -1.089E+00   -1.105E+00   -1.121E+00   -1.137E+00   -1.154E+00   -1.170E+00   -1.186E+00
 Ala      Conc. = 2.24E+02
