 LCModel (Version 6.3-1L) Copyright: S.W. Provencher.          Ref.: Magn. Reson. Med. 30:672-679 (1993).                
 Slice#1 Row#8 Col#8  PD_24_press_1_raw_act
 Data of: Institute of Biomedical Engineering, Bogazici University, Istanbul
 07-January-2018  09:55
 36 lines in following concentration table = NCONC+1
    Conc.  %SD /Cr+PCr  Metabolite                                         
    0.000 999%   0.000 Ala                                                 
   41.444 198%   0.112 Asp                                                 
  370.507  15%   1.000 Cr                                                  
    0.000 999%   0.000 PCr                                                 
   34.417 143% 9.3E-02 GABA                                                
   27.205 184% 7.3E-02 Glc                                                 
    0.000 999%   0.000 Gln                                                 
   40.687 484%   0.110 Glu                                                 
    0.000 999%   0.000 GPC                                                 
  147.412  15%   0.398 PCh                                                 
    7.113 915% 1.9E-02 GSH                                                 
  633.274  36%   1.709 Ins                                                 
  121.582  82%   0.328 Lac                                                 
  298.883  25%   0.807 NAA                                                 
  279.854  27%   0.755 NAAG                                                
    8.086 182% 2.2E-02 Scyllo                                              
   64.108 125%   0.173 Tau                                                 
  219.664  34%   0.593 -CrCH2                                              
  147.412  15%   0.398 GPC+PCh                                             
  578.737  13%   1.562 NAA+NAAG                                            
  370.507  15%   1.000 Cr+PCr                                              
   40.687 484%   0.110 Glu+Gln                                             
 2.03E+03  20%   5.487 Lip13a                                              
    0.000 999%   0.000 Lip13b                                              
  495.086  33%   1.336 Lip09                                               
  620.905  29%   1.676 MM09                                                
  292.246  39%   0.789 Lip20                                               
  646.283  48%   1.744 MM20                                                
  236.688  55%   0.639 MM12                                                
    0.000 999%   0.000 MM14                                                
    0.000 999%   0.000 MM17                                                
 2.03E+03  20%   5.487 Lip13a+Lip13b                                       
 2.27E+03  17%   6.125 MM14+Lip13a+Lip13b+MM12                             
 1.12E+03  16%   3.012 MM09+Lip09                                          
  938.528  33%   2.533 MM20+Lip20                                          
   6 lines in following misc. output table
  FWHM = 0.054 ppm    S/N =   2                                            
  Data shift = 0.015 ppm                                                   
  Ph:  23 deg      31.9 deg/ppm                                            
  alphaB,S = 8.5E+01,   1.6E+01                                            
   14 spline knots.   Ns = 6(1)                                            
  ( 9) 2 infls.   ( 8) 1 extrs.                                            
  498 points on ppm-axis = NY
      4.000000     3.992357     3.984714     3.977070     3.969427     3.961784     3.954141     3.946497     3.938854     3.931211
      3.923568     3.915925     3.908281     3.900638     3.892995     3.885352     3.877708     3.870065     3.862422     3.854779
      3.847136     3.839492     3.831849     3.824206     3.816563     3.808919     3.801276     3.793633     3.785990     3.778347
      3.770703     3.763060     3.755417     3.747774     3.740130     3.732487     3.724844     3.717201     3.709558     3.701914
      3.694271     3.686628     3.678985     3.671341     3.663698     3.656055     3.648412     3.640769     3.633125     3.625482
      3.617839     3.610196     3.602552     3.594909     3.587266     3.579623     3.571980     3.564336     3.556693     3.549050
      3.541407     3.533763     3.526120     3.518477     3.510834     3.503191     3.495547     3.487904     3.480261     3.472618
      3.464974     3.457331     3.449688     3.442045     3.434402     3.426758     3.419115     3.411472     3.403829     3.396185
      3.388542     3.380899     3.373256     3.365613     3.357969     3.350326     3.342683     3.335040     3.327396     3.319753
      3.312110     3.304467     3.296824     3.289180     3.281537     3.273894     3.266251     3.258607     3.250964     3.243321
      3.235678     3.228034     3.220391     3.212748     3.205105     3.197462     3.189818     3.182175     3.174532     3.166889
      3.159245     3.151602     3.143959     3.136316     3.128673     3.121029     3.113386     3.105743     3.098100     3.090456
      3.082813     3.075170     3.067527     3.059884     3.052240     3.044597     3.036954     3.029311     3.021667     3.014024
      3.006381     2.998738     2.991095     2.983451     2.975808     2.968165     2.960522     2.952878     2.945235     2.937592
      2.929949     2.922306     2.914662     2.907019     2.899376     2.891733     2.884089     2.876446     2.868803     2.861160
      2.853517     2.845873     2.838230     2.830587     2.822944     2.815300     2.807657     2.800014     2.792371     2.784728
      2.777084     2.769441     2.761798     2.754155     2.746511     2.738868     2.731225     2.723582     2.715939     2.708295
      2.700652     2.693009     2.685366     2.677722     2.670079     2.662436     2.654793     2.647150     2.639506     2.631863
      2.624220     2.616577     2.608933     2.601290     2.593647     2.586004     2.578361     2.570717     2.563074     2.555431
      2.547788     2.540144     2.532501     2.524858     2.517215     2.509572     2.501928     2.494285     2.486642     2.478999
      2.471355     2.463712     2.456069     2.448426     2.440783     2.433139     2.425496     2.417853     2.410210     2.402566
      2.394923     2.387280     2.379637     2.371994     2.364350     2.356707     2.349064     2.341421     2.333777     2.326134
      2.318491     2.310848     2.303205     2.295561     2.287918     2.280275     2.272632     2.264988     2.257345     2.249702
      2.242059     2.234416     2.226772     2.219129     2.211486     2.203843     2.196199     2.188556     2.180913     2.173270
      2.165627     2.157983     2.150340     2.142697     2.135054     2.127410     2.119767     2.112124     2.104481     2.096838
      2.089194     2.081551     2.073908     2.066265     2.058621     2.050978     2.043335     2.035692     2.028049     2.020405
      2.012762     2.005119     1.997476     1.989833     1.982190     1.974546     1.966903     1.959260     1.951617     1.943974
      1.936331     1.928688     1.921045     1.913402     1.905759     1.898115     1.890472     1.882829     1.875186     1.867543
      1.859900     1.852257     1.844614     1.836971     1.829327     1.821684     1.814041     1.806398     1.798755     1.791112
      1.783469     1.775826     1.768183     1.760540     1.752896     1.745253     1.737610     1.729967     1.722324     1.714681
      1.707038     1.699395     1.691752     1.684108     1.676465     1.668822     1.661179     1.653536     1.645893     1.638250
      1.630607     1.622964     1.615321     1.607677     1.600034     1.592391     1.584748     1.577105     1.569462     1.561819
      1.554176     1.546533     1.538890     1.531246     1.523603     1.515960     1.508317     1.500674     1.493031     1.485388
      1.477745     1.470102     1.462458     1.454815     1.447172     1.439529     1.431886     1.424243     1.416600     1.408957
      1.401314     1.393671     1.386027     1.378384     1.370741     1.363098     1.355455     1.347812     1.340169     1.332526
      1.324883     1.317240     1.309596     1.301953     1.294310     1.286667     1.279024     1.271381     1.263738     1.256095
      1.248452     1.240808     1.233165     1.225522     1.217879     1.210236     1.202593     1.194950     1.187307     1.179664
      1.172021     1.164377     1.156734     1.149091     1.141448     1.133805     1.126162     1.118519     1.110876     1.103233
      1.095590     1.087946     1.080303     1.072660     1.065017     1.057374     1.049731     1.042088     1.034445     1.026802
      1.019158     1.011515     1.003872     0.996229     0.988586     0.980943     0.973300     0.965657     0.958014     0.950371
      0.942727     0.935084     0.927441     0.919798     0.912155     0.904512     0.896869     0.889226     0.881583     0.873940
      0.866296     0.858653     0.851010     0.843367     0.835724     0.828081     0.820438     0.812795     0.805152     0.797508
      0.789865     0.782222     0.774579     0.766936     0.759293     0.751650     0.744007     0.736364     0.728721     0.721077
      0.713434     0.705791     0.698148     0.690505     0.682862     0.675219     0.667576     0.659933     0.652290     0.644646
      0.637003     0.629360     0.621717     0.614074     0.606431     0.598788     0.591145     0.583502     0.575858     0.568215
      0.560572     0.552929     0.545286     0.537643     0.530000     0.522357     0.514714     0.507071     0.499427     0.491784
      0.484141     0.476498     0.468855     0.461212     0.453569     0.445925     0.438282     0.430639     0.422996     0.415353
      0.407710     0.400067     0.392424     0.384780     0.377137     0.369494     0.361851     0.354208     0.346565     0.338922
      0.331278     0.323635     0.315992     0.308349     0.300706     0.293063     0.285420     0.277777     0.270133     0.262490
      0.254847     0.247204     0.239561     0.231918     0.224275     0.216631     0.208988     0.201345
 NY phased data points follow
  -1.00087E+01 -4.67281E+00 -1.29787E+01 -5.99407E+00 -6.67361E+00 -1.08518E+01 -7.39603E+00 -7.89550E+00 -9.67175E+00 -7.76397E+00
   2.06185E+00  5.13065E-01  1.01859E+00  2.19291E+00 -4.93323E+00 -1.42940E+00  1.78936E+00 -6.89126E+00 -4.16867E+00 -8.60959E+00
  -7.69869E+00 -6.08582E+00 -1.24659E+01 -4.24364E+00 -6.97766E+00 -6.73379E+00 -6.17605E+00 -3.13963E+00 -4.12545E+00 -7.62178E+00
  -3.84753E+00 -4.58370E+00 -6.19802E+00  9.41364E-01 -8.62147E+00 -5.06314E+00 -6.85149E+00 -4.71450E+00 -4.67062E+00 -3.44717E+00
  -3.88972E+00 -4.47958E+00 -5.26970E+00 -5.00179E+00 -4.74054E+00 -4.53887E+00  2.52257E+00  9.10904E+00 -4.09835E+00  1.61016E-01
   1.85908E+00 -3.54464E+00 -5.83156E+00 -5.43663E+00 -7.08711E+00 -4.78412E+00 -1.15181E+01 -1.89430E+00  5.74447E-01 -4.05594E+00
  -5.27280E+00 -3.56012E+00 -1.23400E+01 -3.70162E+00 -1.22119E+00 -1.93542E+00 -1.39805E+01 -4.79705E+00 -6.55300E+00 -1.00340E+01
  -3.31405E+00 -7.90268E+00 -1.11806E+01 -3.94570E-01 -4.80233E+00 -2.36120E+00 -7.68000E+00 -2.82905E+00 -9.90504E+00 -5.85324E+00
  -6.21454E+00 -2.19268E+00 -7.20731E+00 -1.18316E+01 -7.67772E+00 -6.57603E+00 -6.18661E+00 -1.19153E+00 -8.67401E+00 -8.96655E+00
  -7.74048E+00 -9.49060E+00 -4.10626E+00 -5.36782E+00 -1.75017E+00 -8.14918E+00 -6.99161E+00 -3.55247E+00 -6.23110E+00 -4.12449E+00
   8.37539E-01  8.27376E+00  6.73641E+00  1.39790E+01  7.15824E+00  4.29629E+00  5.34458E+00  2.60053E+00 -4.74558E+00 -4.15981E+00
  -1.65778E+00  1.64392E+00 -8.98268E+00  9.86072E-01 -5.49853E+00 -1.22847E+01 -1.46077E+01 -2.49872E+00 -7.27641E+00 -3.85425E+00
  -9.50176E+00 -4.33407E+00 -7.28452E+00 -1.13771E+01 -7.39624E+00  1.47217E+00  9.05556E+00  5.23300E+00  3.46691E+00  8.11579E+00
   8.46463E+00  5.01737E+00 -2.17548E+00 -2.26174E-01 -1.11918E+01 -3.04696E+00 -9.61465E+00 -1.02604E+01 -5.94442E+00 -1.23124E+01
  -4.60512E+00 -8.89685E+00 -7.11584E+00 -1.34339E+01 -6.93761E+00 -7.80817E+00 -8.71217E+00 -6.71859E+00 -6.47031E+00 -1.20697E+01
  -9.16070E+00 -4.38773E+00 -7.31142E+00 -5.80424E+00 -1.39212E+01 -1.40287E+01 -4.49010E+00 -6.32992E+00 -1.07706E+01 -7.21528E+00
  -6.66736E+00 -1.33398E+01 -1.06355E+01 -1.27878E+01 -1.44392E+00 -6.32921E+00 -1.18385E+01 -3.32788E+00 -9.91830E+00 -9.34137E+00
  -9.31131E+00 -1.17527E+01 -5.89075E+00 -6.62404E+00 -1.54014E+01 -1.10046E+01 -1.59006E+01 -9.75084E+00 -1.22948E+01 -1.00483E+01
  -1.18280E+01 -1.06597E+01 -6.87616E+00 -1.25794E+01 -1.21638E+01 -8.14939E+00 -9.30308E+00 -1.09210E+01 -1.22428E+01 -1.15557E+01
  -7.95593E+00 -8.65417E+00 -6.12257E+00 -8.75928E+00 -4.74878E-01  1.50569E-01 -2.39151E+00 -1.28262E+01 -1.61499E+01 -6.37762E+00
  -1.42800E+00 -7.92857E+00 -1.31390E+01 -5.12098E+00 -4.15516E+00 -7.66841E+00 -7.92246E+00 -1.05320E+01 -1.59523E+01 -8.44770E+00
  -1.08517E+01 -6.33465E+00 -9.75575E+00 -5.02318E+00 -7.46069E+00 -1.04435E+00 -7.93070E+00 -9.18733E-01 -7.19129E+00 -1.34498E+01
  -8.15850E+00 -3.33828E+00 -1.00877E+01 -1.04203E+01 -4.94878E-01 -5.28191E+00 -7.82617E+00 -8.99955E+00 -8.89547E+00 -9.29929E-01
  -7.11887E+00 -1.01379E+01 -1.06389E+01 -1.85364E+00 -4.37269E+00 -9.47067E+00  1.12371E+00 -8.07604E+00 -1.04651E+01 -9.03424E+00
  -1.20190E+01 -1.28718E+01 -6.13980E+00 -3.49250E+00 -5.79491E+00  1.51008E+00 -8.12476E+00 -4.46580E+00 -5.94910E+00 -5.15010E+00
  -1.03510E+01 -8.32600E+00  4.60941E+00  2.15717E+00 -1.98899E+00 -6.17068E+00  3.73733E+00  1.20119E+01  1.68278E+01  1.14575E+01
   8.24967E+00  1.43508E+01  6.23304E+00  3.92984E+00 -1.54852E+00 -6.70926E+00 -1.12490E+01 -1.01815E+01 -1.58883E+01 -8.71116E+00
  -1.25653E+01 -1.88051E+00 -1.00045E+01 -8.20952E+00 -1.22478E+01 -1.38405E+01 -1.28958E+01 -5.37929E+00 -1.26353E+01 -1.48229E+01
  -1.71164E+01 -1.34361E+01 -9.07094E+00 -1.34602E+01 -1.17166E+01 -1.32653E+01 -9.47740E+00 -1.06532E+01 -1.03733E+01 -1.24670E+01
  -9.24570E+00 -1.36953E+01 -7.39719E+00 -1.35288E+01 -1.62796E+01 -1.15068E+01 -1.54978E+01 -9.00658E+00 -5.91025E+00 -9.55621E+00
  -8.99781E+00 -8.84560E+00 -1.77279E+00 -8.90851E+00 -1.38057E+01 -7.79599E+00 -1.29068E+01 -1.84901E+01 -8.65996E+00 -1.05393E+01
  -1.70046E+01  4.29862E-01 -4.49020E+00 -1.46448E+01 -9.92947E+00 -9.49196E+00 -4.21007E+00 -4.34467E+00 -1.24080E+01 -6.16195E+00
  -7.35447E+00 -1.13800E+01 -1.59030E+01 -1.44894E+01 -1.23648E+01 -2.01019E+01 -1.86013E+01 -1.58020E+01 -1.64361E+01 -2.17310E+01
  -2.08118E+01 -1.29726E+01 -1.03206E+01 -1.79090E+01 -9.28092E+00 -1.10218E+01 -8.35215E+00 -7.45111E+00 -5.53128E+00 -6.32028E+00
  -1.02719E+01 -1.22590E+01 -7.26052E+00 -6.86129E+00  1.25948E+00 -5.00018E+00 -1.09905E+01 -1.14489E+01 -6.91652E+00 -9.57729E+00
  -4.21467E+00 -1.04381E+01 -7.62669E+00 -1.69799E+00 -2.34548E+00 -4.37559E+00 -4.73801E+00 -1.17852E-01  4.21585E+00  9.05740E-01
   2.12378E+00 -2.83541E+00 -2.57680E+00  4.39566E+00  4.20592E+00  3.88629E+00  2.93999E+00  7.36125E+00 -3.75035E+00 -2.88861E+00
  -1.22901E+00 -7.24949E-01 -8.01893E+00 -8.46202E-01  4.43748E+00 -5.95262E+00 -1.69560E+00  3.35061E-01 -6.90463E+00 -1.14961E+00
  -6.09113E+00 -3.94853E+00  1.23535E+00 -1.49738E+00 -2.95287E+00 -6.92480E+00 -7.48473E-01  7.88488E-01  1.39337E+00 -2.47054E+00
   2.12192E-01  5.01151E+00  6.32389E+00  2.29509E+00  9.20835E+00 -2.16378E+00  8.88202E-01  1.27578E+00 -5.12491E+00 -1.00201E+00
  -7.05808E+00  5.99574E+00 -2.14204E+00  6.08348E+00 -2.51029E-01 -5.27219E+00 -5.25104E+00 -2.36858E+00 -9.87934E-01 -6.30910E+00
  -6.60823E+00 -5.92336E+00 -8.01171E+00 -6.16591E+00  1.78821E-02  1.12644E-01 -1.45039E+00 -6.51737E-01 -4.21605E+00 -1.14970E+01
  -5.42316E+00 -1.11514E+00  2.78549E+00 -1.30398E+00 -4.16357E+00 -4.18916E+00 -4.44950E+00 -3.94642E+00 -3.74923E+00 -1.02056E+01
  -9.39519E+00 -7.78259E+00 -8.29941E-01 -4.58593E+00 -7.32868E+00 -5.30298E+00 -4.83972E-01 -9.80749E-01 -4.37560E+00 -1.01392E+00
  -2.25864E-01 -2.71636E+00 -3.70215E+00 -8.01542E+00 -2.57553E+00 -5.36479E+00  3.18481E+00 -5.03830E+00 -6.83126E+00 -5.00273E+00
  -2.99521E+00  2.10619E+00 -1.32096E+00 -3.42410E+00 -1.05347E+01 -5.23341E+00 -5.04195E+00 -6.71063E+00  2.62972E+00 -7.43718E+00
  -7.82429E+00 -5.27596E+00 -1.17330E+01 -4.62283E+00  1.50567E+00 -9.11236E+00  2.80989E+00 -4.33659E+00 -5.77580E+00 -4.32954E+00
   2.51230E-01 -4.96740E+00 -5.92439E+00 -2.15770E+00 -4.11782E+00 -3.36157E+00 -1.29511E+00 -7.72718E+00 -6.37642E+00 -6.15529E-01
  -7.74256E+00 -2.98708E+00 -1.27590E+01 -5.00703E+00 -1.85250E+00 -9.95236E+00 -7.91623E+00  6.37153E-01 -2.62164E+00 -5.35266E+00
  -9.45299E+00 -5.53492E+00  1.96648E-01 -9.47316E+00 -7.91724E-01 -1.13713E+00 -5.20005E+00  2.36720E-01
 NY points of the fit to the data follow
  -4.60213E+00 -4.80244E+00 -4.71268E+00 -4.54724E+00 -5.36805E+00 -7.24921E+00 -9.07194E+00 -8.75933E+00 -5.76108E+00 -2.17378E+00
   1.18735E-01  1.31280E+00  2.33500E+00  2.86652E+00  2.00380E+00 -2.64815E-01 -2.98836E+00 -4.99291E+00 -5.87982E+00 -5.97188E+00
  -5.77830E+00 -5.56235E+00 -5.35309E+00 -5.18553E+00 -5.08823E+00 -5.00645E+00 -4.90205E+00 -4.79853E+00 -4.72076E+00 -4.64515E+00
  -4.56024E+00 -4.49252E+00 -4.43954E+00 -4.26956E+00 -3.98320E+00 -3.85204E+00 -4.01595E+00 -4.29573E+00 -4.56395E+00 -4.85755E+00
  -5.23574E+00 -5.71840E+00 -5.93050E+00 -5.05974E+00 -3.07377E+00 -1.14021E+00 -3.24183E-01 -5.30032E-01 -1.12586E+00 -1.94873E+00
  -3.20765E+00 -4.80762E+00 -6.19697E+00 -6.96191E+00 -7.06194E+00 -6.55406E+00 -5.66138E+00 -4.68013E+00 -3.92099E+00 -3.53867E+00
  -3.52190E+00 -3.79361E+00 -4.25615E+00 -4.82497E+00 -5.35310E+00 -5.69719E+00 -5.86806E+00 -5.77759E+00 -5.37166E+00 -4.85316E+00
  -4.48287E+00 -4.27533E+00 -4.15179E+00 -4.14754E+00 -4.30453E+00 -4.59391E+00 -4.95505E+00 -5.28956E+00 -5.53066E+00 -5.68756E+00
  -5.79925E+00 -5.74238E+00 -5.54980E+00 -5.50757E+00 -5.84580E+00 -6.42821E+00 -6.96195E+00 -7.30254E+00 -7.47996E+00 -7.51752E+00
  -7.36468E+00 -6.97448E+00 -6.36834E+00 -5.74117E+00 -5.28812E+00 -5.11063E+00 -5.24207E+00 -6.00059E+00 -6.63880E+00 -4.07073E+00
   1.41783E+00  6.24022E+00  8.25565E+00  8.61142E+00  8.46897E+00  7.21452E+00  4.20329E+00 -7.84045E-02 -4.18070E+00 -6.84724E+00
  -7.95687E+00 -8.10533E+00 -7.99477E+00 -7.85739E+00 -7.72789E+00 -7.62723E+00 -7.55914E+00 -7.49253E+00 -7.41460E+00 -7.33978E+00
  -7.29096E+00 -7.41772E+00 -8.13216E+00 -7.63694E+00 -3.91856E+00  1.28675E+00  4.83676E+00  6.08405E+00  6.38099E+00  6.08713E+00
   4.47338E+00  1.32123E+00 -2.56038E+00 -5.84238E+00 -7.77658E+00 -8.49609E+00 -8.59281E+00 -8.54301E+00 -8.48424E+00 -8.43623E+00
  -8.38942E+00 -8.32880E+00 -8.26285E+00 -8.21902E+00 -8.20750E+00 -8.21153E+00 -8.21298E+00 -8.21148E+00 -8.20193E+00 -8.22218E+00
  -8.31991E+00 -8.45967E+00 -8.56952E+00 -8.60924E+00 -8.54382E+00 -8.42349E+00 -8.39575E+00 -8.50367E+00 -8.64778E+00 -8.75067E+00
  -8.79167E+00 -8.83016E+00 -8.90410E+00 -8.97317E+00 -8.98238E+00 -9.01758E+00 -9.14874E+00 -9.29595E+00 -9.36548E+00 -9.34526E+00
  -9.30231E+00 -9.36242E+00 -9.52987E+00 -9.65332E+00 -9.64181E+00 -9.57285E+00 -9.58286E+00 -9.68989E+00 -9.83630E+00 -9.89527E+00
  -9.80108E+00 -9.63766E+00 -9.57558E+00 -9.59918E+00 -9.52693E+00 -9.29761E+00 -9.03077E+00 -8.79322E+00 -8.58486E+00 -8.43419E+00
  -8.37525E+00 -8.37806E+00 -8.37278E+00 -8.40755E+00 -8.54976E+00 -8.71357E+00 -8.79109E+00 -8.81279E+00 -8.84830E+00 -8.84069E+00
  -8.75309E+00 -8.63960E+00 -8.55596E+00 -8.51089E+00 -8.54530E+00 -8.68229E+00 -8.86161E+00 -9.01739E+00 -9.20834E+00 -9.45326E+00
  -9.65061E+00 -9.67181E+00 -9.53158E+00 -9.35195E+00 -9.20692E+00 -9.08180E+00 -8.95294E+00 -8.87106E+00 -8.89866E+00 -8.98911E+00
  -9.02486E+00 -8.95600E+00 -8.81164E+00 -8.64953E+00 -8.48618E+00 -8.30930E+00 -8.19336E+00 -8.21642E+00 -8.34599E+00 -8.49593E+00
  -8.57739E+00 -8.52187E+00 -8.33943E+00 -8.13395E+00 -7.95719E+00 -7.78387E+00 -7.60606E+00 -7.53079E+00 -7.65584E+00 -7.88085E+00
  -8.02147E+00 -8.01361E+00 -7.91180E+00 -7.75950E+00 -7.56959E+00 -7.36391E+00 -7.19513E+00 -7.10986E+00 -7.12327E+00 -7.47610E+00
  -8.50088E+00 -8.35244E+00 -5.65989E+00 -2.00648E+00 -2.02304E-01  7.16367E-01  3.80780E+00  8.40111E+00  1.13284E+01  1.13393E+01
   9.87462E+00  8.31418E+00  6.59047E+00  4.20425E+00  1.12343E+00 -1.88770E+00 -4.08868E+00 -5.33903E+00 -5.97575E+00 -6.37409E+00
  -6.65499E+00 -6.83600E+00 -6.95722E+00 -7.08188E+00 -7.23711E+00 -7.40978E+00 -7.59385E+00 -7.80601E+00 -8.03373E+00 -8.22752E+00
  -8.36639E+00 -8.46091E+00 -8.52677E+00 -8.57641E+00 -8.62081E+00 -8.67256E+00 -8.75497E+00 -8.86395E+00 -8.96324E+00 -9.03170E+00
  -9.08075E+00 -9.12284E+00 -9.15192E+00 -9.15951E+00 -9.16594E+00 -9.19894E+00 -9.26037E+00 -9.33223E+00 -9.40129E+00 -9.46508E+00
  -9.52155E+00 -9.56727E+00 -9.59955E+00 -9.62118E+00 -9.63914E+00 -9.65945E+00 -9.68402E+00 -9.71169E+00 -9.74012E+00 -9.76862E+00
  -9.79688E+00 -9.82537E+00 -9.85364E+00 -9.88170E+00 -9.90929E+00 -9.93679E+00 -9.96395E+00 -9.99080E+00 -1.00167E+01 -1.00416E+01
  -1.00652E+01 -1.00877E+01 -1.01086E+01 -1.01278E+01 -1.01444E+01 -1.01582E+01 -1.01682E+01 -1.01739E+01 -1.01741E+01 -1.01677E+01
  -1.01526E+01 -1.01274E+01 -1.00897E+01 -1.00374E+01 -9.96725E+00 -9.87610E+00 -9.75994E+00 -9.61529E+00 -9.43867E+00 -9.23002E+00
  -9.00731E+00 -8.79821E+00 -8.28732E+00 -7.25219E+00 -6.10634E+00 -5.34568E+00 -4.95653E+00 -4.65005E+00 -4.42391E+00 -4.67131E+00
  -5.27910E+00 -5.55715E+00 -5.08998E+00 -4.11535E+00 -2.99848E+00 -1.83279E+00 -6.37271E-01  4.64849E-01  1.28518E+00  1.72036E+00
   1.84875E+00  1.82166E+00  1.75175E+00  1.65836E+00  1.52181E+00  1.33293E+00  1.09200E+00  8.03389E-01  4.74566E-01  1.14046E-01
  -2.68445E-01 -6.63607E-01 -1.06195E+00 -1.45497E+00 -1.83429E+00 -2.19276E+00 -2.52359E+00 -2.82148E+00 -3.08149E+00 -3.30003E+00
  -3.47370E+00 -3.60045E+00 -3.67856E+00 -3.70773E+00 -3.68805E+00 -3.62100E+00 -3.50847E+00 -3.35388E+00 -3.16123E+00 -2.93598E+00
  -2.68399E+00 -2.41225E+00 -2.12782E+00 -1.83861E+00 -1.55214E+00 -1.27621E+00 -1.01758E+00 -7.82683E-01 -5.76549E-01 -4.03598E-01
  -2.66563E-01 -1.67386E-01 -1.06248E-01 -8.26707E-02 -9.47533E-02 -1.40310E-01 -2.16067E-01 -3.18776E-01 -4.44449E-01 -5.89537E-01
  -7.50152E-01 -9.23102E-01 -1.10496E+00 -1.29307E+00 -1.48460E+00 -1.67759E+00 -1.86995E+00 -2.06040E+00 -2.24741E+00 -2.43011E+00
  -2.60741E+00 -2.77889E+00 -2.94388E+00 -3.10226E+00 -3.25354E+00 -3.39779E+00 -3.53470E+00 -3.66459E+00 -3.78734E+00 -3.90334E+00
  -4.01252E+00 -4.11531E+00 -4.21175E+00 -4.30238E+00 -4.38727E+00 -4.46693E+00 -4.54137E+00 -4.61112E+00 -4.67624E+00 -4.73727E+00
  -4.79424E+00 -4.84760E+00 -4.89731E+00 -4.94384E+00 -4.98720E+00 -5.02783E+00 -5.06566E+00 -5.10105E+00 -5.13390E+00 -5.16463E+00
  -5.19316E+00 -5.21984E+00 -5.24454E+00 -5.26755E+00 -5.28875E+00 -5.30849E+00 -5.32666E+00 -5.34353E+00 -5.35893E+00 -5.37312E+00
  -5.38598E+00 -5.39781E+00 -5.40846E+00 -5.41816E+00 -5.42672E+00 -5.43440E+00 -5.44106E+00 -5.44699E+00 -5.45198E+00 -5.45626E+00
  -5.45963E+00 -5.46235E+00 -5.46428E+00 -5.46566E+00 -5.46629E+00 -5.46636E+00 -5.46570E+00 -5.46457E+00 -5.46280E+00 -5.46062E+00
  -5.45782E+00 -5.45459E+00 -5.45078E+00 -5.44664E+00 -5.44198E+00 -5.43703E+00 -5.43155E+00 -5.42577E+00 -5.41955E+00 -5.41312E+00
  -5.40628E+00 -5.39925E+00 -5.39181E+00 -5.38422E+00 -5.37632E+00 -5.36835E+00 -5.36011E+00 -5.35181E+00
 NY background values follow
    -6.078E+00   -6.100E+00   -6.122E+00   -6.143E+00   -6.165E+00   -6.187E+00   -6.209E+00   -6.230E+00   -6.252E+00   -6.274E+00
    -6.295E+00   -6.317E+00   -6.338E+00   -6.360E+00   -6.381E+00   -6.403E+00   -6.424E+00   -6.445E+00   -6.467E+00   -6.488E+00
    -6.509E+00   -6.531E+00   -6.552E+00   -6.573E+00   -6.594E+00   -6.615E+00   -6.636E+00   -6.657E+00   -6.678E+00   -6.699E+00
    -6.720E+00   -6.741E+00   -6.762E+00   -6.783E+00   -6.804E+00   -6.825E+00   -6.845E+00   -6.866E+00   -6.887E+00   -6.907E+00
    -6.928E+00   -6.948E+00   -6.969E+00   -6.989E+00   -7.010E+00   -7.030E+00   -7.051E+00   -7.071E+00   -7.091E+00   -7.111E+00
    -7.131E+00   -7.152E+00   -7.172E+00   -7.192E+00   -7.212E+00   -7.232E+00   -7.252E+00   -7.271E+00   -7.291E+00   -7.311E+00
    -7.331E+00   -7.350E+00   -7.370E+00   -7.390E+00   -7.409E+00   -7.429E+00   -7.448E+00   -7.467E+00   -7.487E+00   -7.506E+00
    -7.525E+00   -7.544E+00   -7.564E+00   -7.583E+00   -7.602E+00   -7.621E+00   -7.640E+00   -7.658E+00   -7.677E+00   -7.696E+00
    -7.715E+00   -7.733E+00   -7.752E+00   -7.771E+00   -7.789E+00   -7.807E+00   -7.826E+00   -7.844E+00   -7.862E+00   -7.881E+00
    -7.899E+00   -7.917E+00   -7.935E+00   -7.953E+00   -7.971E+00   -7.989E+00   -8.007E+00   -8.024E+00   -8.042E+00   -8.060E+00
    -8.077E+00   -8.095E+00   -8.112E+00   -8.129E+00   -8.147E+00   -8.164E+00   -8.181E+00   -8.198E+00   -8.215E+00   -8.232E+00
    -8.249E+00   -8.266E+00   -8.283E+00   -8.300E+00   -8.316E+00   -8.333E+00   -8.349E+00   -8.366E+00   -8.382E+00   -8.398E+00
    -8.415E+00   -8.431E+00   -8.447E+00   -8.463E+00   -8.479E+00   -8.495E+00   -8.511E+00   -8.527E+00   -8.542E+00   -8.558E+00
    -8.573E+00   -8.589E+00   -8.604E+00   -8.620E+00   -8.635E+00   -8.650E+00   -8.665E+00   -8.680E+00   -8.695E+00   -8.710E+00
    -8.725E+00   -8.740E+00   -8.754E+00   -8.769E+00   -8.783E+00   -8.798E+00   -8.812E+00   -8.826E+00   -8.840E+00   -8.855E+00
    -8.869E+00   -8.883E+00   -8.896E+00   -8.910E+00   -8.924E+00   -8.938E+00   -8.951E+00   -8.965E+00   -8.978E+00   -8.991E+00
    -9.004E+00   -9.018E+00   -9.031E+00   -9.044E+00   -9.057E+00   -9.069E+00   -9.082E+00   -9.095E+00   -9.107E+00   -9.120E+00
    -9.132E+00   -9.144E+00   -9.157E+00   -9.169E+00   -9.181E+00   -9.193E+00   -9.205E+00   -9.216E+00   -9.228E+00   -9.240E+00
    -9.251E+00   -9.263E+00   -9.274E+00   -9.285E+00   -9.296E+00   -9.307E+00   -9.318E+00   -9.329E+00   -9.340E+00   -9.351E+00
    -9.361E+00   -9.372E+00   -9.382E+00   -9.393E+00   -9.403E+00   -9.413E+00   -9.423E+00   -9.433E+00   -9.443E+00   -9.453E+00
    -9.462E+00   -9.472E+00   -9.481E+00   -9.491E+00   -9.500E+00   -9.509E+00   -9.518E+00   -9.527E+00   -9.536E+00   -9.545E+00
    -9.554E+00   -9.562E+00   -9.571E+00   -9.579E+00   -9.587E+00   -9.596E+00   -9.604E+00   -9.612E+00   -9.620E+00   -9.628E+00
    -9.635E+00   -9.643E+00   -9.650E+00   -9.658E+00   -9.665E+00   -9.672E+00   -9.679E+00   -9.686E+00   -9.693E+00   -9.700E+00
    -9.707E+00   -9.713E+00   -9.720E+00   -9.726E+00   -9.732E+00   -9.739E+00   -9.745E+00   -9.751E+00   -9.757E+00   -9.762E+00
    -9.768E+00   -9.773E+00   -9.779E+00   -9.784E+00   -9.789E+00   -9.795E+00   -9.800E+00   -9.804E+00   -9.809E+00   -9.814E+00
    -9.818E+00   -9.823E+00   -9.827E+00   -9.832E+00   -9.836E+00   -9.840E+00   -9.844E+00   -9.847E+00   -9.851E+00   -9.855E+00
    -9.858E+00   -9.862E+00   -9.865E+00   -9.868E+00   -9.871E+00   -9.874E+00   -9.877E+00   -9.879E+00   -9.882E+00   -9.884E+00
    -9.887E+00   -9.889E+00   -9.891E+00   -9.893E+00   -9.895E+00   -9.897E+00   -9.898E+00   -9.900E+00   -9.901E+00   -9.903E+00
    -9.904E+00   -9.905E+00   -9.906E+00   -9.907E+00   -9.908E+00   -9.908E+00   -9.909E+00   -9.909E+00   -9.910E+00   -9.910E+00
    -9.910E+00   -9.910E+00   -9.910E+00   -9.909E+00   -9.909E+00   -9.908E+00   -9.908E+00   -9.907E+00   -9.906E+00   -9.905E+00
    -9.904E+00   -9.903E+00   -9.901E+00   -9.900E+00   -9.898E+00   -9.896E+00   -9.895E+00   -9.893E+00   -9.890E+00   -9.888E+00
    -9.886E+00   -9.883E+00   -9.881E+00   -9.878E+00   -9.875E+00   -9.872E+00   -9.869E+00   -9.866E+00   -9.863E+00   -9.859E+00
    -9.856E+00   -9.852E+00   -9.848E+00   -9.845E+00   -9.841E+00   -9.836E+00   -9.832E+00   -9.828E+00   -9.823E+00   -9.819E+00
    -9.814E+00   -9.809E+00   -9.804E+00   -9.799E+00   -9.793E+00   -9.788E+00   -9.782E+00   -9.777E+00   -9.771E+00   -9.765E+00
    -9.759E+00   -9.753E+00   -9.747E+00   -9.740E+00   -9.734E+00   -9.727E+00   -9.720E+00   -9.714E+00   -9.707E+00   -9.699E+00
    -9.692E+00   -9.685E+00   -9.677E+00   -9.670E+00   -9.662E+00   -9.654E+00   -9.646E+00   -9.638E+00   -9.629E+00   -9.621E+00
    -9.612E+00   -9.604E+00   -9.595E+00   -9.586E+00   -9.577E+00   -9.568E+00   -9.559E+00   -9.549E+00   -9.540E+00   -9.530E+00
    -9.520E+00   -9.510E+00   -9.500E+00   -9.490E+00   -9.480E+00   -9.469E+00   -9.458E+00   -9.448E+00   -9.437E+00   -9.426E+00
    -9.415E+00   -9.404E+00   -9.392E+00   -9.381E+00   -9.369E+00   -9.357E+00   -9.346E+00   -9.334E+00   -9.321E+00   -9.309E+00
    -9.297E+00   -9.284E+00   -9.272E+00   -9.259E+00   -9.246E+00   -9.233E+00   -9.220E+00   -9.207E+00   -9.193E+00   -9.180E+00
    -9.166E+00   -9.152E+00   -9.138E+00   -9.124E+00   -9.110E+00   -9.096E+00   -9.081E+00   -9.067E+00   -9.052E+00   -9.037E+00
    -9.022E+00   -9.007E+00   -8.992E+00   -8.976E+00   -8.961E+00   -8.945E+00   -8.930E+00   -8.914E+00   -8.898E+00   -8.882E+00
    -8.865E+00   -8.849E+00   -8.833E+00   -8.816E+00   -8.799E+00   -8.782E+00   -8.765E+00   -8.748E+00   -8.731E+00   -8.713E+00
    -8.696E+00   -8.678E+00   -8.660E+00   -8.642E+00   -8.624E+00   -8.606E+00   -8.588E+00   -8.569E+00   -8.551E+00   -8.532E+00
    -8.513E+00   -8.494E+00   -8.475E+00   -8.456E+00   -8.437E+00   -8.417E+00   -8.397E+00   -8.378E+00   -8.358E+00   -8.338E+00
    -8.318E+00   -8.297E+00   -8.277E+00   -8.257E+00   -8.236E+00   -8.215E+00   -8.194E+00   -8.173E+00   -8.152E+00   -8.131E+00
    -8.109E+00   -8.088E+00   -8.066E+00   -8.044E+00   -8.023E+00   -8.001E+00   -7.978E+00   -7.956E+00   -7.934E+00   -7.911E+00
    -7.888E+00   -7.866E+00   -7.843E+00   -7.820E+00   -7.796E+00   -7.773E+00   -7.750E+00   -7.726E+00   -7.702E+00   -7.679E+00
    -7.655E+00   -7.631E+00   -7.607E+00   -7.582E+00   -7.558E+00   -7.533E+00   -7.509E+00   -7.484E+00   -7.459E+00   -7.434E+00
    -7.409E+00   -7.383E+00   -7.358E+00   -7.332E+00   -7.307E+00   -7.281E+00   -7.255E+00   -7.229E+00
