 LCModel (Version 6.3-1L) Copyright: S.W. Provencher.          Ref.: Magn. Reson. Med. 30:672-679 (1993).                
 Slice#3 Row#10 Col#8  PD_24_press_1_raw_act
 36 lines in following concentration table = NCONC+1
    Conc.  %SD /Cr+PCr  Metabolite                                         
    4.091 999% 2.2E-03 Ala                                                 
   26.014 824% 1.4E-02 Asp                                                 
  715.176  26%   0.392 Cr                                                  
 1.11E+03  17%   0.608 PCr                                                 
    0.000 999%   0.000 GABA                                                
    0.000 999%   0.000 Glc                                                 
  476.495  39%   0.261 Gln                                                 
 1.54E+03  14%   0.840 Glu                                                 
  609.123   3%   0.333 GPC                                                 
    0.000 999%   0.000 PCh                                                 
  528.653  12%   0.289 GSH                                                 
  998.106  22%   0.546 Ins                                                 
  240.059  41%   0.131 Lac                                                 
 1.86E+03   5%   1.018 NAA                                                 
  259.498  37%   0.142 NAAG                                                
   28.848  83% 1.6E-02 Scyllo                                              
    0.000 999%   0.000 Tau                                                 
    0.000 999%   0.000 -CrCH2                                              
  609.123   3%   0.333 GPC+PCh                                             
 2.12E+03   4%   1.160 NAA+NAAG                                            
 1.83E+03   3%   1.000 Cr+PCr                                              
 2.01E+03  14%   1.101 Glu+Gln                                             
  697.858  57%   0.382 Lip13a                                              
    0.000 999%   0.000 Lip13b                                              
  131.806 125% 7.2E-02 Lip09                                               
 1.11E+03  21%   0.607 MM09                                                
  129.148  83% 7.1E-02 Lip20                                               
 2.42E+03  15%   1.327 MM20                                                
  389.640  43%   0.213 MM12                                                
  734.947  40%   0.402 MM14                                                
  285.552  70%   0.156 MM17                                                
  697.858  57%   0.382 Lip13a+Lip13b                                       
 1.82E+03  20%   0.998 MM14+Lip13a+Lip13b+MM12                             
 1.24E+03  15%   0.679 MM09+Lip09                                          
 2.55E+03  14%   1.398 MM20+Lip20                                          
   6 lines in following misc. output table
  FWHM = 0.046 ppm    S/N =  12                                            
  Data shift = 0.015 ppm                                                   
  Ph:   5 deg      -0.7 deg/ppm                                            
  alphaB,S = 8.5E-01,   5.1E+01                                            
   14 spline knots.   Ns = 6(1)                                            
  (10) 4 infls.   ( 7) 1 extrs.                                            
  498 points on ppm-axis = NY
      4.000000     3.992357     3.984714     3.977070     3.969427     3.961784     3.954141     3.946497     3.938854     3.931211
      3.923568     3.915925     3.908281     3.900638     3.892995     3.885352     3.877708     3.870065     3.862422     3.854779
      3.847136     3.839492     3.831849     3.824206     3.816563     3.808919     3.801276     3.793633     3.785990     3.778347
      3.770703     3.763060     3.755417     3.747774     3.740130     3.732487     3.724844     3.717201     3.709558     3.701914
      3.694271     3.686628     3.678985     3.671341     3.663698     3.656055     3.648412     3.640769     3.633125     3.625482
      3.617839     3.610196     3.602552     3.594909     3.587266     3.579623     3.571980     3.564336     3.556693     3.549050
      3.541407     3.533763     3.526120     3.518477     3.510834     3.503191     3.495547     3.487904     3.480261     3.472618
      3.464974     3.457331     3.449688     3.442045     3.434402     3.426758     3.419115     3.411472     3.403829     3.396185
      3.388542     3.380899     3.373256     3.365613     3.357969     3.350326     3.342683     3.335040     3.327396     3.319753
      3.312110     3.304467     3.296824     3.289180     3.281537     3.273894     3.266251     3.258607     3.250964     3.243321
      3.235678     3.228034     3.220391     3.212748     3.205105     3.197462     3.189818     3.182175     3.174532     3.166889
      3.159245     3.151602     3.143959     3.136316     3.128673     3.121029     3.113386     3.105743     3.098100     3.090456
      3.082813     3.075170     3.067527     3.059884     3.052240     3.044597     3.036954     3.029311     3.021667     3.014024
      3.006381     2.998738     2.991095     2.983451     2.975808     2.968165     2.960522     2.952878     2.945235     2.937592
      2.929949     2.922306     2.914662     2.907019     2.899376     2.891733     2.884089     2.876446     2.868803     2.861160
      2.853517     2.845873     2.838230     2.830587     2.822944     2.815300     2.807657     2.800014     2.792371     2.784728
      2.777084     2.769441     2.761798     2.754155     2.746511     2.738868     2.731225     2.723582     2.715939     2.708295
      2.700652     2.693009     2.685366     2.677722     2.670079     2.662436     2.654793     2.647150     2.639506     2.631863
      2.624220     2.616577     2.608933     2.601290     2.593647     2.586004     2.578361     2.570717     2.563074     2.555431
      2.547788     2.540144     2.532501     2.524858     2.517215     2.509572     2.501928     2.494285     2.486642     2.478999
      2.471355     2.463712     2.456069     2.448426     2.440783     2.433139     2.425496     2.417853     2.410210     2.402566
      2.394923     2.387280     2.379637     2.371994     2.364350     2.356707     2.349064     2.341421     2.333777     2.326134
      2.318491     2.310848     2.303205     2.295561     2.287918     2.280275     2.272632     2.264988     2.257345     2.249702
      2.242059     2.234416     2.226772     2.219129     2.211486     2.203843     2.196199     2.188556     2.180913     2.173270
      2.165627     2.157983     2.150340     2.142697     2.135054     2.127410     2.119767     2.112124     2.104481     2.096838
      2.089194     2.081551     2.073908     2.066265     2.058621     2.050978     2.043335     2.035692     2.028049     2.020405
      2.012762     2.005119     1.997476     1.989833     1.982190     1.974546     1.966903     1.959260     1.951617     1.943974
      1.936331     1.928688     1.921045     1.913402     1.905759     1.898115     1.890472     1.882829     1.875186     1.867543
      1.859900     1.852257     1.844614     1.836971     1.829327     1.821684     1.814041     1.806398     1.798755     1.791112
      1.783469     1.775826     1.768183     1.760540     1.752896     1.745253     1.737610     1.729967     1.722324     1.714681
      1.707038     1.699395     1.691752     1.684108     1.676465     1.668822     1.661179     1.653536     1.645893     1.638250
      1.630607     1.622964     1.615321     1.607677     1.600034     1.592391     1.584748     1.577105     1.569462     1.561819
      1.554176     1.546533     1.538890     1.531246     1.523603     1.515960     1.508317     1.500674     1.493031     1.485388
      1.477745     1.470102     1.462458     1.454815     1.447172     1.439529     1.431886     1.424243     1.416600     1.408957
      1.401314     1.393671     1.386027     1.378384     1.370741     1.363098     1.355455     1.347812     1.340169     1.332526
      1.324883     1.317240     1.309596     1.301953     1.294310     1.286667     1.279024     1.271381     1.263738     1.256095
      1.248452     1.240808     1.233165     1.225522     1.217879     1.210236     1.202593     1.194950     1.187307     1.179664
      1.172021     1.164377     1.156734     1.149091     1.141448     1.133805     1.126162     1.118519     1.110876     1.103233
      1.095590     1.087946     1.080303     1.072660     1.065017     1.057374     1.049731     1.042088     1.034445     1.026802
      1.019158     1.011515     1.003872     0.996229     0.988586     0.980943     0.973300     0.965657     0.958014     0.950371
      0.942727     0.935084     0.927441     0.919798     0.912155     0.904512     0.896869     0.889226     0.881583     0.873940
      0.866296     0.858653     0.851010     0.843367     0.835724     0.828081     0.820438     0.812795     0.805152     0.797508
      0.789865     0.782222     0.774579     0.766936     0.759293     0.751650     0.744007     0.736364     0.728721     0.721077
      0.713434     0.705791     0.698148     0.690505     0.682862     0.675219     0.667576     0.659933     0.652290     0.644646
      0.637003     0.629360     0.621717     0.614074     0.606431     0.598788     0.591145     0.583502     0.575858     0.568215
      0.560572     0.552929     0.545286     0.537643     0.530000     0.522357     0.514714     0.507071     0.499427     0.491784
      0.484141     0.476498     0.468855     0.461212     0.453569     0.445925     0.438282     0.430639     0.422996     0.415353
      0.407710     0.400067     0.392424     0.384780     0.377137     0.369494     0.361851     0.354208     0.346565     0.338922
      0.331278     0.323635     0.315992     0.308349     0.300706     0.293063     0.285420     0.277777     0.270133     0.262490
      0.254847     0.247204     0.239561     0.231918     0.224275     0.216631     0.208988     0.201345
 NY phased data points follow
   3.44518E+01  2.72758E+01  3.14896E+01  3.05107E+01  3.51031E+01  4.10758E+01  4.81053E+01  5.38906E+01  6.52540E+01  6.62863E+01
   8.01597E+01  7.40644E+01  7.44477E+01  7.10902E+01  6.56875E+01  5.17692E+01  4.84610E+01  3.58319E+01  3.97235E+01  3.06875E+01
   3.21918E+01  2.62777E+01  3.16414E+01  2.75517E+01  3.06766E+01  3.03611E+01  3.63873E+01  3.20337E+01  3.57899E+01  3.21445E+01
   4.01865E+01  3.74447E+01  3.93109E+01  3.79906E+01  3.69233E+01  2.87868E+01  3.42617E+01  2.85249E+01  2.87403E+01  2.75464E+01
   2.82617E+01  2.49522E+01  2.91841E+01  2.12896E+01  2.86499E+01  3.00583E+01  3.35798E+01  3.01054E+01  3.74767E+01  3.30807E+01
   3.17426E+01  2.95831E+01  2.08202E+01  2.20012E+01  2.52874E+01  2.18796E+01  2.51228E+01  2.19973E+01  2.49499E+01  2.55109E+01
   2.21795E+01  1.82205E+01  1.92973E+01  1.59122E+01  1.12540E+01  7.45381E+00  1.32601E+01  7.19916E+00  7.53088E+00  9.62814E+00
   1.18363E+01  7.12375E+00  1.81443E+01  1.57049E+01  1.53979E+01  1.77797E+01  1.65140E+01  9.55023E+00  1.16717E+01  8.92935E+00
   9.61799E+00  1.11915E+01  7.30687E+00  1.23279E+01  1.76039E+01  1.44558E+01  1.31101E+01  9.03447E+00  9.14592E+00  1.13909E+01
   1.56451E+01  9.42057E+00  1.16633E+01  9.80605E+00  1.02572E+01  1.30195E+01  1.09890E+01  1.06291E+01  1.30350E+01  1.32133E+01
   2.85852E+01  4.78239E+01  6.67529E+01  7.31671E+01  7.82930E+01  6.54865E+01  5.53996E+01  4.17775E+01  2.90510E+01  2.18089E+01
   2.03318E+01  1.79986E+01  1.01484E+01  1.42606E+01  1.00939E+01  9.21355E+00  6.69817E+00  5.20539E+00  7.68134E+00  7.18763E+00
   7.68839E+00  1.16828E+01  1.22987E+01  1.68664E+01  3.19524E+01  4.40580E+01  5.46621E+01  6.38543E+01  7.44395E+01  6.29410E+01
   5.78928E+01  4.36736E+01  3.35194E+01  2.74479E+01  2.44804E+01  1.34474E+01  1.43598E+01  4.09989E+00  7.89644E+00  8.91423E+00
   9.61154E+00  6.36352E+00  7.41955E+00  8.12226E+00  8.90687E+00  7.91221E+00  4.08194E+00  3.83695E+00  6.03683E+00  7.38881E+00
   5.73590E+00  5.32688E+00  1.99698E+00  1.35996E+00  4.90654E+00  1.84406E+00 -1.30926E+00  5.66748E-01  3.21963E+00  4.74720E+00
   1.72006E+00  1.61673E+00 -3.48669E+00 -2.42415E-01  1.36202E+00  2.34561E+00  4.11739E+00  5.61948E+00  5.49833E-01  1.95660E+00
   1.71021E+00 -4.34229E+00 -4.75985E+00 -9.72321E-01 -1.08108E+00 -6.68976E+00 -4.16656E+00 -9.59526E+00 -4.92708E+00 -1.00350E+00
  -4.71308E+00 -8.37347E+00 -1.13772E+01 -5.59017E+00 -7.05961E+00 -1.22592E+01 -4.84266E+00 -4.72038E+00 -3.66988E+00 -9.76881E-01
   3.63965E+00  3.06744E+00  7.01228E+00  9.45591E+00  4.26128E+00  7.23435E+00  7.35505E+00  4.88292E+00  3.65098E+00  7.53590E-01
   1.27922E+00  3.74129E+00  2.80185E+00  1.85282E+00  7.95443E+00  5.21402E+00  1.43974E+00 -1.49131E+00 -1.55145E+00 -1.28374E+00
  -3.66801E+00 -1.58118E+00 -3.63785E-01 -4.66215E+00  1.15902E+01  9.70169E+00  1.71037E+01  1.52999E+01  1.17923E+01  5.57347E+00
   1.05764E+00 -3.30385E+00 -5.00381E+00 -1.77159E+00  1.27382E+00  2.51277E+00  9.30792E+00  6.77667E+00  6.57499E+00  1.24692E+01
   6.69813E+00  5.95185E+00  8.29545E+00  4.11115E+00  7.99219E+00  1.26884E+01  5.91871E+00  1.02617E+01  9.20097E+00  8.35448E+00
   5.82731E+00  1.63571E+00  4.72170E-01  3.53598E+00  6.82521E+00  4.56956E+00  6.05916E+00  9.48666E+00  8.84531E+00  1.21915E+01
   1.07922E+01  1.18851E+01  1.58637E+01  1.20853E+01  1.96007E+01  2.37227E+01  3.25512E+01  3.75096E+01  5.28412E+01  6.87112E+01
   8.07030E+01  8.24919E+01  7.31567E+01  5.89578E+01  3.94166E+01  2.87538E+01  1.92140E+01  1.36773E+01  1.37395E+01  7.50111E+00
   1.78061E+00  9.48346E+00  7.74358E+00  3.91394E+00  4.69016E+00  3.68927E+00  5.52318E+00  1.91952E+00  7.87858E+00  3.21354E+00
   3.35036E+00  2.38449E+00  4.92533E-01  2.56919E+00 -3.63540E+00 -3.03020E+00  2.45548E+00  2.11564E+00  3.00124E-01 -1.20780E+00
   1.34793E+00  3.39901E+00  3.19152E+00  4.19221E-01 -1.57307E+00 -1.11957E+00 -1.52406E+00 -1.49340E+00  5.16171E-01  1.79813E+00
  -5.40471E-01  3.04516E+00 -1.57140E+00 -3.76506E+00  2.61475E+00  3.48488E+00  2.68199E+00  7.29988E+00  3.66822E+00  2.14139E+00
   6.06936E+00 -2.50594E+00  3.46790E+00  3.25078E+00  3.02455E+00  2.29322E+00  5.22802E+00  6.18958E+00  4.47315E+00 -1.84302E+00
   7.18448E+00  3.06792E+00  4.58847E+00  4.47335E+00  4.51067E+00  3.60937E-01  1.08942E+00  1.23560E+00  1.15901E+00  3.08441E+00
   8.54954E-01  9.28064E-01  6.07571E+00  7.48326E+00  7.41645E+00  5.25747E+00  6.48934E+00  3.36857E+00  4.35220E+00  7.23483E+00
   3.03200E+00  7.90555E+00  7.43137E+00  6.66140E+00  7.44553E+00  9.33236E+00  7.66947E+00  8.19166E+00  8.31814E+00  5.65480E-01
   4.89768E+00  3.67113E+00  1.80577E+00  4.49401E+00  3.78722E+00  5.73463E+00  4.73017E+00  2.64496E+00  8.61020E+00  1.30624E+01
   9.25374E+00  3.17726E+00  7.23389E+00  6.50438E+00  5.94041E+00 -1.57677E+00  6.31419E+00  2.13810E+00  3.00784E+00  5.54208E+00
   8.73459E+00  4.03692E+00  5.67459E+00  4.92698E+00  5.38539E+00  8.67769E+00  6.01801E+00  5.73097E+00  9.81007E+00  7.27634E+00
   5.55981E+00  3.70611E+00  5.78937E+00  5.32799E+00  4.76933E+00  3.91375E+00  5.78338E+00  5.73779E+00  6.30471E+00  4.69348E+00
   2.54529E+00  3.90315E+00  5.15507E+00  2.73231E+00  1.37121E+00  8.87950E+00  7.39642E+00  4.86351E+00  7.26940E+00  5.21163E+00
   6.97478E+00  6.18935E+00  8.75693E+00  6.48593E+00  9.47677E+00  7.05572E+00  1.37317E+01  1.49848E+01  1.23301E+01  8.00260E+00
   1.45628E+01  1.29981E+01  7.73149E+00  6.68191E+00  4.24624E+00  6.07462E+00  8.95214E+00  4.08555E+00  4.39474E+00  8.93369E+00
   5.23769E+00  5.33377E+00  4.12549E+00  5.63054E+00  4.26988E+00  6.83219E+00  3.13013E+00  4.40859E+00  5.70861E+00  5.49155E+00
   2.49569E+00  3.59957E+00  8.11064E+00  5.65047E+00 -1.01255E+00  2.25260E+00  2.77586E+00  2.00919E+00  8.03923E+00  5.18890E+00
   4.69788E+00  3.75163E+00  3.60901E+00  2.96381E+00  1.87868E+00  8.67535E+00  1.86886E+00  1.70647E+00 -1.67665E+00  6.06930E+00
   2.63391E+00  1.98631E+00  3.60393E+00  3.81919E+00  1.61882E+00  3.58908E+00 -2.03774E+00  3.06579E+00  5.20149E+00  1.14043E+00
   1.57234E+00 -2.68719E-01  2.83377E+00  4.69982E+00  6.64341E-01  6.93982E+00  5.00274E-01  8.55451E+00  4.65720E+00  5.88998E+00
   6.07254E+00 -8.94308E-02  5.67883E+00  2.48237E+00 -1.58845E+00  7.42469E-01  8.85409E-01  4.95001E+00  2.41128E+00  1.46782E+00
   5.37341E+00  1.04538E+00  2.79711E+00  4.77268E+00  2.37630E-01  7.29820E-01  1.87255E+00  4.97428E-01 -2.00201E+00  3.67678E+00
   1.80003E+00  6.93149E-01  9.61500E-01  5.24614E-01 -2.49254E-01  1.28773E+00  1.43013E+00 -3.51191E+00
 NY points of the fit to the data follow
   3.22712E+01  3.18289E+01  3.18352E+01  3.22853E+01  3.36913E+01  3.65171E+01  4.15355E+01  4.89446E+01  5.79039E+01  6.65519E+01
   7.24944E+01  7.37367E+01  7.03763E+01  6.36764E+01  5.59581E+01  4.91514E+01  4.34628E+01  3.86316E+01  3.54367E+01  3.29100E+01
   3.14275E+01  3.05587E+01  2.97835E+01  2.89920E+01  2.82721E+01  2.78289E+01  2.81571E+01  2.97959E+01  3.26666E+01  3.61256E+01
   3.92079E+01  4.08559E+01  4.05494E+01  3.84875E+01  3.53319E+01  3.22135E+01  2.93829E+01  2.66630E+01  2.49805E+01  2.44536E+01
   2.45301E+01  2.49197E+01  2.54791E+01  2.64579E+01  2.77920E+01  2.93838E+01  3.09352E+01  3.17346E+01  3.14957E+01  3.02122E+01
   2.80518E+01  2.56803E+01  2.38373E+01  2.24748E+01  2.12766E+01  2.04669E+01  2.03049E+01  2.05555E+01  2.09279E+01  2.12869E+01
   2.13728E+01  2.10168E+01  2.01881E+01  1.90481E+01  1.79578E+01  1.71851E+01  1.67416E+01  1.65852E+01  1.66916E+01  1.69238E+01
   1.72095E+01  1.73944E+01  1.74001E+01  1.71858E+01  1.67737E+01  1.62656E+01  1.57650E+01  1.53514E+01  1.50204E+01  1.46819E+01
   1.44193E+01  1.42353E+01  1.41185E+01  1.40376E+01  1.38748E+01  1.34814E+01  1.27980E+01  1.18964E+01  1.10071E+01  1.03875E+01
   1.01862E+01  1.03836E+01  1.07886E+01  1.11568E+01  1.14826E+01  1.17243E+01  1.19026E+01  1.27137E+01  1.52748E+01  2.10404E+01
   3.20671E+01  4.76082E+01  6.34204E+01  7.44180E+01  7.66272E+01  6.92674E+01  5.63890E+01  4.25458E+01  3.16118E+01  2.45633E+01
   1.79311E+01  1.18672E+01  1.00337E+01  9.51891E+00  9.27629E+00  9.13110E+00  9.03306E+00  8.96183E+00  8.93194E+00  9.00220E+00
   9.33106E+00  1.05010E+01  1.34814E+01  1.93023E+01  2.96790E+01  4.43560E+01  5.98453E+01  7.14627E+01  7.54020E+01  7.02066E+01
   5.90879E+01  4.62542E+01  3.51949E+01  2.72226E+01  1.98265E+01  1.20953E+01  8.05151E+00  6.34187E+00  5.86727E+00  6.29374E+00
   7.08773E+00  7.76331E+00  8.23802E+00  8.32528E+00  8.01299E+00  7.52199E+00  6.96776E+00  6.40556E+00  5.90497E+00  5.37618E+00
   4.92289E+00  4.50124E+00  4.10150E+00  3.76909E+00  3.55294E+00  3.44332E+00  3.37641E+00  3.23453E+00  2.88676E+00  2.34413E+00
   1.76410E+00  1.39795E+00  1.41617E+00  1.68077E+00  1.91592E+00  1.89244E+00  1.46790E+00  8.16193E-01  2.61561E-01 -1.68265E-01
  -5.00895E-01 -8.10634E-01 -1.27041E+00 -1.80262E+00 -2.31734E+00 -2.72181E+00 -2.85214E+00 -2.70689E+00 -2.48518E+00 -2.41610E+00
  -2.52050E+00 -2.72935E+00 -2.87260E+00 -2.84729E+00 -2.78535E+00 -2.74769E+00 -2.36174E+00 -1.39424E+00  2.33079E-01  2.13220E+00
   3.70211E+00  4.56164E+00  4.58060E+00  3.89704E+00  2.81512E+00  1.54751E+00  4.07810E-01 -1.67574E-01 -4.63522E-02  7.88809E-01
   2.20375E+00  3.89665E+00  5.41870E+00  6.41927E+00  6.61477E+00  6.01060E+00  4.40172E+00  2.01316E+00 -4.93826E-01 -2.44125E+00
  -3.39465E+00 -3.05954E+00 -1.29507E+00  1.69148E+00  5.27105E+00  8.34879E+00  9.90747E+00  9.53301E+00  6.91635E+00  2.85665E+00
  -1.43394E+00 -4.91379E+00 -6.73945E+00 -6.71567E+00 -4.74811E+00 -1.32423E+00  2.10253E+00  4.66476E+00  6.01049E+00  6.43262E+00
   6.34883E+00  5.84681E+00  5.30744E+00  5.39087E+00  6.12932E+00  7.24677E+00  8.31466E+00  8.87893E+00  8.76682E+00  7.91618E+00
   6.40574E+00  4.79751E+00  3.84089E+00  3.90509E+00  4.79567E+00  6.20505E+00  7.79124E+00  9.03472E+00  9.65432E+00  9.81527E+00
   1.00749E+01  1.06959E+01  1.20673E+01  1.44769E+01  1.82309E+01  2.33432E+01  3.04095E+01  4.11712E+01  5.53972E+01  6.95935E+01
   7.92287E+01  8.05723E+01  7.24145E+01  5.82944E+01  4.33448E+01  3.15425E+01  2.36545E+01  1.61631E+01  9.26347E+00  6.67300E+00
   5.60086E+00  4.93168E+00  4.53570E+00  4.39767E+00  4.28949E+00  4.14528E+00  3.92773E+00  3.62668E+00  3.27546E+00  2.94364E+00
   2.64977E+00  2.38359E+00  2.16798E+00  2.01771E+00  1.90871E+00  1.80120E+00  1.68147E+00  1.56186E+00  1.46556E+00  1.38942E+00
   1.33866E+00  1.32326E+00  1.34352E+00  1.37970E+00  1.42022E+00  1.45838E+00  1.49343E+00  1.53046E+00  1.57466E+00  1.62537E+00
   1.69112E+00  1.77180E+00  1.86156E+00  1.95312E+00  2.03902E+00  2.11667E+00  2.18719E+00  2.24594E+00  2.29428E+00  2.33501E+00
   2.36827E+00  2.39500E+00  2.41760E+00  2.43815E+00  2.45908E+00  2.48265E+00  2.51109E+00  2.54676E+00  2.59207E+00  2.64918E+00
   2.71993E+00  2.80580E+00  2.90706E+00  3.02377E+00  3.15427E+00  3.29336E+00  3.43491E+00  3.57521E+00  3.71349E+00  3.85385E+00
   4.00137E+00  4.15887E+00  4.32840E+00  4.50786E+00  4.69217E+00  4.88090E+00  5.06871E+00  5.24958E+00  5.42813E+00  5.61635E+00
   5.83851E+00  6.13947E+00  6.54166E+00  7.05666E+00  7.65211E+00  8.09545E+00  8.08116E+00  7.44794E+00  6.22846E+00  4.72734E+00
   3.38963E+00  2.55604E+00  2.49765E+00  3.17940E+00  4.25306E+00  5.57187E+00  6.85828E+00  7.59743E+00  7.78183E+00  7.59084E+00
   7.29528E+00  7.04853E+00  6.66740E+00  6.22953E+00  5.92997E+00  5.69935E+00  5.49818E+00  5.31206E+00  5.13503E+00  4.96475E+00
   4.80065E+00  4.64315E+00  4.49328E+00  4.35251E+00  4.22264E+00  4.10553E+00  4.00295E+00  3.91662E+00  3.84825E+00  3.79967E+00
   3.77267E+00  3.76891E+00  3.78990E+00  3.83706E+00  3.91185E+00  4.01573E+00  4.14996E+00  4.31550E+00  4.51287E+00  4.74225E+00
   5.00338E+00  5.29542E+00  5.61665E+00  5.96432E+00  6.33464E+00  6.72289E+00  7.12336E+00  7.52938E+00  7.93323E+00  8.32644E+00
   8.70010E+00  9.04528E+00  9.35334E+00  9.61616E+00  9.82647E+00  9.97822E+00  1.00670E+01  1.00905E+01  1.00480E+01  9.94096E+00
   9.77239E+00  9.54712E+00  9.27147E+00  8.95298E+00  8.59991E+00  8.22076E+00  7.82400E+00  7.41785E+00  7.01003E+00  6.60748E+00
   6.21608E+00  5.84053E+00  5.48445E+00  5.15052E+00  4.84052E+00  4.55536E+00  4.29508E+00  4.05905E+00  3.84625E+00  3.65542E+00
   3.48514E+00  3.33378E+00  3.19957E+00  3.08073E+00  2.97567E+00  2.88294E+00  2.80123E+00  2.72927E+00  2.66579E+00  2.60974E+00
   2.56025E+00  2.51663E+00  2.47823E+00  2.44439E+00  2.41449E+00  2.38803E+00  2.36470E+00  2.34423E+00  2.32632E+00  2.31060E+00
   2.29675E+00  2.28462E+00  2.27410E+00  2.26509E+00  2.25742E+00  2.25086E+00  2.24527E+00  2.24063E+00  2.23693E+00  2.23411E+00
   2.23201E+00  2.23049E+00  2.22952E+00  2.22913E+00  2.22936E+00  2.23010E+00  2.23124E+00  2.23270E+00  2.23451E+00  2.23672E+00
   2.23933E+00  2.24225E+00  2.24539E+00  2.24872E+00  2.25231E+00  2.25622E+00  2.26041E+00  2.26477E+00  2.26925E+00  2.27386E+00
   2.27870E+00  2.28380E+00  2.28907E+00  2.29443E+00  2.29986E+00  2.30544E+00  2.31123E+00  2.31722E+00  2.32333E+00  2.32949E+00
   2.33572E+00  2.34212E+00  2.34873E+00  2.35551E+00  2.36235E+00  2.36925E+00  2.37627E+00  2.38350E+00
 NY background values follow
     2.902E+01    2.881E+01    2.859E+01    2.837E+01    2.815E+01    2.793E+01    2.771E+01    2.749E+01    2.727E+01    2.705E+01
     2.683E+01    2.661E+01    2.639E+01    2.617E+01    2.595E+01    2.573E+01    2.551E+01    2.529E+01    2.507E+01    2.485E+01
     2.463E+01    2.441E+01    2.419E+01    2.397E+01    2.376E+01    2.354E+01    2.332E+01    2.310E+01    2.288E+01    2.267E+01
     2.245E+01    2.223E+01    2.202E+01    2.180E+01    2.159E+01    2.137E+01    2.116E+01    2.094E+01    2.073E+01    2.052E+01
     2.030E+01    2.009E+01    1.988E+01    1.967E+01    1.946E+01    1.925E+01    1.904E+01    1.883E+01    1.862E+01    1.841E+01
     1.821E+01    1.800E+01    1.779E+01    1.759E+01    1.738E+01    1.718E+01    1.698E+01    1.677E+01    1.657E+01    1.637E+01
     1.617E+01    1.597E+01    1.577E+01    1.558E+01    1.538E+01    1.518E+01    1.499E+01    1.479E+01    1.460E+01    1.441E+01
     1.422E+01    1.403E+01    1.384E+01    1.365E+01    1.346E+01    1.328E+01    1.309E+01    1.291E+01    1.273E+01    1.255E+01
     1.237E+01    1.219E+01    1.201E+01    1.183E+01    1.166E+01    1.148E+01    1.131E+01    1.114E+01    1.097E+01    1.080E+01
     1.063E+01    1.046E+01    1.030E+01    1.013E+01    9.972E+00    9.811E+00    9.651E+00    9.492E+00    9.335E+00    9.180E+00
     9.025E+00    8.873E+00    8.721E+00    8.571E+00    8.422E+00    8.274E+00    8.128E+00    7.983E+00    7.839E+00    7.697E+00
     7.556E+00    7.416E+00    7.278E+00    7.141E+00    7.005E+00    6.871E+00    6.738E+00    6.606E+00    6.476E+00    6.347E+00
     6.219E+00    6.093E+00    5.967E+00    5.844E+00    5.721E+00    5.600E+00    5.480E+00    5.361E+00    5.244E+00    5.128E+00
     5.014E+00    4.900E+00    4.788E+00    4.677E+00    4.568E+00    4.460E+00    4.353E+00    4.247E+00    4.143E+00    4.040E+00
     3.938E+00    3.838E+00    3.739E+00    3.641E+00    3.544E+00    3.448E+00    3.354E+00    3.261E+00    3.169E+00    3.079E+00
     2.990E+00    2.902E+00    2.815E+00    2.729E+00    2.645E+00    2.561E+00    2.479E+00    2.399E+00    2.319E+00    2.240E+00
     2.163E+00    2.087E+00    2.012E+00    1.938E+00    1.865E+00    1.794E+00    1.723E+00    1.654E+00    1.586E+00    1.519E+00
     1.453E+00    1.388E+00    1.324E+00    1.262E+00    1.200E+00    1.140E+00    1.080E+00    1.022E+00    9.649E-01    9.088E-01
     8.537E-01    7.997E-01    7.468E-01    6.949E-01    6.440E-01    5.942E-01    5.453E-01    4.974E-01    4.505E-01    4.045E-01
     3.594E-01    3.153E-01    2.721E-01    2.297E-01    1.883E-01    1.476E-01    1.079E-01    6.893E-02    3.080E-02   -6.535E-03
    -4.309E-02   -7.887E-02   -1.139E-01   -1.482E-01   -1.818E-01   -2.146E-01   -2.468E-01   -2.783E-01   -3.091E-01   -3.393E-01
    -3.688E-01   -3.978E-01   -4.261E-01   -4.538E-01   -4.810E-01   -5.076E-01   -5.337E-01   -5.592E-01   -5.842E-01   -6.088E-01
    -6.328E-01   -6.564E-01   -6.795E-01   -7.022E-01   -7.244E-01   -7.463E-01   -7.677E-01   -7.888E-01   -8.095E-01   -8.298E-01
    -8.497E-01   -8.693E-01   -8.884E-01   -9.072E-01   -9.256E-01   -9.436E-01   -9.612E-01   -9.784E-01   -9.953E-01   -1.012E+00
    -1.028E+00   -1.043E+00   -1.059E+00   -1.074E+00   -1.088E+00   -1.102E+00   -1.116E+00   -1.129E+00   -1.142E+00   -1.154E+00
    -1.167E+00   -1.178E+00   -1.189E+00   -1.200E+00   -1.211E+00   -1.221E+00   -1.231E+00   -1.240E+00   -1.249E+00   -1.257E+00
    -1.265E+00   -1.273E+00   -1.280E+00   -1.287E+00   -1.293E+00   -1.299E+00   -1.305E+00   -1.310E+00   -1.314E+00   -1.319E+00
    -1.323E+00   -1.326E+00   -1.329E+00   -1.332E+00   -1.334E+00   -1.336E+00   -1.337E+00   -1.338E+00   -1.339E+00   -1.339E+00
    -1.339E+00   -1.338E+00   -1.337E+00   -1.336E+00   -1.334E+00   -1.332E+00   -1.329E+00   -1.326E+00   -1.323E+00   -1.319E+00
    -1.315E+00   -1.311E+00   -1.306E+00   -1.301E+00   -1.295E+00   -1.290E+00   -1.284E+00   -1.277E+00   -1.270E+00   -1.263E+00
    -1.256E+00   -1.248E+00   -1.240E+00   -1.231E+00   -1.222E+00   -1.213E+00   -1.204E+00   -1.194E+00   -1.184E+00   -1.173E+00
    -1.163E+00   -1.152E+00   -1.140E+00   -1.129E+00   -1.117E+00   -1.105E+00   -1.092E+00   -1.080E+00   -1.067E+00   -1.053E+00
    -1.040E+00   -1.026E+00   -1.012E+00   -9.978E-01   -9.832E-01   -9.684E-01   -9.534E-01   -9.381E-01   -9.226E-01   -9.069E-01
    -8.909E-01   -8.748E-01   -8.584E-01   -8.419E-01   -8.251E-01   -8.081E-01   -7.910E-01   -7.736E-01   -7.561E-01   -7.384E-01
    -7.206E-01   -7.025E-01   -6.844E-01   -6.660E-01   -6.475E-01   -6.289E-01   -6.101E-01   -5.912E-01   -5.722E-01   -5.530E-01
    -5.337E-01   -5.143E-01   -4.948E-01   -4.752E-01   -4.555E-01   -4.357E-01   -4.158E-01   -3.958E-01   -3.757E-01   -3.555E-01
    -3.353E-01   -3.150E-01   -2.947E-01   -2.743E-01   -2.538E-01   -2.333E-01   -2.127E-01   -1.921E-01   -1.714E-01   -1.507E-01
    -1.300E-01   -1.092E-01   -8.835E-02   -6.749E-02   -4.660E-02   -2.567E-02   -4.721E-03    1.625E-02    3.725E-02    5.827E-02
     7.931E-02    1.004E-01    1.214E-01    1.425E-01    1.636E-01    1.847E-01    2.058E-01    2.269E-01    2.480E-01    2.690E-01
     2.901E-01    3.112E-01    3.323E-01    3.533E-01    3.744E-01    3.954E-01    4.164E-01    4.373E-01    4.583E-01    4.792E-01
     5.001E-01    5.210E-01    5.418E-01    5.626E-01    5.833E-01    6.040E-01    6.247E-01    6.453E-01    6.659E-01    6.864E-01
     7.069E-01    7.273E-01    7.476E-01    7.679E-01    7.881E-01    8.083E-01    8.283E-01    8.483E-01    8.683E-01    8.881E-01
     9.078E-01    9.275E-01    9.471E-01    9.666E-01    9.860E-01    1.005E+00    1.024E+00    1.044E+00    1.063E+00    1.081E+00
     1.100E+00    1.119E+00    1.137E+00    1.156E+00    1.174E+00    1.192E+00    1.210E+00    1.228E+00    1.246E+00    1.263E+00
     1.281E+00    1.298E+00    1.315E+00    1.332E+00    1.349E+00    1.366E+00    1.383E+00    1.399E+00    1.415E+00    1.431E+00
     1.447E+00    1.463E+00    1.478E+00    1.494E+00    1.509E+00    1.524E+00    1.539E+00    1.554E+00    1.568E+00    1.583E+00
     1.597E+00    1.611E+00    1.625E+00    1.639E+00    1.652E+00    1.666E+00    1.679E+00    1.693E+00    1.706E+00    1.719E+00
     1.732E+00    1.745E+00    1.757E+00    1.770E+00    1.783E+00    1.795E+00    1.807E+00    1.820E+00    1.832E+00    1.844E+00
     1.856E+00    1.868E+00    1.880E+00    1.892E+00    1.904E+00    1.916E+00    1.927E+00    1.939E+00    1.951E+00    1.962E+00
     1.974E+00    1.986E+00    1.997E+00    2.009E+00    2.020E+00    2.032E+00    2.043E+00    2.055E+00
 Ala      Conc. = 4.09E+00
