 LCModel (Version 6.3-1L) Copyright: S.W. Provencher.          Ref.: Magn. Reson. Med. 30:672-679 (1993).                
 Slice#1 Row#9 Col#14  PD_24_press_1_raw_act
 36 lines in following concentration table = NCONC+1
    Conc.  %SD /Cr+PCr  Metabolite                                         
    0.000 999%   0.000 Ala                                                 
    6.421  97%   0.162 Asp                                                 
    0.000 999%   0.000 Cr                                                  
   39.698  35%   1.000 PCr                                                 
    3.957  94%   0.100 GABA                                                
    4.509  83%   0.114 Glc                                                 
    0.000 999%   0.000 Gln                                                 
   45.892 101%   1.156 Glu                                                 
   12.425  42%   0.313 GPC                                                 
    0.000 999%   0.000 PCh                                                 
   17.136  96%   0.432 GSH                                                 
   55.031  98%   1.386 Ins                                                 
   23.555 102%   0.593 Lac                                                 
   63.651  28%   1.603 NAA                                                 
    0.000 999%   0.000 NAAG                                                
    1.327  94% 3.3E-02 Scyllo                                              
    6.938  90%   0.175 Tau                                                 
    0.000 999%   0.000 -CrCH2                                              
   12.425  42%   0.313 GPC+PCh                                             
   63.651  28%   1.603 NAA+NAAG                                            
   39.698  35%   1.000 Cr+PCr                                              
   45.892 101%   1.156 Glu+Gln                                             
 4.99E+03  24% 125.766 Lip13a                                              
    0.000 999%   0.000 Lip13b                                              
 2.98E+03  16%  75.056 Lip09                                               
 2.64E+03  16%  66.589 MM09                                                
  869.595  32%  21.905 Lip20                                               
    2.441 999% 6.1E-02 MM20                                                
 2.10E+03  25%  52.775 MM12                                                
 2.17E+03  24%  54.577 MM14                                                
 2.04E+03  20%  51.297 MM17                                                
 4.99E+03  24% 125.766 Lip13a+Lip13b                                       
 9.25E+03  11% 233.119 MM14+Lip13a+Lip13b+MM12                             
 5.62E+03   9% 141.645 MM09+Lip09                                          
  872.036  27%  21.967 MM20+Lip20                                          
   6 lines in following misc. output table
  FWHM = 0.046 ppm    S/N =  11                                            
  Data shift = 0.015 ppm                                                   
  Ph:-105 deg     -18.2 deg/ppm                                            
  alphaB,S = 8.6E-01,   1.2E+01                                            
   14 spline knots.   Ns = 5(1)                                            
  ( 6) 2 infls.   ( 4) 2 extrs.                                            
  498 points on ppm-axis = NY
      4.000000     3.992357     3.984714     3.977070     3.969427     3.961784     3.954141     3.946497     3.938854     3.931211
      3.923568     3.915925     3.908281     3.900638     3.892995     3.885352     3.877708     3.870065     3.862422     3.854779
      3.847136     3.839492     3.831849     3.824206     3.816563     3.808919     3.801276     3.793633     3.785990     3.778347
      3.770703     3.763060     3.755417     3.747774     3.740130     3.732487     3.724844     3.717201     3.709558     3.701914
      3.694271     3.686628     3.678985     3.671341     3.663698     3.656055     3.648412     3.640769     3.633125     3.625482
      3.617839     3.610196     3.602552     3.594909     3.587266     3.579623     3.571980     3.564336     3.556693     3.549050
      3.541407     3.533763     3.526120     3.518477     3.510834     3.503191     3.495547     3.487904     3.480261     3.472618
      3.464974     3.457331     3.449688     3.442045     3.434402     3.426758     3.419115     3.411472     3.403829     3.396185
      3.388542     3.380899     3.373256     3.365613     3.357969     3.350326     3.342683     3.335040     3.327396     3.319753
      3.312110     3.304467     3.296824     3.289180     3.281537     3.273894     3.266251     3.258607     3.250964     3.243321
      3.235678     3.228034     3.220391     3.212748     3.205105     3.197462     3.189818     3.182175     3.174532     3.166889
      3.159245     3.151602     3.143959     3.136316     3.128673     3.121029     3.113386     3.105743     3.098100     3.090456
      3.082813     3.075170     3.067527     3.059884     3.052240     3.044597     3.036954     3.029311     3.021667     3.014024
      3.006381     2.998738     2.991095     2.983451     2.975808     2.968165     2.960522     2.952878     2.945235     2.937592
      2.929949     2.922306     2.914662     2.907019     2.899376     2.891733     2.884089     2.876446     2.868803     2.861160
      2.853517     2.845873     2.838230     2.830587     2.822944     2.815300     2.807657     2.800014     2.792371     2.784728
      2.777084     2.769441     2.761798     2.754155     2.746511     2.738868     2.731225     2.723582     2.715939     2.708295
      2.700652     2.693009     2.685366     2.677722     2.670079     2.662436     2.654793     2.647150     2.639506     2.631863
      2.624220     2.616577     2.608933     2.601290     2.593647     2.586004     2.578361     2.570717     2.563074     2.555431
      2.547788     2.540144     2.532501     2.524858     2.517215     2.509572     2.501928     2.494285     2.486642     2.478999
      2.471355     2.463712     2.456069     2.448426     2.440783     2.433139     2.425496     2.417853     2.410210     2.402566
      2.394923     2.387280     2.379637     2.371994     2.364350     2.356707     2.349064     2.341421     2.333777     2.326134
      2.318491     2.310848     2.303205     2.295561     2.287918     2.280275     2.272632     2.264988     2.257345     2.249702
      2.242059     2.234416     2.226772     2.219129     2.211486     2.203843     2.196199     2.188556     2.180913     2.173270
      2.165627     2.157983     2.150340     2.142697     2.135054     2.127410     2.119767     2.112124     2.104481     2.096838
      2.089194     2.081551     2.073908     2.066265     2.058621     2.050978     2.043335     2.035692     2.028049     2.020405
      2.012762     2.005119     1.997476     1.989833     1.982190     1.974546     1.966903     1.959260     1.951617     1.943974
      1.936331     1.928688     1.921045     1.913402     1.905759     1.898115     1.890472     1.882829     1.875186     1.867543
      1.859900     1.852257     1.844614     1.836971     1.829327     1.821684     1.814041     1.806398     1.798755     1.791112
      1.783469     1.775826     1.768183     1.760540     1.752896     1.745253     1.737610     1.729967     1.722324     1.714681
      1.707038     1.699395     1.691752     1.684108     1.676465     1.668822     1.661179     1.653536     1.645893     1.638250
      1.630607     1.622964     1.615321     1.607677     1.600034     1.592391     1.584748     1.577105     1.569462     1.561819
      1.554176     1.546533     1.538890     1.531246     1.523603     1.515960     1.508317     1.500674     1.493031     1.485388
      1.477745     1.470102     1.462458     1.454815     1.447172     1.439529     1.431886     1.424243     1.416600     1.408957
      1.401314     1.393671     1.386027     1.378384     1.370741     1.363098     1.355455     1.347812     1.340169     1.332526
      1.324883     1.317240     1.309596     1.301953     1.294310     1.286667     1.279024     1.271381     1.263738     1.256095
      1.248452     1.240808     1.233165     1.225522     1.217879     1.210236     1.202593     1.194950     1.187307     1.179664
      1.172021     1.164377     1.156734     1.149091     1.141448     1.133805     1.126162     1.118519     1.110876     1.103233
      1.095590     1.087946     1.080303     1.072660     1.065017     1.057374     1.049731     1.042088     1.034445     1.026802
      1.019158     1.011515     1.003872     0.996229     0.988586     0.980943     0.973300     0.965657     0.958014     0.950371
      0.942727     0.935084     0.927441     0.919798     0.912155     0.904512     0.896869     0.889226     0.881583     0.873940
      0.866296     0.858653     0.851010     0.843367     0.835724     0.828081     0.820438     0.812795     0.805152     0.797508
      0.789865     0.782222     0.774579     0.766936     0.759293     0.751650     0.744007     0.736364     0.728721     0.721077
      0.713434     0.705791     0.698148     0.690505     0.682862     0.675219     0.667576     0.659933     0.652290     0.644646
      0.637003     0.629360     0.621717     0.614074     0.606431     0.598788     0.591145     0.583502     0.575858     0.568215
      0.560572     0.552929     0.545286     0.537643     0.530000     0.522357     0.514714     0.507071     0.499427     0.491784
      0.484141     0.476498     0.468855     0.461212     0.453569     0.445925     0.438282     0.430639     0.422996     0.415353
      0.407710     0.400067     0.392424     0.384780     0.377137     0.369494     0.361851     0.354208     0.346565     0.338922
      0.331278     0.323635     0.315992     0.308349     0.300706     0.293063     0.285420     0.277777     0.270133     0.262490
      0.254847     0.247204     0.239561     0.231918     0.224275     0.216631     0.208988     0.201345
 NY phased data points follow
   7.32350E-01  2.56728E+00  2.38423E+00  9.57817E-01  1.26444E+00  2.19691E+00  2.45007E+00  3.32267E+00  4.70208E+00  4.65208E+00
   5.33509E+00  4.51635E+00  2.70883E+00  3.99976E+00  3.78915E+00  3.89192E+00  1.02427E+00  3.56289E+00  2.30431E+00  1.06206E+00
   1.66702E+00  3.01621E+00  2.71760E+00  1.56593E+00  4.10618E+00  4.47541E+00  4.13479E+00  3.98976E+00  2.01357E+00  2.96684E+00
   3.92402E+00  2.74209E+00  4.41648E+00  2.97792E+00  3.95793E+00  3.41852E+00  1.33184E+00  3.09809E+00  3.81988E+00  1.88486E+00
   1.79517E+00  3.28568E+00  2.58677E+00  2.24203E+00  2.76069E+00  3.43754E+00  3.16335E+00  2.91097E+00  4.09773E+00  2.06631E+00
   3.33496E+00  2.90151E+00  3.91646E+00  1.73927E+00  3.21836E+00  3.73151E+00  2.61972E+00  2.27423E+00  2.32293E+00  3.17098E+00
   3.12236E+00  1.76108E+00  2.40751E+00  2.31002E+00  3.26777E+00  3.38424E+00  3.19064E+00  2.27691E+00  1.31790E+00  3.36900E+00
   1.00650E+00  4.02510E+00  3.05962E+00  4.04028E+00  5.24194E+00  2.45219E+00  4.17094E+00  3.13052E+00  3.16705E+00  2.78626E+00
   1.41882E+00  2.02288E+00  3.70554E+00  3.74492E+00  3.71606E+00  2.75308E+00  4.04494E+00  2.50016E+00  2.35675E+00  3.46007E+00
   1.75727E+00  1.82169E+00  2.28792E+00  1.31711E+00  2.99847E+00  1.96882E+00  3.27593E+00  2.29027E+00  1.83262E+00  2.08167E+00
   2.57643E+00  3.77014E+00  4.44682E+00  2.57575E+00  5.93856E+00  4.52945E+00  3.45921E+00  4.54835E+00  2.88354E+00  4.47271E+00
   2.77694E+00  2.46756E+00  3.76922E+00  3.31555E+00  3.63915E+00  9.05411E-02  3.14949E+00  2.83931E+00  3.82452E+00  3.81748E+00
   4.83364E+00  2.99229E+00  2.10821E+00  3.08531E+00  1.97921E+00  4.15958E+00  5.64615E+00  4.45551E+00  4.59855E+00  3.46028E+00
   3.57331E+00  5.83470E+00  4.10648E+00  2.93739E+00  4.69440E+00  4.71149E+00  4.75166E+00  3.79874E+00  5.21341E+00  3.00579E+00
   4.40161E+00  3.35073E+00  5.05224E+00  4.95478E+00  4.15022E+00  3.35749E+00  2.71841E+00  4.85986E+00  4.08658E+00  2.60267E+00
   3.28987E+00  3.10081E+00  5.18138E+00  5.52270E+00  4.40498E+00  3.08240E+00  6.23103E+00  3.88694E+00  5.02336E+00  5.53960E+00
   5.42583E+00  4.55352E+00  4.50190E+00  7.25451E+00  4.58613E+00  3.48426E+00  6.67500E+00  4.85419E+00  4.16514E+00  4.79704E+00
   5.65627E+00  4.05905E+00  4.64465E+00  3.11549E+00  3.85702E+00  3.84197E+00  2.04736E+00  4.53621E+00  4.89671E+00  4.06034E+00
   4.66369E+00  3.21131E+00  5.80747E+00  4.38976E+00  5.48566E+00  2.61042E+00  5.18773E+00  3.96601E+00  3.08575E+00  4.11268E+00
   3.39556E+00  4.72088E+00  4.07980E+00  5.41216E+00  5.44319E+00  5.00712E+00  5.88010E+00  6.15674E+00  3.96286E+00  4.42198E+00
   7.19688E+00  5.31967E+00  5.44814E+00  5.46481E+00  3.48884E+00  4.84383E+00  5.01045E+00  6.57204E+00  6.19827E+00  4.47640E+00
   5.64203E+00  5.70003E+00  5.44030E+00  4.68735E+00  5.71789E+00  6.05293E+00  5.01862E+00  5.97186E+00  7.06101E+00  4.12794E+00
   5.97256E+00  5.31890E+00  7.15265E+00  5.15809E+00  6.23947E+00  4.85695E+00  6.76609E+00  5.68311E+00  6.65034E+00  6.43049E+00
   6.39407E+00  6.69361E+00  5.35551E+00  7.23525E+00  7.59722E+00  7.13050E+00  8.22799E+00  9.29561E+00  6.13486E+00  7.78767E+00
   6.42783E+00  7.06880E+00  5.70201E+00  6.64171E+00  7.47968E+00  7.35054E+00  6.53070E+00  3.33410E+00  7.49106E+00  9.10141E+00
   5.18232E+00  5.81296E+00  7.51366E+00  8.04254E+00  9.17421E+00  7.53573E+00  7.19157E+00  5.84561E+00  7.21403E+00  8.10499E+00
   8.06211E+00  1.01923E+01  1.17083E+01  1.04096E+01  1.05199E+01  9.92439E+00  1.02653E+01  9.52938E+00  9.01488E+00  9.53923E+00
   1.17262E+01  8.26377E+00  9.77188E+00  1.03304E+01  8.44254E+00  9.35226E+00  1.11857E+01  9.44519E+00  9.83132E+00  8.73334E+00
   9.13061E+00  9.62497E+00  1.12605E+01  1.06217E+01  1.05346E+01  1.27859E+01  1.14886E+01  1.04043E+01  1.02165E+01  1.26898E+01
   1.31683E+01  1.04851E+01  1.15875E+01  1.27344E+01  1.17320E+01  1.24119E+01  1.23641E+01  1.29782E+01  1.17556E+01  1.02109E+01
   1.20952E+01  1.16710E+01  1.17700E+01  1.27752E+01  1.18610E+01  1.23974E+01  1.06968E+01  1.31405E+01  1.04046E+01  1.02548E+01
   1.22520E+01  1.18631E+01  1.25573E+01  1.30233E+01  1.20611E+01  1.31099E+01  1.40294E+01  1.15870E+01  1.40706E+01  1.38074E+01
   1.55428E+01  1.40288E+01  1.67077E+01  1.67567E+01  1.70369E+01  1.46408E+01  1.33385E+01  1.70759E+01  1.66023E+01  1.67253E+01
   1.71649E+01  1.76549E+01  1.90351E+01  1.84710E+01  1.79840E+01  1.86333E+01  2.04638E+01  2.06810E+01  1.79893E+01  1.98796E+01
   1.92851E+01  1.96554E+01  2.12122E+01  1.85571E+01  2.05963E+01  2.04006E+01  1.97972E+01  2.05136E+01  2.10077E+01  1.76506E+01
   1.97450E+01  1.88633E+01  2.09453E+01  2.16141E+01  2.24554E+01  2.30926E+01  2.13808E+01  2.38707E+01  2.44157E+01  2.47418E+01
   2.51145E+01  2.64692E+01  2.58813E+01  2.64678E+01  2.58224E+01  2.65843E+01  2.62678E+01  2.67044E+01  2.57277E+01  2.78202E+01
   2.57667E+01  2.85058E+01  2.57694E+01  2.73027E+01  2.61491E+01  2.71664E+01  2.73914E+01  2.69322E+01  2.72932E+01  2.80419E+01
   2.75222E+01  2.79466E+01  2.64106E+01  2.71182E+01  2.81153E+01  2.68933E+01  2.90018E+01  2.74674E+01  2.65846E+01  2.45360E+01
   2.79368E+01  2.68373E+01  2.46086E+01  2.60688E+01  2.60286E+01  2.54600E+01  2.48080E+01  2.36837E+01  2.56058E+01  2.32286E+01
   2.30113E+01  2.46994E+01  2.43751E+01  2.43754E+01  2.27258E+01  2.06002E+01  2.16843E+01  2.00409E+01  2.01361E+01  2.18337E+01
   1.95552E+01  1.94414E+01  1.89182E+01  1.69564E+01  1.46529E+01  1.66680E+01  1.75482E+01  1.59795E+01  1.58381E+01  1.37042E+01
   1.25443E+01  1.50810E+01  1.35881E+01  1.27396E+01  1.26508E+01  1.24073E+01  1.15966E+01  9.86569E+00  1.02533E+01  8.06645E+00
   9.67097E+00  8.74204E+00  8.92747E+00  7.34797E+00  7.66475E+00  8.12777E+00  5.87682E+00  4.80115E+00  3.93152E+00  5.27865E+00
   7.13576E+00  6.32627E+00  4.87700E+00  3.18927E+00  3.39417E+00  2.15285E+00  2.14504E+00  2.72856E+00  2.15454E+00  1.50473E+00
   7.94395E-01  1.21377E+00  2.25024E-01  1.48184E+00 -7.45530E-01 -8.54649E-01 -7.84710E-01 -7.27876E-01 -8.77439E-01 -2.64978E+00
  -1.99035E+00 -2.41081E+00 -2.99851E+00 -5.84591E+00 -3.68516E+00 -4.13391E+00 -3.99902E+00 -6.17966E+00 -3.95625E+00 -6.92344E+00
  -5.32637E+00 -3.95643E+00 -5.87093E+00 -6.53119E+00 -8.16802E+00 -4.83945E+00 -6.66106E+00 -8.31646E+00 -7.24643E+00 -6.85260E+00
  -7.99735E+00 -9.43131E+00 -7.56372E+00 -9.33781E+00 -8.51718E+00 -8.50953E+00 -9.98910E+00 -9.56968E+00 -1.02997E+01 -7.93392E+00
  -9.07729E+00 -9.38641E+00 -9.24438E+00 -9.55008E+00 -1.04045E+01 -8.64491E+00 -8.68983E+00 -7.94945E+00
 NY points of the fit to the data follow
   2.62406E+00  2.57821E+00  2.53103E+00  2.46689E+00  2.34366E+00  2.33226E+00  2.57053E+00  2.99320E+00  3.43327E+00  3.75045E+00
   3.86423E+00  3.78172E+00  3.61119E+00  3.40787E+00  3.13578E+00  2.86976E+00  2.76545E+00  2.72970E+00  2.70037E+00  2.68613E+00
   2.68633E+00  2.68361E+00  2.67529E+00  2.67990E+00  2.68208E+00  2.62391E+00  2.54905E+00  2.55689E+00  2.66965E+00  2.84959E+00
   3.04914E+00  3.20976E+00  3.28147E+00  3.28490E+00  3.25541E+00  3.15335E+00  2.99160E+00  2.87242E+00  2.80084E+00  2.73872E+00
   2.69868E+00  2.68139E+00  2.65209E+00  2.60445E+00  2.61580E+00  2.74377E+00  2.95560E+00  3.17308E+00  3.30994E+00  3.33169E+00
   3.26516E+00  3.14802E+00  3.00098E+00  2.84544E+00  2.71695E+00  2.64762E+00  2.63626E+00  2.66838E+00  2.73817E+00  2.83267E+00
   2.92235E+00  2.97408E+00  2.97356E+00  2.93726E+00  2.88102E+00  2.81714E+00  2.76871E+00  2.74161E+00  2.73826E+00  2.76628E+00
   2.81024E+00  2.85335E+00  2.89193E+00  2.92509E+00  2.94908E+00  2.96192E+00  2.96640E+00  2.95063E+00  2.91479E+00  2.88565E+00
   2.86672E+00  2.84617E+00  2.84246E+00  2.87328E+00  2.91821E+00  2.94234E+00  2.92706E+00  2.87396E+00  2.80438E+00  2.75022E+00
   2.72703E+00  2.72315E+00  2.73279E+00  2.77121E+00  2.82361E+00  2.86865E+00  2.88909E+00  2.83796E+00  2.64137E+00  2.52868E+00
   2.74648E+00  3.26408E+00  3.86759E+00  4.34721E+00  4.57054E+00  4.51946E+00  4.33225E+00  4.09013E+00  3.73741E+00  3.34241E+00
   3.15555E+00  3.11197E+00  3.10070E+00  3.10101E+00  3.10566E+00  3.11709E+00  3.13080E+00  3.14157E+00  3.14879E+00  3.15201E+00
   3.14013E+00  3.04079E+00  2.84102E+00  2.84749E+00  3.24464E+00  3.91690E+00  4.60588E+00  5.09401E+00  5.26698E+00  5.16607E+00
   4.97490E+00  4.74586E+00  4.40315E+00  4.07619E+00  3.96042E+00  3.90273E+00  3.84321E+00  3.80101E+00  3.79994E+00  3.84159E+00
   3.92476E+00  4.04092E+00  4.15959E+00  4.26466E+00  4.35043E+00  4.41328E+00  4.46001E+00  4.49993E+00  4.53634E+00  4.57940E+00
   4.62387E+00  4.66445E+00  4.69975E+00  4.73391E+00  4.76853E+00  4.80417E+00  4.84633E+00  4.88952E+00  4.91467E+00  4.91282E+00
   4.88801E+00  4.85947E+00  4.84912E+00  4.86134E+00  4.88355E+00  4.89871E+00  4.90199E+00  4.89514E+00  4.87516E+00  4.84299E+00
   4.80565E+00  4.76959E+00  4.74471E+00  4.71182E+00  4.65759E+00  4.59920E+00  4.55992E+00  4.54595E+00  4.54001E+00  4.52571E+00
   4.50236E+00  4.48563E+00  4.48803E+00  4.49246E+00  4.46503E+00  4.41561E+00  4.37321E+00  4.36715E+00  4.40501E+00  4.47531E+00
   4.56195E+00  4.64332E+00  4.70652E+00  4.75388E+00  4.77000E+00  4.74445E+00  4.70074E+00  4.66150E+00  4.64147E+00  4.63954E+00
   4.65819E+00  4.70002E+00  4.76804E+00  4.85880E+00  4.95466E+00  5.03073E+00  5.07857E+00  5.10410E+00  5.11366E+00  5.10109E+00
   5.05844E+00  4.99980E+00  4.99194E+00  5.08831E+00  5.26884E+00  5.48229E+00  5.68048E+00  5.82400E+00  5.89065E+00  5.86016E+00
   5.73239E+00  5.56103E+00  5.43125E+00  5.42859E+00  5.54267E+00  5.71924E+00  5.91942E+00  6.12128E+00  6.29327E+00  6.38555E+00
   6.39034E+00  6.36233E+00  6.34911E+00  6.36344E+00  6.42495E+00  6.53392E+00  6.66616E+00  6.78418E+00  6.85364E+00  6.85475E+00
   6.80436E+00  6.73739E+00  6.69594E+00  6.70217E+00  6.76972E+00  6.90571E+00  7.07815E+00  7.23794E+00  7.35636E+00  7.43510E+00
   7.47470E+00  7.49432E+00  7.52064E+00  7.57111E+00  7.61479E+00  7.52417E+00  7.22620E+00  7.18511E+00  7.74086E+00  8.75655E+00
   9.84813E+00  1.06672E+01  1.10024E+01  1.08770E+01  1.05479E+01  1.01017E+01  9.44147E+00  8.78870E+00  8.53246E+00  8.46933E+00
   8.46152E+00  8.49702E+00  8.56979E+00  8.67197E+00  8.80405E+00  8.96086E+00  9.13588E+00  9.32377E+00  9.52097E+00  9.72339E+00
   9.93150E+00  1.01478E+01  1.03716E+01  1.06017E+01  1.08354E+01  1.10678E+01  1.12944E+01  1.15102E+01  1.17095E+01  1.18890E+01
   1.20458E+01  1.21769E+01  1.22802E+01  1.23556E+01  1.24030E+01  1.24227E+01  1.24161E+01  1.23855E+01  1.23336E+01  1.22637E+01
   1.21801E+01  1.20874E+01  1.19904E+01  1.18941E+01  1.18038E+01  1.17246E+01  1.16616E+01  1.16196E+01  1.16031E+01  1.16159E+01
   1.16614E+01  1.17424E+01  1.18607E+01  1.20175E+01  1.22130E+01  1.24468E+01  1.27171E+01  1.30217E+01  1.33574E+01  1.37199E+01
   1.41045E+01  1.45059E+01  1.49180E+01  1.53347E+01  1.57497E+01  1.61568E+01  1.65499E+01  1.69237E+01  1.72734E+01  1.75950E+01
   1.78858E+01  1.81439E+01  1.83688E+01  1.85611E+01  1.87225E+01  1.88558E+01  1.89649E+01  1.90543E+01  1.91292E+01  1.91947E+01
   1.92552E+01  1.93100E+01  1.93613E+01  1.94845E+01  1.97239E+01  2.00195E+01  2.02840E+01  2.04726E+01  2.05917E+01  2.06676E+01
   2.07068E+01  2.07626E+01  2.09090E+01  2.12234E+01  2.17502E+01  2.23889E+01  2.30251E+01  2.36069E+01  2.41375E+01  2.46327E+01
   2.50591E+01  2.53972E+01  2.57205E+01  2.60415E+01  2.63377E+01  2.65974E+01  2.68138E+01  2.69834E+01  2.71050E+01  2.71795E+01
   2.72098E+01  2.72007E+01  2.71585E+01  2.70909E+01  2.70064E+01  2.69139E+01  2.68219E+01  2.67386E+01  2.66708E+01  2.66239E+01
   2.66012E+01  2.66038E+01  2.66307E+01  2.66787E+01  2.67423E+01  2.68144E+01  2.68867E+01  2.69498E+01  2.69940E+01  2.70101E+01
   2.69895E+01  2.69248E+01  2.68104E+01  2.66425E+01  2.64194E+01  2.61415E+01  2.58114E+01  2.54331E+01  2.50123E+01  2.45559E+01
   2.40712E+01  2.35661E+01  2.30481E+01  2.25243E+01  2.20010E+01  2.14832E+01  2.09751E+01  2.04794E+01  1.99976E+01  1.95298E+01
   1.90752E+01  1.86323E+01  1.81986E+01  1.77712E+01  1.73469E+01  1.69225E+01  1.64948E+01  1.60611E+01  1.56188E+01  1.51660E+01
   1.47012E+01  1.42235E+01  1.37327E+01  1.32289E+01  1.27129E+01  1.21860E+01  1.16495E+01  1.11053E+01  1.05554E+01  1.00020E+01
   9.44723E+00  8.89323E+00  8.34207E+00  7.79569E+00  7.25588E+00  6.72423E+00  6.20210E+00  5.69066E+00  5.19084E+00  4.70338E+00
   4.22882E+00  3.76752E+00  3.31966E+00  2.88527E+00  2.46426E+00  2.05646E+00  1.66159E+00  1.27929E+00  9.09161E-01  5.50740E-01
   2.03561E-01 -1.32860E-01 -4.59019E-01 -7.75420E-01 -1.08256E+00 -1.38091E+00 -1.67093E+00 -1.95306E+00 -2.22773E+00 -2.49536E+00
  -2.75634E+00 -3.01104E+00 -3.25981E+00 -3.50296E+00 -3.74082E+00 -3.97367E+00 -4.20181E+00 -4.42548E+00 -4.64492E+00 -4.86034E+00
  -5.07197E+00 -5.28001E+00 -5.48465E+00 -5.68604E+00 -5.88435E+00 -6.07973E+00 -6.27232E+00 -6.46227E+00 -6.64969E+00 -6.83469E+00
  -7.01737E+00 -7.19784E+00 -7.37621E+00 -7.55255E+00 -7.72695E+00 -7.89948E+00 -8.07020E+00 -8.23920E+00 -8.40655E+00 -8.57229E+00
  -8.73647E+00 -8.89915E+00 -9.06038E+00 -9.22021E+00 -9.37868E+00 -9.53583E+00 -9.69169E+00 -9.84629E+00
 NY background values follow
     2.659E+00    2.664E+00    2.669E+00    2.674E+00    2.678E+00    2.683E+00    2.688E+00    2.692E+00    2.697E+00    2.701E+00
     2.706E+00    2.710E+00    2.715E+00    2.719E+00    2.724E+00    2.728E+00    2.732E+00    2.737E+00    2.741E+00    2.745E+00
     2.749E+00    2.754E+00    2.758E+00    2.762E+00    2.766E+00    2.770E+00    2.774E+00    2.778E+00    2.782E+00    2.786E+00
     2.790E+00    2.794E+00    2.798E+00    2.802E+00    2.806E+00    2.810E+00    2.814E+00    2.818E+00    2.822E+00    2.825E+00
     2.829E+00    2.833E+00    2.837E+00    2.841E+00    2.844E+00    2.848E+00    2.852E+00    2.855E+00    2.859E+00    2.863E+00
     2.867E+00    2.870E+00    2.874E+00    2.878E+00    2.882E+00    2.885E+00    2.889E+00    2.893E+00    2.897E+00    2.901E+00
     2.905E+00    2.909E+00    2.913E+00    2.917E+00    2.921E+00    2.925E+00    2.929E+00    2.933E+00    2.938E+00    2.942E+00
     2.947E+00    2.951E+00    2.956E+00    2.961E+00    2.966E+00    2.971E+00    2.976E+00    2.981E+00    2.986E+00    2.992E+00
     2.997E+00    3.003E+00    3.008E+00    3.014E+00    3.020E+00    3.026E+00    3.033E+00    3.039E+00    3.045E+00    3.052E+00
     3.059E+00    3.066E+00    3.073E+00    3.080E+00    3.088E+00    3.095E+00    3.103E+00    3.111E+00    3.119E+00    3.127E+00
     3.136E+00    3.144E+00    3.153E+00    3.162E+00    3.171E+00    3.181E+00    3.190E+00    3.200E+00    3.209E+00    3.219E+00
     3.229E+00    3.240E+00    3.250E+00    3.261E+00    3.272E+00    3.283E+00    3.294E+00    3.305E+00    3.317E+00    3.329E+00
     3.341E+00    3.353E+00    3.365E+00    3.378E+00    3.390E+00    3.403E+00    3.416E+00    3.429E+00    3.443E+00    3.457E+00
     3.471E+00    3.485E+00    3.499E+00    3.513E+00    3.528E+00    3.543E+00    3.558E+00    3.573E+00    3.589E+00    3.604E+00
     3.620E+00    3.636E+00    3.652E+00    3.669E+00    3.685E+00    3.702E+00    3.719E+00    3.736E+00    3.753E+00    3.770E+00
     3.787E+00    3.804E+00    3.822E+00    3.840E+00    3.857E+00    3.875E+00    3.893E+00    3.911E+00    3.929E+00    3.947E+00
     3.965E+00    3.983E+00    4.001E+00    4.019E+00    4.037E+00    4.056E+00    4.074E+00    4.092E+00    4.110E+00    4.128E+00
     4.147E+00    4.165E+00    4.183E+00    4.201E+00    4.219E+00    4.237E+00    4.255E+00    4.273E+00    4.291E+00    4.308E+00
     4.326E+00    4.344E+00    4.361E+00    4.378E+00    4.396E+00    4.413E+00    4.430E+00    4.447E+00    4.463E+00    4.480E+00
     4.496E+00    4.512E+00    4.528E+00    4.544E+00    4.560E+00    4.575E+00    4.590E+00    4.605E+00    4.620E+00    4.634E+00
     4.648E+00    4.662E+00    4.675E+00    4.689E+00    4.702E+00    4.714E+00    4.726E+00    4.738E+00    4.750E+00    4.761E+00
     4.772E+00    4.783E+00    4.793E+00    4.803E+00    4.812E+00    4.821E+00    4.830E+00    4.838E+00    4.845E+00    4.853E+00
     4.859E+00    4.866E+00    4.872E+00    4.877E+00    4.882E+00    4.886E+00    4.890E+00    4.893E+00    4.896E+00    4.898E+00
     4.900E+00    4.901E+00    4.902E+00    4.902E+00    4.902E+00    4.901E+00    4.900E+00    4.898E+00    4.895E+00    4.892E+00
     4.889E+00    4.885E+00    4.880E+00    4.875E+00    4.869E+00    4.863E+00    4.856E+00    4.849E+00    4.841E+00    4.833E+00
     4.824E+00    4.814E+00    4.804E+00    4.794E+00    4.783E+00    4.771E+00    4.759E+00    4.746E+00    4.732E+00    4.718E+00
     4.704E+00    4.689E+00    4.673E+00    4.657E+00    4.640E+00    4.623E+00    4.605E+00    4.586E+00    4.567E+00    4.548E+00
     4.527E+00    4.507E+00    4.485E+00    4.463E+00    4.441E+00    4.418E+00    4.394E+00    4.370E+00    4.345E+00    4.320E+00
     4.294E+00    4.267E+00    4.240E+00    4.213E+00    4.184E+00    4.156E+00    4.126E+00    4.096E+00    4.066E+00    4.035E+00
     4.003E+00    3.971E+00    3.938E+00    3.905E+00    3.871E+00    3.837E+00    3.802E+00    3.766E+00    3.730E+00    3.694E+00
     3.657E+00    3.619E+00    3.581E+00    3.542E+00    3.503E+00    3.463E+00    3.422E+00    3.381E+00    3.340E+00    3.298E+00
     3.255E+00    3.212E+00    3.169E+00    3.124E+00    3.080E+00    3.034E+00    2.988E+00    2.942E+00    2.895E+00    2.848E+00
     2.800E+00    2.751E+00    2.702E+00    2.653E+00    2.603E+00    2.552E+00    2.501E+00    2.450E+00    2.398E+00    2.345E+00
     2.292E+00    2.238E+00    2.184E+00    2.129E+00    2.074E+00    2.018E+00    1.962E+00    1.905E+00    1.848E+00    1.791E+00
     1.732E+00    1.674E+00    1.614E+00    1.555E+00    1.495E+00    1.434E+00    1.373E+00    1.311E+00    1.249E+00    1.186E+00
     1.123E+00    1.060E+00    9.957E-01    9.312E-01    8.662E-01    8.007E-01    7.348E-01    6.683E-01    6.014E-01    5.341E-01
     4.662E-01    3.979E-01    3.292E-01    2.600E-01    1.903E-01    1.201E-01    4.954E-02   -2.152E-02   -9.304E-02   -1.650E-01
    -2.375E-01   -3.104E-01   -3.837E-01   -4.575E-01   -5.318E-01   -6.065E-01   -6.817E-01   -7.573E-01   -8.334E-01   -9.100E-01
    -9.870E-01   -1.064E+00   -1.142E+00   -1.221E+00   -1.299E+00   -1.379E+00   -1.458E+00   -1.539E+00   -1.619E+00   -1.700E+00
    -1.782E+00   -1.864E+00   -1.946E+00   -2.029E+00   -2.112E+00   -2.196E+00   -2.280E+00   -2.365E+00   -2.450E+00   -2.535E+00
    -2.621E+00   -2.707E+00   -2.794E+00   -2.882E+00   -2.969E+00   -3.057E+00   -3.146E+00   -3.235E+00   -3.324E+00   -3.414E+00
    -3.505E+00   -3.595E+00   -3.687E+00   -3.778E+00   -3.870E+00   -3.963E+00   -4.056E+00   -4.149E+00   -4.243E+00   -4.337E+00
    -4.431E+00   -4.526E+00   -4.622E+00   -4.718E+00   -4.814E+00   -4.911E+00   -5.008E+00   -5.105E+00   -5.203E+00   -5.301E+00
    -5.400E+00   -5.499E+00   -5.599E+00   -5.699E+00   -5.799E+00   -5.900E+00   -6.001E+00   -6.103E+00   -6.205E+00   -6.307E+00
    -6.410E+00   -6.513E+00   -6.617E+00   -6.721E+00   -6.825E+00   -6.930E+00   -7.035E+00   -7.140E+00   -7.246E+00   -7.352E+00
    -7.459E+00   -7.566E+00   -7.674E+00   -7.781E+00   -7.890E+00   -7.998E+00   -8.107E+00   -8.216E+00   -8.326E+00   -8.436E+00
    -8.546E+00   -8.656E+00   -8.767E+00   -8.878E+00   -8.989E+00   -9.100E+00   -9.212E+00   -9.324E+00   -9.436E+00   -9.548E+00
    -9.661E+00   -9.774E+00   -9.886E+00   -9.999E+00   -1.011E+01   -1.023E+01   -1.034E+01   -1.045E+01   -1.057E+01   -1.068E+01
    -1.079E+01   -1.091E+01   -1.102E+01   -1.113E+01   -1.125E+01   -1.136E+01   -1.148E+01   -1.159E+01   -1.170E+01   -1.182E+01
    -1.193E+01   -1.204E+01   -1.216E+01   -1.227E+01   -1.238E+01   -1.250E+01   -1.261E+01   -1.272E+01
 Asp      Conc. = 6.42E+00
