 LCModel (Version 6.3-1L) Copyright: S.W. Provencher.          Ref.: Magn. Reson. Med. 30:672-679 (1993).                
 Slice#1 Row#2 Col#3  PD_24_press_1_raw_act
 36 lines in following concentration table = NCONC+1
    Conc.  %SD /Cr+PCr  Metabolite                                         
  111.258  52%   1.942 Ala                                                 
    5.556 213% 9.7E-02 Asp                                                 
    0.000 999%   0.000 Cr                                                  
   57.294  47%   1.000 PCr                                                 
    3.022 235% 5.3E-02 GABA                                                
    4.305 165% 7.5E-02 Glc                                                 
   48.874 186%   0.853 Gln                                                 
  119.235  90%   2.081 Glu                                                 
   20.717  48%   0.362 GPC                                                 
    0.000 999%   0.000 PCh                                                 
   13.995 241%   0.244 GSH                                                 
   16.658 637%   0.291 Ins                                                 
    0.000 999%   0.000 Lac                                                 
    0.000 999%   0.000 NAA                                                 
    0.000 999%   0.000 NAAG                                                
    1.879 125% 3.3E-02 Scyllo                                              
    7.377 160%   0.129 Tau                                                 
    7.033 370%   0.123 -CrCH2                                              
   20.717  48%   0.362 GPC+PCh                                             
    0.000 999%   0.000 NAA+NAAG                                            
   57.294  47%   1.000 Cr+PCr                                              
  168.109  82%   2.934 Glu+Gln                                             
 2.04E+03  20%  35.569 Lip13a                                              
    0.000 999%   0.000 Lip13b                                              
 1.00E+03  17%  17.475 Lip09                                               
  318.556  45%   5.560 MM09                                                
    0.000 999%   0.000 Lip20                                               
    0.000 999%   0.000 MM20                                                
  135.703  81%   2.369 MM12                                                
 1.21E+03  20%  21.055 MM14                                                
  575.333  29%  10.042 MM17                                                
 2.04E+03  20%  35.569 Lip13a+Lip13b                                       
 3.38E+03  10%  58.992 MM14+Lip13a+Lip13b+MM12                             
 1.32E+03  11%  23.035 MM09+Lip09                                          
    0.000 999%   0.000 MM20+Lip20                                          
   6 lines in following misc. output table
  FWHM = 0.038 ppm    S/N =   2                                            
  Data shift = 0.008 ppm                                                   
  Ph:-175 deg      16.6 deg/ppm                                            
  alphaB,S = 1.1E+00,   1.5E+01                                            
   14 spline knots.   Ns = 5(1)                                            
  ( 8) 2 infls.   ( 9) 1 extrs.                                            
  498 points on ppm-axis = NY
      4.000000     3.992357     3.984714     3.977070     3.969427     3.961784     3.954141     3.946497     3.938854     3.931211
      3.923568     3.915925     3.908281     3.900638     3.892995     3.885352     3.877708     3.870065     3.862422     3.854779
      3.847136     3.839492     3.831849     3.824206     3.816563     3.808919     3.801276     3.793633     3.785990     3.778347
      3.770703     3.763060     3.755417     3.747774     3.740130     3.732487     3.724844     3.717201     3.709558     3.701914
      3.694271     3.686628     3.678985     3.671341     3.663698     3.656055     3.648412     3.640769     3.633125     3.625482
      3.617839     3.610196     3.602552     3.594909     3.587266     3.579623     3.571980     3.564336     3.556693     3.549050
      3.541407     3.533763     3.526120     3.518477     3.510834     3.503191     3.495547     3.487904     3.480261     3.472618
      3.464974     3.457331     3.449688     3.442045     3.434402     3.426758     3.419115     3.411472     3.403829     3.396185
      3.388542     3.380899     3.373256     3.365613     3.357969     3.350326     3.342683     3.335040     3.327396     3.319753
      3.312110     3.304467     3.296824     3.289180     3.281537     3.273894     3.266251     3.258607     3.250964     3.243321
      3.235678     3.228034     3.220391     3.212748     3.205105     3.197462     3.189818     3.182175     3.174532     3.166889
      3.159245     3.151602     3.143959     3.136316     3.128673     3.121029     3.113386     3.105743     3.098100     3.090456
      3.082813     3.075170     3.067527     3.059884     3.052240     3.044597     3.036954     3.029311     3.021667     3.014024
      3.006381     2.998738     2.991095     2.983451     2.975808     2.968165     2.960522     2.952878     2.945235     2.937592
      2.929949     2.922306     2.914662     2.907019     2.899376     2.891733     2.884089     2.876446     2.868803     2.861160
      2.853517     2.845873     2.838230     2.830587     2.822944     2.815300     2.807657     2.800014     2.792371     2.784728
      2.777084     2.769441     2.761798     2.754155     2.746511     2.738868     2.731225     2.723582     2.715939     2.708295
      2.700652     2.693009     2.685366     2.677722     2.670079     2.662436     2.654793     2.647150     2.639506     2.631863
      2.624220     2.616577     2.608933     2.601290     2.593647     2.586004     2.578361     2.570717     2.563074     2.555431
      2.547788     2.540144     2.532501     2.524858     2.517215     2.509572     2.501928     2.494285     2.486642     2.478999
      2.471355     2.463712     2.456069     2.448426     2.440783     2.433139     2.425496     2.417853     2.410210     2.402566
      2.394923     2.387280     2.379637     2.371994     2.364350     2.356707     2.349064     2.341421     2.333777     2.326134
      2.318491     2.310848     2.303205     2.295561     2.287918     2.280275     2.272632     2.264988     2.257345     2.249702
      2.242059     2.234416     2.226772     2.219129     2.211486     2.203843     2.196199     2.188556     2.180913     2.173270
      2.165627     2.157983     2.150340     2.142697     2.135054     2.127410     2.119767     2.112124     2.104481     2.096838
      2.089194     2.081551     2.073908     2.066265     2.058621     2.050978     2.043335     2.035692     2.028049     2.020405
      2.012762     2.005119     1.997476     1.989833     1.982190     1.974546     1.966903     1.959260     1.951617     1.943974
      1.936331     1.928688     1.921045     1.913402     1.905759     1.898115     1.890472     1.882829     1.875186     1.867543
      1.859900     1.852257     1.844614     1.836971     1.829327     1.821684     1.814041     1.806398     1.798755     1.791112
      1.783469     1.775826     1.768183     1.760540     1.752896     1.745253     1.737610     1.729967     1.722324     1.714681
      1.707038     1.699395     1.691752     1.684108     1.676465     1.668822     1.661179     1.653536     1.645893     1.638250
      1.630607     1.622964     1.615321     1.607677     1.600034     1.592391     1.584748     1.577105     1.569462     1.561819
      1.554176     1.546533     1.538890     1.531246     1.523603     1.515960     1.508317     1.500674     1.493031     1.485388
      1.477745     1.470102     1.462458     1.454815     1.447172     1.439529     1.431886     1.424243     1.416600     1.408957
      1.401314     1.393671     1.386027     1.378384     1.370741     1.363098     1.355455     1.347812     1.340169     1.332526
      1.324883     1.317240     1.309596     1.301953     1.294310     1.286667     1.279024     1.271381     1.263738     1.256095
      1.248452     1.240808     1.233165     1.225522     1.217879     1.210236     1.202593     1.194950     1.187307     1.179664
      1.172021     1.164377     1.156734     1.149091     1.141448     1.133805     1.126162     1.118519     1.110876     1.103233
      1.095590     1.087946     1.080303     1.072660     1.065017     1.057374     1.049731     1.042088     1.034445     1.026802
      1.019158     1.011515     1.003872     0.996229     0.988586     0.980943     0.973300     0.965657     0.958014     0.950371
      0.942727     0.935084     0.927441     0.919798     0.912155     0.904512     0.896869     0.889226     0.881583     0.873940
      0.866296     0.858653     0.851010     0.843367     0.835724     0.828081     0.820438     0.812795     0.805152     0.797508
      0.789865     0.782222     0.774579     0.766936     0.759293     0.751650     0.744007     0.736364     0.728721     0.721077
      0.713434     0.705791     0.698148     0.690505     0.682862     0.675219     0.667576     0.659933     0.652290     0.644646
      0.637003     0.629360     0.621717     0.614074     0.606431     0.598788     0.591145     0.583502     0.575858     0.568215
      0.560572     0.552929     0.545286     0.537643     0.530000     0.522357     0.514714     0.507071     0.499427     0.491784
      0.484141     0.476498     0.468855     0.461212     0.453569     0.445925     0.438282     0.430639     0.422996     0.415353
      0.407710     0.400067     0.392424     0.384780     0.377137     0.369494     0.361851     0.354208     0.346565     0.338922
      0.331278     0.323635     0.315992     0.308349     0.300706     0.293063     0.285420     0.277777     0.270133     0.262490
      0.254847     0.247204     0.239561     0.231918     0.224275     0.216631     0.208988     0.201345
 NY phased data points follow
   2.54180E+00  3.99174E+00  2.71349E+00  4.99050E+00  6.93909E+00  2.36839E+00  7.72804E+00  4.25112E+00  2.79269E+00  6.11322E+00
   4.06341E+00  1.80395E+00  8.88759E-01  2.35761E+00  1.47053E+00  1.93914E-01  3.09935E+00  3.71144E+00  9.68639E-01  1.25675E+00
   1.55787E+00  5.72786E+00  5.08004E-01  7.08662E+00  3.36457E+00  8.45957E+00  1.11568E+00  5.71013E+00  3.23739E-01  3.22930E+00
   4.72339E+00  2.19302E+00  4.63225E+00  6.14838E+00  2.95588E+00  4.37990E+00  2.26996E+00  1.94679E+00  3.73550E+00  3.35351E+00
   2.50248E+00  2.34874E-01 -2.78546E-01 -1.04213E-01  3.69631E+00  5.12007E+00  9.91108E-01  3.79284E+00  4.09012E-01  3.31622E+00
   1.95205E+00  3.19351E+00  3.17623E+00  2.97445E+00  1.15220E+00  2.27302E+00  4.21643E+00  3.81863E+00 -3.18148E+00  1.36241E+00
  -3.91265E+00  1.63795E-01  6.29672E-01  2.58292E+00  1.01945E+00  9.19580E-01  1.00435E+00  1.37915E+00  3.82234E+00  3.33993E+00
   2.94634E+00  4.17223E+00  1.34755E+00  3.91688E+00  1.63486E-01  1.01171E+00 -2.29146E-01  2.51956E-01  1.64120E+00 -1.04458E-01
   3.03712E-02  4.80763E+00 -1.77211E-01  2.44953E+00  3.43029E+00  3.39483E+00  2.84922E+00  1.86311E+00  7.37317E-01  2.96329E+00
   1.15541E+00 -8.91817E-02  1.21625E+00  4.47789E+00  3.54627E-04  4.92421E+00  3.46747E+00  4.77154E-01  3.03706E+00  1.77289E+00
   4.45735E+00  5.62544E+00  1.27794E+00  1.56402E+00 -5.22382E-01  4.58353E+00 -3.06763E+00  1.15242E+00 -1.76289E+00  1.54178E+00
   2.04902E+00  2.09009E+00 -3.17910E-02 -3.03504E-01  4.99846E-01  2.99065E-04  1.64370E+00 -1.07575E+00 -8.26528E-01  4.34057E+00
   2.71785E-01 -1.37170E+00  4.85680E-01  2.93149E+00  1.24347E+00  5.04993E+00  9.10438E-01  2.25272E+00 -1.28449E+00  1.39137E+00
  -1.62732E+00 -1.44437E+00  6.87288E-01  1.66837E+00 -1.93864E+00 -3.42496E-01  2.12808E-04  3.03855E-01  2.04308E+00  3.74960E-01
   2.96376E+00 -1.14663E+00 -1.21723E+00 -1.07730E+00 -1.32744E-01  4.17007E+00 -2.67822E+00 -1.84672E+00 -1.05110E+00  1.69643E+00
  -1.75255E+00 -7.54631E-03 -2.88369E+00  1.75353E+00 -9.86171E-01 -8.46967E-01 -3.10799E+00  1.50919E+00  1.48981E+00  1.00757E+00
  -1.65239E+00 -1.45467E+00 -3.15401E-01  1.89804E+00 -1.73162E-01 -1.00856E+00  1.70939E+00  1.96976E+00 -2.43819E+00  4.45195E-01
  -1.32760E+00  5.00211E-01 -2.50251E+00  3.19510E-01  2.79940E+00 -6.62476E-01 -6.46088E-01 -3.14147E+00 -9.73769E-02 -7.93589E-01
  -2.06397E+00  6.83812E-01 -3.41446E+00  1.78987E+00 -6.19242E-01 -2.74313E+00  5.62038E-01 -3.49848E+00 -3.91423E+00 -8.00144E-01
  -1.91419E+00 -1.07667E+00 -7.44471E-01 -1.56122E+00  1.05470E+00  8.84269E-01 -2.15256E+00 -3.07646E+00 -2.92153E+00  1.35362E+00
  -5.00524E-01 -4.70717E-01 -4.45362E+00  1.03165E+00 -2.17772E+00 -1.22221E+00 -3.26615E+00 -2.42779E+00 -4.67666E+00 -3.55626E+00
  -2.28366E+00 -3.48658E+00 -1.70708E+00 -2.54708E+00 -7.20391E-01 -2.91960E+00 -1.98281E+00 -5.28763E+00 -3.57084E+00 -4.65690E+00
  -4.40141E+00 -4.52588E+00 -3.43813E+00 -1.78947E+00 -1.76641E+00 -2.52412E+00 -2.17819E+00 -4.47115E+00 -2.71094E+00 -4.63351E+00
  -3.42388E+00 -7.78719E+00 -4.36494E+00 -6.25789E+00 -5.18049E+00 -6.82883E+00 -4.19866E+00 -6.81780E+00 -6.04202E+00 -5.89506E+00
  -4.13703E+00 -4.81318E+00 -3.04015E+00 -5.35126E+00 -6.86407E+00 -5.89066E+00 -4.77015E+00 -6.33795E+00 -5.24004E+00 -6.87560E+00
  -7.83798E+00 -7.59036E+00 -5.65857E+00 -5.42407E+00 -2.74428E+00 -2.03154E+00 -4.02147E+00 -1.94080E+00 -2.30734E+00 -3.37823E+00
  -5.76124E+00 -3.48234E+00 -4.64950E+00 -4.11038E+00 -6.71094E+00 -1.37299E+00 -8.27795E+00 -3.38023E+00 -6.97785E+00 -2.53842E+00
  -4.59098E+00 -3.81711E+00 -1.44127E+00 -3.09772E-01 -3.62041E+00 -2.53521E+00 -5.53528E+00 -4.04199E+00  1.77789E+00 -1.32525E+00
  -1.68065E+00  1.82026E+00 -4.36920E+00 -4.02599E+00 -1.54688E+00 -3.05252E+00 -2.09652E-01 -2.35703E+00 -1.34779E+00 -3.07062E-01
  -3.09302E+00  1.23882E+00 -1.95049E+00 -4.18457E+00 -1.90439E+00  2.44816E+00 -2.68197E+00  3.04727E+00 -7.36548E-01  7.20016E-01
  -1.61115E+00  1.43829E+00 -4.82067E-01  1.02528E+00  4.76495E-01  2.96128E+00 -1.40944E+00  8.74002E-01  1.92512E-01  1.93828E+00
   4.28996E-02  1.17170E+00  2.41977E+00  9.28439E-02 -1.00599E+00  3.70217E+00  3.08533E+00 -5.73938E-01 -1.03326E+00  2.37987E+00
   2.86581E+00  7.59974E+00  3.53325E+00  3.73933E+00  4.68173E+00  4.27639E+00  6.32091E+00  4.09512E+00  2.20595E+00  4.41917E+00
   4.00304E+00  3.10418E+00  4.03417E+00  3.75259E+00  5.66308E+00  4.69803E+00  6.16921E+00  5.54136E+00  7.61434E+00  9.04263E+00
   7.37425E+00  6.70572E+00  7.36125E+00  7.53881E+00  6.93928E+00  7.40956E+00  7.25860E+00  5.59226E+00  4.01543E+00  5.19960E+00
   7.18550E+00  2.71915E+00  2.05023E+00  4.07501E+00  2.96215E+00 -4.29219E-01 -3.82810E-01  6.51627E-01 -4.50238E-01  1.13153E+00
  -3.69721E-01 -7.66917E-01  3.65606E+00  4.20656E+00  2.95554E+00  4.02926E+00  2.85964E+00  6.17636E+00  4.50035E+00  4.02283E+00
   7.89740E+00  5.48373E+00  6.52878E+00  4.25461E+00  3.47208E+00  6.99408E+00  7.40174E+00  7.33249E+00  8.27505E+00  8.52926E+00
   5.36776E+00  5.95079E+00  5.14563E+00  5.94640E+00  7.64234E+00  5.55970E+00  4.18196E+00  4.33797E+00  2.47329E+00  3.58066E+00
   7.00192E+00  5.29447E+00  8.26065E+00  5.79234E+00  5.79476E+00  3.62062E+00  5.46733E+00  4.18509E+00  2.77029E+00  4.11980E-01
   5.91156E+00  2.75416E+00 -3.71817E-01  2.92404E+00 -3.19152E-01  9.97540E-01 -1.47844E+00 -3.16814E+00  3.17618E+00  1.81564E+00
  -4.13866E-01  1.30106E+00  3.19276E+00  2.03349E+00 -7.33746E-01 -8.94454E-01 -1.71820E+00 -3.03403E+00 -1.09447E+00 -1.11675E-01
  -4.23045E+00 -1.85331E+00 -5.55864E+00 -3.84697E+00 -3.07707E+00 -4.91881E+00 -5.97047E+00 -4.78237E+00 -6.57445E+00 -3.76306E+00
  -7.76339E+00 -7.19146E+00 -4.18355E+00 -6.19721E+00 -1.91377E+00 -5.80823E+00 -6.06042E+00 -5.86604E+00 -3.22875E+00 -6.17729E+00
  -8.09470E+00 -6.26896E+00 -5.45618E+00 -4.60901E+00 -5.76411E+00 -5.64649E+00 -7.22240E+00 -4.81988E+00 -3.89257E+00 -4.92939E+00
  -5.82167E+00 -4.87399E+00 -7.36113E+00 -2.93024E+00 -1.62942E+00 -6.73566E+00 -4.82747E+00 -5.34870E+00 -7.02586E+00 -5.71172E+00
  -5.97800E+00 -3.53675E+00 -3.39382E+00 -3.94356E+00 -3.57528E+00 -1.80360E+00 -2.91086E+00 -2.50850E+00 -4.20081E+00 -2.29726E+00
  -3.70278E+00 -3.68561E+00 -3.60795E+00 -7.64744E+00 -3.59560E+00 -3.06026E+00 -3.97434E+00 -3.66088E+00 -3.93353E+00 -3.52633E+00
  -5.89201E+00 -6.27803E+00 -1.45372E+00 -5.75255E+00 -4.24002E+00 -4.84377E+00  1.50942E+00 -5.02843E+00 -6.82742E+00 -3.22411E+00
  -5.67973E+00 -3.48131E+00 -2.98111E+00 -3.55924E+00 -4.47319E+00  1.16051E-02 -2.36630E+00 -1.62818E+00
 NY points of the fit to the data follow
   3.32737E+00  3.31904E+00  3.33584E+00  3.45313E+00  3.79502E+00  4.24501E+00  4.62534E+00  4.78926E+00  4.68226E+00  4.39152E+00
   4.04433E+00  3.71867E+00  3.44902E+00  3.25936E+00  3.13741E+00  3.05416E+00  2.98834E+00  2.96808E+00  3.00413E+00  3.08253E+00
   3.21147E+00  3.37339E+00  3.44260E+00  3.31380E+00  3.00122E+00  2.64994E+00  2.40041E+00  2.32568E+00  2.42488E+00  2.68087E+00
   3.01733E+00  3.29969E+00  3.40116E+00  3.26861E+00  3.00060E+00  2.74455E+00  2.54653E+00  2.41627E+00  2.36328E+00  2.36257E+00
   2.38431E+00  2.40770E+00  2.42145E+00  2.42837E+00  2.43755E+00  2.44454E+00  2.42986E+00  2.38817E+00  2.32727E+00  2.25236E+00
   2.17397E+00  2.10472E+00  2.04884E+00  2.00118E+00  1.96165E+00  1.93245E+00  1.91219E+00  1.89627E+00  1.87646E+00  1.84650E+00
   1.80608E+00  1.75978E+00  1.71413E+00  1.67214E+00  1.63772E+00  1.60918E+00  1.58225E+00  1.55778E+00  1.53515E+00  1.51238E+00
   1.49305E+00  1.48050E+00  1.46892E+00  1.45119E+00  1.42088E+00  1.37535E+00  1.32065E+00  1.26860E+00  1.22585E+00  1.19305E+00
   1.17188E+00  1.17246E+00  1.18898E+00  1.19864E+00  1.18414E+00  1.13851E+00  1.07202E+00  1.00485E+00  9.47278E-01  8.96940E-01
   8.51893E-01  8.13956E-01  7.82224E-01  7.54837E-01  7.35969E-01  7.26768E-01  7.46689E-01  9.52211E-01  1.56833E+00  2.38094E+00
   3.06645E+00  3.34796E+00  3.13318E+00  2.59725E+00  1.97081E+00  1.38507E+00  9.02361E-01  6.02784E-01  4.85925E-01  4.56074E-01
   4.20033E-01  3.77791E-01  3.37600E-01  3.00131E-01  2.64558E-01  2.27877E-01  1.89855E-01  1.52407E-01  1.18136E-01  9.40275E-02
   1.09463E-01  3.31114E-01  9.41420E-01  1.71064E+00  2.33243E+00  2.55620E+00  2.32261E+00  1.81032E+00  1.23649E+00  7.18790E-01
   3.01396E-01  3.86754E-02 -8.74455E-02 -1.66951E-01 -2.58242E-01 -3.32435E-01 -3.72867E-01 -3.78351E-01 -3.63664E-01 -3.47856E-01
  -3.46606E-01 -3.64912E-01 -3.98362E-01 -4.41178E-01 -4.86655E-01 -5.30773E-01 -5.71429E-01 -6.08972E-01 -6.44971E-01 -6.81035E-01
  -7.16716E-01 -7.50456E-01 -7.81150E-01 -8.08920E-01 -8.34884E-01 -8.61709E-01 -8.90332E-01 -9.19743E-01 -9.48594E-01 -9.76805E-01
  -1.00517E+00 -1.03373E+00 -1.06012E+00 -1.08302E+00 -1.10320E+00 -1.12242E+00 -1.14272E+00 -1.16481E+00 -1.18821E+00 -1.21235E+00
  -1.23721E+00 -1.26332E+00 -1.29104E+00 -1.32041E+00 -1.35117E+00 -1.38243E+00 -1.41349E+00 -1.44362E+00 -1.47250E+00 -1.49845E+00
  -1.52292E+00 -1.54871E+00 -1.57602E+00 -1.60358E+00 -1.62809E+00 -1.64355E+00 -1.64625E+00 -1.63895E+00 -1.63268E+00 -1.64481E+00
  -1.68405E+00 -1.75235E+00 -1.84746E+00 -1.95429E+00 -2.04466E+00 -2.09363E+00 -2.08308E+00 -2.00890E+00 -1.89416E+00 -1.77688E+00
  -1.67762E+00 -1.61164E+00 -1.61060E+00 -1.68112E+00 -1.82887E+00 -2.08445E+00 -2.39815E+00 -2.66058E+00 -2.78918E+00 -2.73256E+00
  -2.49152E+00 -2.08490E+00 -1.65481E+00 -1.34841E+00 -1.26748E+00 -1.44447E+00 -1.81824E+00 -2.31805E+00 -2.85485E+00 -3.28218E+00
  -3.45665E+00 -3.35177E+00 -3.05039E+00 -2.69939E+00 -2.39622E+00 -2.18323E+00 -2.09597E+00 -2.14285E+00 -2.27148E+00 -2.40235E+00
  -2.49241E+00 -2.55650E+00 -2.60071E+00 -2.60978E+00 -2.58548E+00 -2.54868E+00 -2.52211E+00 -2.52578E+00 -2.59361E+00 -2.69806E+00
  -2.80396E+00 -2.88629E+00 -2.92550E+00 -2.91642E+00 -2.89013E+00 -2.88359E+00 -2.90241E+00 -2.94041E+00 -2.97342E+00 -2.97346E+00
  -2.92969E+00 -2.87070E+00 -2.83084E+00 -2.83884E+00 -2.89340E+00 -2.96682E+00 -3.01929E+00 -3.02552E+00 -2.98746E+00 -2.92221E+00
  -2.86394E+00 -2.83404E+00 -2.83460E+00 -2.86332E+00 -2.90636E+00 -2.94819E+00 -2.98600E+00 -3.02184E+00 -3.04638E+00 -3.04840E+00
  -3.02891E+00 -2.99516E+00 -2.95549E+00 -2.91945E+00 -2.89315E+00 -2.87759E+00 -2.87168E+00 -2.86960E+00 -2.86304E+00 -2.84518E+00
  -2.81380E+00 -2.76954E+00 -2.71311E+00 -2.64535E+00 -2.56690E+00 -2.47783E+00 -2.37736E+00 -2.26402E+00 -2.13650E+00 -1.99468E+00
  -1.83852E+00 -1.66837E+00 -1.48545E+00 -1.29172E+00 -1.08959E+00 -8.81929E-01 -6.72323E-01 -4.64705E-01 -2.62963E-01 -7.10757E-02
   1.07012E-01  2.67786E-01  4.08366E-01  5.26794E-01  6.22241E-01  6.95048E-01  7.46776E-01  7.80232E-01  7.99402E-01  8.09247E-01
   8.15543E-01  8.24717E-01  8.43611E-01  8.79196E-01  9.38337E-01  1.02760E+00  1.15318E+00  1.32107E+00  1.53753E+00  1.81047E+00
   2.15324E+00  2.59753E+00  3.22658E+00  4.00056E+00  4.55532E+00  4.68801E+00  4.39131E+00  3.85068E+00  3.33565E+00  2.96520E+00
   2.80332E+00  3.14069E+00  4.03359E+00  5.23823E+00  6.36701E+00  7.10504E+00  7.41534E+00  7.40111E+00  7.17322E+00  6.80509E+00
   6.41337E+00  6.09828E+00  5.86726E+00  5.65655E+00  5.44820E+00  5.24658E+00  5.05476E+00  4.87508E+00  4.70932E+00  4.55854E+00
   4.42310E+00  4.30258E+00  4.19597E+00  4.10173E+00  4.01797E+00  3.94258E+00  3.87342E+00  3.80850E+00  3.74609E+00  3.68489E+00
   3.62407E+00  3.56339E+00  3.50322E+00  3.44456E+00  3.38905E+00  3.33888E+00  3.29671E+00  3.26561E+00  3.24887E+00  3.24987E+00
   3.27188E+00  3.31785E+00  3.39016E+00  3.49046E+00  3.61941E+00  3.77654E+00  3.96006E+00  4.16682E+00  4.39226E+00  4.63051E+00
   4.87454E+00  5.11642E+00  5.34762E+00  5.55945E+00  5.74341E+00  5.89175E+00  5.99777E+00  6.05625E+00  6.06374E+00  6.01863E+00
   5.92129E+00  5.77392E+00  5.58038E+00  5.34583E+00  5.07637E+00  4.77861E+00  4.45924E+00  4.12467E+00  3.78066E+00  3.43211E+00
   3.08293E+00  2.73596E+00  2.39308E+00  2.05535E+00  1.72313E+00  1.39637E+00  1.07479E+00  7.58085E-01  4.46096E-01  1.38920E-01
  -1.63031E-01 -4.59036E-01 -7.48086E-01 -1.02897E+00 -1.30035E+00 -1.56087E+00 -1.80928E+00 -2.04450E+00 -2.26566E+00 -2.47219E+00
  -2.66382E+00 -2.84055E+00 -3.00268E+00 -3.15071E+00 -3.28537E+00 -3.40750E+00 -3.51804E+00 -3.61797E+00 -3.70831E+00 -3.79002E+00
  -3.86404E+00 -3.93124E+00 -3.99240E+00 -4.04825E+00 -4.09942E+00 -4.14649E+00 -4.18995E+00 -4.23021E+00 -4.26765E+00 -4.30259E+00
  -4.33531E+00 -4.36604E+00 -4.39499E+00 -4.42234E+00 -4.44823E+00 -4.47280E+00 -4.49618E+00 -4.51846E+00 -4.53972E+00 -4.56006E+00
  -4.57954E+00 -4.59823E+00 -4.61618E+00 -4.63344E+00 -4.65006E+00 -4.66608E+00 -4.68154E+00 -4.69648E+00 -4.71093E+00 -4.72492E+00
  -4.73846E+00 -4.75160E+00 -4.76434E+00 -4.77672E+00 -4.78875E+00 -4.80045E+00 -4.81184E+00 -4.82293E+00 -4.83374E+00 -4.84428E+00
  -4.85456E+00 -4.86461E+00 -4.87441E+00 -4.88400E+00 -4.89338E+00 -4.90256E+00 -4.91154E+00 -4.92034E+00 -4.92897E+00 -4.93743E+00
  -4.94572E+00 -4.95387E+00 -4.96187E+00 -4.96972E+00 -4.97744E+00 -4.98503E+00 -4.99250E+00 -4.99985E+00 -5.00708E+00 -5.01421E+00
  -5.02122E+00 -5.02814E+00 -5.03496E+00 -5.04169E+00 -5.04833E+00 -5.05487E+00 -5.06134E+00 -5.06772E+00
 NY background values follow
     3.501E+00    3.474E+00    3.446E+00    3.419E+00    3.391E+00    3.364E+00    3.337E+00    3.309E+00    3.282E+00    3.254E+00
     3.227E+00    3.199E+00    3.172E+00    3.145E+00    3.117E+00    3.090E+00    3.062E+00    3.035E+00    3.007E+00    2.980E+00
     2.952E+00    2.925E+00    2.897E+00    2.870E+00    2.842E+00    2.815E+00    2.787E+00    2.760E+00    2.732E+00    2.705E+00
     2.677E+00    2.650E+00    2.622E+00    2.595E+00    2.567E+00    2.540E+00    2.512E+00    2.485E+00    2.457E+00    2.430E+00
     2.402E+00    2.375E+00    2.347E+00    2.320E+00    2.292E+00    2.264E+00    2.237E+00    2.209E+00    2.182E+00    2.154E+00
     2.127E+00    2.099E+00    2.071E+00    2.044E+00    2.016E+00    1.989E+00    1.961E+00    1.933E+00    1.906E+00    1.878E+00
     1.851E+00    1.823E+00    1.795E+00    1.768E+00    1.740E+00    1.713E+00    1.685E+00    1.657E+00    1.630E+00    1.602E+00
     1.575E+00    1.547E+00    1.519E+00    1.492E+00    1.464E+00    1.436E+00    1.409E+00    1.381E+00    1.353E+00    1.326E+00
     1.298E+00    1.271E+00    1.243E+00    1.215E+00    1.188E+00    1.160E+00    1.132E+00    1.105E+00    1.077E+00    1.049E+00
     1.022E+00    9.942E-01    9.666E-01    9.389E-01    9.113E-01    8.837E-01    8.560E-01    8.284E-01    8.008E-01    7.732E-01
     7.455E-01    7.179E-01    6.903E-01    6.627E-01    6.351E-01    6.075E-01    5.799E-01    5.524E-01    5.248E-01    4.972E-01
     4.697E-01    4.421E-01    4.146E-01    3.871E-01    3.595E-01    3.320E-01    3.045E-01    2.771E-01    2.496E-01    2.221E-01
     1.947E-01    1.673E-01    1.398E-01    1.124E-01    8.505E-02    5.768E-02    3.032E-02    2.979E-03   -2.435E-02   -5.165E-02
    -7.894E-02   -1.062E-01   -1.335E-01   -1.607E-01   -1.879E-01   -2.151E-01   -2.423E-01   -2.695E-01   -2.966E-01   -3.237E-01
    -3.508E-01   -3.779E-01   -4.049E-01   -4.319E-01   -4.589E-01   -4.859E-01   -5.128E-01   -5.397E-01   -5.666E-01   -5.934E-01
    -6.203E-01   -6.471E-01   -6.738E-01   -7.005E-01   -7.272E-01   -7.539E-01   -7.805E-01   -8.071E-01   -8.337E-01   -8.602E-01
    -8.867E-01   -9.131E-01   -9.395E-01   -9.659E-01   -9.922E-01   -1.019E+00   -1.045E+00   -1.071E+00   -1.097E+00   -1.123E+00
    -1.149E+00   -1.175E+00   -1.201E+00   -1.227E+00   -1.253E+00   -1.279E+00   -1.305E+00   -1.331E+00   -1.356E+00   -1.382E+00
    -1.408E+00   -1.433E+00   -1.459E+00   -1.484E+00   -1.509E+00   -1.535E+00   -1.560E+00   -1.585E+00   -1.610E+00   -1.636E+00
    -1.661E+00   -1.685E+00   -1.710E+00   -1.735E+00   -1.760E+00   -1.785E+00   -1.809E+00   -1.834E+00   -1.858E+00   -1.883E+00
    -1.907E+00   -1.931E+00   -1.955E+00   -1.979E+00   -2.003E+00   -2.027E+00   -2.051E+00   -2.075E+00   -2.098E+00   -2.122E+00
    -2.145E+00   -2.169E+00   -2.192E+00   -2.215E+00   -2.238E+00   -2.261E+00   -2.284E+00   -2.306E+00   -2.329E+00   -2.352E+00
    -2.374E+00   -2.396E+00   -2.418E+00   -2.440E+00   -2.462E+00   -2.484E+00   -2.506E+00   -2.528E+00   -2.549E+00   -2.570E+00
    -2.592E+00   -2.613E+00   -2.634E+00   -2.655E+00   -2.675E+00   -2.696E+00   -2.717E+00   -2.737E+00   -2.757E+00   -2.777E+00
    -2.798E+00   -2.817E+00   -2.837E+00   -2.857E+00   -2.877E+00   -2.896E+00   -2.915E+00   -2.935E+00   -2.954E+00   -2.973E+00
    -2.992E+00   -3.010E+00   -3.029E+00   -3.047E+00   -3.066E+00   -3.084E+00   -3.102E+00   -3.120E+00   -3.138E+00   -3.156E+00
    -3.174E+00   -3.191E+00   -3.209E+00   -3.226E+00   -3.243E+00   -3.260E+00   -3.277E+00   -3.294E+00   -3.311E+00   -3.328E+00
    -3.344E+00   -3.361E+00   -3.377E+00   -3.393E+00   -3.409E+00   -3.425E+00   -3.441E+00   -3.457E+00   -3.472E+00   -3.488E+00
    -3.503E+00   -3.518E+00   -3.534E+00   -3.549E+00   -3.564E+00   -3.578E+00   -3.593E+00   -3.608E+00   -3.622E+00   -3.637E+00
    -3.651E+00   -3.665E+00   -3.679E+00   -3.693E+00   -3.707E+00   -3.721E+00   -3.735E+00   -3.748E+00   -3.762E+00   -3.775E+00
    -3.788E+00   -3.802E+00   -3.815E+00   -3.828E+00   -3.841E+00   -3.854E+00   -3.866E+00   -3.879E+00   -3.892E+00   -3.904E+00
    -3.916E+00   -3.929E+00   -3.941E+00   -3.953E+00   -3.965E+00   -3.977E+00   -3.989E+00   -4.001E+00   -4.013E+00   -4.024E+00
    -4.036E+00   -4.047E+00   -4.059E+00   -4.070E+00   -4.081E+00   -4.092E+00   -4.103E+00   -4.114E+00   -4.125E+00   -4.136E+00
    -4.147E+00   -4.157E+00   -4.168E+00   -4.179E+00   -4.189E+00   -4.199E+00   -4.210E+00   -4.220E+00   -4.230E+00   -4.240E+00
    -4.250E+00   -4.260E+00   -4.270E+00   -4.280E+00   -4.289E+00   -4.299E+00   -4.309E+00   -4.318E+00   -4.327E+00   -4.337E+00
    -4.346E+00   -4.355E+00   -4.365E+00   -4.374E+00   -4.383E+00   -4.392E+00   -4.400E+00   -4.409E+00   -4.418E+00   -4.427E+00
    -4.435E+00   -4.444E+00   -4.452E+00   -4.461E+00   -4.469E+00   -4.477E+00   -4.486E+00   -4.494E+00   -4.502E+00   -4.510E+00
    -4.518E+00   -4.526E+00   -4.534E+00   -4.542E+00   -4.549E+00   -4.557E+00   -4.565E+00   -4.572E+00   -4.580E+00   -4.587E+00
    -4.595E+00   -4.602E+00   -4.609E+00   -4.617E+00   -4.624E+00   -4.631E+00   -4.638E+00   -4.645E+00   -4.652E+00   -4.659E+00
    -4.666E+00   -4.672E+00   -4.679E+00   -4.686E+00   -4.692E+00   -4.699E+00   -4.705E+00   -4.712E+00   -4.718E+00   -4.725E+00
    -4.731E+00   -4.737E+00   -4.743E+00   -4.749E+00   -4.756E+00   -4.762E+00   -4.768E+00   -4.774E+00   -4.779E+00   -4.785E+00
    -4.791E+00   -4.797E+00   -4.802E+00   -4.808E+00   -4.814E+00   -4.819E+00   -4.825E+00   -4.830E+00   -4.836E+00   -4.841E+00
    -4.846E+00   -4.852E+00   -4.857E+00   -4.862E+00   -4.867E+00   -4.872E+00   -4.877E+00   -4.882E+00   -4.887E+00   -4.892E+00
    -4.897E+00   -4.902E+00   -4.907E+00   -4.912E+00   -4.916E+00   -4.921E+00   -4.926E+00   -4.930E+00   -4.935E+00   -4.939E+00
    -4.944E+00   -4.948E+00   -4.953E+00   -4.957E+00   -4.962E+00   -4.966E+00   -4.970E+00   -4.975E+00   -4.979E+00   -4.983E+00
    -4.987E+00   -4.991E+00   -4.995E+00   -5.000E+00   -5.004E+00   -5.008E+00   -5.012E+00   -5.016E+00   -5.019E+00   -5.023E+00
    -5.027E+00   -5.031E+00   -5.035E+00   -5.039E+00   -5.043E+00   -5.046E+00   -5.050E+00   -5.054E+00   -5.058E+00   -5.061E+00
    -5.065E+00   -5.069E+00   -5.072E+00   -5.076E+00   -5.079E+00   -5.083E+00   -5.087E+00   -5.090E+00   -5.094E+00   -5.097E+00
    -5.101E+00   -5.104E+00   -5.108E+00   -5.111E+00   -5.115E+00   -5.118E+00   -5.122E+00   -5.125E+00   -5.129E+00   -5.132E+00
    -5.136E+00   -5.139E+00   -5.143E+00   -5.146E+00   -5.150E+00   -5.153E+00   -5.157E+00   -5.160E+00
 Ala      Conc. = 1.11E+02
