 LCModel (Version 6.3-1L) Copyright: S.W. Provencher.          Ref.: Magn. Reson. Med. 30:672-679 (1993).                
 Slice#1 Row#8 Col#3  PD_24_press_1_raw_act
 36 lines in following concentration table = NCONC+1
    Conc.  %SD /Cr+PCr  Metabolite                                         
    0.000 999%   0.000 Ala                                                 
   61.017 245% 7.7E-02 Asp                                                 
  295.970  65%   0.372 Cr                                                  
  500.122  39%   0.628 PCr                                                 
   33.737 288% 4.2E-02 GABA                                                
   96.490 100%   0.121 Glc                                                 
  551.628  39%   0.693 Gln                                                 
  989.497  25%   1.243 Glu                                                 
  256.839  70%   0.323 GPC                                                 
   49.602 370% 6.2E-02 PCh                                                 
  268.580  25%   0.337 GSH                                                 
  252.046  91%   0.317 Ins                                                 
  208.335  55%   0.262 Lac                                                 
 1.41E+03   7%   1.777 NAA                                                 
  264.930  42%   0.333 NAAG                                                
   29.944  70% 3.8E-02 Scyllo                                              
  170.282  87%   0.214 Tau                                                 
  155.446  63%   0.195 -CrCH2                                              
  306.442   6%   0.385 GPC+PCh                                             
 1.68E+03   4%   2.110 NAA+NAAG                                            
  796.093   6%   1.000 Cr+PCr                                              
 1.54E+03  23%   1.936 Glu+Gln                                             
    0.000 999%   0.000 Lip13a                                              
  192.535  62%   0.242 Lip13b                                              
    0.000 999%   0.000 Lip09                                               
  738.566  19%   0.928 MM09                                                
   64.898  95% 8.2E-02 Lip20                                               
 1.28E+03  17%   1.606 MM20                                                
  222.029  23%   0.279 MM12                                                
  584.738  25%   0.735 MM14                                                
  422.013  21%   0.530 MM17                                                
  192.535  62%   0.242 Lip13a+Lip13b                                       
  999.301  21%   1.255 MM14+Lip13a+Lip13b+MM12                             
  738.566  19%   0.928 MM09+Lip09                                          
 1.34E+03  17%   1.688 MM20+Lip20                                          
   6 lines in following misc. output table
  FWHM = 0.054 ppm    S/N =   8                                            
  Data shift = 0.015 ppm                                                   
  Ph: -69 deg     -16.6 deg/ppm                                            
  alphaB,S = 1.0E+00,   1.1E+02                                            
   14 spline knots.   Ns = 7(1)                                            
  (11) 3 infls.   ( 9) 1 extrs.                                            
  498 points on ppm-axis = NY
      4.000000     3.992357     3.984714     3.977070     3.969427     3.961784     3.954141     3.946497     3.938854     3.931211
      3.923568     3.915925     3.908281     3.900638     3.892995     3.885352     3.877708     3.870065     3.862422     3.854779
      3.847136     3.839492     3.831849     3.824206     3.816563     3.808919     3.801276     3.793633     3.785990     3.778347
      3.770703     3.763060     3.755417     3.747774     3.740130     3.732487     3.724844     3.717201     3.709558     3.701914
      3.694271     3.686628     3.678985     3.671341     3.663698     3.656055     3.648412     3.640769     3.633125     3.625482
      3.617839     3.610196     3.602552     3.594909     3.587266     3.579623     3.571980     3.564336     3.556693     3.549050
      3.541407     3.533763     3.526120     3.518477     3.510834     3.503191     3.495547     3.487904     3.480261     3.472618
      3.464974     3.457331     3.449688     3.442045     3.434402     3.426758     3.419115     3.411472     3.403829     3.396185
      3.388542     3.380899     3.373256     3.365613     3.357969     3.350326     3.342683     3.335040     3.327396     3.319753
      3.312110     3.304467     3.296824     3.289180     3.281537     3.273894     3.266251     3.258607     3.250964     3.243321
      3.235678     3.228034     3.220391     3.212748     3.205105     3.197462     3.189818     3.182175     3.174532     3.166889
      3.159245     3.151602     3.143959     3.136316     3.128673     3.121029     3.113386     3.105743     3.098100     3.090456
      3.082813     3.075170     3.067527     3.059884     3.052240     3.044597     3.036954     3.029311     3.021667     3.014024
      3.006381     2.998738     2.991095     2.983451     2.975808     2.968165     2.960522     2.952878     2.945235     2.937592
      2.929949     2.922306     2.914662     2.907019     2.899376     2.891733     2.884089     2.876446     2.868803     2.861160
      2.853517     2.845873     2.838230     2.830587     2.822944     2.815300     2.807657     2.800014     2.792371     2.784728
      2.777084     2.769441     2.761798     2.754155     2.746511     2.738868     2.731225     2.723582     2.715939     2.708295
      2.700652     2.693009     2.685366     2.677722     2.670079     2.662436     2.654793     2.647150     2.639506     2.631863
      2.624220     2.616577     2.608933     2.601290     2.593647     2.586004     2.578361     2.570717     2.563074     2.555431
      2.547788     2.540144     2.532501     2.524858     2.517215     2.509572     2.501928     2.494285     2.486642     2.478999
      2.471355     2.463712     2.456069     2.448426     2.440783     2.433139     2.425496     2.417853     2.410210     2.402566
      2.394923     2.387280     2.379637     2.371994     2.364350     2.356707     2.349064     2.341421     2.333777     2.326134
      2.318491     2.310848     2.303205     2.295561     2.287918     2.280275     2.272632     2.264988     2.257345     2.249702
      2.242059     2.234416     2.226772     2.219129     2.211486     2.203843     2.196199     2.188556     2.180913     2.173270
      2.165627     2.157983     2.150340     2.142697     2.135054     2.127410     2.119767     2.112124     2.104481     2.096838
      2.089194     2.081551     2.073908     2.066265     2.058621     2.050978     2.043335     2.035692     2.028049     2.020405
      2.012762     2.005119     1.997476     1.989833     1.982190     1.974546     1.966903     1.959260     1.951617     1.943974
      1.936331     1.928688     1.921045     1.913402     1.905759     1.898115     1.890472     1.882829     1.875186     1.867543
      1.859900     1.852257     1.844614     1.836971     1.829327     1.821684     1.814041     1.806398     1.798755     1.791112
      1.783469     1.775826     1.768183     1.760540     1.752896     1.745253     1.737610     1.729967     1.722324     1.714681
      1.707038     1.699395     1.691752     1.684108     1.676465     1.668822     1.661179     1.653536     1.645893     1.638250
      1.630607     1.622964     1.615321     1.607677     1.600034     1.592391     1.584748     1.577105     1.569462     1.561819
      1.554176     1.546533     1.538890     1.531246     1.523603     1.515960     1.508317     1.500674     1.493031     1.485388
      1.477745     1.470102     1.462458     1.454815     1.447172     1.439529     1.431886     1.424243     1.416600     1.408957
      1.401314     1.393671     1.386027     1.378384     1.370741     1.363098     1.355455     1.347812     1.340169     1.332526
      1.324883     1.317240     1.309596     1.301953     1.294310     1.286667     1.279024     1.271381     1.263738     1.256095
      1.248452     1.240808     1.233165     1.225522     1.217879     1.210236     1.202593     1.194950     1.187307     1.179664
      1.172021     1.164377     1.156734     1.149091     1.141448     1.133805     1.126162     1.118519     1.110876     1.103233
      1.095590     1.087946     1.080303     1.072660     1.065017     1.057374     1.049731     1.042088     1.034445     1.026802
      1.019158     1.011515     1.003872     0.996229     0.988586     0.980943     0.973300     0.965657     0.958014     0.950371
      0.942727     0.935084     0.927441     0.919798     0.912155     0.904512     0.896869     0.889226     0.881583     0.873940
      0.866296     0.858653     0.851010     0.843367     0.835724     0.828081     0.820438     0.812795     0.805152     0.797508
      0.789865     0.782222     0.774579     0.766936     0.759293     0.751650     0.744007     0.736364     0.728721     0.721077
      0.713434     0.705791     0.698148     0.690505     0.682862     0.675219     0.667576     0.659933     0.652290     0.644646
      0.637003     0.629360     0.621717     0.614074     0.606431     0.598788     0.591145     0.583502     0.575858     0.568215
      0.560572     0.552929     0.545286     0.537643     0.530000     0.522357     0.514714     0.507071     0.499427     0.491784
      0.484141     0.476498     0.468855     0.461212     0.453569     0.445925     0.438282     0.430639     0.422996     0.415353
      0.407710     0.400067     0.392424     0.384780     0.377137     0.369494     0.361851     0.354208     0.346565     0.338922
      0.331278     0.323635     0.315992     0.308349     0.300706     0.293063     0.285420     0.277777     0.270133     0.262490
      0.254847     0.247204     0.239561     0.231918     0.224275     0.216631     0.208988     0.201345
 NY phased data points follow
  -9.39231E+00 -5.43751E+00 -2.27931E+00 -2.98285E+00 -8.60037E-01  1.66916E-01 -1.30676E+00  5.53998E+00  6.14240E+00  3.39962E+00
   9.74242E+00  8.43213E+00  7.16773E+00  6.44130E+00 -1.22336E+00 -3.63216E+00  2.40471E+00 -6.83013E+00 -5.38109E+00 -2.68484E+00
  -1.92408E+00 -6.03779E+00 -6.57421E+00 -5.52241E+00  3.65290E+00 -4.60316E+00 -1.88599E+00 -1.03118E+00 -1.41274E+00  9.44280E-01
  -3.53699E-01 -1.87797E-01  4.33438E+00 -7.59744E-01 -2.33812E+00 -8.48476E-01 -5.16839E+00 -5.35503E+00 -1.65647E+00 -3.23338E+00
  -3.91008E+00 -3.08569E+00 -3.62073E+00 -5.53804E+00 -2.39236E-01 -9.54369E-01  9.34099E-01  9.64481E-01  1.06251E+00 -2.82579E+00
  -6.58770E+00 -3.24149E+00 -2.99316E+00 -7.28472E-01 -4.29896E+00 -2.83892E+00 -3.24791E+00 -1.03518E+00 -8.66402E+00 -4.23284E+00
  -5.80158E+00 -5.06168E+00 -2.15615E+00 -6.27311E+00 -3.54124E+00 -1.62247E+00 -3.37624E+00 -7.36337E+00 -4.66710E+00 -3.14062E+00
  -5.96062E+00 -7.66363E+00 -7.70915E+00 -2.44875E-01 -4.71855E+00 -1.54534E+00 -1.00880E+00 -3.03148E+00 -3.67398E+00  6.51341E-01
  -1.49713E+00 -3.41037E+00 -2.47896E+00 -1.13945E+00 -4.03973E+00 -2.68942E+00 -5.33094E-01 -5.40182E+00 -3.29295E+00 -5.94109E+00
  -3.83113E+00 -1.48018E+00 -9.88848E-01  9.35814E-01  4.68260E+00 -1.85822E+00  2.57894E+00  8.34809E+00  8.03261E+00  5.16502E+00
   1.10239E+01  2.02350E+01  2.83890E+01  2.51968E+01  2.27468E+01  2.00913E+01  1.36942E+01  8.46406E+00  3.88140E+00  2.84424E+00
   9.11510E-01 -2.80913E+00 -4.37449E+00  2.03030E-02 -3.48446E+00 -1.37882E-01 -3.08132E+00  9.87104E-01  9.33835E-01  4.48300E+00
   2.58890E+00  4.76984E+00  8.90790E+00  7.70619E+00  1.15541E+01  1.92495E+01  2.22713E+01  2.20652E+01  2.48633E+01  1.97145E+01
   1.17243E+01  7.50070E+00  1.92870E+00  2.05168E+00  2.54881E+00  3.93615E+00  3.64711E-01 -2.25160E+00  1.83873E-01  1.65315E+00
  -2.14150E-02  3.48275E-01  5.49628E+00  1.55689E+00 -1.59862E+00 -3.22537E+00 -2.08996E+00  6.80906E-01 -3.07770E-01  1.83139E-01
  -3.83051E+00 -4.53160E+00  5.12370E-01 -9.31833E-01 -1.75257E+00 -6.35444E+00 -5.13431E+00  1.53150E+00  5.70460E-01  1.37573E+00
  -1.46415E+00 -5.10430E+00 -3.60219E+00 -6.89452E+00 -1.16100E+01 -5.76042E+00 -6.64739E+00 -5.75413E+00 -4.82853E+00 -6.11596E+00
  -6.61808E+00 -7.49797E+00 -9.24651E+00 -1.01380E+01 -7.91603E+00 -9.68577E+00 -9.95595E+00 -1.25958E+01 -7.95577E+00 -1.16032E+01
  -8.09267E+00 -1.04193E+01 -8.81089E+00 -7.50324E+00 -1.03873E+00 -6.04415E+00 -6.86549E+00 -6.65136E+00 -1.19000E+01 -4.23066E+00
  -4.38159E+00 -2.51724E+00 -4.24931E+00 -6.52186E+00 -5.17263E+00 -2.09436E+00 -2.43860E+00 -1.01566E+01 -2.56947E+00 -5.58372E+00
  -4.70279E+00 -1.98945E+00  2.19989E+00 -1.01491E+00  5.19851E+00 -2.51365E+00 -4.59351E+00  9.83163E-01 -5.40346E-01 -1.89582E+00
  -1.98728E+00  1.85256E-01  1.95106E+00  5.79561E+00  6.12401E+00  6.46271E+00  4.81867E+00  5.40321E+00  6.11968E+00  3.30408E+00
   5.29958E-01 -1.24816E+00 -2.30088E+00 -1.23840E+00 -1.56683E+00  1.83987E+00  7.77262E+00  3.54435E+00  1.36159E+00  5.80533E+00
   6.71339E+00  2.19249E+00  2.11459E+00  5.33835E+00  3.90074E+00  2.01939E-01  4.32085E+00  5.13043E+00  1.70881E+00  3.86118E+00
   2.73051E+00  3.06645E+00  5.61839E-01  3.62055E+00  4.14046E+00  7.98345E+00  8.73831E+00  3.86671E+00  7.32225E+00  6.62586E+00
   1.23367E+01  1.04240E+01  9.66999E+00  2.05457E+01  2.18257E+01  2.54565E+01  3.21479E+01  3.17652E+01  3.81624E+01  5.02490E+01
   5.01945E+01  5.59461E+01  4.87216E+01  3.72820E+01  2.49935E+01  1.84203E+01  1.39872E+01  9.51887E+00  6.16632E+00  7.49970E+00
   1.16698E+01  3.01177E+00  4.98547E+00  3.62761E+00  3.55479E+00  6.12585E+00  1.16351E+00  2.69463E+00  1.19556E+00  8.27874E+00
   3.37700E+00  2.61942E+00  3.66604E-02  2.97516E+00  9.09159E-01  8.39986E+00  2.32339E+00  5.34903E+00 -1.81657E-01  4.18688E+00
   1.17780E+00  2.37907E+00  2.58224E+00  5.74785E+00  8.24334E+00  4.79717E+00  2.87485E+00  2.21109E+00  1.84159E+00  2.94940E+00
   3.98125E+00  6.19776E+00  9.81878E+00  5.48934E+00  4.40241E+00  5.44128E+00  4.68479E+00  6.38898E+00  5.36274E+00  5.05618E+00
   4.15421E+00  2.80538E+00  2.84345E+00  2.56074E+00  7.26033E+00  1.51619E+00 -2.65989E-01  1.50446E+00  6.34453E+00 -8.27621E-01
   4.03319E+00  5.63790E-01  3.68440E+00  1.62438E+00  5.24171E+00  2.29455E+00  1.66817E+00  6.36767E+00  2.90421E+00  6.57822E+00
   3.72276E+00  3.59081E+00  4.23624E+00  6.06516E+00  2.88835E+00  4.16741E+00  4.82135E+00  3.19644E+00  4.98118E+00  1.67994E+00
   5.71139E+00  1.09262E+00  3.06164E+00 -8.85301E-01  1.36852E+00  3.90461E+00  1.28992E+00  3.24666E+00 -2.02552E-01  4.89737E+00
   1.80341E+00 -1.63938E-01 -1.42524E+00 -9.44628E-01  6.31574E+00  1.51461E+00  6.56555E+00  9.06407E+00  3.41544E+00  2.03036E+00
   8.02733E+00  6.82875E+00  6.93583E+00  6.51842E+00  5.09222E+00  9.36041E-01  6.47382E+00  1.59048E+00  2.89090E+00  8.47934E+00
   2.83889E+00  2.75584E+00 -5.89425E-01  2.88736E+00  1.47773E+00 -2.85583E-01  6.27311E+00  1.38353E+00 -1.43173E-01 -7.48398E-01
   5.81325E+00  2.76838E+00 -4.42522E-01 -2.64221E+00 -5.11757E-01  5.80825E-01  6.71626E-01 -7.91142E-02  4.10921E+00  3.97083E-01
   5.04723E+00  5.79361E+00  1.74900E-01  5.28560E+00  4.93359E+00 -2.42683E-01  7.54481E-01  2.69276E+00  6.06832E+00  3.42534E+00
   4.29100E+00  5.76230E+00 -2.28863E+00 -4.59916E-01 -1.16039E+00 -1.85521E+00  3.28908E-01 -1.01010E+00 -4.21081E-02  2.15487E+00
   2.43848E+00  5.93479E+00  5.35834E+00  9.75225E-01  3.64602E-01  1.25492E+00 -3.88657E-02  3.14571E+00  1.35932E+00  5.41182E+00
   1.31796E+00  2.60405E+00 -2.03124E+00  2.24066E+00  1.54216E+00 -4.36164E-01 -2.10525E+00  2.55803E+00 -1.24198E+00 -2.28244E+00
   1.92768E+00  4.26693E+00  4.66650E+00 -2.51506E+00  1.84692E+00  2.61283E+00 -2.14378E+00 -4.85616E-01  2.92000E+00  4.10956E-01
   1.00249E+00  2.25321E+00 -2.05795E-01  3.82188E+00  2.98374E+00  9.05933E-01  1.48436E+00  2.40559E+00 -6.53729E-01 -6.69600E-01
  -1.66947E+00  2.60609E+00 -7.30913E-01  1.10638E+00  8.91034E-01  3.40066E+00  2.83156E+00  2.48077E+00  1.09582E+00  3.71401E+00
   4.65336E+00 -5.70618E+00 -3.72578E-01  1.19014E-01 -1.92476E+00  7.40244E-02 -1.82030E+00 -1.71569E+00 -3.07120E+00  3.57458E+00
  -1.65872E+00  1.63815E+00  2.65942E-01  1.46723E+00 -8.88471E-01  2.62295E+00 -2.54840E+00  3.49220E+00 -2.70447E+00  7.45155E-01
   8.72213E-01  1.61747E-01  3.58558E+00  8.92920E-01  2.62676E+00  6.67890E-01  1.97164E+00  1.40783E-01 -5.48722E-01 -1.27227E+00
   1.77793E+00 -1.49735E+00 -2.17016E+00  4.76578E-01  4.67854E+00  2.57965E+00  4.73398E-01  3.69379E+00
 NY points of the fit to the data follow
  -5.84350E+00 -5.41217E+00 -4.43655E+00 -3.23392E+00 -1.76617E+00 -5.14811E-02  1.83586E+00  3.86259E+00  5.85306E+00  7.42642E+00
   8.09166E+00  7.54661E+00  5.95571E+00  3.82296E+00  1.68353E+00 -1.14864E-01 -1.49637E+00 -2.51012E+00 -3.15645E+00 -3.60313E+00
  -3.84413E+00 -4.01974E+00 -4.04549E+00 -3.66782E+00 -3.20829E+00 -2.81714E+00 -2.37279E+00 -1.60712E+00 -4.37740E-01  9.11032E-01
   2.11988E+00  2.80892E+00  2.70869E+00  1.81409E+00  3.41111E-01 -1.32809E+00 -2.80512E+00 -3.90803E+00 -4.46659E+00 -4.36422E+00
  -3.87072E+00 -3.27910E+00 -2.80050E+00 -2.45335E+00 -2.19261E+00 -1.98284E+00 -1.82689E+00 -1.77116E+00 -1.85072E+00 -2.08200E+00
  -2.45769E+00 -2.89160E+00 -3.26051E+00 -3.52828E+00 -3.71398E+00 -3.83004E+00 -3.89746E+00 -3.91924E+00 -3.89294E+00 -3.82412E+00
  -3.75300E+00 -3.74249E+00 -3.79750E+00 -3.90270E+00 -4.00829E+00 -4.04605E+00 -4.01689E+00 -3.96849E+00 -3.88611E+00 -3.74551E+00
  -3.59923E+00 -3.47519E+00 -3.35263E+00 -3.20877E+00 -3.06357E+00 -2.96055E+00 -2.95450E+00 -3.08307E+00 -3.28618E+00 -3.40538E+00
  -3.39874E+00 -3.32048E+00 -3.18462E+00 -2.97263E+00 -2.69035E+00 -2.42538E+00 -2.32481E+00 -2.45417E+00 -2.75590E+00 -3.09687E+00
  -3.35792E+00 -3.47449E+00 -3.45377E+00 -3.37361E+00 -3.12859E+00 -1.93173E+00  1.10818E+00  4.50186E+00  7.32031E+00  1.02977E+01
   1.44670E+01  1.95842E+01  2.39387E+01  2.57330E+01  2.41665E+01  1.97188E+01  1.39527E+01  8.64586E+00  4.69866E+00  1.91075E+00
  -2.60743E-01 -1.83063E+00 -2.45145E+00 -2.61850E+00 -2.66479E+00 -2.64706E+00 -2.58240E+00 -2.44600E+00 -2.12700E+00 -1.00746E+00
   1.63715E+00  4.48953E+00  6.87112E+00  9.52622E+00  1.33542E+01  1.80379E+01  2.20370E+01  2.37453E+01  2.23902E+01  1.84440E+01
   1.33910E+01  8.79346E+00  5.35277E+00  2.78660E+00  5.84193E-01 -1.20110E+00 -2.15618E+00 -2.55679E+00 -2.57028E+00 -2.28150E+00
  -1.86786E+00 -1.51156E+00 -1.29528E+00 -1.23921E+00 -1.33179E+00 -1.50518E+00 -1.70153E+00 -1.91484E+00 -2.13019E+00 -2.31853E+00
  -2.46510E+00 -2.57437E+00 -2.66818E+00 -2.76963E+00 -2.91403E+00 -3.04854E+00 -3.10027E+00 -3.09289E+00 -3.09526E+00 -3.23436E+00
  -3.51249E+00 -3.76345E+00 -3.83767E+00 -3.73056E+00 -3.55485E+00 -3.46153E+00 -3.55154E+00 -3.81216E+00 -4.15129E+00 -4.48744E+00
  -4.76064E+00 -4.88654E+00 -4.94388E+00 -5.07089E+00 -5.32251E+00 -5.59019E+00 -5.67461E+00 -5.50985E+00 -5.24687E+00 -5.07265E+00
  -5.07020E+00 -5.10308E+00 -4.96089E+00 -4.61009E+00 -4.15127E+00 -3.69072E+00 -3.24379E+00 -2.70135E+00 -1.97435E+00 -1.15627E+00
  -4.72821E-01 -1.78859E-01 -2.75008E-01 -6.13676E-01 -1.02066E+00 -1.36114E+00 -1.54159E+00 -1.41045E+00 -9.06712E-01 -1.38774E-01
   7.09425E-01  1.50145E+00  2.02548E+00  2.02624E+00  1.64226E+00  9.32479E-01 -2.23299E-01 -1.71930E+00 -3.08567E+00 -3.72190E+00
  -3.60648E+00 -2.89864E+00 -1.63551E+00  6.84482E-02  1.78014E+00  2.86625E+00  3.02799E+00  2.43134E+00  1.23781E+00 -4.60677E-01
  -2.18224E+00 -3.39538E+00 -3.76673E+00 -3.21525E+00 -1.96042E+00 -3.14481E-01  1.27683E+00  2.44181E+00  3.02485E+00  3.09325E+00
   2.96921E+00  2.83296E+00  2.72680E+00  2.74540E+00  2.98321E+00  3.32110E+00  3.58017E+00  3.78223E+00  3.94775E+00  3.94817E+00
   3.62369E+00  3.09675E+00  2.65399E+00  2.50842E+00  2.71604E+00  3.21657E+00  3.93158E+00  4.68974E+00  5.51925E+00  6.71641E+00
   8.03153E+00  9.27244E+00  1.09762E+01  1.49895E+01  2.15929E+01  2.75634E+01  3.18902E+01  3.61036E+01  4.16285E+01  4.76973E+01
   5.18587E+01  5.18768E+01  4.69748E+01  3.82638E+01  2.84612E+01  2.02075E+01  1.42480E+01  9.88677E+00  6.39504E+00  4.08550E+00
   3.19201E+00  2.81891E+00  2.64549E+00  2.58694E+00  2.55179E+00  2.48214E+00  2.37171E+00  2.22257E+00  2.05330E+00  1.89462E+00
   1.76890E+00  1.68043E+00  1.63239E+00  1.62517E+00  1.64925E+00  1.69436E+00  1.75060E+00  1.81586E+00  1.89537E+00  1.99482E+00
   2.11805E+00  2.26548E+00  2.42991E+00  2.60272E+00  2.77373E+00  2.93499E+00  3.08167E+00  3.21204E+00  3.32686E+00  3.42580E+00
   3.50797E+00  3.57346E+00  3.61868E+00  3.63823E+00  3.62921E+00  3.59221E+00  3.53057E+00  3.44825E+00  3.34937E+00  3.24021E+00
   3.12664E+00  3.01361E+00  2.90607E+00  2.80833E+00  2.72409E+00  2.65614E+00  2.60635E+00  2.57564E+00  2.56427E+00  2.57172E+00
   2.59684E+00  2.63772E+00  2.69195E+00  2.75675E+00  2.82943E+00  2.90721E+00  2.98730E+00  3.06684E+00  3.14320E+00  3.21414E+00
   3.27810E+00  3.33394E+00  3.38111E+00  3.41957E+00  3.45029E+00  3.47557E+00  3.49970E+00  3.52998E+00  3.58020E+00  3.68284E+00
   3.89872E+00  4.10965E+00  4.15073E+00  4.11898E+00  4.13443E+00  4.14989E+00  3.96027E+00  3.42117E+00  2.72913E+00  2.09861E+00
   1.61168E+00  1.40812E+00  1.64051E+00  2.34170E+00  3.36206E+00  4.45864E+00  5.41221E+00  5.99734E+00  6.09640E+00  5.82963E+00
   5.38634E+00  4.89288E+00  4.37992E+00  3.84969E+00  3.38279E+00  3.01997E+00  2.73449E+00  2.51152E+00  2.34102E+00  2.21344E+00
   2.11980E+00  2.05217E+00  2.00428E+00  1.97154E+00  1.95105E+00  1.94113E+00  1.94114E+00  1.95101E+00  1.97117E+00  2.00220E+00
   2.04484E+00  2.09969E+00  2.16731E+00  2.24798E+00  2.34190E+00  2.44895E+00  2.56884E+00  2.70082E+00  2.84384E+00  2.99642E+00
   3.15680E+00  3.32278E+00  3.49187E+00  3.66109E+00  3.82730E+00  3.98706E+00  4.13696E+00  4.27349E+00  4.39336E+00  4.49339E+00
   4.57087E+00  4.62351E+00  4.64975E+00  4.64855E+00  4.61968E+00  4.56346E+00  4.48106E+00  4.37419E+00  4.24525E+00  4.09696E+00
   3.93245E+00  3.75496E+00  3.56790E+00  3.37459E+00  3.17830E+00  2.98192E+00  2.78810E+00  2.59903E+00  2.41665E+00  2.24242E+00
   2.07751E+00  1.92260E+00  1.77811E+00  1.64413E+00  1.52065E+00  1.40735E+00  1.30386E+00  1.20959E+00  1.12396E+00  1.04630E+00
   9.76046E-01  9.12540E-01  8.55205E-01  8.03391E-01  7.56589E-01  7.14269E-01  6.76050E-01  6.41480E-01  6.10214E-01  5.81848E-01
   5.56130E-01  5.32774E-01  5.11610E-01  4.92378E-01  4.74912E-01  4.58983E-01  4.44500E-01  4.31311E-01  4.19354E-01  4.08467E-01
   3.98577E-01  3.89550E-01  3.81375E-01  3.73964E-01  3.67301E-01  3.61269E-01  3.55844E-01  3.50940E-01  3.46585E-01  3.42710E-01
   3.39318E-01  3.36309E-01  3.33693E-01  3.31413E-01  3.29516E-01  3.27939E-01  3.26690E-01  3.25682E-01  3.24945E-01  3.24439E-01
   3.24213E-01  3.24205E-01  3.24427E-01  3.24809E-01  3.25397E-01  3.26158E-01  3.27138E-01  3.28269E-01  3.29567E-01  3.30973E-01
   3.32545E-01  3.34251E-01  3.36133E-01  3.38122E-01  3.40242E-01  3.42448E-01  3.44802E-01  3.47272E-01  3.49894E-01  3.52600E-01
   3.55423E-01  3.58328E-01  3.61384E-01  3.64556E-01  3.67879E-01  3.71292E-01  3.74839E-01  3.78499E-01
 NY background values follow
    -7.285E+00   -7.256E+00   -7.226E+00   -7.196E+00   -7.167E+00   -7.137E+00   -7.107E+00   -7.078E+00   -7.048E+00   -7.019E+00
    -6.989E+00   -6.959E+00   -6.930E+00   -6.900E+00   -6.871E+00   -6.841E+00   -6.811E+00   -6.782E+00   -6.752E+00   -6.723E+00
    -6.693E+00   -6.663E+00   -6.634E+00   -6.604E+00   -6.575E+00   -6.545E+00   -6.516E+00   -6.486E+00   -6.457E+00   -6.427E+00
    -6.398E+00   -6.368E+00   -6.339E+00   -6.309E+00   -6.280E+00   -6.250E+00   -6.221E+00   -6.191E+00   -6.162E+00   -6.133E+00
    -6.103E+00   -6.074E+00   -6.044E+00   -6.015E+00   -5.986E+00   -5.956E+00   -5.927E+00   -5.898E+00   -5.869E+00   -5.839E+00
    -5.810E+00   -5.781E+00   -5.752E+00   -5.723E+00   -5.694E+00   -5.665E+00   -5.636E+00   -5.607E+00   -5.578E+00   -5.549E+00
    -5.520E+00   -5.491E+00   -5.462E+00   -5.433E+00   -5.404E+00   -5.376E+00   -5.347E+00   -5.318E+00   -5.290E+00   -5.261E+00
    -5.232E+00   -5.204E+00   -5.176E+00   -5.147E+00   -5.119E+00   -5.090E+00   -5.062E+00   -5.034E+00   -5.006E+00   -4.978E+00
    -4.950E+00   -4.922E+00   -4.894E+00   -4.866E+00   -4.838E+00   -4.810E+00   -4.783E+00   -4.755E+00   -4.728E+00   -4.700E+00
    -4.673E+00   -4.645E+00   -4.618E+00   -4.591E+00   -4.564E+00   -4.537E+00   -4.510E+00   -4.483E+00   -4.456E+00   -4.429E+00
    -4.402E+00   -4.375E+00   -4.349E+00   -4.322E+00   -4.296E+00   -4.269E+00   -4.243E+00   -4.217E+00   -4.191E+00   -4.164E+00
    -4.138E+00   -4.112E+00   -4.086E+00   -4.061E+00   -4.035E+00   -4.009E+00   -3.983E+00   -3.958E+00   -3.932E+00   -3.907E+00
    -3.881E+00   -3.856E+00   -3.831E+00   -3.805E+00   -3.780E+00   -3.755E+00   -3.730E+00   -3.705E+00   -3.680E+00   -3.655E+00
    -3.631E+00   -3.606E+00   -3.581E+00   -3.557E+00   -3.532E+00   -3.508E+00   -3.483E+00   -3.459E+00   -3.435E+00   -3.411E+00
    -3.387E+00   -3.362E+00   -3.338E+00   -3.314E+00   -3.290E+00   -3.267E+00   -3.243E+00   -3.219E+00   -3.195E+00   -3.171E+00
    -3.148E+00   -3.124E+00   -3.100E+00   -3.077E+00   -3.053E+00   -3.029E+00   -3.006E+00   -2.982E+00   -2.959E+00   -2.935E+00
    -2.911E+00   -2.888E+00   -2.864E+00   -2.841E+00   -2.817E+00   -2.794E+00   -2.770E+00   -2.746E+00   -2.723E+00   -2.699E+00
    -2.675E+00   -2.652E+00   -2.628E+00   -2.604E+00   -2.580E+00   -2.556E+00   -2.532E+00   -2.509E+00   -2.485E+00   -2.461E+00
    -2.437E+00   -2.412E+00   -2.388E+00   -2.364E+00   -2.340E+00   -2.315E+00   -2.291E+00   -2.267E+00   -2.242E+00   -2.218E+00
    -2.193E+00   -2.169E+00   -2.145E+00   -2.120E+00   -2.096E+00   -2.071E+00   -2.047E+00   -2.022E+00   -1.998E+00   -1.974E+00
    -1.949E+00   -1.925E+00   -1.901E+00   -1.876E+00   -1.852E+00   -1.828E+00   -1.804E+00   -1.780E+00   -1.756E+00   -1.732E+00
    -1.708E+00   -1.684E+00   -1.661E+00   -1.637E+00   -1.613E+00   -1.590E+00   -1.567E+00   -1.544E+00   -1.520E+00   -1.497E+00
    -1.475E+00   -1.452E+00   -1.429E+00   -1.407E+00   -1.384E+00   -1.362E+00   -1.340E+00   -1.318E+00   -1.296E+00   -1.275E+00
    -1.253E+00   -1.232E+00   -1.211E+00   -1.190E+00   -1.169E+00   -1.148E+00   -1.128E+00   -1.107E+00   -1.087E+00   -1.067E+00
    -1.047E+00   -1.027E+00   -1.008E+00   -9.885E-01   -9.694E-01   -9.504E-01   -9.316E-01   -9.130E-01   -8.946E-01   -8.763E-01
    -8.583E-01   -8.404E-01   -8.228E-01   -8.053E-01   -7.880E-01   -7.710E-01   -7.541E-01   -7.374E-01   -7.209E-01   -7.047E-01
    -6.886E-01   -6.728E-01   -6.571E-01   -6.417E-01   -6.265E-01   -6.115E-01   -5.967E-01   -5.822E-01   -5.678E-01   -5.537E-01
    -5.398E-01   -5.262E-01   -5.128E-01   -4.996E-01   -4.866E-01   -4.738E-01   -4.613E-01   -4.490E-01   -4.369E-01   -4.251E-01
    -4.134E-01   -4.020E-01   -3.908E-01   -3.798E-01   -3.690E-01   -3.585E-01   -3.481E-01   -3.380E-01   -3.280E-01   -3.183E-01
    -3.088E-01   -2.994E-01   -2.903E-01   -2.814E-01   -2.727E-01   -2.642E-01   -2.558E-01   -2.477E-01   -2.398E-01   -2.321E-01
    -2.245E-01   -2.172E-01   -2.100E-01   -2.030E-01   -1.962E-01   -1.897E-01   -1.832E-01   -1.770E-01   -1.710E-01   -1.651E-01
    -1.594E-01   -1.539E-01   -1.485E-01   -1.434E-01   -1.384E-01   -1.336E-01   -1.289E-01   -1.245E-01   -1.202E-01   -1.160E-01
    -1.120E-01   -1.082E-01   -1.046E-01   -1.010E-01   -9.767E-02   -9.444E-02   -9.136E-02   -8.841E-02   -8.560E-02   -8.292E-02
    -8.037E-02   -7.794E-02   -7.564E-02   -7.345E-02   -7.138E-02   -6.941E-02   -6.756E-02   -6.582E-02   -6.417E-02   -6.262E-02
    -6.117E-02   -5.981E-02   -5.854E-02   -5.736E-02   -5.626E-02   -5.523E-02   -5.429E-02   -5.341E-02   -5.261E-02   -5.187E-02
    -5.119E-02   -5.057E-02   -5.001E-02   -4.950E-02   -4.905E-02   -4.863E-02   -4.826E-02   -4.793E-02   -4.764E-02   -4.738E-02
    -4.715E-02   -4.695E-02   -4.677E-02   -4.661E-02   -4.647E-02   -4.635E-02   -4.624E-02   -4.614E-02   -4.605E-02   -4.596E-02
    -4.588E-02   -4.580E-02   -4.572E-02   -4.563E-02   -4.554E-02   -4.545E-02   -4.534E-02   -4.522E-02   -4.508E-02   -4.492E-02
    -4.475E-02   -4.455E-02   -4.433E-02   -4.408E-02   -4.380E-02   -4.349E-02   -4.314E-02   -4.275E-02   -4.233E-02   -4.186E-02
    -4.136E-02   -4.080E-02   -4.019E-02   -3.954E-02   -3.882E-02   -3.806E-02   -3.723E-02   -3.634E-02   -3.539E-02   -3.438E-02
    -3.329E-02   -3.213E-02   -3.090E-02   -2.960E-02   -2.822E-02   -2.675E-02   -2.521E-02   -2.358E-02   -2.186E-02   -2.006E-02
    -1.817E-02   -1.620E-02   -1.416E-02   -1.203E-02   -9.823E-03   -7.541E-03   -5.184E-03   -2.752E-03   -2.486E-04    2.326E-03
     4.970E-03    7.683E-03    1.046E-02    1.331E-02    1.622E-02    1.919E-02    2.222E-02    2.532E-02    2.847E-02    3.168E-02
     3.494E-02    3.826E-02    4.164E-02    4.506E-02    4.854E-02    5.206E-02    5.563E-02    5.925E-02    6.291E-02    6.662E-02
     7.037E-02    7.416E-02    7.798E-02    8.185E-02    8.575E-02    8.969E-02    9.366E-02    9.767E-02    1.017E-01    1.058E-01
     1.099E-01    1.140E-01    1.181E-01    1.223E-01    1.265E-01    1.307E-01    1.350E-01    1.392E-01    1.435E-01    1.478E-01
     1.521E-01    1.565E-01    1.608E-01    1.652E-01    1.696E-01    1.740E-01    1.785E-01    1.829E-01    1.874E-01    1.919E-01
     1.964E-01    2.009E-01    2.054E-01    2.100E-01    2.145E-01    2.191E-01    2.236E-01    2.282E-01    2.328E-01    2.374E-01
     2.421E-01    2.467E-01    2.513E-01    2.560E-01    2.606E-01    2.653E-01    2.699E-01    2.746E-01    2.793E-01    2.839E-01
     2.886E-01    2.933E-01    2.980E-01    3.027E-01    3.073E-01    3.120E-01    3.167E-01    3.214E-01
 Asp      Conc. = 6.10E+01
