 LCModel (Version 6.3-1L) Copyright: S.W. Provencher.          Ref.: Magn. Reson. Med. 30:672-679 (1993).                
 Slice#3 Row#8 Col#10  PD_24_press_1_raw_act
 36 lines in following concentration table = NCONC+1
    Conc.  %SD /Cr+PCr  Metabolite                                         
   49.864 209% 2.7E-02 Ala                                                 
   29.287 832% 1.6E-02 Asp                                                 
  921.360  22%   0.499 Cr                                                  
  926.453  22%   0.501 PCr                                                 
    0.000 999%   0.000 GABA                                                
    0.000 999%   0.000 Glc                                                 
  795.476  27%   0.430 Gln                                                 
 2.03E+03  12%   1.098 Glu                                                 
  785.751   3%   0.425 GPC                                                 
    0.000 999%   0.000 PCh                                                 
  491.775  14%   0.266 GSH                                                 
 1.37E+03  17%   0.739 Ins                                                 
    0.000 999%   0.000 Lac                                                 
 2.46E+03   4%   1.331 NAA                                                 
  178.973  58% 9.7E-02 NAAG                                                
  132.923  20% 7.2E-02 Scyllo                                              
    0.000 999%   0.000 Tau                                                 
    0.000 999%   0.000 -CrCH2                                              
  785.751   3%   0.425 GPC+PCh                                             
 2.64E+03   3%   1.428 NAA+NAAG                                            
 1.85E+03   3%   1.000 Cr+PCr                                              
 2.82E+03  12%   1.528 Glu+Gln                                             
  296.850 115%   0.161 Lip13a                                              
    0.000 999%   0.000 Lip13b                                              
    0.000 999%   0.000 Lip09                                               
 1.68E+03  12%   0.911 MM09                                                
   10.740 995% 5.8E-03 Lip20                                               
 2.61E+03  14%   1.411 MM20                                                
  614.955  24%   0.333 MM12                                                
 3.47E+03  12%   1.878 MM14                                                
 1.81E+03  16%   0.978 MM17                                                
  296.850 115%   0.161 Lip13a+Lip13b                                       
 4.38E+03   9%   2.372 MM14+Lip13a+Lip13b+MM12                             
 1.68E+03  12%   0.911 MM09+Lip09                                          
 2.62E+03  14%   1.417 MM20+Lip20                                          
   6 lines in following misc. output table
  FWHM = 0.046 ppm    S/N =  14                                            
  Data shift = 0.015 ppm                                                   
  Ph: -30 deg     -10.1 deg/ppm                                            
  alphaB,S = 1.8E+00,   1.5E+02                                            
   14 spline knots.   Ns = 6(1)                                            
  ( 9) 2 infls.   ( 3) 1 extrs.                                            
  498 points on ppm-axis = NY
      4.000000     3.992357     3.984714     3.977070     3.969427     3.961784     3.954141     3.946497     3.938854     3.931211
      3.923568     3.915925     3.908281     3.900638     3.892995     3.885352     3.877708     3.870065     3.862422     3.854779
      3.847136     3.839492     3.831849     3.824206     3.816563     3.808919     3.801276     3.793633     3.785990     3.778347
      3.770703     3.763060     3.755417     3.747774     3.740130     3.732487     3.724844     3.717201     3.709558     3.701914
      3.694271     3.686628     3.678985     3.671341     3.663698     3.656055     3.648412     3.640769     3.633125     3.625482
      3.617839     3.610196     3.602552     3.594909     3.587266     3.579623     3.571980     3.564336     3.556693     3.549050
      3.541407     3.533763     3.526120     3.518477     3.510834     3.503191     3.495547     3.487904     3.480261     3.472618
      3.464974     3.457331     3.449688     3.442045     3.434402     3.426758     3.419115     3.411472     3.403829     3.396185
      3.388542     3.380899     3.373256     3.365613     3.357969     3.350326     3.342683     3.335040     3.327396     3.319753
      3.312110     3.304467     3.296824     3.289180     3.281537     3.273894     3.266251     3.258607     3.250964     3.243321
      3.235678     3.228034     3.220391     3.212748     3.205105     3.197462     3.189818     3.182175     3.174532     3.166889
      3.159245     3.151602     3.143959     3.136316     3.128673     3.121029     3.113386     3.105743     3.098100     3.090456
      3.082813     3.075170     3.067527     3.059884     3.052240     3.044597     3.036954     3.029311     3.021667     3.014024
      3.006381     2.998738     2.991095     2.983451     2.975808     2.968165     2.960522     2.952878     2.945235     2.937592
      2.929949     2.922306     2.914662     2.907019     2.899376     2.891733     2.884089     2.876446     2.868803     2.861160
      2.853517     2.845873     2.838230     2.830587     2.822944     2.815300     2.807657     2.800014     2.792371     2.784728
      2.777084     2.769441     2.761798     2.754155     2.746511     2.738868     2.731225     2.723582     2.715939     2.708295
      2.700652     2.693009     2.685366     2.677722     2.670079     2.662436     2.654793     2.647150     2.639506     2.631863
      2.624220     2.616577     2.608933     2.601290     2.593647     2.586004     2.578361     2.570717     2.563074     2.555431
      2.547788     2.540144     2.532501     2.524858     2.517215     2.509572     2.501928     2.494285     2.486642     2.478999
      2.471355     2.463712     2.456069     2.448426     2.440783     2.433139     2.425496     2.417853     2.410210     2.402566
      2.394923     2.387280     2.379637     2.371994     2.364350     2.356707     2.349064     2.341421     2.333777     2.326134
      2.318491     2.310848     2.303205     2.295561     2.287918     2.280275     2.272632     2.264988     2.257345     2.249702
      2.242059     2.234416     2.226772     2.219129     2.211486     2.203843     2.196199     2.188556     2.180913     2.173270
      2.165627     2.157983     2.150340     2.142697     2.135054     2.127410     2.119767     2.112124     2.104481     2.096838
      2.089194     2.081551     2.073908     2.066265     2.058621     2.050978     2.043335     2.035692     2.028049     2.020405
      2.012762     2.005119     1.997476     1.989833     1.982190     1.974546     1.966903     1.959260     1.951617     1.943974
      1.936331     1.928688     1.921045     1.913402     1.905759     1.898115     1.890472     1.882829     1.875186     1.867543
      1.859900     1.852257     1.844614     1.836971     1.829327     1.821684     1.814041     1.806398     1.798755     1.791112
      1.783469     1.775826     1.768183     1.760540     1.752896     1.745253     1.737610     1.729967     1.722324     1.714681
      1.707038     1.699395     1.691752     1.684108     1.676465     1.668822     1.661179     1.653536     1.645893     1.638250
      1.630607     1.622964     1.615321     1.607677     1.600034     1.592391     1.584748     1.577105     1.569462     1.561819
      1.554176     1.546533     1.538890     1.531246     1.523603     1.515960     1.508317     1.500674     1.493031     1.485388
      1.477745     1.470102     1.462458     1.454815     1.447172     1.439529     1.431886     1.424243     1.416600     1.408957
      1.401314     1.393671     1.386027     1.378384     1.370741     1.363098     1.355455     1.347812     1.340169     1.332526
      1.324883     1.317240     1.309596     1.301953     1.294310     1.286667     1.279024     1.271381     1.263738     1.256095
      1.248452     1.240808     1.233165     1.225522     1.217879     1.210236     1.202593     1.194950     1.187307     1.179664
      1.172021     1.164377     1.156734     1.149091     1.141448     1.133805     1.126162     1.118519     1.110876     1.103233
      1.095590     1.087946     1.080303     1.072660     1.065017     1.057374     1.049731     1.042088     1.034445     1.026802
      1.019158     1.011515     1.003872     0.996229     0.988586     0.980943     0.973300     0.965657     0.958014     0.950371
      0.942727     0.935084     0.927441     0.919798     0.912155     0.904512     0.896869     0.889226     0.881583     0.873940
      0.866296     0.858653     0.851010     0.843367     0.835724     0.828081     0.820438     0.812795     0.805152     0.797508
      0.789865     0.782222     0.774579     0.766936     0.759293     0.751650     0.744007     0.736364     0.728721     0.721077
      0.713434     0.705791     0.698148     0.690505     0.682862     0.675219     0.667576     0.659933     0.652290     0.644646
      0.637003     0.629360     0.621717     0.614074     0.606431     0.598788     0.591145     0.583502     0.575858     0.568215
      0.560572     0.552929     0.545286     0.537643     0.530000     0.522357     0.514714     0.507071     0.499427     0.491784
      0.484141     0.476498     0.468855     0.461212     0.453569     0.445925     0.438282     0.430639     0.422996     0.415353
      0.407710     0.400067     0.392424     0.384780     0.377137     0.369494     0.361851     0.354208     0.346565     0.338922
      0.331278     0.323635     0.315992     0.308349     0.300706     0.293063     0.285420     0.277777     0.270133     0.262490
      0.254847     0.247204     0.239561     0.231918     0.224275     0.216631     0.208988     0.201345
 NY phased data points follow
   4.42091E+00  1.96179E-01  1.13456E+01  5.90009E+00  8.19901E+00  1.09671E+01  2.28434E+01  2.75512E+01  4.05431E+01  4.62194E+01
   4.70882E+01  4.87678E+01  4.93260E+01  3.89409E+01  3.35960E+01  2.52794E+01  1.89502E+01  1.53553E+01  9.89288E+00  7.09426E+00
   1.16019E+01  6.98414E+00  1.27855E+01  7.21070E+00  1.48107E+01  1.15029E+01  1.23824E+01  1.08023E+01  1.33546E+01  1.21616E+01
   1.61306E+01  1.27227E+01  1.70437E+01  1.78281E+01  1.55928E+01  1.16712E+01  1.48763E+01  8.55781E+00  1.18709E+01  1.20931E+01
   1.14361E+01  6.81687E+00  1.15454E+01  1.07276E+01  1.83398E+01  1.42592E+01  1.77958E+01  1.82283E+01  1.99354E+01  1.85564E+01
   1.46029E+01  7.61907E+00  1.64045E+01  6.32069E+00  9.26878E+00  8.15406E+00  9.39506E+00  7.40006E+00  7.64794E+00  5.32384E+00
   4.01560E+00  2.35368E-01 -1.58874E+00 -1.75542E+00 -4.04615E+00 -7.80969E+00 -2.00461E+00 -6.82162E+00 -5.65285E+00 -7.71554E+00
  -8.39035E-01 -3.65965E+00 -2.17726E+00 -5.08814E+00  4.07735E-01 -1.93796E+00  1.08521E+00 -3.98704E+00 -1.32331E+00  1.31790E+00
  -2.65197E-01 -1.47050E+00  6.96530E+00  2.10680E+00  4.74274E+00  2.43642E+00  3.45006E+00  3.37649E+00  4.11839E+00  1.85563E+00
   4.11890E+00  3.39841E+00  6.39742E+00  2.73741E+00  4.71006E+00  5.50858E+00  2.46603E+00  4.62287E+00  1.25763E+01  2.44911E+01
   4.39693E+01  5.95913E+01  6.94568E+01  7.14594E+01  6.66607E+01  5.88182E+01  4.79734E+01  2.92636E+01  2.68070E+01  1.75519E+01
   1.15273E+01  6.91261E+00  6.51766E+00 -5.27348E-01  1.12638E+00 -3.06626E+00  2.49967E-01 -2.88954E+00 -2.13324E+00 -3.85226E+00
  -4.01861E-01 -3.73428E+00  1.91585E+00  1.31617E+01  3.50590E+01  4.64943E+01  5.86776E+01  6.59829E+01  5.91079E+01  4.94411E+01
   4.10285E+01  3.42435E+01  1.85134E+01  1.81822E+01  1.02841E+01  7.57515E+00  1.92346E+00  8.88400E-01  1.27989E-01  6.10866E+00
   3.65348E+00 -4.32116E+00  1.48066E+00  3.66127E+00 -8.82345E-02 -2.26092E+00 -1.53287E+00 -3.57743E+00 -9.27540E-01 -4.84923E+00
  -3.02045E+00 -4.05453E+00 -3.28638E+00 -3.90720E+00 -9.37305E-01 -1.69732E+00 -4.64366E+00 -5.12537E+00 -3.27986E+00 -3.74046E+00
  -5.58426E+00 -8.36964E+00 -7.49848E+00 -8.86793E+00 -7.44565E+00 -3.88168E+00 -7.00812E+00 -8.66351E+00 -8.06297E+00 -1.13951E+01
  -8.86776E+00 -1.12641E+01 -9.97093E+00 -1.39938E+01 -1.41424E+01 -1.78218E+01 -1.31490E+01 -1.23856E+01 -9.67905E+00 -1.14757E+01
  -1.27276E+01 -1.25031E+01 -1.19316E+01 -1.46050E+01 -1.58504E+01 -1.29359E+01 -1.02102E+01 -1.29939E+01 -1.04379E+01 -8.20837E+00
  -2.53424E+00 -1.83049E+00  1.17976E-01  1.26532E+00 -6.58477E-01 -2.20822E-01 -2.04740E+00 -6.71256E+00 -7.14152E+00 -7.13287E+00
  -5.04571E+00  5.55266E-01  1.12937E+00  3.87193E+00  2.91596E+00  3.67102E-01 -5.83310E+00 -5.43166E+00 -6.02830E+00 -1.07799E+01
  -7.07146E+00 -5.61717E+00 -2.83904E+00  4.02169E+00  9.91220E+00  7.22669E+00  1.00322E+01  7.42448E+00  1.04385E+01 -5.62331E-01
  -7.08844E+00 -9.30138E+00 -6.31871E+00 -8.68724E+00 -2.69869E+00 -8.62133E-01  1.39422E+00  4.21938E+00  4.29339E+00  5.39815E+00
   7.12523E+00  2.33370E+00  3.47654E+00 -1.94381E+00  6.42525E+00  4.37846E+00  3.29582E+00  2.75953E+00  2.26522E+00  1.55787E+00
  -1.69828E+00  3.15964E-01 -1.12103E+00 -3.70378E-01  2.76628E+00  7.00092E+00  4.34453E+00  2.46085E+00  1.38950E+01  6.29360E+00
   7.12338E+00  9.78981E+00  1.39506E+01  1.54380E+01  1.80803E+01  2.58311E+01  3.74616E+01  4.80309E+01  7.85376E+01  9.13125E+01
   1.00071E+02  9.45505E+01  7.96096E+01  5.72424E+01  3.99946E+01  2.91669E+01  2.02942E+01  1.73350E+01  8.95485E+00  7.09656E+00
   2.09861E+00  2.50514E+00  4.97123E+00  4.62373E+00  1.48841E+00  5.51302E+00  3.82850E+00  2.06722E+00  5.50362E+00 -8.98660E-01
   1.91794E+00 -7.89483E-01  2.95560E+00  4.68489E+00  2.94290E+00  2.61189E+00  3.26290E+00  1.91797E+00  5.17594E+00  1.17396E+00
   2.41132E+00  1.10294E+00  8.18964E-01  2.37311E+00  2.33452E+00  3.13823E+00  5.21268E+00  3.11110E+00  4.58741E+00  6.76122E+00
   6.98799E+00  8.51644E+00  1.07930E+01  8.45896E+00  1.02668E+01  8.27850E+00  1.16966E+01  1.54733E+01  1.60653E+01  1.38904E+01
   1.02701E+01  1.49691E+01  1.12926E+01  9.70250E+00  1.13637E+01  1.45993E+01  1.27843E+01  1.36834E+01  1.20137E+01  1.94494E+01
   1.80585E+01  1.54943E+01  1.48132E+01  1.33117E+01  1.50665E+01  1.52586E+01  1.35280E+01  1.38721E+01  1.72594E+01  1.69981E+01
   1.46025E+01  2.27204E+01  1.91402E+01  1.95925E+01  2.24999E+01  1.92621E+01  1.94976E+01  1.82765E+01  1.87102E+01  1.91397E+01
   1.51406E+01  1.52736E+01  1.82614E+01  2.03489E+01  2.03625E+01  1.36252E+01  1.93964E+01  1.63814E+01  1.78399E+01  1.05630E+01
   8.41600E+00  1.63101E+01  6.44659E+00  7.89421E+00  1.01344E+01  4.16244E+00  4.55813E+00  4.42917E+00  1.96978E+00  4.75391E+00
   4.53027E+00  3.44920E+00  2.65074E+00  2.07920E+00  4.50629E+00  5.37327E+00  7.78213E+00  7.57295E+00  4.31930E+00  9.30084E+00
   8.94234E+00  5.52200E+00  8.09815E+00  7.97140E+00  1.03097E+01  6.26375E+00  1.30022E+01  7.86246E+00  8.21058E+00  3.92341E+00
   6.72800E+00  8.84181E+00  2.27171E+00  1.33865E+01  6.33816E+00  9.55770E+00  8.14544E+00  1.87860E+00  5.93875E+00  7.08105E+00
   1.13367E+01  6.25672E+00  3.26672E+00  6.49854E+00  7.66836E+00  8.83773E+00  6.66919E+00  6.49984E+00  7.55168E+00  1.10252E+01
   1.30384E+01  8.52747E+00  9.89128E+00  1.05416E+01  1.18318E+01  9.17325E+00  1.57668E+01  1.16550E+01  5.92154E+00  7.58574E+00
   1.06355E+01  9.53427E+00  8.40758E+00  8.93568E+00  6.06186E+00  7.20156E+00  6.89162E+00  5.69124E+00  2.88657E+00  4.91938E+00
   6.61444E+00  2.58881E+00  3.78624E+00  8.31250E-01  3.46952E+00  3.36210E+00  4.24249E+00  1.59722E+00  5.09393E+00  3.87047E+00
  -2.95666E+00 -2.45870E+00 -2.58892E-01 -4.59021E-01  4.52267E-01  2.10761E+00  3.74412E+00  1.75397E+00  1.82154E+00  1.43637E+00
   1.76821E+00  5.93291E+00  5.33257E+00  1.23445E+00  6.03800E+00  3.08084E+00  4.11009E+00  2.11740E+00  5.62948E+00  2.01783E+00
   2.99308E+00  3.01145E+00  4.12653E+00  5.92264E+00  5.73524E-01  4.12337E+00  6.09381E-01  2.69645E+00  1.58732E+00  4.24629E+00
   1.48513E+00 -8.25920E-01  1.68137E+00  4.09349E+00  4.05475E+00  3.06713E+00  3.84168E+00  5.33294E+00  2.65770E+00  2.13096E+00
   1.17074E+00  7.74606E+00  4.90730E+00  4.06410E+00  4.68257E+00  3.22617E-01  1.41411E+00  1.43070E+00  5.72951E-01  5.60039E-01
   4.49776E+00  5.72453E+00  3.79754E+00  2.66420E-01 -2.22376E+00  9.35693E-01 -4.39539E-01  2.85888E+00  4.42466E+00 -3.04944E+00
   2.41896E+00  2.39129E+00  2.36485E+00  5.20069E-01  4.47167E+00  4.46237E+00  7.01075E+00  2.28239E+00
 NY points of the fit to the data follow
   5.28360E+00  5.02794E+00  5.19916E+00  6.01652E+00  8.29279E+00  1.26362E+01  1.94776E+01  2.82174E+01  3.72559E+01  4.45273E+01
   4.82528E+01  4.77668E+01  4.36914E+01  3.75429E+01  3.09897E+01  2.50586E+01  1.99369E+01  1.56198E+01  1.23831E+01  1.00690E+01
   8.90937E+00  8.24104E+00  7.59397E+00  6.87980E+00  6.44853E+00  6.64849E+00  7.74443E+00  9.78627E+00  1.24502E+01  1.52089E+01
   1.74037E+01  1.84835E+01  1.81598E+01  1.65678E+01  1.41808E+01  1.15183E+01  8.80918E+00  6.54650E+00  5.43580E+00  5.15208E+00
   5.40223E+00  6.23664E+00  7.73538E+00  9.89744E+00  1.23502E+01  1.46120E+01  1.60647E+01  1.62249E+01  1.51063E+01  1.30290E+01
   1.05088E+01  8.20822E+00  6.43035E+00  5.03270E+00  4.01150E+00  3.65368E+00  4.01512E+00  4.71456E+00  5.35888E+00  5.68241E+00
   5.49788E+00  4.79482E+00  3.73554E+00  2.63431E+00  1.79139E+00  1.31350E+00  1.17339E+00  1.34148E+00  1.74341E+00  2.22838E+00
   2.66378E+00  2.90576E+00  2.90347E+00  2.67870E+00  2.29975E+00  1.88069E+00  1.50870E+00  1.21523E+00  9.66689E-01  7.63289E-01
   7.73446E-01  1.21826E+00  2.13038E+00  3.34105E+00  4.50221E+00  5.17771E+00  5.08642E+00  4.25547E+00  2.99538E+00  1.73026E+00
   8.19811E-01  3.91335E-01  2.54652E-01  1.04424E-01 -6.02571E-02  9.30201E-02  8.90031E-01  4.15499E+00  1.22181E+01  2.55583E+01
   4.25191E+01  5.91795E+01  7.08967E+01  7.45527E+01  6.98473E+01  5.90942E+01  4.58917E+01  3.35542E+01  2.35699E+01  1.51940E+01
   7.61333E+00  2.60241E+00  7.82662E-01  7.01861E-02 -3.13102E-01 -5.65042E-01 -7.47829E-01 -8.73520E-01 -9.10553E-01 -7.77068E-01
  -2.31371E-01  1.91989E+00  7.86404E+00  1.83338E+01  3.24054E+01  4.71865E+01  5.86723E+01  6.38076E+01  6.17451E+01  5.39615E+01
   4.33018E+01  3.26238E+01  2.35260E+01  1.56678E+01  8.06179E+00  2.02375E+00 -4.23767E-01 -1.03655E+00 -8.59897E-01 -3.57876E-01
   1.19416E-01  4.36453E-01  5.56006E-01  4.27215E-01  1.18228E-01 -2.75665E-01 -7.20437E-01 -1.17269E+00 -1.62253E+00 -2.04873E+00
  -2.40949E+00 -2.72006E+00 -2.95958E+00 -3.09703E+00 -3.13656E+00 -3.18617E+00 -3.38208E+00 -3.79054E+00 -4.38204E+00 -4.94975E+00
  -5.25989E+00 -5.21751E+00 -4.91253E+00 -4.58827E+00 -4.48355E+00 -4.72487E+00 -5.25124E+00 -5.84055E+00 -6.30571E+00 -6.69821E+00
  -7.14766E+00 -7.75752E+00 -8.48402E+00 -9.09162E+00 -9.43564E+00 -9.51695E+00 -9.38378E+00 -9.15975E+00 -8.98955E+00 -8.93601E+00
  -8.96970E+00 -9.05428E+00 -9.12163E+00 -9.07403E+00 -8.88142E+00 -8.41753E+00 -7.36815E+00 -5.72332E+00 -3.78653E+00 -2.09563E+00
  -1.08238E+00 -8.26632E-01 -1.23567E+00 -2.05768E+00 -2.99193E+00 -3.85044E+00 -4.37696E+00 -4.28695E+00 -3.50586E+00 -2.08918E+00
  -2.31653E-01  1.68997E+00  3.17668E+00  3.84172E+00  3.31834E+00  1.53319E+00 -1.26990E+00 -4.52183E+00 -7.45888E+00 -9.33090E+00
  -9.55106E+00 -7.81649E+00 -4.36850E+00 -5.60750E-03  4.10926E+00  6.82957E+00  7.37262E+00  5.48493E+00  1.37533E+00 -3.73018E+00
  -8.27862E+00 -1.12618E+01 -1.21677E+01 -1.09919E+01 -8.08369E+00 -4.24836E+00 -8.19850E-01  1.53768E+00  2.82041E+00  3.39936E+00
   3.48761E+00  3.17755E+00  2.88575E+00  3.04935E+00  3.63389E+00  4.37445E+00  5.00911E+00  5.23862E+00  4.91803E+00  4.04500E+00
   2.85072E+00  1.84967E+00  1.49714E+00  1.88298E+00  2.74462E+00  3.86236E+00  4.94026E+00  5.67193E+00  6.08174E+00  6.49812E+00
   7.37183E+00  8.75446E+00  1.06211E+01  1.29916E+01  1.71372E+01  2.57265E+01  3.96276E+01  5.78154E+01  7.65644E+01  9.05655E+01
   9.57075E+01  9.08912E+01  7.82503E+01  6.19955E+01  4.66072E+01  3.43643E+01  2.44152E+01  1.49337E+01  7.65972E+00  5.00037E+00
   3.97168E+00  3.40266E+00  3.12835E+00  3.05224E+00  2.98537E+00  2.86612E+00  2.67405E+00  2.41050E+00  2.11592E+00  1.83839E+00
   1.58709E+00  1.36701E+00  1.20759E+00  1.12024E+00  1.08194E+00  1.06966E+00  1.08320E+00  1.13791E+00  1.24582E+00  1.40364E+00
   1.61782E+00  1.89763E+00  2.24225E+00  2.64441E+00  3.10085E+00  3.61117E+00  4.17544E+00  4.79133E+00  5.45486E+00  6.15933E+00
   6.89649E+00  7.65246E+00  8.40956E+00  9.14856E+00  9.85145E+00  1.05029E+01  1.10895E+01  1.15991E+01  1.20255E+01  1.23657E+01
   1.26201E+01  1.27942E+01  1.28983E+01  1.29461E+01  1.29541E+01  1.29412E+01  1.29278E+01  1.29351E+01  1.29835E+01  1.30929E+01
   1.32837E+01  1.35790E+01  1.39783E+01  1.44509E+01  1.49504E+01  1.54263E+01  1.58482E+01  1.62162E+01  1.65511E+01  1.68952E+01
   1.72958E+01  1.77720E+01  1.83054E+01  1.88414E+01  1.93192E+01  1.96907E+01  1.98835E+01  1.98529E+01  1.96156E+01  1.92124E+01
   1.86840E+01  1.80482E+01  1.73071E+01  1.64983E+01  1.56664E+01  1.48187E+01  1.39658E+01  1.31216E+01  1.22995E+01  1.15114E+01
   1.07674E+01  1.00754E+01  9.44067E+00  8.86622E+00  8.35260E+00  7.89856E+00  7.50138E+00  7.15707E+00  6.86060E+00  6.60621E+00
   6.38786E+00  6.19965E+00  6.03605E+00  5.89204E+00  5.76308E+00  5.64534E+00  5.53589E+00  5.43281E+00  5.33513E+00  5.24263E+00
   5.15576E+00  5.07562E+00  5.00402E+00  4.94334E+00  4.89634E+00  4.86591E+00  4.85498E+00  4.86654E+00  4.90357E+00  4.96899E+00
   5.06532E+00  5.19459E+00  5.35830E+00  5.55744E+00  5.79242E+00  6.06288E+00  6.36747E+00  6.70380E+00  7.06847E+00  7.45711E+00
   7.86438E+00  8.28384E+00  8.70804E+00  9.12869E+00  9.53695E+00  9.92377E+00  1.02801E+01  1.05971E+01  1.08664E+01  1.10807E+01
   1.12339E+01  1.13218E+01  1.13417E+01  1.12926E+01  1.11755E+01  1.09931E+01  1.07499E+01  1.04521E+01  1.01066E+01  9.72149E+00
   9.30502E+00  8.86583E+00  8.41245E+00  7.95299E+00  7.49477E+00  7.04422E+00  6.60682E+00  6.18714E+00  5.78875E+00  5.41422E+00
   5.06508E+00  4.74207E+00  4.44530E+00  4.17439E+00  3.92852E+00  3.70646E+00  3.50671E+00  3.32763E+00  3.16759E+00  3.02506E+00
   2.89847E+00  2.78627E+00  2.68694E+00  2.59916E+00  2.52175E+00  2.45372E+00  2.39407E+00  2.34186E+00  2.29626E+00  2.25658E+00
   2.22229E+00  2.19289E+00  2.16787E+00  2.14673E+00  2.12907E+00  2.11459E+00  2.10306E+00  2.09424E+00  2.08783E+00  2.08357E+00
   2.08126E+00  2.08081E+00  2.08212E+00  2.08504E+00  2.08939E+00  2.09501E+00  2.10185E+00  2.10986E+00  2.11900E+00  2.12914E+00
   2.14016E+00  2.15197E+00  2.16460E+00  2.17803E+00  2.19223E+00  2.20707E+00  2.22246E+00  2.23841E+00  2.25492E+00  2.27202E+00
   2.28964E+00  2.30767E+00  2.32610E+00  2.34493E+00  2.36421E+00  2.38393E+00  2.40401E+00  2.42437E+00  2.44501E+00  2.46598E+00
   2.48731E+00  2.50896E+00  2.53086E+00  2.55296E+00  2.57530E+00  2.59793E+00  2.62087E+00  2.64404E+00  2.66739E+00  2.69092E+00
   2.71469E+00  2.73873E+00  2.76304E+00  2.78754E+00  2.81221E+00  2.83708E+00  2.86222E+00  2.88767E+00
 NY background values follow
     2.007E+00    1.957E+00    1.907E+00    1.856E+00    1.806E+00    1.756E+00    1.706E+00    1.656E+00    1.605E+00    1.555E+00
     1.505E+00    1.455E+00    1.404E+00    1.354E+00    1.304E+00    1.254E+00    1.203E+00    1.153E+00    1.103E+00    1.053E+00
     1.002E+00    9.523E-01    9.021E-01    8.520E-01    8.019E-01    7.518E-01    7.018E-01    6.518E-01    6.018E-01    5.519E-01
     5.020E-01    4.522E-01    4.024E-01    3.526E-01    3.029E-01    2.533E-01    2.037E-01    1.541E-01    1.047E-01    5.525E-02
     5.900E-03   -4.338E-02   -9.259E-02   -1.417E-01   -1.908E-01   -2.398E-01   -2.887E-01   -3.375E-01   -3.863E-01   -4.349E-01
    -4.835E-01   -5.319E-01   -5.802E-01   -6.285E-01   -6.766E-01   -7.246E-01   -7.724E-01   -8.202E-01   -8.678E-01   -9.152E-01
    -9.626E-01   -1.010E+00   -1.057E+00   -1.104E+00   -1.150E+00   -1.197E+00   -1.243E+00   -1.289E+00   -1.335E+00   -1.381E+00
    -1.427E+00   -1.472E+00   -1.518E+00   -1.563E+00   -1.607E+00   -1.652E+00   -1.696E+00   -1.741E+00   -1.785E+00   -1.828E+00
    -1.872E+00   -1.915E+00   -1.958E+00   -2.001E+00   -2.043E+00   -2.085E+00   -2.127E+00   -2.169E+00   -2.211E+00   -2.252E+00
    -2.293E+00   -2.333E+00   -2.373E+00   -2.413E+00   -2.453E+00   -2.493E+00   -2.532E+00   -2.571E+00   -2.609E+00   -2.647E+00
    -2.685E+00   -2.723E+00   -2.760E+00   -2.797E+00   -2.834E+00   -2.870E+00   -2.906E+00   -2.941E+00   -2.977E+00   -3.012E+00
    -3.047E+00   -3.081E+00   -3.115E+00   -3.149E+00   -3.182E+00   -3.215E+00   -3.247E+00   -3.280E+00   -3.312E+00   -3.343E+00
    -3.375E+00   -3.405E+00   -3.436E+00   -3.466E+00   -3.496E+00   -3.525E+00   -3.554E+00   -3.583E+00   -3.611E+00   -3.639E+00
    -3.667E+00   -3.694E+00   -3.721E+00   -3.747E+00   -3.773E+00   -3.799E+00   -3.824E+00   -3.849E+00   -3.873E+00   -3.897E+00
    -3.921E+00   -3.944E+00   -3.967E+00   -3.989E+00   -4.011E+00   -4.033E+00   -4.054E+00   -4.075E+00   -4.095E+00   -4.115E+00
    -4.135E+00   -4.154E+00   -4.172E+00   -4.191E+00   -4.208E+00   -4.226E+00   -4.243E+00   -4.259E+00   -4.275E+00   -4.291E+00
    -4.306E+00   -4.321E+00   -4.335E+00   -4.349E+00   -4.362E+00   -4.375E+00   -4.387E+00   -4.399E+00   -4.411E+00   -4.422E+00
    -4.433E+00   -4.443E+00   -4.452E+00   -4.461E+00   -4.470E+00   -4.478E+00   -4.486E+00   -4.493E+00   -4.500E+00   -4.506E+00
    -4.512E+00   -4.518E+00   -4.522E+00   -4.527E+00   -4.531E+00   -4.534E+00   -4.537E+00   -4.539E+00   -4.541E+00   -4.543E+00
    -4.544E+00   -4.545E+00   -4.545E+00   -4.545E+00   -4.544E+00   -4.543E+00   -4.541E+00   -4.539E+00   -4.537E+00   -4.534E+00
    -4.531E+00   -4.528E+00   -4.524E+00   -4.519E+00   -4.515E+00   -4.510E+00   -4.504E+00   -4.498E+00   -4.492E+00   -4.486E+00
    -4.479E+00   -4.472E+00   -4.464E+00   -4.456E+00   -4.448E+00   -4.440E+00   -4.431E+00   -4.422E+00   -4.412E+00   -4.402E+00
    -4.392E+00   -4.382E+00   -4.371E+00   -4.360E+00   -4.349E+00   -4.337E+00   -4.326E+00   -4.314E+00   -4.301E+00   -4.289E+00
    -4.276E+00   -4.263E+00   -4.249E+00   -4.236E+00   -4.222E+00   -4.208E+00   -4.193E+00   -4.179E+00   -4.164E+00   -4.149E+00
    -4.134E+00   -4.118E+00   -4.102E+00   -4.087E+00   -4.070E+00   -4.054E+00   -4.037E+00   -4.020E+00   -4.003E+00   -3.986E+00
    -3.969E+00   -3.951E+00   -3.933E+00   -3.915E+00   -3.896E+00   -3.878E+00   -3.859E+00   -3.840E+00   -3.821E+00   -3.802E+00
    -3.782E+00   -3.763E+00   -3.743E+00   -3.723E+00   -3.703E+00   -3.682E+00   -3.662E+00   -3.641E+00   -3.620E+00   -3.599E+00
    -3.578E+00   -3.557E+00   -3.535E+00   -3.513E+00   -3.492E+00   -3.470E+00   -3.448E+00   -3.425E+00   -3.403E+00   -3.380E+00
    -3.358E+00   -3.335E+00   -3.312E+00   -3.289E+00   -3.265E+00   -3.242E+00   -3.219E+00   -3.195E+00   -3.171E+00   -3.147E+00
    -3.123E+00   -3.099E+00   -3.075E+00   -3.051E+00   -3.027E+00   -3.002E+00   -2.977E+00   -2.953E+00   -2.928E+00   -2.903E+00
    -2.878E+00   -2.853E+00   -2.828E+00   -2.803E+00   -2.777E+00   -2.752E+00   -2.726E+00   -2.701E+00   -2.675E+00   -2.650E+00
    -2.624E+00   -2.598E+00   -2.572E+00   -2.546E+00   -2.520E+00   -2.494E+00   -2.468E+00   -2.442E+00   -2.416E+00   -2.389E+00
    -2.363E+00   -2.337E+00   -2.310E+00   -2.284E+00   -2.257E+00   -2.231E+00   -2.204E+00   -2.178E+00   -2.151E+00   -2.124E+00
    -2.098E+00   -2.071E+00   -2.044E+00   -2.017E+00   -1.990E+00   -1.963E+00   -1.937E+00   -1.910E+00   -1.883E+00   -1.855E+00
    -1.828E+00   -1.801E+00   -1.774E+00   -1.747E+00   -1.720E+00   -1.693E+00   -1.665E+00   -1.638E+00   -1.611E+00   -1.584E+00
    -1.556E+00   -1.529E+00   -1.501E+00   -1.474E+00   -1.447E+00   -1.419E+00   -1.392E+00   -1.364E+00   -1.337E+00   -1.309E+00
    -1.282E+00   -1.254E+00   -1.227E+00   -1.199E+00   -1.172E+00   -1.144E+00   -1.117E+00   -1.089E+00   -1.061E+00   -1.034E+00
    -1.006E+00   -9.786E-01   -9.509E-01   -9.233E-01   -8.956E-01   -8.678E-01   -8.401E-01   -8.123E-01   -7.846E-01   -7.568E-01
    -7.289E-01   -7.011E-01   -6.732E-01   -6.453E-01   -6.174E-01   -5.895E-01   -5.615E-01   -5.335E-01   -5.055E-01   -4.775E-01
    -4.494E-01   -4.213E-01   -3.931E-01   -3.650E-01   -3.368E-01   -3.086E-01   -2.803E-01   -2.520E-01   -2.237E-01   -1.953E-01
    -1.669E-01   -1.385E-01   -1.100E-01   -8.151E-02   -5.297E-02   -2.438E-02    4.234E-03    3.289E-02    6.159E-02    9.033E-02
     1.191E-01    1.479E-01    1.768E-01    2.056E-01    2.346E-01    2.635E-01    2.925E-01    3.215E-01    3.505E-01    3.796E-01
     4.087E-01    4.378E-01    4.670E-01    4.962E-01    5.254E-01    5.546E-01    5.839E-01    6.131E-01    6.424E-01    6.717E-01
     7.011E-01    7.304E-01    7.598E-01    7.892E-01    8.186E-01    8.480E-01    8.774E-01    9.069E-01    9.363E-01    9.658E-01
     9.953E-01    1.025E+00    1.054E+00    1.084E+00    1.113E+00    1.143E+00    1.172E+00    1.202E+00    1.231E+00    1.261E+00
     1.290E+00    1.320E+00    1.349E+00    1.379E+00    1.409E+00    1.438E+00    1.468E+00    1.497E+00    1.527E+00    1.556E+00
     1.586E+00    1.615E+00    1.645E+00    1.674E+00    1.704E+00    1.733E+00    1.763E+00    1.792E+00    1.822E+00    1.851E+00
     1.881E+00    1.910E+00    1.940E+00    1.969E+00    1.999E+00    2.028E+00    2.058E+00    2.087E+00    2.117E+00    2.146E+00
     2.176E+00    2.205E+00    2.235E+00    2.264E+00    2.294E+00    2.323E+00    2.353E+00    2.382E+00    2.411E+00    2.441E+00
     2.470E+00    2.500E+00    2.529E+00    2.559E+00    2.588E+00    2.618E+00    2.647E+00    2.677E+00
 Ala      Conc. = 4.99E+01
