 LCModel (Version 6.3-1L) Copyright: S.W. Provencher.          Ref.: Magn. Reson. Med. 30:672-679 (1993).                
 Slice#2 Row#3 Col#5  PD_24_press_1_raw_act
 36 lines in following concentration table = NCONC+1
    Conc.  %SD /Cr+PCr  Metabolite                                         
  418.114  66%   0.350 Ala                                                 
    0.000 999%   0.000 Asp                                                 
    0.000 999%   0.000 Cr                                                  
 1.20E+03   5%   1.000 PCr                                                 
  114.907 120% 9.6E-02 GABA                                                
    0.000 999%   0.000 Glc                                                 
 2.25E+03  23%   1.881 Gln                                                 
 2.54E+03  24%   2.126 Glu                                                 
  427.094   5%   0.357 GPC                                                 
    0.000 999%   0.000 PCh                                                 
  404.633  25%   0.338 GSH                                                 
  910.750  27%   0.761 Ins                                                 
  348.226  94%   0.291 Lac                                                 
 1.66E+03   5%   1.389 NAA                                                 
    0.000 999%   0.000 NAAG                                                
   67.889  38% 5.7E-02 Scyllo                                              
    0.000 999%   0.000 Tau                                                 
    0.000 999%   0.000 -CrCH2                                              
  427.094   5%   0.357 GPC+PCh                                             
 1.66E+03   5%   1.389 NAA+NAAG                                            
 1.20E+03   5%   1.000 Cr+PCr                                              
 4.79E+03  21%   4.007 Glu+Gln                                             
 1.73E+03  33%   1.442 Lip13a                                              
    0.000 999%   0.000 Lip13b                                              
  175.485 159%   0.147 Lip09                                               
 1.79E+03  17%   1.496 MM09                                                
  296.228  65%   0.248 Lip20                                               
 2.50E+03  15%   2.092 MM20                                                
  826.130  25%   0.691 MM12                                                
 2.43E+03  18%   2.036 MM14                                                
 1.53E+03  19%   1.279 MM17                                                
 1.73E+03  33%   1.442 Lip13a+Lip13b                                       
 4.99E+03   8%   4.169 MM14+Lip13a+Lip13b+MM12                             
 1.96E+03   9%   1.643 MM09+Lip09                                          
 2.80E+03  12%   2.340 MM20+Lip20                                          
   6 lines in following misc. output table
  FWHM = 0.107 ppm    S/N =   8                                            
  Data shift = 0.046 ppm                                                   
  Ph:   1 deg      -3.8 deg/ppm                                            
  alphaB,S = 8.5E+01,   2.0E+02                                            
   14 spline knots.   Ns = 6(2)                                            
   2 inflections.     1 extrema                                            
  498 points on ppm-axis = NY
      4.000000     3.992357     3.984714     3.977070     3.969427     3.961784     3.954141     3.946497     3.938854     3.931211
      3.923568     3.915925     3.908281     3.900638     3.892995     3.885352     3.877708     3.870065     3.862422     3.854779
      3.847136     3.839492     3.831849     3.824206     3.816563     3.808919     3.801276     3.793633     3.785990     3.778347
      3.770703     3.763060     3.755417     3.747774     3.740130     3.732487     3.724844     3.717201     3.709558     3.701914
      3.694271     3.686628     3.678985     3.671341     3.663698     3.656055     3.648412     3.640769     3.633125     3.625482
      3.617839     3.610196     3.602552     3.594909     3.587266     3.579623     3.571980     3.564336     3.556693     3.549050
      3.541407     3.533763     3.526120     3.518477     3.510834     3.503191     3.495547     3.487904     3.480261     3.472618
      3.464974     3.457331     3.449688     3.442045     3.434402     3.426758     3.419115     3.411472     3.403829     3.396185
      3.388542     3.380899     3.373256     3.365613     3.357969     3.350326     3.342683     3.335040     3.327396     3.319753
      3.312110     3.304467     3.296824     3.289180     3.281537     3.273894     3.266251     3.258607     3.250964     3.243321
      3.235678     3.228034     3.220391     3.212748     3.205105     3.197462     3.189818     3.182175     3.174532     3.166889
      3.159245     3.151602     3.143959     3.136316     3.128673     3.121029     3.113386     3.105743     3.098100     3.090456
      3.082813     3.075170     3.067527     3.059884     3.052240     3.044597     3.036954     3.029311     3.021667     3.014024
      3.006381     2.998738     2.991095     2.983451     2.975808     2.968165     2.960522     2.952878     2.945235     2.937592
      2.929949     2.922306     2.914662     2.907019     2.899376     2.891733     2.884089     2.876446     2.868803     2.861160
      2.853517     2.845873     2.838230     2.830587     2.822944     2.815300     2.807657     2.800014     2.792371     2.784728
      2.777084     2.769441     2.761798     2.754155     2.746511     2.738868     2.731225     2.723582     2.715939     2.708295
      2.700652     2.693009     2.685366     2.677722     2.670079     2.662436     2.654793     2.647150     2.639506     2.631863
      2.624220     2.616577     2.608933     2.601290     2.593647     2.586004     2.578361     2.570717     2.563074     2.555431
      2.547788     2.540144     2.532501     2.524858     2.517215     2.509572     2.501928     2.494285     2.486642     2.478999
      2.471355     2.463712     2.456069     2.448426     2.440783     2.433139     2.425496     2.417853     2.410210     2.402566
      2.394923     2.387280     2.379637     2.371994     2.364350     2.356707     2.349064     2.341421     2.333777     2.326134
      2.318491     2.310848     2.303205     2.295561     2.287918     2.280275     2.272632     2.264988     2.257345     2.249702
      2.242059     2.234416     2.226772     2.219129     2.211486     2.203843     2.196199     2.188556     2.180913     2.173270
      2.165627     2.157983     2.150340     2.142697     2.135054     2.127410     2.119767     2.112124     2.104481     2.096838
      2.089194     2.081551     2.073908     2.066265     2.058621     2.050978     2.043335     2.035692     2.028049     2.020405
      2.012762     2.005119     1.997476     1.989833     1.982190     1.974546     1.966903     1.959260     1.951617     1.943974
      1.936331     1.928688     1.921045     1.913402     1.905759     1.898115     1.890472     1.882829     1.875186     1.867543
      1.859900     1.852257     1.844614     1.836971     1.829327     1.821684     1.814041     1.806398     1.798755     1.791112
      1.783469     1.775826     1.768183     1.760540     1.752896     1.745253     1.737610     1.729967     1.722324     1.714681
      1.707038     1.699395     1.691752     1.684108     1.676465     1.668822     1.661179     1.653536     1.645893     1.638250
      1.630607     1.622964     1.615321     1.607677     1.600034     1.592391     1.584748     1.577105     1.569462     1.561819
      1.554176     1.546533     1.538890     1.531246     1.523603     1.515960     1.508317     1.500674     1.493031     1.485388
      1.477745     1.470102     1.462458     1.454815     1.447172     1.439529     1.431886     1.424243     1.416600     1.408957
      1.401314     1.393671     1.386027     1.378384     1.370741     1.363098     1.355455     1.347812     1.340169     1.332526
      1.324883     1.317240     1.309596     1.301953     1.294310     1.286667     1.279024     1.271381     1.263738     1.256095
      1.248452     1.240808     1.233165     1.225522     1.217879     1.210236     1.202593     1.194950     1.187307     1.179664
      1.172021     1.164377     1.156734     1.149091     1.141448     1.133805     1.126162     1.118519     1.110876     1.103233
      1.095590     1.087946     1.080303     1.072660     1.065017     1.057374     1.049731     1.042088     1.034445     1.026802
      1.019158     1.011515     1.003872     0.996229     0.988586     0.980943     0.973300     0.965657     0.958014     0.950371
      0.942727     0.935084     0.927441     0.919798     0.912155     0.904512     0.896869     0.889226     0.881583     0.873940
      0.866296     0.858653     0.851010     0.843367     0.835724     0.828081     0.820438     0.812795     0.805152     0.797508
      0.789865     0.782222     0.774579     0.766936     0.759293     0.751650     0.744007     0.736364     0.728721     0.721077
      0.713434     0.705791     0.698148     0.690505     0.682862     0.675219     0.667576     0.659933     0.652290     0.644646
      0.637003     0.629360     0.621717     0.614074     0.606431     0.598788     0.591145     0.583502     0.575858     0.568215
      0.560572     0.552929     0.545286     0.537643     0.530000     0.522357     0.514714     0.507071     0.499427     0.491784
      0.484141     0.476498     0.468855     0.461212     0.453569     0.445925     0.438282     0.430639     0.422996     0.415353
      0.407710     0.400067     0.392424     0.384780     0.377137     0.369494     0.361851     0.354208     0.346565     0.338922
      0.331278     0.323635     0.315992     0.308349     0.300706     0.293063     0.285420     0.277777     0.270133     0.262490
      0.254847     0.247204     0.239561     0.231918     0.224275     0.216631     0.208988     0.201345
 NY phased data points follow
   1.68230E+01  1.24379E+01  2.25231E+01  2.00161E+01  2.24254E+01  2.17676E+01  3.04268E+01  2.47435E+01  3.25550E+01  2.43440E+01
   2.83094E+01  2.48502E+01  2.53646E+01  2.32747E+01  2.44454E+01  1.87573E+01  2.02101E+01  1.80592E+01  1.46171E+01  1.08530E+01
   1.74548E+01  1.41367E+01  1.58970E+01  1.53685E+01  1.59051E+01  9.92710E+00  1.65855E+01  1.63512E+01  1.56338E+01  1.80347E+01
   1.87900E+01  1.62113E+01  1.52343E+01  1.75044E+01  1.66390E+01  1.48691E+01  1.42582E+01  1.73736E+01  1.45382E+01  1.27515E+01
   1.56189E+01  9.83388E+00  1.39171E+01  1.45240E+01  1.86316E+01  1.57801E+01  1.82984E+01  1.76069E+01  1.59916E+01  1.39507E+01
   1.45975E+01  9.61503E+00  1.48307E+01  1.20414E+01  1.19163E+01  1.17906E+01  1.07928E+01  1.19188E+01  1.09010E+01  8.47538E+00
   1.30161E+01  4.95828E+00  7.24320E+00  1.04546E+01  5.65248E+00  8.67321E+00  5.76490E+00  6.47752E+00  2.37350E+00  6.24542E+00
   5.70141E+00  6.56294E+00  8.02500E+00  6.67040E+00  7.40892E+00  7.09571E+00  6.91372E+00  7.71973E+00  9.81466E+00  8.73343E+00
   9.07577E+00  7.72744E+00  1.05682E+01  6.43304E+00  8.43637E+00  1.26767E+01  9.31457E+00  8.59618E+00  8.68144E+00  1.44770E+01
   1.46983E+01  1.14475E+01  1.26060E+01  9.28942E+00  1.03616E+01  1.26162E+01  1.76906E+01  2.49258E+01  2.62515E+01  2.46093E+01
   3.05182E+01  2.60019E+01  3.00221E+01  3.23535E+01  2.63196E+01  2.52691E+01  2.09723E+01  1.83466E+01  2.10362E+01  1.70973E+01
   1.74294E+01  1.58680E+01  1.68409E+01  1.68170E+01  1.58779E+01  1.46479E+01  1.42532E+01  1.58255E+01  1.31819E+01  1.39708E+01
   1.97699E+01  2.30317E+01  2.28818E+01  2.43655E+01  2.54868E+01  3.12532E+01  3.10519E+01  2.79148E+01  2.88287E+01  2.77564E+01
   2.39735E+01  1.97952E+01  1.82760E+01  1.16455E+01  2.16160E+01  1.56911E+01  1.69381E+01  9.98752E+00  1.08638E+01  1.13516E+01
   1.03584E+01  7.64670E+00  9.21390E+00  8.24369E+00  4.79558E+00  5.79119E+00  9.33193E+00  6.01129E+00  8.83675E+00  2.48201E+00
   8.05819E+00  5.61568E+00  6.54955E+00  3.53769E+00  7.87033E+00  6.22890E+00  9.76358E+00  4.43187E+00  5.95472E+00  4.89147E+00
   5.90389E+00  8.18914E+00  5.96527E+00  5.37253E+00  9.31715E+00  5.10433E+00  6.59327E+00  7.14157E+00  6.53523E+00  2.56075E+00
   2.46041E+00  6.24213E-01 -1.44260E+00  1.14098E+00 -1.47535E-01 -2.65826E+00  3.86879E+00 -3.03762E+00  4.67577E+00  8.52532E-01
   4.45865E-01 -6.24660E-01  2.42380E+00 -7.22045E-01  9.24947E+00  3.03893E+00  1.61706E+00  2.53614E+00  6.42081E+00  4.20013E+00
   2.94761E+00  1.06686E+01  9.45646E+00  8.36743E+00  6.77932E+00  6.29041E+00  7.23955E+00  6.38952E+00  7.05160E+00  3.70199E+00
   5.48480E+00  7.65126E+00  9.41985E+00  7.39712E+00  1.03603E+01  8.11514E+00  6.03472E+00  5.90194E+00  5.45559E+00  7.99430E+00
   4.66246E+00  6.90072E+00  8.40156E+00  7.52593E+00  6.34421E+00  8.64075E+00  1.07328E+01  1.17734E+01  1.09991E+01  6.23460E+00
   1.00165E+01  6.60213E+00  5.48493E+00  1.13115E+01  9.34175E+00  9.70426E+00  1.26992E+01  1.14880E+01  8.12426E+00  1.39975E+01
   9.77981E+00  1.03433E+01  9.73172E+00  1.39318E+01  1.20106E+01  1.13224E+01  1.19235E+01  1.35439E+01  1.39053E+01  1.19825E+01
   1.62108E+01  1.16877E+01  1.37651E+01  1.19812E+01  1.50444E+01  1.30223E+01  1.53491E+01  1.66262E+01  2.04483E+01  2.05601E+01
   2.14401E+01  2.32136E+01  2.18257E+01  2.61925E+01  3.03673E+01  4.18316E+01  4.63044E+01  4.39634E+01  4.79300E+01  4.49773E+01
   4.78866E+01  4.62736E+01  4.06247E+01  3.59524E+01  3.47297E+01  3.33262E+01  2.82410E+01  2.59532E+01  2.18305E+01  2.03709E+01
   1.89896E+01  1.53635E+01  2.02369E+01  1.58261E+01  1.51590E+01  1.52932E+01  1.31232E+01  1.37833E+01  1.40942E+01  1.01940E+01
   9.20318E+00  1.18890E+01  8.20707E+00  1.03598E+01  6.42237E+00  6.89323E+00  1.35619E+01  1.32876E+01  1.21420E+01  1.61244E+01
   1.42071E+01  1.05552E+01  8.26573E+00  1.47364E+01  1.42572E+01  9.81544E+00  1.44963E+01  1.39762E+01  1.05913E+01  9.07091E+00
   1.62737E+01  1.38456E+01  1.35953E+01  1.54458E+01  1.69012E+01  1.62644E+01  1.51014E+01  1.71434E+01  1.47583E+01  1.53817E+01
   1.44152E+01  1.99019E+01  2.17920E+01  1.39569E+01  1.69000E+01  1.77279E+01  1.93951E+01  1.60632E+01  2.44714E+01  2.19559E+01
   2.01301E+01  1.82659E+01  1.41973E+01  2.09230E+01  1.74883E+01  1.73929E+01  1.81064E+01  1.92295E+01  1.74695E+01  1.96383E+01
   2.17147E+01  1.85314E+01  2.03881E+01  2.33279E+01  1.96112E+01  2.32841E+01  2.95205E+01  1.84479E+01  1.89018E+01  2.17921E+01
   2.12475E+01  2.21408E+01  2.02157E+01  2.16300E+01  2.00900E+01  1.95453E+01  1.93261E+01  1.51183E+01  1.60028E+01  1.81214E+01
   1.73229E+01  1.80199E+01  1.56658E+01  1.91981E+01  2.14347E+01  1.43351E+01  1.79540E+01  1.29716E+01  1.58932E+01  1.27490E+01
   1.36604E+01  1.97331E+01  1.43945E+01  1.85649E+01  1.82754E+01  2.10586E+01  1.82500E+01  1.81815E+01  1.85793E+01  1.67105E+01
   1.51937E+01  1.48954E+01  1.81421E+01  1.79898E+01  1.81089E+01  1.66031E+01  1.78594E+01  1.68518E+01  1.48827E+01  9.46029E+00
   1.39033E+01  1.07679E+01  1.27348E+01  1.22730E+01  1.28618E+01  9.91308E+00  1.28396E+01  1.09173E+01  1.25098E+01  1.64116E+01
   1.34160E+01  1.29298E+01  1.47134E+01  1.67106E+01  1.47508E+01  1.87630E+01  1.75949E+01  1.73905E+01  1.86412E+01  1.49366E+01
   1.87332E+01  1.76593E+01  2.17083E+01  1.87470E+01  1.84745E+01  1.87281E+01  2.16842E+01  1.63749E+01  1.73484E+01  1.73414E+01
   1.43086E+01  1.89394E+01  1.36456E+01  1.33034E+01  1.39926E+01  1.21718E+01  1.23935E+01  1.35249E+01  1.21349E+01  1.24017E+01
   7.22718E+00  9.76810E+00  1.29818E+01  9.03725E+00  7.84302E+00  9.07891E+00  5.84394E+00  4.63045E+00  1.04489E+01  7.57606E+00
   6.51728E+00  8.02931E+00  5.24301E+00  6.85274E+00  6.76183E+00  7.60701E+00  7.50860E+00  4.16931E+00  1.02604E+01  3.02194E+00
   5.72169E+00  5.00865E+00  1.93705E+00  1.65267E+00  8.72925E+00  9.26174E+00  5.51542E+00  3.87608E+00  6.29505E+00  5.66623E+00
   4.17837E+00  4.64488E+00  1.26933E+00  4.69938E+00  6.29554E+00  5.85487E+00  7.68022E+00  4.90617E+00  1.04467E+01  3.80807E+00
   5.31231E+00  3.05108E+00  6.07266E+00  3.58458E+00  4.17002E+00  4.28325E+00  3.17355E+00  4.38384E+00  6.53254E+00  6.17164E+00
   3.38078E+00  4.76799E+00  3.76922E+00 -9.44699E-02  3.90286E+00  5.38280E+00  4.59819E+00  6.04379E+00  7.43015E+00  2.08499E+00
   3.69339E+00  3.77289E+00  4.01621E+00  4.13180E+00  2.67340E+00  2.73849E+00  5.08132E+00  4.37758E+00  1.20121E+00  4.86684E+00
   4.43194E+00  4.89063E+00  6.29668E+00  6.66817E-01  5.26912E+00  6.41578E-01  4.09421E+00  5.49610E+00
 NY points of the fit to the data follow
   1.66870E+01  1.76218E+01  1.95692E+01  2.03344E+01  2.28868E+01  2.28891E+01  2.56622E+01  2.44596E+01  2.70240E+01  2.46546E+01
   2.66032E+01  2.34792E+01  2.47618E+01  2.16835E+01  2.22768E+01  1.95326E+01  1.94775E+01  1.74266E+01  1.72444E+01  1.58071E+01
   1.57535E+01  1.48848E+01  1.48788E+01  1.44291E+01  1.46490E+01  1.50062E+01  1.56953E+01  1.60583E+01  1.68314E+01  1.70069E+01
   1.73383E+01  1.72270E+01  1.68636E+01  1.64809E+01  1.57193E+01  1.53976E+01  1.47492E+01  1.45635E+01  1.43005E+01  1.42999E+01
   1.44226E+01  1.45377E+01  1.46372E+01  1.45229E+01  1.42910E+01  1.40076E+01  1.37481E+01  1.33693E+01  1.32526E+01  1.29260E+01
   1.27551E+01  1.23374E+01  1.20007E+01  1.15248E+01  1.11019E+01  1.07358E+01  1.04662E+01  1.01277E+01  9.91784E+00  9.59235E+00
   9.43995E+00  9.08338E+00  9.04050E+00  8.83568E+00  8.92739E+00  8.76069E+00  8.90821E+00  8.75648E+00  8.92741E+00  8.75766E+00
   8.91037E+00  8.72054E+00  8.84346E+00  8.68267E+00  8.88148E+00  8.77260E+00  8.97627E+00  8.88424E+00  9.11564E+00  9.00180E+00
   9.25223E+00  9.08864E+00  9.30732E+00  9.09486E+00  9.25372E+00  9.01778E+00  9.08601E+00  8.88086E+00  8.95158E+00  8.89910E+00
   9.34691E+00  1.06947E+01  1.17559E+01  1.35576E+01  1.50363E+01  1.72825E+01  1.91886E+01  2.17065E+01  2.38326E+01  2.57388E+01
   2.76417E+01  2.81050E+01  2.94424E+01  2.80789E+01  2.85272E+01  2.56368E+01  2.53792E+01  2.19565E+01  2.13469E+01  1.81479E+01
   1.74839E+01  1.48774E+01  1.43143E+01  1.23548E+01  1.21423E+01  1.19206E+01  1.24300E+01  1.30228E+01  1.43659E+01  1.65975E+01
   1.89021E+01  2.13729E+01  2.41596E+01  2.57889E+01  2.85125E+01  2.84317E+01  3.05749E+01  2.85332E+01  2.98353E+01  2.62049E+01
   2.67212E+01  2.25043E+01  2.25292E+01  1.85259E+01  1.83726E+01  1.49998E+01  1.48447E+01  1.21147E+01  1.19701E+01  9.70818E+00
   9.52377E+00  7.78000E+00  7.70372E+00  7.28908E+00  7.45394E+00  7.10707E+00  7.19155E+00  6.90866E+00  6.91730E+00  6.67185E+00
   6.66335E+00  6.38732E+00  6.36727E+00  6.08662E+00  6.00612E+00  5.73548E+00  5.66310E+00  5.44345E+00  5.39934E+00  5.22491E+00
   5.14695E+00  5.01967E+00  4.86825E+00  4.75497E+00  4.48189E+00  4.39313E+00  4.08526E+00  3.99110E+00  3.66729E+00  3.51692E+00
   3.24891E+00  3.08836E+00  2.94296E+00  2.75313E+00  2.71911E+00  2.45736E+00  2.60361E+00  2.28383E+00  2.65876E+00  2.36868E+00
   2.96648E+00  2.74368E+00  3.39439E+00  3.25054E+00  3.87176E+00  3.75483E+00  4.22031E+00  4.17559E+00  4.43140E+00  4.53439E+00
   4.66976E+00  4.95823E+00  4.99103E+00  5.64065E+00  5.80702E+00  6.70350E+00  6.96585E+00  7.82809E+00  7.59851E+00  8.39504E+00
   7.85885E+00  8.28677E+00  7.28128E+00  7.40559E+00  6.40715E+00  6.34459E+00  5.65865E+00  5.68425E+00  5.85496E+00  5.97478E+00
   6.83877E+00  6.75396E+00  8.15457E+00  7.71104E+00  8.81251E+00  7.96374E+00  8.43414E+00  7.50861E+00  7.62774E+00  7.11045E+00
   7.25110E+00  7.54742E+00  8.01921E+00  8.80255E+00  9.14945E+00  1.00985E+01  9.88613E+00  1.08776E+01  1.04951E+01  1.15669E+01
   1.11444E+01  1.20877E+01  1.21799E+01  1.28848E+01  1.33065E+01  1.34652E+01  1.42523E+01  1.34875E+01  1.43818E+01  1.27343E+01
   1.40462E+01  1.21674E+01  1.38077E+01  1.21200E+01  1.39374E+01  1.27709E+01  1.46136E+01  1.44212E+01  1.79658E+01  1.88281E+01
   2.28867E+01  2.42687E+01  2.87441E+01  3.05308E+01  3.55065E+01  3.73346E+01  4.16615E+01  4.29568E+01  4.53677E+01  4.53661E+01
   4.52226E+01  4.40647E+01  4.15374E+01  3.95919E+01  3.58690E+01  3.36867E+01  2.97026E+01  2.77085E+01  2.41508E+01  2.25209E+01
   1.95252E+01  1.81935E+01  1.55812E+01  1.44571E+01  1.22847E+01  1.16546E+01  1.12170E+01  1.10077E+01  1.07574E+01  1.05908E+01
   1.04802E+01  1.03394E+01  1.03025E+01  1.02411E+01  1.02763E+01  1.02815E+01  1.03706E+01  1.04412E+01  1.05747E+01  1.07313E+01
   1.09457E+01  1.11903E+01  1.14747E+01  1.17936E+01  1.21303E+01  1.24988E+01  1.28636E+01  1.32472E+01  1.36212E+01  1.39976E+01
   1.43549E+01  1.47007E+01  1.50201E+01  1.53143E+01  1.55759E+01  1.58065E+01  1.60064E+01  1.61744E+01  1.63198E+01  1.64438E+01
   1.65592E+01  1.66730E+01  1.68029E+01  1.69676E+01  1.72140E+01  1.75634E+01  1.77585E+01  1.81621E+01  1.83032E+01  1.87680E+01
   1.87881E+01  1.92290E+01  1.89868E+01  1.94750E+01  1.91109E+01  1.95117E+01  1.90765E+01  1.93997E+01  1.90576E+01  1.94014E+01
   1.93453E+01  1.97507E+01  1.99969E+01  2.03948E+01  2.08605E+01  2.12263E+01  2.16623E+01  2.17030E+01  2.19661E+01  2.17086E+01
   2.17894E+01  2.12738E+01  2.11999E+01  2.06451E+01  2.04068E+01  1.96279E+01  1.93170E+01  1.84483E+01  1.81730E+01  1.74082E+01
   1.72850E+01  1.69150E+01  1.71058E+01  1.69875E+01  1.73402E+01  1.73177E+01  1.76850E+01  1.76146E+01  1.78808E+01  1.77330E+01
   1.78767E+01  1.76971E+01  1.77543E+01  1.76328E+01  1.75524E+01  1.73000E+01  1.70954E+01  1.67340E+01  1.64178E+01  1.59614E+01
   1.55541E+01  1.51756E+01  1.48095E+01  1.44541E+01  1.41122E+01  1.37887E+01  1.34894E+01  1.32202E+01  1.29871E+01  1.27955E+01
   1.26507E+01  1.25572E+01  1.25188E+01  1.25384E+01  1.26180E+01  1.27587E+01  1.29603E+01  1.32214E+01  1.35390E+01  1.39089E+01
   1.43251E+01  1.47801E+01  1.52649E+01  1.57688E+01  1.62800E+01  1.67856E+01  1.72720E+01  1.77254E+01  1.81321E+01  1.84795E+01
   1.87560E+01  1.89519E+01  1.90598E+01  1.90745E+01  1.89941E+01  1.88191E+01  1.85529E+01  1.82014E+01  1.77729E+01  1.72772E+01
   1.67257E+01  1.61304E+01  1.55035E+01  1.48572E+01  1.42029E+01  1.35509E+01  1.29105E+01  1.22893E+01  1.16935E+01  1.11279E+01
   1.05957E+01  1.00989E+01  9.63833E+00  9.21387E+00  8.82462E+00  8.46908E+00  8.14537E+00  7.85130E+00  7.58455E+00  7.34273E+00
   7.12353E+00  6.92470E+00  6.74415E+00  6.57994E+00  6.43026E+00  6.29354E+00  6.16831E+00  6.05332E+00  5.94743E+00  5.84965E+00
   5.75908E+00  5.67498E+00  5.59663E+00  5.52351E+00  5.45503E+00  5.39078E+00  5.33031E+00  5.27331E+00  5.21943E+00  5.16843E+00
   5.12003E+00  5.07403E+00  5.03019E+00  4.98839E+00  4.94844E+00  4.91022E+00  4.87357E+00  4.83839E+00  4.80456E+00  4.77201E+00
   4.74065E+00  4.71038E+00  4.68114E+00  4.65285E+00  4.62546E+00  4.59891E+00  4.57317E+00  4.54816E+00  4.52384E+00  4.50017E+00
   4.47713E+00  4.45467E+00  4.43276E+00  4.41137E+00  4.39045E+00  4.37000E+00  4.34999E+00  4.33041E+00  4.31120E+00  4.29236E+00
   4.27386E+00  4.25570E+00  4.23785E+00  4.22030E+00  4.20303E+00  4.18600E+00  4.16922E+00  4.15269E+00  4.13637E+00  4.12026E+00
   4.10434E+00  4.08858E+00  4.07299E+00  4.05757E+00  4.04229E+00  4.02714E+00  4.01209E+00  3.99715E+00
 NY background values follow
     6.042E+00    6.037E+00    6.031E+00    6.026E+00    6.020E+00    6.015E+00    6.010E+00    6.004E+00    5.999E+00    5.993E+00
     5.988E+00    5.982E+00    5.977E+00    5.971E+00    5.966E+00    5.960E+00    5.955E+00    5.949E+00    5.944E+00    5.938E+00
     5.933E+00    5.927E+00    5.922E+00    5.916E+00    5.911E+00    5.905E+00    5.900E+00    5.894E+00    5.889E+00    5.883E+00
     5.878E+00    5.872E+00    5.867E+00    5.861E+00    5.856E+00    5.850E+00    5.845E+00    5.839E+00    5.834E+00    5.828E+00
     5.822E+00    5.817E+00    5.811E+00    5.806E+00    5.800E+00    5.795E+00    5.789E+00    5.784E+00    5.778E+00    5.773E+00
     5.767E+00    5.761E+00    5.756E+00    5.750E+00    5.745E+00    5.739E+00    5.734E+00    5.728E+00    5.723E+00    5.717E+00
     5.711E+00    5.706E+00    5.700E+00    5.695E+00    5.689E+00    5.684E+00    5.678E+00    5.672E+00    5.667E+00    5.661E+00
     5.656E+00    5.650E+00    5.645E+00    5.639E+00    5.633E+00    5.628E+00    5.622E+00    5.617E+00    5.611E+00    5.605E+00
     5.600E+00    5.594E+00    5.589E+00    5.583E+00    5.577E+00    5.572E+00    5.566E+00    5.561E+00    5.555E+00    5.549E+00
     5.544E+00    5.538E+00    5.532E+00    5.527E+00    5.521E+00    5.516E+00    5.510E+00    5.504E+00    5.499E+00    5.493E+00
     5.487E+00    5.482E+00    5.476E+00    5.471E+00    5.465E+00    5.459E+00    5.454E+00    5.448E+00    5.442E+00    5.437E+00
     5.431E+00    5.425E+00    5.420E+00    5.414E+00    5.408E+00    5.403E+00    5.397E+00    5.391E+00    5.386E+00    5.380E+00
     5.374E+00    5.369E+00    5.363E+00    5.357E+00    5.352E+00    5.346E+00    5.340E+00    5.335E+00    5.329E+00    5.323E+00
     5.318E+00    5.312E+00    5.306E+00    5.301E+00    5.295E+00    5.289E+00    5.284E+00    5.278E+00    5.272E+00    5.267E+00
     5.261E+00    5.255E+00    5.250E+00    5.244E+00    5.238E+00    5.232E+00    5.227E+00    5.221E+00    5.215E+00    5.210E+00
     5.204E+00    5.198E+00    5.193E+00    5.187E+00    5.181E+00    5.175E+00    5.170E+00    5.164E+00    5.158E+00    5.153E+00
     5.147E+00    5.141E+00    5.135E+00    5.130E+00    5.124E+00    5.118E+00    5.112E+00    5.107E+00    5.101E+00    5.095E+00
     5.090E+00    5.084E+00    5.078E+00    5.072E+00    5.067E+00    5.061E+00    5.055E+00    5.049E+00    5.044E+00    5.038E+00
     5.032E+00    5.026E+00    5.021E+00    5.015E+00    5.009E+00    5.003E+00    4.998E+00    4.992E+00    4.986E+00    4.980E+00
     4.975E+00    4.969E+00    4.963E+00    4.957E+00    4.952E+00    4.946E+00    4.940E+00    4.934E+00    4.929E+00    4.923E+00
     4.917E+00    4.911E+00    4.905E+00    4.900E+00    4.894E+00    4.888E+00    4.882E+00    4.877E+00    4.871E+00    4.865E+00
     4.859E+00    4.853E+00    4.848E+00    4.842E+00    4.836E+00    4.830E+00    4.824E+00    4.819E+00    4.813E+00    4.807E+00
     4.801E+00    4.796E+00    4.790E+00    4.784E+00    4.778E+00    4.772E+00    4.767E+00    4.761E+00    4.755E+00    4.749E+00
     4.743E+00    4.738E+00    4.732E+00    4.726E+00    4.720E+00    4.714E+00    4.708E+00    4.703E+00    4.697E+00    4.691E+00
     4.685E+00    4.679E+00    4.674E+00    4.668E+00    4.662E+00    4.656E+00    4.650E+00    4.644E+00    4.639E+00    4.633E+00
     4.627E+00    4.621E+00    4.615E+00    4.609E+00    4.604E+00    4.598E+00    4.592E+00    4.586E+00    4.580E+00    4.574E+00
     4.569E+00    4.563E+00    4.557E+00    4.551E+00    4.545E+00    4.539E+00    4.534E+00    4.528E+00    4.522E+00    4.516E+00
     4.510E+00    4.504E+00    4.498E+00    4.493E+00    4.487E+00    4.481E+00    4.475E+00    4.469E+00    4.463E+00    4.458E+00
     4.452E+00    4.446E+00    4.440E+00    4.434E+00    4.428E+00    4.422E+00    4.416E+00    4.411E+00    4.405E+00    4.399E+00
     4.393E+00    4.387E+00    4.381E+00    4.375E+00    4.370E+00    4.364E+00    4.358E+00    4.352E+00    4.346E+00    4.340E+00
     4.334E+00    4.328E+00    4.323E+00    4.317E+00    4.311E+00    4.305E+00    4.299E+00    4.293E+00    4.287E+00    4.281E+00
     4.275E+00    4.270E+00    4.264E+00    4.258E+00    4.252E+00    4.246E+00    4.240E+00    4.234E+00    4.228E+00    4.222E+00
     4.217E+00    4.211E+00    4.205E+00    4.199E+00    4.193E+00    4.187E+00    4.181E+00    4.175E+00    4.169E+00    4.163E+00
     4.158E+00    4.152E+00    4.146E+00    4.140E+00    4.134E+00    4.128E+00    4.122E+00    4.116E+00    4.110E+00    4.104E+00
     4.099E+00    4.093E+00    4.087E+00    4.081E+00    4.075E+00    4.069E+00    4.063E+00    4.057E+00    4.051E+00    4.045E+00
     4.039E+00    4.033E+00    4.028E+00    4.022E+00    4.016E+00    4.010E+00    4.004E+00    3.998E+00    3.992E+00    3.986E+00
     3.980E+00    3.974E+00    3.968E+00    3.962E+00    3.956E+00    3.951E+00    3.945E+00    3.939E+00    3.933E+00    3.927E+00
     3.921E+00    3.915E+00    3.909E+00    3.903E+00    3.897E+00    3.891E+00    3.885E+00    3.879E+00    3.873E+00    3.867E+00
     3.862E+00    3.856E+00    3.850E+00    3.844E+00    3.838E+00    3.832E+00    3.826E+00    3.820E+00    3.814E+00    3.808E+00
     3.802E+00    3.796E+00    3.790E+00    3.784E+00    3.778E+00    3.772E+00    3.766E+00    3.760E+00    3.755E+00    3.749E+00
     3.743E+00    3.737E+00    3.731E+00    3.725E+00    3.719E+00    3.713E+00    3.707E+00    3.701E+00    3.695E+00    3.689E+00
     3.683E+00    3.677E+00    3.671E+00    3.665E+00    3.659E+00    3.653E+00    3.647E+00    3.641E+00    3.635E+00    3.629E+00
     3.624E+00    3.618E+00    3.612E+00    3.606E+00    3.600E+00    3.594E+00    3.588E+00    3.582E+00    3.576E+00    3.570E+00
     3.564E+00    3.558E+00    3.552E+00    3.546E+00    3.540E+00    3.534E+00    3.528E+00    3.522E+00    3.516E+00    3.510E+00
     3.504E+00    3.498E+00    3.492E+00    3.486E+00    3.480E+00    3.474E+00    3.468E+00    3.462E+00    3.456E+00    3.450E+00
     3.445E+00    3.439E+00    3.433E+00    3.427E+00    3.421E+00    3.415E+00    3.409E+00    3.403E+00    3.397E+00    3.391E+00
     3.385E+00    3.379E+00    3.373E+00    3.367E+00    3.361E+00    3.355E+00    3.349E+00    3.343E+00    3.337E+00    3.331E+00
     3.325E+00    3.319E+00    3.313E+00    3.307E+00    3.301E+00    3.295E+00    3.289E+00    3.283E+00    3.277E+00    3.271E+00
     3.265E+00    3.259E+00    3.253E+00    3.247E+00    3.241E+00    3.235E+00    3.229E+00    3.223E+00    3.217E+00    3.211E+00
     3.205E+00    3.199E+00    3.193E+00    3.187E+00    3.181E+00    3.175E+00    3.169E+00    3.163E+00
 Ala      Conc. = 4.18E+02
