 LCModel (Version 6.3-1L) Copyright: S.W. Provencher.          Ref.: Magn. Reson. Med. 30:672-679 (1993).                
 Slice#1 Row#3 Col#11  PD_24_press_1_raw_act
 36 lines in following concentration table = NCONC+1
    Conc.  %SD /Cr+PCr  Metabolite                                         
    0.000 999%   0.000 Ala                                                 
    0.000 999%   0.000 Asp                                                 
  231.802  28%   1.000 Cr                                                  
    0.000 999%   0.000 PCr                                                 
    3.210 999% 1.4E-02 GABA                                                
    0.000 999%   0.000 Glc                                                 
    0.000 999%   0.000 Gln                                                 
    0.000 999%   0.000 Glu                                                 
   69.681  27%   0.301 GPC                                                 
    0.000 999%   0.000 PCh                                                 
    0.000 999%   0.000 GSH                                                 
    0.000 999%   0.000 Ins                                                 
    0.000 999%   0.000 Lac                                                 
  197.555  38%   0.852 NAA                                                 
   94.729  59%   0.409 NAAG                                                
    0.000 999%   0.000 Scyllo                                              
    0.000 999%   0.000 Tau                                                 
  197.798  38%   0.853 -CrCH2                                              
   69.681  27%   0.301 GPC+PCh                                             
  292.283  27%   1.261 NAA+NAAG                                            
  231.802  28%   1.000 Cr+PCr                                              
    0.000 999%   0.000 Glu+Gln                                             
    0.000 999%   0.000 Lip13a                                              
   47.825 179%   0.206 Lip13b                                              
   12.763 179% 5.5E-02 Lip09                                               
 2.16E+03  11%   9.338 MM09                                                
    7.181 179% 3.1E-02 Lip20                                               
 3.70E+03   9%  15.957 MM20                                                
  294.147  71%   1.269 MM12                                                
    0.000 999%   0.000 MM14                                                
    0.000 999%   0.000 MM17                                                
   47.825 179%   0.206 Lip13a+Lip13b                                       
  341.972  56%   1.475 MM14+Lip13a+Lip13b+MM12                             
 2.18E+03  11%   9.393 MM09+Lip09                                          
 3.71E+03   9%  15.988 MM20+Lip20                                          
   6 lines in following misc. output table
  FWHM = 0.138 ppm    S/N =   4                                            
  Data shift = 0.099 ppm                                                   
  Ph: 128 deg      47.5 deg/ppm                                            
  alphaB,S = 3.3E-01,   1.3E+01                                            
   14 spline knots.   Ns = 8(2)                                            
   2 inflections.     2 extrema                                            
  498 points on ppm-axis = NY
      4.000000     3.992357     3.984714     3.977070     3.969427     3.961784     3.954141     3.946497     3.938854     3.931211
      3.923568     3.915925     3.908281     3.900638     3.892995     3.885352     3.877708     3.870065     3.862422     3.854779
      3.847136     3.839492     3.831849     3.824206     3.816563     3.808919     3.801276     3.793633     3.785990     3.778347
      3.770703     3.763060     3.755417     3.747774     3.740130     3.732487     3.724844     3.717201     3.709558     3.701914
      3.694271     3.686628     3.678985     3.671341     3.663698     3.656055     3.648412     3.640769     3.633125     3.625482
      3.617839     3.610196     3.602552     3.594909     3.587266     3.579623     3.571980     3.564336     3.556693     3.549050
      3.541407     3.533763     3.526120     3.518477     3.510834     3.503191     3.495547     3.487904     3.480261     3.472618
      3.464974     3.457331     3.449688     3.442045     3.434402     3.426758     3.419115     3.411472     3.403829     3.396185
      3.388542     3.380899     3.373256     3.365613     3.357969     3.350326     3.342683     3.335040     3.327396     3.319753
      3.312110     3.304467     3.296824     3.289180     3.281537     3.273894     3.266251     3.258607     3.250964     3.243321
      3.235678     3.228034     3.220391     3.212748     3.205105     3.197462     3.189818     3.182175     3.174532     3.166889
      3.159245     3.151602     3.143959     3.136316     3.128673     3.121029     3.113386     3.105743     3.098100     3.090456
      3.082813     3.075170     3.067527     3.059884     3.052240     3.044597     3.036954     3.029311     3.021667     3.014024
      3.006381     2.998738     2.991095     2.983451     2.975808     2.968165     2.960522     2.952878     2.945235     2.937592
      2.929949     2.922306     2.914662     2.907019     2.899376     2.891733     2.884089     2.876446     2.868803     2.861160
      2.853517     2.845873     2.838230     2.830587     2.822944     2.815300     2.807657     2.800014     2.792371     2.784728
      2.777084     2.769441     2.761798     2.754155     2.746511     2.738868     2.731225     2.723582     2.715939     2.708295
      2.700652     2.693009     2.685366     2.677722     2.670079     2.662436     2.654793     2.647150     2.639506     2.631863
      2.624220     2.616577     2.608933     2.601290     2.593647     2.586004     2.578361     2.570717     2.563074     2.555431
      2.547788     2.540144     2.532501     2.524858     2.517215     2.509572     2.501928     2.494285     2.486642     2.478999
      2.471355     2.463712     2.456069     2.448426     2.440783     2.433139     2.425496     2.417853     2.410210     2.402566
      2.394923     2.387280     2.379637     2.371994     2.364350     2.356707     2.349064     2.341421     2.333777     2.326134
      2.318491     2.310848     2.303205     2.295561     2.287918     2.280275     2.272632     2.264988     2.257345     2.249702
      2.242059     2.234416     2.226772     2.219129     2.211486     2.203843     2.196199     2.188556     2.180913     2.173270
      2.165627     2.157983     2.150340     2.142697     2.135054     2.127410     2.119767     2.112124     2.104481     2.096838
      2.089194     2.081551     2.073908     2.066265     2.058621     2.050978     2.043335     2.035692     2.028049     2.020405
      2.012762     2.005119     1.997476     1.989833     1.982190     1.974546     1.966903     1.959260     1.951617     1.943974
      1.936331     1.928688     1.921045     1.913402     1.905759     1.898115     1.890472     1.882829     1.875186     1.867543
      1.859900     1.852257     1.844614     1.836971     1.829327     1.821684     1.814041     1.806398     1.798755     1.791112
      1.783469     1.775826     1.768183     1.760540     1.752896     1.745253     1.737610     1.729967     1.722324     1.714681
      1.707038     1.699395     1.691752     1.684108     1.676465     1.668822     1.661179     1.653536     1.645893     1.638250
      1.630607     1.622964     1.615321     1.607677     1.600034     1.592391     1.584748     1.577105     1.569462     1.561819
      1.554176     1.546533     1.538890     1.531246     1.523603     1.515960     1.508317     1.500674     1.493031     1.485388
      1.477745     1.470102     1.462458     1.454815     1.447172     1.439529     1.431886     1.424243     1.416600     1.408957
      1.401314     1.393671     1.386027     1.378384     1.370741     1.363098     1.355455     1.347812     1.340169     1.332526
      1.324883     1.317240     1.309596     1.301953     1.294310     1.286667     1.279024     1.271381     1.263738     1.256095
      1.248452     1.240808     1.233165     1.225522     1.217879     1.210236     1.202593     1.194950     1.187307     1.179664
      1.172021     1.164377     1.156734     1.149091     1.141448     1.133805     1.126162     1.118519     1.110876     1.103233
      1.095590     1.087946     1.080303     1.072660     1.065017     1.057374     1.049731     1.042088     1.034445     1.026802
      1.019158     1.011515     1.003872     0.996229     0.988586     0.980943     0.973300     0.965657     0.958014     0.950371
      0.942727     0.935084     0.927441     0.919798     0.912155     0.904512     0.896869     0.889226     0.881583     0.873940
      0.866296     0.858653     0.851010     0.843367     0.835724     0.828081     0.820438     0.812795     0.805152     0.797508
      0.789865     0.782222     0.774579     0.766936     0.759293     0.751650     0.744007     0.736364     0.728721     0.721077
      0.713434     0.705791     0.698148     0.690505     0.682862     0.675219     0.667576     0.659933     0.652290     0.644646
      0.637003     0.629360     0.621717     0.614074     0.606431     0.598788     0.591145     0.583502     0.575858     0.568215
      0.560572     0.552929     0.545286     0.537643     0.530000     0.522357     0.514714     0.507071     0.499427     0.491784
      0.484141     0.476498     0.468855     0.461212     0.453569     0.445925     0.438282     0.430639     0.422996     0.415353
      0.407710     0.400067     0.392424     0.384780     0.377137     0.369494     0.361851     0.354208     0.346565     0.338922
      0.331278     0.323635     0.315992     0.308349     0.300706     0.293063     0.285420     0.277777     0.270133     0.262490
      0.254847     0.247204     0.239561     0.231918     0.224275     0.216631     0.208988     0.201345
 NY phased data points follow
  -1.38053E+01 -6.12838E+00 -1.20556E+01 -5.40972E+00 -5.32172E+00 -4.06069E+00 -3.80452E+00 -2.05132E-01 -2.35870E+00 -1.03417E-01
  -4.97764E+00 -4.70288E+00 -2.97871E+00 -1.27129E+00 -1.95164E+00 -1.45741E+00 -2.01141E+00 -6.03658E+00 -1.63350E+00 -1.62524E+00
  -1.67452E+00 -1.76576E+00 -3.21475E+00 -5.27021E+00 -2.07814E+00 -4.93230E+00 -3.94186E+00 -4.46360E+00 -4.70134E+00 -3.97967E+00
  -3.96448E+00 -4.49797E+00 -2.06616E+00  7.63779E-01 -3.85477E+00 -3.65934E+00 -4.57579E+00 -2.97282E+00 -7.30520E+00 -1.77676E-02
  -3.62353E+00  1.29921E+00 -4.48590E+00  5.54819E-01 -2.39875E+00  3.81082E-02 -1.71964E+00  6.06093E-01 -2.38036E+00 -1.36667E-02
  -2.63200E+00 -2.02319E+00 -1.90303E+00  1.68401E+00 -8.26523E-01  1.04351E+00 -3.04021E+00 -7.53024E-01 -2.11894E+00  2.98656E+00
  -1.57253E+00 -1.31778E+00 -9.95697E-01  3.60549E+00 -3.27366E+00  1.17133E+00 -5.35592E+00 -3.39875E+00 -2.16000E+00 -2.88477E+00
  -5.40205E+00 -1.58520E+00  2.26874E-01 -7.07447E+00 -2.17297E-01 -5.85435E+00 -5.32307E+00 -1.31743E+00 -3.34566E+00  3.04335E-01
  -3.59722E+00 -1.08556E+00 -5.31116E+00 -5.93624E+00 -6.56532E+00 -6.38481E+00 -2.94802E+00 -4.62715E+00 -2.39672E+00 -3.53794E+00
  -2.77155E+00 -5.65651E+00 -6.51878E+00 -4.29999E+00 -4.88708E+00 -4.95741E+00 -1.38897E+00  1.63104E+00  8.29532E-01  1.35916E-01
   9.85584E-02  5.19382E+00  2.84746E+00  6.42802E+00  9.84282E+00  7.51493E+00  5.26642E+00  4.20177E+00  2.16406E+00  4.67688E+00
   3.33965E+00  3.54316E-01  2.45008E+00  5.46224E+00 -4.58720E+00 -1.11287E+00 -6.54717E+00  1.94512E-01  1.46477E+00  4.45438E-01
  -4.64700E-01  3.75296E+00  1.46309E+00  1.89449E+00  7.40770E+00  6.21030E+00  5.40532E+00  8.09399E+00  6.52732E+00  7.38619E+00
   5.24351E+00  6.95348E+00  9.23878E+00  9.18222E+00  7.74752E+00  5.64239E+00  4.83002E+00  4.22424E+00  4.34658E+00  5.35544E+00
   4.84738E+00  6.74007E+00  1.92223E+00  3.98160E+00  2.54791E+00  3.87837E+00  6.62692E-01  1.95213E+00 -2.29761E+00  1.71053E+00
   1.66559E+00  2.58018E+00 -4.61332E+00 -2.12232E+00 -1.26720E+00 -1.39376E+00 -6.52112E+00 -8.08677E-01 -2.08095E+00 -4.61321E+00
  -1.71301E+00  1.47277E+00 -1.52497E+00  1.74559E+00 -3.14643E-01  3.48638E+00 -2.24578E+00  1.31707E+00 -3.64051E+00  6.92275E-02
  -5.42982E+00 -2.27773E+00 -6.68464E+00 -4.10611E+00 -4.46445E+00 -4.27900E+00 -5.09224E+00 -3.99846E+00 -7.66426E+00 -6.75560E+00
  -6.97430E+00 -7.31522E+00 -9.99332E+00 -5.58335E+00 -9.42501E+00 -6.93386E+00 -7.65075E+00 -9.00503E+00 -5.92304E+00 -2.97396E+00
  -6.52948E+00 -4.82402E+00 -6.61570E+00 -8.32034E+00 -6.40840E+00 -5.73511E+00 -6.09446E+00 -4.18261E+00 -5.84717E+00 -6.19172E+00
  -6.77411E+00 -3.36191E+00 -7.03500E+00 -5.62302E+00 -8.94138E+00 -8.93428E+00 -8.67513E+00 -5.23976E+00 -7.64287E+00 -6.93848E+00
  -3.81000E+00 -3.67451E+00 -5.62283E+00 -4.23346E+00 -7.43326E+00 -5.32129E+00 -4.48937E+00 -3.18006E+00 -1.04195E+01 -4.74968E+00
  -6.00294E+00 -1.89448E+00 -5.69365E+00 -3.49935E+00 -4.63270E+00 -3.09138E+00 -7.01721E+00 -6.53260E+00 -3.55526E+00 -6.01783E+00
  -8.49614E+00 -3.95353E+00 -6.87780E+00 -7.72994E+00 -8.02977E+00 -5.37282E+00 -3.60239E+00  7.91337E-01 -5.27079E+00 -4.89326E+00
  -3.25510E+00 -4.50287E+00 -4.44702E+00 -1.82042E-01 -2.59797E+00  1.69887E+00 -1.81704E+00 -2.37954E+00 -8.76949E+00 -8.14343E+00
  -3.33462E-01  6.25352E+00  2.23523E+00  6.19928E+00  4.48941E+00  6.44498E+00  6.35666E+00  8.14303E+00  9.99833E+00  7.03287E+00
   8.08081E+00  8.25313E+00  7.59417E+00  6.03077E+00  4.60133E+00  4.33268E+00  1.00771E-01  2.53814E+00  3.44486E-01  3.84662E+00
  -2.45344E+00 -2.53441E+00 -6.91087E+00 -5.82964E+00 -2.58069E+00 -5.76189E+00 -7.11105E+00 -1.09574E+01 -8.92564E+00 -7.46292E+00
  -9.40531E+00 -1.12601E+01 -1.18303E+01 -1.10150E+01 -1.30274E+01 -1.30318E+01 -1.28060E+01 -9.33386E+00 -1.25350E+01 -1.29539E+01
  -1.49613E+01 -1.40796E+01 -1.47449E+01 -1.38680E+01 -1.53537E+01 -1.39207E+01 -1.68898E+01 -1.43667E+01 -1.55916E+01 -1.71812E+01
  -1.71237E+01 -1.80686E+01 -2.09942E+01 -1.96139E+01 -1.59578E+01 -1.46185E+01 -1.52947E+01 -1.27393E+01 -1.62344E+01 -1.60674E+01
  -1.38593E+01 -1.35730E+01 -1.46111E+01 -1.12871E+01 -1.10723E+01 -9.74417E+00 -1.78059E+01 -1.50929E+01 -1.58136E+01 -1.48477E+01
  -1.51784E+01 -1.64161E+01 -1.95581E+01 -1.48793E+01 -1.72562E+01 -1.45762E+01 -1.73307E+01 -1.03247E+01 -1.38732E+01 -9.83926E+00
  -5.88536E+00 -1.11912E+01 -9.20866E+00 -8.52950E+00 -9.12996E+00 -8.16925E+00 -1.11388E+01 -1.02347E+01 -1.16666E+01 -1.33696E+01
  -1.51809E+01 -1.49382E+01 -1.47506E+01 -1.65226E+01 -1.81221E+01 -1.66605E+01 -1.75686E+01 -1.29782E+01 -1.25950E+01 -1.19022E+01
  -1.34425E+01 -1.14176E+01 -1.19329E+01 -7.21894E+00 -1.52222E+01 -1.17593E+01 -9.99041E+00 -5.95565E+00 -8.06757E+00 -7.91797E+00
  -8.34480E+00 -5.65772E+00 -7.74773E+00 -7.44052E+00 -9.00534E+00 -9.66651E+00 -8.86305E+00 -7.53248E+00 -1.01463E+01 -7.84228E+00
  -7.86564E+00 -1.13740E+01 -1.07020E+01 -5.53546E+00 -6.65016E+00 -6.24587E+00 -7.04481E+00 -4.85630E+00 -8.25976E+00 -4.99626E+00
  -8.62313E+00 -5.13710E+00 -5.58749E+00 -3.92246E+00 -6.00829E+00  4.07447E-01 -2.58960E+00 -5.80480E-01  1.16607E+00 -4.89916E+00
  -2.28044E+00  2.27540E+00 -2.94319E+00 -1.24178E+00 -6.65098E-01  5.03218E-01  1.42328E+00  1.42290E+00 -8.94259E-01  3.90353E-01
  -6.84757E-01  2.80763E+00  2.06837E+00  4.27698E+00  6.39471E+00  6.74736E+00  6.96190E+00  3.85060E+00  2.79905E+00  6.71025E+00
   6.34209E+00  2.52639E+00  5.63731E+00  9.96153E+00  9.29624E+00  8.35255E+00  4.68546E+00  9.01872E+00  9.51491E+00  7.03712E+00
   8.08772E+00  5.42120E+00  8.25389E+00  7.78771E+00  7.61223E+00  7.35590E+00  5.77333E+00  1.07505E+01  7.71883E+00  1.02678E+01
   7.81833E+00  9.84997E+00  7.95288E+00  6.62766E+00  8.50304E+00  1.01242E+01  6.06433E+00  1.25538E+01  9.41038E+00  7.90169E+00
   6.22236E+00  1.11178E+01  1.01973E+01  1.13640E+01  8.53149E+00  1.11410E+01  1.21558E+01  1.01360E+01  9.83285E+00  8.05906E+00
   9.86795E+00  1.27190E+01  9.57709E+00  1.01003E+01  1.19490E+01  9.87000E+00  8.04506E+00  7.34756E+00  8.23946E+00  9.49842E+00
   8.81583E+00  1.01800E+01  4.65291E+00  9.27855E+00  8.97766E+00  5.58426E+00  9.53985E+00  9.67915E+00  9.23749E+00  1.01946E+01
   6.78798E+00  7.85407E+00  1.39392E+01  1.08576E+01  7.69663E+00  1.22883E+01  6.99794E+00  8.12723E+00  8.29310E+00  1.38519E+01
   1.31879E+01  1.00987E+01  8.63088E+00  1.00989E+01  1.09372E+01  1.23821E+01  1.20768E+01  7.80401E+00  6.81289E+00  9.95645E+00
   9.08651E+00  8.20379E+00  6.33258E+00  8.98045E+00  7.86901E+00  5.84318E+00  1.04703E+01  8.15560E+00
 NY points of the fit to the data follow
  -8.02500E+00 -6.28218E+00 -7.63280E+00 -5.81474E+00 -6.31219E+00 -4.71797E+00 -4.61129E+00 -3.77788E+00 -3.53445E+00 -3.30504E+00
  -2.68909E+00 -2.70512E+00 -1.57956E+00 -2.01185E+00 -9.18570E-01 -1.91268E+00 -9.92819E-01 -2.04193E+00 -1.04903E+00 -2.04993E+00
  -1.19143E+00 -2.31846E+00 -1.64680E+00 -2.62199E+00 -1.59633E+00 -2.25260E+00 -1.38579E+00 -2.36035E+00 -2.38714E+00 -3.23923E+00
  -3.32199E+00 -3.38867E+00 -3.18952E+00 -3.19966E+00 -3.05665E+00 -3.07207E+00 -2.90070E+00 -2.89977E+00 -2.78493E+00 -2.77420E+00
  -2.60650E+00 -2.60669E+00 -2.41818E+00 -2.43752E+00 -2.22966E+00 -2.25687E+00 -2.06074E+00 -2.12150E+00 -1.95071E+00 -2.02758E+00
  -1.87971E+00 -1.95962E+00 -1.82890E+00 -1.92630E+00 -1.82765E+00 -1.94091E+00 -1.86412E+00 -1.94947E+00 -1.88578E+00 -1.95869E+00
  -1.90314E+00 -1.98667E+00 -1.93946E+00 -1.98556E+00 -1.93965E+00 -1.98384E+00 -1.93370E+00 -1.97557E+00 -1.95644E+00 -1.98272E+00
  -1.94378E+00 -1.96152E+00 -1.91681E+00 -1.93359E+00 -1.88559E+00 -1.89769E+00 -1.85233E+00 -1.86653E+00 -1.82733E+00 -1.84660E+00
  -1.81727E+00 -1.84855E+00 -1.83971E+00 -1.90086E+00 -1.94680E+00 -2.12291E+00 -2.54673E+00 -3.59983E+00 -4.04729E+00 -5.62054E+00
  -5.57820E+00 -6.94794E+00 -5.60471E+00 -4.94102E+00 -3.36466E+00 -2.05773E+00 -7.38584E-01  8.98177E-01  1.58953E+00  2.90063E+00
   3.08195E+00  4.14595E+00  4.08008E+00  5.18367E+00  4.79734E+00  5.63178E+00  4.86009E+00  5.12741E+00  4.27897E+00  4.37265E+00
   3.38522E+00  2.68521E+00  1.06415E+00  6.64395E-02 -1.82965E+00 -2.00202E+00 -3.46789E+00 -1.12111E+00 -1.55381E+00  3.59749E-01
   5.97448E-01  2.01701E+00  3.14689E+00  4.26420E+00  5.46623E+00  5.77803E+00  6.94852E+00  6.89030E+00  8.10798E+00  7.43707E+00
   8.45615E+00  7.04295E+00  7.69858E+00  6.22095E+00  6.73248E+00  5.32596E+00  5.71045E+00  4.19785E+00  4.38697E+00  3.09854E+00
   3.24660E+00  2.19955E+00  2.23603E+00  6.86678E-01  2.27617E-01 -1.08958E+00 -1.63830E+00 -1.82437E+00 -1.97178E+00 -2.09586E+00
  -2.25203E+00 -2.42022E+00 -2.54196E+00 -2.70546E+00 -2.75673E+00 -2.89864E+00 -2.94370E+00 -3.08315E+00 -3.13103E+00 -3.25576E+00
  -3.33200E+00 -3.44512E+00 -3.53778E+00 -3.64810E+00 -3.75499E+00 -3.85848E+00 -4.04047E+00 -4.10669E+00 -4.31598E+00 -4.37197E+00
  -4.59204E+00 -4.64869E+00 -4.88010E+00 -4.94761E+00 -5.18909E+00 -5.31771E+00 -5.55823E+00 -5.69913E+00 -5.82666E+00 -5.91961E+00
  -5.99778E+00 -6.12971E+00 -6.10755E+00 -6.24578E+00 -6.13356E+00 -6.22834E+00 -6.05705E+00 -6.16767E+00 -6.06411E+00 -6.17152E+00
  -6.11478E+00 -6.16012E+00 -6.12186E+00 -6.10735E+00 -6.07351E+00 -6.07072E+00 -6.05311E+00 -5.98501E+00 -5.97979E+00 -5.92442E+00
  -5.97327E+00 -5.97730E+00 -6.07184E+00 -6.13511E+00 -6.21094E+00 -6.30407E+00 -6.37372E+00 -6.51988E+00 -6.54944E+00 -6.67533E+00
  -6.66132E+00 -6.75364E+00 -6.69841E+00 -6.78248E+00 -6.68023E+00 -6.73036E+00 -6.57478E+00 -6.56132E+00 -6.41476E+00 -6.38595E+00
  -6.27197E+00 -6.24977E+00 -6.14711E+00 -6.09391E+00 -5.95056E+00 -5.84792E+00 -5.65919E+00 -5.53970E+00 -5.33290E+00 -5.17184E+00
  -4.95166E+00 -4.76590E+00 -4.56073E+00 -4.33490E+00 -4.06156E+00 -3.73767E+00 -3.38836E+00 -2.97206E+00 -2.57419E+00 -2.26538E+00
  -2.22471E+00 -1.90872E+00 -2.21913E+00 -1.88568E+00 -3.08015E+00 -2.54129E+00 -3.36000E+00 -2.94521E+00 -3.24611E+00 -2.65952E+00
  -7.45221E-01  9.63630E-02  2.34242E+00  3.02030E+00  5.16203E+00  5.57649E+00  7.04287E+00  6.96499E+00  7.74875E+00  7.25920E+00
   7.58966E+00  6.96068E+00  6.80167E+00  6.00819E+00  5.21563E+00  4.24155E+00  3.24593E+00  2.30878E+00  1.34698E+00  4.71013E-01
  -5.98197E-01 -1.60031E+00 -2.83447E+00 -3.71782E+00 -4.86747E+00 -5.51113E+00 -6.87625E+00 -7.67822E+00 -9.05439E+00 -9.76724E+00
  -1.02328E+01 -1.06352E+01 -1.09842E+01 -1.13067E+01 -1.15861E+01 -1.18481E+01 -1.20631E+01 -1.22770E+01 -1.24515E+01 -1.26342E+01
  -1.27780E+01 -1.29320E+01 -1.30390E+01 -1.31613E+01 -1.32353E+01 -1.33260E+01 -1.33811E+01 -1.34555E+01 -1.34970E+01 -1.35603E+01
  -1.35908E+01 -1.36424E+01 -1.36652E+01 -1.36995E+01 -1.37128E+01 -1.37354E+01 -1.37373E+01 -1.37494E+01 -1.37467E+01 -1.37508E+01
  -1.37471E+01 -1.37455E+01 -1.37344E+01 -1.37257E+01 -1.37073E+01 -1.36892E+01 -1.36641E+01 -1.36376E+01 -1.36076E+01 -1.35772E+01
  -1.35418E+01 -1.35061E+01 -1.34652E+01 -1.34237E+01 -1.33771E+01 -1.33299E+01 -1.32776E+01 -1.32247E+01 -1.31668E+01 -1.31082E+01
  -1.30445E+01 -1.29799E+01 -1.29103E+01 -1.28396E+01 -1.27638E+01 -1.26866E+01 -1.26042E+01 -1.25201E+01 -1.24306E+01 -1.23387E+01
  -1.22407E+01 -1.21393E+01 -1.20304E+01 -1.19157E+01 -1.17906E+01 -1.16558E+01 -1.15060E+01 -1.13415E+01 -1.11573E+01 -1.09548E+01
  -1.07318E+01 -1.04928E+01 -1.02403E+01 -9.98301E+00 -9.72698E+00 -9.48260E+00 -9.25532E+00 -9.05231E+00 -8.87404E+00 -8.72133E+00
  -8.58881E+00 -8.47242E+00 -8.36433E+00 -8.25997E+00 -8.15331E+00 -8.04248E+00 -7.92489E+00 -7.80151E+00 -7.67217E+00 -7.53896E+00
  -7.40221E+00 -7.26353E+00 -7.12263E+00 -6.98002E+00 -6.83466E+00 -6.68614E+00 -6.53294E+00 -6.37404E+00 -6.20775E+00 -6.03274E+00
  -5.84739E+00 -5.65019E+00 -5.43966E+00 -5.21414E+00 -4.97234E+00 -4.71253E+00 -4.43365E+00 -4.13389E+00 -3.81246E+00 -3.46757E+00
  -3.09881E+00 -2.70458E+00 -2.28504E+00 -1.83899E+00 -1.36737E+00 -8.69663E-01 -3.47903E-01  1.97477E-01  7.63089E-01  1.34736E+00
   1.94544E+00  2.55454E+00  3.16835E+00  3.78303E+00  4.39113E+00  4.98817E+00  5.56612E+00  6.12046E+00  6.64325E+00  7.13071E+00
   7.57579E+00  7.97622E+00  8.32650E+00  8.62641E+00  8.87241E+00  9.06663E+00  9.20765E+00  9.29986E+00  9.34366E+00  9.34530E+00
   9.30651E+00  9.23479E+00  9.13252E+00  9.00776E+00  8.86287E+00  8.70578E+00  8.53827E+00  8.36773E+00  8.19499E+00  8.02660E+00
   7.86222E+00  7.70750E+00  7.56099E+00  7.42750E+00  7.30461E+00  7.19644E+00  7.09976E+00  7.01823E+00  6.94802E+00  6.89254E+00
   6.84756E+00  6.81634E+00  6.79438E+00  6.78496E+00  6.78344E+00  6.79320E+00  6.80946E+00  6.83575E+00  6.86723E+00  6.90760E+00
   6.95200E+00  7.00428E+00  7.05953E+00  7.12178E+00  7.18613E+00  7.25679E+00  7.32883E+00  7.40662E+00  7.48514E+00  7.56892E+00
   7.65291E+00  7.74178E+00  7.83040E+00  7.92358E+00  8.01610E+00  8.11291E+00  8.20875E+00  8.30865E+00  8.40729E+00  8.50982E+00
   8.61082E+00  8.71557E+00  8.81858E+00  8.92523E+00  9.02994E+00  9.13819E+00  9.24432E+00  9.35393E+00  9.46127E+00  9.57205E+00
   9.68042E+00  9.79216E+00  9.90138E+00  1.00140E+01  1.01239E+01  1.02372E+01  1.03478E+01  1.04617E+01  1.05727E+01  1.06871E+01
   1.07987E+01  1.09136E+01  1.10255E+01  1.11407E+01  1.12530E+01  1.13687E+01  1.14813E+01  1.15974E+01
 NY background values follow
    -5.299E+00   -5.268E+00   -5.236E+00   -5.204E+00   -5.171E+00   -5.139E+00   -5.107E+00   -5.074E+00   -5.041E+00   -5.009E+00
    -4.976E+00   -4.943E+00   -4.910E+00   -4.877E+00   -4.844E+00   -4.810E+00   -4.777E+00   -4.744E+00   -4.711E+00   -4.677E+00
    -4.644E+00   -4.611E+00   -4.578E+00   -4.544E+00   -4.511E+00   -4.478E+00   -4.445E+00   -4.412E+00   -4.379E+00   -4.346E+00
    -4.314E+00   -4.281E+00   -4.248E+00   -4.216E+00   -4.184E+00   -4.152E+00   -4.120E+00   -4.088E+00   -4.056E+00   -4.025E+00
    -3.993E+00   -3.962E+00   -3.931E+00   -3.901E+00   -3.870E+00   -3.840E+00   -3.810E+00   -3.781E+00   -3.751E+00   -3.722E+00
    -3.693E+00   -3.664E+00   -3.636E+00   -3.608E+00   -3.580E+00   -3.553E+00   -3.526E+00   -3.499E+00   -3.472E+00   -3.446E+00
    -3.421E+00   -3.395E+00   -3.370E+00   -3.345E+00   -3.321E+00   -3.297E+00   -3.273E+00   -3.250E+00   -3.227E+00   -3.204E+00
    -3.182E+00   -3.160E+00   -3.139E+00   -3.118E+00   -3.097E+00   -3.077E+00   -3.058E+00   -3.039E+00   -3.020E+00   -3.001E+00
    -2.984E+00   -2.966E+00   -2.949E+00   -2.933E+00   -2.917E+00   -2.901E+00   -2.886E+00   -2.872E+00   -2.858E+00   -2.845E+00
    -2.832E+00   -2.819E+00   -2.807E+00   -2.796E+00   -2.785E+00   -2.775E+00   -2.766E+00   -2.757E+00   -2.749E+00   -2.741E+00
    -2.735E+00   -2.728E+00   -2.723E+00   -2.719E+00   -2.715E+00   -2.712E+00   -2.710E+00   -2.708E+00   -2.708E+00   -2.708E+00
    -2.709E+00   -2.712E+00   -2.715E+00   -2.719E+00   -2.724E+00   -2.730E+00   -2.737E+00   -2.746E+00   -2.755E+00   -2.765E+00
    -2.777E+00   -2.789E+00   -2.803E+00   -2.818E+00   -2.834E+00   -2.851E+00   -2.870E+00   -2.890E+00   -2.911E+00   -2.933E+00
    -2.957E+00   -2.982E+00   -3.008E+00   -3.036E+00   -3.065E+00   -3.095E+00   -3.127E+00   -3.161E+00   -3.195E+00   -3.232E+00
    -3.269E+00   -3.308E+00   -3.349E+00   -3.391E+00   -3.434E+00   -3.478E+00   -3.524E+00   -3.571E+00   -3.620E+00   -3.670E+00
    -3.721E+00   -3.774E+00   -3.827E+00   -3.883E+00   -3.939E+00   -3.997E+00   -4.055E+00   -4.116E+00   -4.177E+00   -4.240E+00
    -4.303E+00   -4.368E+00   -4.435E+00   -4.502E+00   -4.570E+00   -4.640E+00   -4.711E+00   -4.783E+00   -4.856E+00   -4.930E+00
    -5.005E+00   -5.082E+00   -5.159E+00   -5.238E+00   -5.318E+00   -5.398E+00   -5.480E+00   -5.563E+00   -5.646E+00   -5.731E+00
    -5.817E+00   -5.903E+00   -5.991E+00   -6.080E+00   -6.169E+00   -6.260E+00   -6.351E+00   -6.443E+00   -6.536E+00   -6.629E+00
    -6.724E+00   -6.819E+00   -6.914E+00   -7.011E+00   -7.108E+00   -7.205E+00   -7.303E+00   -7.402E+00   -7.501E+00   -7.601E+00
    -7.701E+00   -7.801E+00   -7.902E+00   -8.003E+00   -8.104E+00   -8.206E+00   -8.308E+00   -8.410E+00   -8.513E+00   -8.615E+00
    -8.718E+00   -8.821E+00   -8.924E+00   -9.027E+00   -9.130E+00   -9.233E+00   -9.336E+00   -9.439E+00   -9.541E+00   -9.644E+00
    -9.746E+00   -9.849E+00   -9.951E+00   -1.005E+01   -1.015E+01   -1.026E+01   -1.036E+01   -1.046E+01   -1.056E+01   -1.066E+01
    -1.076E+01   -1.085E+01   -1.095E+01   -1.105E+01   -1.115E+01   -1.124E+01   -1.134E+01   -1.143E+01   -1.153E+01   -1.162E+01
    -1.171E+01   -1.181E+01   -1.190E+01   -1.199E+01   -1.208E+01   -1.217E+01   -1.225E+01   -1.234E+01   -1.243E+01   -1.251E+01
    -1.260E+01   -1.268E+01   -1.276E+01   -1.284E+01   -1.292E+01   -1.300E+01   -1.307E+01   -1.315E+01   -1.322E+01   -1.330E+01
    -1.337E+01   -1.344E+01   -1.351E+01   -1.357E+01   -1.364E+01   -1.370E+01   -1.376E+01   -1.383E+01   -1.389E+01   -1.394E+01
    -1.400E+01   -1.405E+01   -1.411E+01   -1.416E+01   -1.421E+01   -1.425E+01   -1.430E+01   -1.434E+01   -1.439E+01   -1.443E+01
    -1.447E+01   -1.450E+01   -1.454E+01   -1.457E+01   -1.460E+01   -1.463E+01   -1.466E+01   -1.468E+01   -1.471E+01   -1.473E+01
    -1.475E+01   -1.477E+01   -1.478E+01   -1.480E+01   -1.481E+01   -1.482E+01   -1.483E+01   -1.483E+01   -1.483E+01   -1.484E+01
    -1.484E+01   -1.483E+01   -1.483E+01   -1.482E+01   -1.481E+01   -1.480E+01   -1.479E+01   -1.477E+01   -1.475E+01   -1.473E+01
    -1.471E+01   -1.469E+01   -1.466E+01   -1.463E+01   -1.460E+01   -1.456E+01   -1.453E+01   -1.449E+01   -1.445E+01   -1.441E+01
    -1.436E+01   -1.431E+01   -1.427E+01   -1.421E+01   -1.416E+01   -1.410E+01   -1.404E+01   -1.398E+01   -1.392E+01   -1.386E+01
    -1.379E+01   -1.372E+01   -1.365E+01   -1.358E+01   -1.350E+01   -1.343E+01   -1.335E+01   -1.327E+01   -1.318E+01   -1.310E+01
    -1.301E+01   -1.292E+01   -1.283E+01   -1.274E+01   -1.265E+01   -1.255E+01   -1.245E+01   -1.235E+01   -1.225E+01   -1.215E+01
    -1.204E+01   -1.194E+01   -1.183E+01   -1.172E+01   -1.161E+01   -1.150E+01   -1.138E+01   -1.127E+01   -1.115E+01   -1.103E+01
    -1.091E+01   -1.079E+01   -1.066E+01   -1.054E+01   -1.041E+01   -1.028E+01   -1.015E+01   -1.002E+01   -9.888E+00   -9.754E+00
    -9.619E+00   -9.483E+00   -9.345E+00   -9.207E+00   -9.067E+00   -8.926E+00   -8.783E+00   -8.640E+00   -8.496E+00   -8.350E+00
    -8.204E+00   -8.056E+00   -7.908E+00   -7.758E+00   -7.608E+00   -7.456E+00   -7.304E+00   -7.151E+00   -6.997E+00   -6.842E+00
    -6.687E+00   -6.530E+00   -6.373E+00   -6.216E+00   -6.057E+00   -5.898E+00   -5.738E+00   -5.578E+00   -5.417E+00   -5.255E+00
    -5.093E+00   -4.931E+00   -4.768E+00   -4.604E+00   -4.440E+00   -4.276E+00   -4.111E+00   -3.946E+00   -3.780E+00   -3.614E+00
    -3.448E+00   -3.282E+00   -3.115E+00   -2.949E+00   -2.782E+00   -2.614E+00   -2.447E+00   -2.280E+00   -2.112E+00   -1.945E+00
    -1.777E+00   -1.609E+00   -1.442E+00   -1.274E+00   -1.107E+00   -9.394E-01   -7.721E-01   -6.049E-01   -4.379E-01   -2.711E-01
    -1.045E-01    6.188E-02    2.280E-01    3.938E-01    5.594E-01    7.246E-01    8.894E-01    1.054E+00    1.218E+00    1.382E+00
     1.545E+00    1.707E+00    1.870E+00    2.031E+00    2.193E+00    2.353E+00    2.513E+00    2.673E+00    2.831E+00    2.989E+00
     3.147E+00    3.304E+00    3.459E+00    3.615E+00    3.769E+00    3.923E+00    4.076E+00    4.228E+00    4.380E+00    4.531E+00
     4.681E+00    4.831E+00    4.980E+00    5.128E+00    5.276E+00    5.423E+00    5.570E+00    5.715E+00    5.861E+00    6.005E+00
     6.149E+00    6.293E+00    6.436E+00    6.578E+00    6.720E+00    6.861E+00    7.002E+00    7.142E+00    7.281E+00    7.421E+00
     7.559E+00    7.697E+00    7.835E+00    7.972E+00    8.109E+00    8.245E+00    8.381E+00    8.517E+00    8.652E+00    8.786E+00
     8.920E+00    9.054E+00    9.187E+00    9.320E+00    9.453E+00    9.585E+00    9.717E+00    9.848E+00
 Cr       Conc. = 2.32E+02
