 LCModel (Version 6.3-1L) Copyright: S.W. Provencher.          Ref.: Magn. Reson. Med. 30:672-679 (1993).                
 Slice#3 Row#6 Col#6  PD_24_press_1_raw_act
 36 lines in following concentration table = NCONC+1
    Conc.  %SD /Cr+PCr  Metabolite                                         
    5.600 999% 2.8E-03 Ala                                                 
    0.000 999%   0.000 Asp                                                 
 1.50E+03  12%   0.760 Cr                                                  
  474.290  39%   0.240 PCr                                                 
    0.000 999%   0.000 GABA                                                
    0.000 999%   0.000 Glc                                                 
  665.330  34%   0.336 Gln                                                 
 1.85E+03  14%   0.934 Glu                                                 
  744.819   3%   0.376 GPC                                                 
    0.000 999%   0.000 PCh                                                 
  439.787  17%   0.222 GSH                                                 
  591.787  44%   0.299 Ins                                                 
  229.707  52%   0.116 Lac                                                 
 2.37E+03   4%   1.199 NAA                                                 
  180.619  56% 9.1E-02 NAAG                                                
   48.143  59% 2.4E-02 Scyllo                                              
    0.000 999%   0.000 Tau                                                 
    0.000 999%   0.000 -CrCH2                                              
  744.819   3%   0.376 GPC+PCh                                             
 2.55E+03   3%   1.290 NAA+NAAG                                            
 1.98E+03   3%   1.000 Cr+PCr                                              
 2.51E+03  14%   1.270 Glu+Gln                                             
 1.78E+03  37%   0.898 Lip13a                                              
    0.000 999%   0.000 Lip13b                                              
  321.073  95%   0.162 Lip09                                               
 1.59E+03  21%   0.801 MM09                                                
  316.167  65%   0.160 Lip20                                               
 3.53E+03  13%   1.787 MM20                                                
  515.405  44%   0.261 MM12                                                
 1.10E+03  37%   0.554 MM14                                                
    0.000 999%   0.000 MM17                                                
 1.78E+03  37%   0.898 Lip13a+Lip13b                                       
 3.39E+03  15%   1.712 MM14+Lip13a+Lip13b+MM12                             
 1.91E+03  13%   0.964 MM09+Lip09                                          
 3.85E+03  11%   1.946 MM20+Lip20                                          
   6 lines in following misc. output table
  FWHM = 0.046 ppm    S/N =  13                                            
  Data shift = 0.000 ppm                                                   
  Ph:  -5 deg       2.9 deg/ppm                                            
  alphaB,S = 6.0E-01,   1.0E+02                                            
   14 spline knots.   Ns = 6(1)                                            
  ( 7) 4 infls.   ( 3) 1 extrs.                                            
  498 points on ppm-axis = NY
      4.000000     3.992357     3.984714     3.977070     3.969427     3.961784     3.954141     3.946497     3.938854     3.931211
      3.923568     3.915925     3.908281     3.900638     3.892995     3.885352     3.877708     3.870065     3.862422     3.854779
      3.847136     3.839492     3.831849     3.824206     3.816563     3.808919     3.801276     3.793633     3.785990     3.778347
      3.770703     3.763060     3.755417     3.747774     3.740130     3.732487     3.724844     3.717201     3.709558     3.701914
      3.694271     3.686628     3.678985     3.671341     3.663698     3.656055     3.648412     3.640769     3.633125     3.625482
      3.617839     3.610196     3.602552     3.594909     3.587266     3.579623     3.571980     3.564336     3.556693     3.549050
      3.541407     3.533763     3.526120     3.518477     3.510834     3.503191     3.495547     3.487904     3.480261     3.472618
      3.464974     3.457331     3.449688     3.442045     3.434402     3.426758     3.419115     3.411472     3.403829     3.396185
      3.388542     3.380899     3.373256     3.365613     3.357969     3.350326     3.342683     3.335040     3.327396     3.319753
      3.312110     3.304467     3.296824     3.289180     3.281537     3.273894     3.266251     3.258607     3.250964     3.243321
      3.235678     3.228034     3.220391     3.212748     3.205105     3.197462     3.189818     3.182175     3.174532     3.166889
      3.159245     3.151602     3.143959     3.136316     3.128673     3.121029     3.113386     3.105743     3.098100     3.090456
      3.082813     3.075170     3.067527     3.059884     3.052240     3.044597     3.036954     3.029311     3.021667     3.014024
      3.006381     2.998738     2.991095     2.983451     2.975808     2.968165     2.960522     2.952878     2.945235     2.937592
      2.929949     2.922306     2.914662     2.907019     2.899376     2.891733     2.884089     2.876446     2.868803     2.861160
      2.853517     2.845873     2.838230     2.830587     2.822944     2.815300     2.807657     2.800014     2.792371     2.784728
      2.777084     2.769441     2.761798     2.754155     2.746511     2.738868     2.731225     2.723582     2.715939     2.708295
      2.700652     2.693009     2.685366     2.677722     2.670079     2.662436     2.654793     2.647150     2.639506     2.631863
      2.624220     2.616577     2.608933     2.601290     2.593647     2.586004     2.578361     2.570717     2.563074     2.555431
      2.547788     2.540144     2.532501     2.524858     2.517215     2.509572     2.501928     2.494285     2.486642     2.478999
      2.471355     2.463712     2.456069     2.448426     2.440783     2.433139     2.425496     2.417853     2.410210     2.402566
      2.394923     2.387280     2.379637     2.371994     2.364350     2.356707     2.349064     2.341421     2.333777     2.326134
      2.318491     2.310848     2.303205     2.295561     2.287918     2.280275     2.272632     2.264988     2.257345     2.249702
      2.242059     2.234416     2.226772     2.219129     2.211486     2.203843     2.196199     2.188556     2.180913     2.173270
      2.165627     2.157983     2.150340     2.142697     2.135054     2.127410     2.119767     2.112124     2.104481     2.096838
      2.089194     2.081551     2.073908     2.066265     2.058621     2.050978     2.043335     2.035692     2.028049     2.020405
      2.012762     2.005119     1.997476     1.989833     1.982190     1.974546     1.966903     1.959260     1.951617     1.943974
      1.936331     1.928688     1.921045     1.913402     1.905759     1.898115     1.890472     1.882829     1.875186     1.867543
      1.859900     1.852257     1.844614     1.836971     1.829327     1.821684     1.814041     1.806398     1.798755     1.791112
      1.783469     1.775826     1.768183     1.760540     1.752896     1.745253     1.737610     1.729967     1.722324     1.714681
      1.707038     1.699395     1.691752     1.684108     1.676465     1.668822     1.661179     1.653536     1.645893     1.638250
      1.630607     1.622964     1.615321     1.607677     1.600034     1.592391     1.584748     1.577105     1.569462     1.561819
      1.554176     1.546533     1.538890     1.531246     1.523603     1.515960     1.508317     1.500674     1.493031     1.485388
      1.477745     1.470102     1.462458     1.454815     1.447172     1.439529     1.431886     1.424243     1.416600     1.408957
      1.401314     1.393671     1.386027     1.378384     1.370741     1.363098     1.355455     1.347812     1.340169     1.332526
      1.324883     1.317240     1.309596     1.301953     1.294310     1.286667     1.279024     1.271381     1.263738     1.256095
      1.248452     1.240808     1.233165     1.225522     1.217879     1.210236     1.202593     1.194950     1.187307     1.179664
      1.172021     1.164377     1.156734     1.149091     1.141448     1.133805     1.126162     1.118519     1.110876     1.103233
      1.095590     1.087946     1.080303     1.072660     1.065017     1.057374     1.049731     1.042088     1.034445     1.026802
      1.019158     1.011515     1.003872     0.996229     0.988586     0.980943     0.973300     0.965657     0.958014     0.950371
      0.942727     0.935084     0.927441     0.919798     0.912155     0.904512     0.896869     0.889226     0.881583     0.873940
      0.866296     0.858653     0.851010     0.843367     0.835724     0.828081     0.820438     0.812795     0.805152     0.797508
      0.789865     0.782222     0.774579     0.766936     0.759293     0.751650     0.744007     0.736364     0.728721     0.721077
      0.713434     0.705791     0.698148     0.690505     0.682862     0.675219     0.667576     0.659933     0.652290     0.644646
      0.637003     0.629360     0.621717     0.614074     0.606431     0.598788     0.591145     0.583502     0.575858     0.568215
      0.560572     0.552929     0.545286     0.537643     0.530000     0.522357     0.514714     0.507071     0.499427     0.491784
      0.484141     0.476498     0.468855     0.461212     0.453569     0.445925     0.438282     0.430639     0.422996     0.415353
      0.407710     0.400067     0.392424     0.384780     0.377137     0.369494     0.361851     0.354208     0.346565     0.338922
      0.331278     0.323635     0.315992     0.308349     0.300706     0.293063     0.285420     0.277777     0.270133     0.262490
      0.254847     0.247204     0.239561     0.231918     0.224275     0.216631     0.208988     0.201345
 NY phased data points follow
   5.95800E+01  5.42464E+01  5.53909E+01  5.28147E+01  5.95703E+01  6.32017E+01  7.03694E+01  7.41375E+01  8.20436E+01  8.57767E+01
   9.81742E+01  1.02123E+02  1.04866E+02  1.02200E+02  9.00115E+01  8.19877E+01  7.41287E+01  6.94247E+01  6.49314E+01  6.15695E+01
   5.82779E+01  5.11601E+01  5.06646E+01  4.82679E+01  5.08677E+01  4.97536E+01  5.44872E+01  5.11196E+01  5.10352E+01  5.66876E+01
   6.47570E+01  5.49356E+01  5.55920E+01  5.56747E+01  5.27372E+01  5.14923E+01  4.72841E+01  4.99913E+01  4.82777E+01  4.83221E+01
   4.77051E+01  4.44886E+01  5.04065E+01  4.74373E+01  4.93617E+01  4.73125E+01  5.41155E+01  5.09068E+01  5.40135E+01  4.58439E+01
   4.52288E+01  4.55378E+01  4.67404E+01  3.90189E+01  4.25536E+01  4.08118E+01  4.21964E+01  4.13142E+01  4.20530E+01  3.86714E+01
   3.86979E+01  3.41779E+01  3.34531E+01  2.96789E+01  2.74848E+01  2.44771E+01  2.34954E+01  2.74099E+01  2.63867E+01  1.98597E+01
   2.89964E+01  2.21101E+01  2.46519E+01  2.56096E+01  2.25760E+01  2.70986E+01  2.28930E+01  2.21080E+01  2.82006E+01  2.25235E+01
   2.18569E+01  2.18936E+01  2.30099E+01  2.19717E+01  2.76312E+01  2.68283E+01  2.59336E+01  2.85614E+01  2.53135E+01  2.46946E+01
   2.06423E+01  2.35154E+01  2.22980E+01  2.83748E+01  2.68769E+01  2.48373E+01  2.80422E+01  2.18657E+01  2.32452E+01  3.19444E+01
   4.94580E+01  6.83402E+01  8.09842E+01  9.38809E+01  8.69228E+01  8.25144E+01  7.19262E+01  6.14930E+01  5.93732E+01  4.67514E+01
   3.95180E+01  3.52718E+01  3.22813E+01  2.72737E+01  1.92468E+01  2.04901E+01  2.07777E+01  2.06755E+01  1.90118E+01  1.76714E+01
   1.93446E+01  1.73355E+01  1.81083E+01  2.67982E+01  4.39341E+01  5.51210E+01  7.36435E+01  7.76691E+01  7.70835E+01  7.89170E+01
   6.99709E+01  5.47863E+01  5.50584E+01  3.70455E+01  3.11976E+01  3.25952E+01  2.56131E+01  2.05620E+01  1.41760E+01  2.03792E+01
   1.67959E+01  1.03614E+01  1.31088E+01  1.76865E+01  1.26614E+01  1.22498E+01  1.28686E+01  1.09129E+01  1.48205E+01  9.82986E+00
   9.91585E+00  1.11851E+01  1.18523E+01  1.03864E+01  4.52091E+00  1.13216E+01  1.17235E+01  1.47291E+01  1.24470E+01  1.01418E+01
   1.12962E+01  9.39056E+00  3.74145E+00  7.90494E+00  1.04740E+01  6.44836E+00  1.14162E+01  1.22765E+01  8.73058E+00  5.69704E+00
   6.07262E+00  3.49777E+00  5.98749E+00  1.58725E+00 -2.67532E-01  1.30007E+00 -1.65274E+00 -2.29537E+00 -1.59331E+00  1.39572E+00
   2.67501E+00  2.73122E+00  2.33666E-01 -1.19619E+00 -3.73112E+00 -2.77739E+00 -3.76075E+00  3.18365E+00 -1.24712E-01  5.13247E+00
   9.27168E+00  1.12046E+01  1.86535E+01  1.33125E+01  1.95166E+01  1.49986E+01  1.28513E+01  1.22064E+01  1.06744E+01  1.20326E+01
   9.57520E+00  1.38246E+01  1.02679E+01  1.69516E+01  1.77208E+01  1.07417E+01  1.23288E+01  1.03062E+01  5.59772E+00  5.80459E+00
   5.00774E+00  5.36461E+00  1.22317E+01  1.46076E+01  1.88550E+01  2.56330E+01  2.78568E+01  2.20013E+01  1.91355E+01  1.31994E+01
   1.10699E+01  8.74921E+00  5.16021E+00  4.29634E+00  6.88584E+00  1.30625E+01  1.79446E+01  1.75038E+01  1.54014E+01  1.98354E+01
   1.71830E+01  1.40394E+01  1.64531E+01  1.62515E+01  1.96076E+01  1.71630E+01  1.68717E+01  1.59720E+01  1.41319E+01  1.62008E+01
   8.18284E+00  1.48642E+01  1.06974E+01  1.15762E+01  1.39240E+01  1.89693E+01  1.79439E+01  1.59130E+01  1.40063E+01  2.02910E+01
   2.29911E+01  1.56636E+01  2.03115E+01  2.52233E+01  3.04234E+01  3.05220E+01  3.77547E+01  4.66770E+01  6.45538E+01  9.19194E+01
   1.07597E+02  1.06924E+02  9.18023E+01  7.18407E+01  6.03021E+01  4.96410E+01  3.78686E+01  3.16559E+01  2.48978E+01  2.42675E+01
   1.37643E+01  1.53469E+01  1.61872E+01  1.50436E+01  1.31438E+01  1.27732E+01  9.56704E+00  1.07901E+01  1.07814E+01  4.78276E+00
   7.96093E+00  6.01067E+00  9.75210E+00  7.54223E+00  7.57212E+00  2.10915E+00  2.11898E+00  4.54985E+00  5.27669E+00  6.04564E+00
   4.86322E+00 -8.21748E-01  7.04962E+00  1.22885E+00  5.26931E+00  1.60533E+00  2.20054E+00  3.63897E+00  1.45954E+00  2.33803E+00
   2.67233E+00  1.08662E+00  3.86262E+00  3.18832E+00  7.16506E+00  5.00369E+00  6.82639E+00  7.49294E+00  2.26867E+00  5.98996E+00
   8.08883E+00 -1.26253E+00  3.48382E-01 -1.92405E+00  5.96009E+00  4.20147E+00  2.13057E+00  4.68989E+00  7.92652E-01  2.42114E+00
  -1.57200E+00  1.26949E+00  1.59999E+00  8.35425E-01  3.25634E+00  6.58473E+00 -4.93647E-01  2.12378E+00  7.19303E+00  7.48477E+00
   4.68431E+00  3.31681E+00  4.86930E+00  7.64815E+00  9.88360E+00  5.27308E+00  1.26515E+01  9.92884E+00  1.15654E+01  1.10103E+01
   8.72095E+00  1.58348E+01  1.85805E+01  1.77624E+01  1.96821E+01  1.44711E+01  1.54375E+01  1.56961E+01  1.55803E+01  1.14391E+01
   1.50319E+01  1.04806E+01  1.19790E+01  1.32358E+01  1.36138E+01  1.25935E+01  9.72456E+00  1.15373E+01  1.57585E+01  1.74940E+01
   1.17988E+01  1.26833E+01  1.05231E+01  9.68217E+00  8.91278E+00  1.13187E+01  1.01014E+01  1.33567E+01  9.99782E+00  1.13782E+01
   1.10000E+01  1.11436E+01  9.67881E+00  1.26744E+01  8.48011E+00  8.15919E+00  9.65694E+00  7.61458E+00 -2.78626E+00  6.84816E+00
   8.92762E+00  5.21430E+00  1.09434E+01  9.68289E+00  7.99121E+00  1.01713E+01  1.09640E+01  9.07098E+00  5.15030E+00  9.72429E+00
   5.82301E+00  6.80323E+00  1.07661E+01  8.35747E+00  1.18855E+01  1.16369E+01  1.41647E+01  1.41422E+01  1.00900E+01  1.36658E+01
   1.45863E+01  1.30257E+01  1.47391E+01  1.48455E+01  1.12545E+01  1.20821E+01  1.29828E+01  1.99260E+01  2.03050E+01  1.30136E+01
   1.28933E+01  9.82605E+00  1.49961E+01  9.88901E+00  3.58631E+00  1.22669E+01  1.18080E+01  1.00309E+01  9.48933E+00  7.61948E+00
   1.01389E+01  4.72719E+00  9.85605E+00  8.89551E+00  4.73223E+00  5.96394E+00  8.48313E+00  1.30265E+00  3.35942E+00  3.70774E+00
   1.91831E+00  2.48881E+00  5.59818E+00  8.62458E+00  6.36614E+00  2.11896E+00  2.29214E+00  2.10610E+00  2.18056E+00  5.51276E+00
   9.23695E+00  2.62033E+00  3.69621E+00  3.74454E+00  8.61467E+00  2.74888E+00  3.74356E+00  7.37502E+00  2.18141E+00  4.25147E+00
   5.32720E+00  4.86344E+00  2.58331E+00  2.32742E+00  1.03238E+00  4.09436E+00  2.51462E+00  2.44696E+00  9.69244E-01  2.16850E+00
  -9.12665E-01  6.15691E+00  2.92965E+00  2.51297E+00  2.55563E+00  7.35324E-01  2.75286E+00 -1.71946E+00  4.83549E+00 -1.51100E+00
   2.89557E+00  5.71561E+00  8.60425E-01  1.26251E+00  4.36229E+00  2.40610E-01  3.74076E+00  7.25949E+00  9.50669E-01  2.28618E+00
   3.34804E+00  2.27466E+00  1.36830E+00  2.00298E+00  7.13082E+00  2.38948E+00  3.01663E+00  3.78441E-01  1.42643E-01  1.98510E+00
   4.58380E+00 -2.19795E+00 -6.28773E-01  1.92489E+00  2.70657E+00  4.63989E+00  7.79252E-01  3.39888E+00
 NY points of the fit to the data follow
   5.74290E+01  5.70687E+01  5.69845E+01  5.73809E+01  5.87027E+01  6.12076E+01  6.50831E+01  7.06659E+01  7.78818E+01  8.58773E+01
   9.31750E+01  9.78281E+01  9.83098E+01  9.45974E+01  8.82459E+01  8.13871E+01  7.52997E+01  7.02908E+01  6.56088E+01  6.05450E+01
   5.66812E+01  5.49073E+01  5.36826E+01  5.23597E+01  5.09647E+01  4.99420E+01  4.98808E+01  5.11381E+01  5.36071E+01  5.65421E+01
   5.88579E+01  5.97269E+01  5.89405E+01  5.69085E+01  5.41726E+01  5.13347E+01  4.86072E+01  4.62648E+01  4.50278E+01  4.47519E+01
   4.47669E+01  4.48985E+01  4.52737E+01  4.60681E+01  4.70104E+01  4.77874E+01  4.80565E+01  4.75105E+01  4.63835E+01  4.50845E+01
   4.37466E+01  4.25225E+01  4.14586E+01  4.03357E+01  3.91222E+01  3.82308E+01  3.78117E+01  3.75523E+01  3.72002E+01  3.67731E+01
   3.61871E+01  3.53913E+01  3.44508E+01  3.35162E+01  3.27435E+01  3.21514E+01  3.16783E+01  3.13220E+01  3.10799E+01  3.09101E+01
   3.07683E+01  3.05656E+01  3.02542E+01  2.98350E+01  2.93479E+01  2.88605E+01  2.83992E+01  2.79627E+01  2.75296E+01  2.71079E+01
   2.67816E+01  2.66155E+01  2.66457E+01  2.68145E+01  2.69634E+01  2.68757E+01  2.64083E+01  2.56277E+01  2.47731E+01  2.40873E+01
   2.36522E+01  2.33771E+01  2.31271E+01  2.28367E+01  2.26215E+01  2.25739E+01  2.26729E+01  2.34405E+01  2.65657E+01  3.44048E+01
   4.79300E+01  6.54422E+01  8.23362E+01  9.27743E+01  9.34157E+01  8.56197E+01  7.40449E+01  6.30905E+01  5.39703E+01  4.54149E+01
   3.61154E+01  2.71480E+01  2.24928E+01  2.09011E+01  2.01367E+01  1.96511E+01  1.92960E+01  1.90166E+01  1.88093E+01  1.87240E+01
   1.89200E+01  1.99286E+01  2.31063E+01  3.03486E+01  4.25504E+01  5.82601E+01  7.35452E+01  8.34154E+01  8.48078E+01  7.86616E+01
   6.88653E+01  5.91618E+01  5.06902E+01  4.23249E+01  3.30436E+01  2.40738E+01  1.84952E+01  1.66484E+01  1.62351E+01  1.63493E+01
   1.65486E+01  1.66384E+01  1.66343E+01  1.64845E+01  1.61823E+01  1.58130E+01  1.53741E+01  1.48536E+01  1.43139E+01  1.37501E+01
   1.32599E+01  1.28248E+01  1.24465E+01  1.21572E+01  1.19787E+01  1.18780E+01  1.17355E+01  1.14082E+01  1.08226E+01  1.00671E+01
   9.41906E+00  9.16233E+00  9.33742E+00  9.69476E+00  9.85719E+00  9.57574E+00  8.92252E+00  8.20671E+00  7.70149E+00  7.37713E+00
   6.96572E+00  6.37427E+00  5.56150E+00  4.71100E+00  4.08673E+00  3.74582E+00  3.76421E+00  4.00914E+00  4.19534E+00  4.13996E+00
   3.90984E+00  3.74164E+00  3.75838E+00  3.84902E+00  3.86409E+00  3.81724E+00  4.21542E+00  5.42168E+00  7.25490E+00  9.11923E+00
   1.03568E+01  1.08225E+01  1.06994E+01  1.02251E+01  9.61853E+00  9.00304E+00  8.44024E+00  8.25681E+00  8.60473E+00  9.50410E+00
   1.08647E+01  1.24231E+01  1.37940E+01  1.46277E+01  1.45025E+01  1.32285E+01  1.09179E+01  8.10579E+00  5.59299E+00  4.02155E+00
   3.74211E+00  4.83773E+00  7.33461E+00  1.08907E+01  1.46265E+01  1.73919E+01  1.81589E+01  1.66375E+01  1.30606E+01  8.67164E+00
   4.69502E+00  1.85528E+00  6.97958E-01  1.51479E+00  4.11673E+00  7.54712E+00  1.04866E+01  1.25777E+01  1.39757E+01  1.48649E+01
   1.51616E+01  1.48388E+01  1.44498E+01  1.46024E+01  1.52526E+01  1.61842E+01  1.71263E+01  1.76927E+01  1.75906E+01  1.67376E+01
   1.53952E+01  1.42286E+01  1.37786E+01  1.41209E+01  1.49555E+01  1.60232E+01  1.70191E+01  1.76965E+01  1.80858E+01  1.84339E+01
   1.90336E+01  2.00193E+01  2.15300E+01  2.34486E+01  2.57801E+01  2.97854E+01  3.81855E+01  5.26193E+01  7.17824E+01  9.06189E+01
   1.02049E+02  1.01835E+02  9.15594E+01  7.70337E+01  6.39541E+01  5.34808E+01  4.35908E+01  3.24392E+01  2.13375E+01  1.57884E+01
   1.37930E+01  1.26851E+01  1.20262E+01  1.16364E+01  1.12490E+01  1.08174E+01  1.03353E+01  9.82555E+00  9.31963E+00  8.83381E+00
   8.34957E+00  7.87922E+00  7.46785E+00  7.12350E+00  6.81228E+00  6.50826E+00  6.21391E+00  5.94261E+00  5.69865E+00  5.46887E+00
   5.25837E+00  5.07222E+00  4.90529E+00  4.74728E+00  4.59521E+00  4.44944E+00  4.30986E+00  4.17553E+00  4.04895E+00  3.93318E+00
   3.83313E+00  3.74771E+00  3.67259E+00  3.60459E+00  3.54287E+00  3.48841E+00  3.44168E+00  3.40033E+00  3.36525E+00  3.33788E+00
   3.31903E+00  3.31053E+00  3.31430E+00  3.33094E+00  3.36142E+00  3.40733E+00  3.47077E+00  3.55375E+00  3.65793E+00  3.78491E+00
   3.93691E+00  4.11715E+00  4.32843E+00  4.57035E+00  4.83878E+00  5.12778E+00  5.43281E+00  5.75435E+00  6.09772E+00  6.46927E+00
   6.87330E+00  7.31032E+00  7.77808E+00  8.27301E+00  8.78907E+00  9.31860E+00  9.84888E+00  1.03726E+01  1.08957E+01  1.14304E+01
   1.19979E+01  1.26454E+01  1.34211E+01  1.42805E+01  1.50437E+01  1.54479E+01  1.52703E+01  1.44935E+01  1.33538E+01  1.22230E+01
   1.14459E+01  1.11872E+01  1.14397E+01  1.21051E+01  1.29983E+01  1.39460E+01  1.46371E+01  1.48422E+01  1.47421E+01  1.45252E+01
   1.42309E+01  1.37853E+01  1.31122E+01  1.24271E+01  1.18663E+01  1.13625E+01  1.08855E+01  1.04262E+01  9.98254E+00  9.55502E+00
   9.14596E+00  8.75862E+00  8.39646E+00  8.06268E+00  7.76011E+00  7.49147E+00  7.25962E+00  7.06742E+00  6.91745E+00  6.81180E+00
   6.75230E+00  6.74080E+00  6.77927E+00  6.86951E+00  7.01279E+00  7.20972E+00  7.46038E+00  7.76438E+00  8.12066E+00  8.52701E+00
   8.97971E+00  9.47348E+00  1.00017E+01  1.05564E+01  1.11283E+01  1.17064E+01  1.22784E+01  1.28312E+01  1.33514E+01  1.38257E+01
   1.42417E+01  1.45876E+01  1.48531E+01  1.50303E+01  1.51137E+01  1.51008E+01  1.49918E+01  1.47894E+01  1.44988E+01  1.41280E+01
   1.36868E+01  1.31865E+01  1.26392E+01  1.20570E+01  1.14521E+01  1.08363E+01  1.02204E+01  9.61423E+00  9.02557E+00  8.46080E+00
   7.92490E+00  7.42157E+00  6.95321E+00  6.52085E+00  6.12434E+00  5.76274E+00  5.43468E+00  5.13849E+00  4.87213E+00  4.63318E+00
   4.41909E+00  4.22743E+00  4.05607E+00  3.90306E+00  3.76642E+00  3.64422E+00  3.53466E+00  3.43631E+00  3.34803E+00  3.26879E+00
   3.19753E+00  3.13317E+00  3.07486E+00  3.02200E+00  2.97416E+00  2.93085E+00  2.89147E+00  2.85547E+00  2.82247E+00  2.79231E+00
   2.76482E+00  2.73971E+00  2.71661E+00  2.69521E+00  2.67543E+00  2.65728E+00  2.64069E+00  2.62543E+00  2.61123E+00  2.59798E+00
   2.58572E+00  2.57451E+00  2.56426E+00  2.55478E+00  2.54589E+00  2.53758E+00  2.52996E+00  2.52307E+00  2.51679E+00  2.51092E+00
   2.50540E+00  2.50030E+00  2.49575E+00  2.49173E+00  2.48808E+00  2.48466E+00  2.48150E+00  2.47870E+00  2.47635E+00  2.47437E+00
   2.47261E+00  2.47099E+00  2.46960E+00  2.46857E+00  2.46790E+00  2.46750E+00  2.46722E+00  2.46708E+00  2.46718E+00  2.46764E+00
   2.46841E+00  2.46935E+00  2.47039E+00  2.47160E+00  2.47310E+00  2.47496E+00  2.47706E+00  2.47930E+00
 NY background values follow
     5.568E+01    5.528E+01    5.488E+01    5.448E+01    5.408E+01    5.368E+01    5.328E+01    5.288E+01    5.248E+01    5.207E+01
     5.167E+01    5.127E+01    5.087E+01    5.047E+01    5.007E+01    4.967E+01    4.927E+01    4.887E+01    4.847E+01    4.807E+01
     4.767E+01    4.727E+01    4.687E+01    4.647E+01    4.607E+01    4.567E+01    4.528E+01    4.488E+01    4.448E+01    4.409E+01
     4.369E+01    4.330E+01    4.291E+01    4.252E+01    4.212E+01    4.173E+01    4.134E+01    4.095E+01    4.057E+01    4.018E+01
     3.979E+01    3.941E+01    3.902E+01    3.864E+01    3.826E+01    3.788E+01    3.750E+01    3.712E+01    3.674E+01    3.637E+01
     3.599E+01    3.562E+01    3.525E+01    3.488E+01    3.451E+01    3.414E+01    3.378E+01    3.341E+01    3.305E+01    3.269E+01
     3.233E+01    3.198E+01    3.162E+01    3.127E+01    3.092E+01    3.057E+01    3.022E+01    2.987E+01    2.953E+01    2.919E+01
     2.885E+01    2.851E+01    2.818E+01    2.784E+01    2.751E+01    2.719E+01    2.686E+01    2.654E+01    2.621E+01    2.590E+01
     2.558E+01    2.527E+01    2.495E+01    2.465E+01    2.434E+01    2.404E+01    2.374E+01    2.344E+01    2.314E+01    2.285E+01
     2.256E+01    2.228E+01    2.199E+01    2.171E+01    2.143E+01    2.116E+01    2.089E+01    2.062E+01    2.035E+01    2.009E+01
     1.983E+01    1.957E+01    1.932E+01    1.906E+01    1.882E+01    1.857E+01    1.833E+01    1.809E+01    1.785E+01    1.761E+01
     1.738E+01    1.715E+01    1.693E+01    1.671E+01    1.649E+01    1.627E+01    1.605E+01    1.584E+01    1.563E+01    1.543E+01
     1.522E+01    1.502E+01    1.483E+01    1.463E+01    1.444E+01    1.425E+01    1.407E+01    1.388E+01    1.370E+01    1.353E+01
     1.335E+01    1.318E+01    1.301E+01    1.284E+01    1.268E+01    1.252E+01    1.236E+01    1.221E+01    1.205E+01    1.190E+01
     1.176E+01    1.161E+01    1.147E+01    1.133E+01    1.120E+01    1.106E+01    1.093E+01    1.080E+01    1.068E+01    1.055E+01
     1.043E+01    1.032E+01    1.020E+01    1.009E+01    9.974E+00    9.865E+00    9.758E+00    9.654E+00    9.552E+00    9.452E+00
     9.354E+00    9.258E+00    9.165E+00    9.074E+00    8.985E+00    8.898E+00    8.813E+00    8.730E+00    8.650E+00    8.571E+00
     8.494E+00    8.419E+00    8.346E+00    8.275E+00    8.206E+00    8.139E+00    8.073E+00    8.009E+00    7.947E+00    7.887E+00
     7.829E+00    7.772E+00    7.717E+00    7.664E+00    7.612E+00    7.561E+00    7.512E+00    7.464E+00    7.418E+00    7.373E+00
     7.329E+00    7.285E+00    7.243E+00    7.202E+00    7.162E+00    7.123E+00    7.084E+00    7.046E+00    7.009E+00    6.972E+00
     6.936E+00    6.900E+00    6.864E+00    6.829E+00    6.794E+00    6.759E+00    6.724E+00    6.689E+00    6.654E+00    6.619E+00
     6.584E+00    6.549E+00    6.513E+00    6.477E+00    6.440E+00    6.403E+00    6.366E+00    6.328E+00    6.289E+00    6.249E+00
     6.208E+00    6.167E+00    6.124E+00    6.081E+00    6.036E+00    5.991E+00    5.944E+00    5.896E+00    5.846E+00    5.795E+00
     5.744E+00    5.691E+00    5.636E+00    5.581E+00    5.525E+00    5.468E+00    5.410E+00    5.351E+00    5.291E+00    5.230E+00
     5.168E+00    5.106E+00    5.043E+00    4.979E+00    4.915E+00    4.850E+00    4.784E+00    4.718E+00    4.651E+00    4.584E+00
     4.517E+00    4.449E+00    4.380E+00    4.312E+00    4.243E+00    4.174E+00    4.104E+00    4.035E+00    3.965E+00    3.895E+00
     3.825E+00    3.755E+00    3.685E+00    3.616E+00    3.546E+00    3.476E+00    3.407E+00    3.337E+00    3.268E+00    3.200E+00
     3.131E+00    3.063E+00    2.995E+00    2.928E+00    2.861E+00    2.795E+00    2.729E+00    2.663E+00    2.598E+00    2.534E+00
     2.470E+00    2.406E+00    2.343E+00    2.281E+00    2.219E+00    2.158E+00    2.097E+00    2.037E+00    1.978E+00    1.920E+00
     1.862E+00    1.805E+00    1.748E+00    1.692E+00    1.637E+00    1.583E+00    1.530E+00    1.477E+00    1.425E+00    1.374E+00
     1.324E+00    1.275E+00    1.227E+00    1.179E+00    1.133E+00    1.087E+00    1.043E+00    9.991E-01    9.565E-01    9.149E-01
     8.743E-01    8.347E-01    7.962E-01    7.588E-01    7.225E-01    6.873E-01    6.532E-01    6.202E-01    5.884E-01    5.577E-01
     5.281E-01    4.996E-01    4.722E-01    4.458E-01    4.205E-01    3.962E-01    3.730E-01    3.507E-01    3.295E-01    3.092E-01
     2.899E-01    2.715E-01    2.541E-01    2.376E-01    2.220E-01    2.072E-01    1.934E-01    1.804E-01    1.683E-01    1.569E-01
     1.464E-01    1.368E-01    1.278E-01    1.197E-01    1.123E-01    1.057E-01    9.982E-02    9.463E-02    9.015E-02    8.635E-02
     8.323E-02    8.076E-02    7.893E-02    7.774E-02    7.715E-02    7.717E-02    7.777E-02    7.894E-02    8.067E-02    8.293E-02
     8.573E-02    8.903E-02    9.284E-02    9.713E-02    1.019E-01    1.071E-01    1.128E-01    1.190E-01    1.256E-01    1.326E-01
     1.401E-01    1.480E-01    1.563E-01    1.650E-01    1.741E-01    1.836E-01    1.935E-01    2.037E-01    2.143E-01    2.253E-01
     2.366E-01    2.483E-01    2.603E-01    2.726E-01    2.853E-01    2.982E-01    3.115E-01    3.250E-01    3.388E-01    3.529E-01
     3.673E-01    3.819E-01    3.968E-01    4.119E-01    4.273E-01    4.429E-01    4.587E-01    4.747E-01    4.909E-01    5.073E-01
     5.239E-01    5.407E-01    5.577E-01    5.748E-01    5.921E-01    6.095E-01    6.270E-01    6.447E-01    6.625E-01    6.805E-01
     6.985E-01    7.166E-01    7.348E-01    7.531E-01    7.715E-01    7.899E-01    8.084E-01    8.269E-01    8.455E-01    8.641E-01
     8.827E-01    9.013E-01    9.199E-01    9.385E-01    9.571E-01    9.756E-01    9.941E-01    1.013E+00    1.031E+00    1.049E+00
     1.068E+00    1.086E+00    1.104E+00    1.122E+00    1.140E+00    1.158E+00    1.176E+00    1.193E+00    1.211E+00    1.228E+00
     1.245E+00    1.262E+00    1.279E+00    1.295E+00    1.312E+00    1.328E+00    1.344E+00    1.360E+00    1.375E+00    1.391E+00
     1.406E+00    1.420E+00    1.435E+00    1.449E+00    1.463E+00    1.477E+00    1.491E+00    1.504E+00    1.517E+00    1.530E+00
     1.543E+00    1.555E+00    1.567E+00    1.579E+00    1.591E+00    1.603E+00    1.614E+00    1.625E+00    1.637E+00    1.648E+00
     1.658E+00    1.669E+00    1.680E+00    1.690E+00    1.700E+00    1.711E+00    1.721E+00    1.731E+00    1.741E+00    1.751E+00
     1.760E+00    1.770E+00    1.780E+00    1.789E+00    1.799E+00    1.809E+00    1.818E+00    1.828E+00    1.837E+00    1.846E+00
     1.856E+00    1.865E+00    1.875E+00    1.884E+00    1.894E+00    1.903E+00    1.913E+00    1.923E+00
 Ala      Conc. = 5.60E+00
