 LCModel (Version 6.3-1L) Copyright: S.W. Provencher.          Ref.: Magn. Reson. Med. 30:672-679 (1993).                
 Slice#1 Row#7 Col#8  PD_24_press_1_raw_act
 36 lines in following concentration table = NCONC+1
    Conc.  %SD /Cr+PCr  Metabolite                                         
    0.000 999%   0.000 Ala                                                 
   78.855 131%   0.272 Asp                                                 
  290.174  23%   1.000 Cr                                                  
    0.000 999%   0.000 PCr                                                 
   41.468 151%   0.143 GABA                                                
   34.908 180%   0.120 Glc                                                 
    0.000 999%   0.000 Gln                                                 
    0.000 999%   0.000 Glu                                                 
  192.529  98%   0.663 GPC                                                 
   14.410 999% 5.0E-02 PCh                                                 
   13.401 709% 4.6E-02 GSH                                                 
  935.271  36%   3.223 Ins                                                 
    0.000 999%   0.000 Lac                                                 
    0.000 999%   0.000 NAA                                                 
  616.758  14%   2.125 NAAG                                                
    1.277 999% 4.4E-03 Scyllo                                              
   34.986 294%   0.121 Tau                                                 
  177.235  51%   0.611 -CrCH2                                              
  206.940  13%   0.713 GPC+PCh                                             
  616.758  14%   2.125 NAA+NAAG                                            
  290.174  23%   1.000 Cr+PCr                                              
    0.000 999%   0.000 Glu+Gln                                             
 1.41E+03  48%   4.856 Lip13a                                              
  664.868  36%   2.291 Lip13b                                              
    0.000 999%   0.000 Lip09                                               
  870.356  22%   2.999 MM09                                                
    0.000 999%   0.000 Lip20                                               
  835.737  45%   2.880 MM20                                                
  299.247  47%   1.031 MM12                                                
 2.41E+03  11%   8.309 MM14                                                
  269.126  87%   0.927 MM17                                                
 2.07E+03  26%   7.148 Lip13a+Lip13b                                       
 4.78E+03   9%  16.488 MM14+Lip13a+Lip13b+MM12                             
  870.356  22%   2.999 MM09+Lip09                                          
  835.737  45%   2.880 MM20+Lip20                                          
   6 lines in following misc. output table
  FWHM = 0.069 ppm    S/N =   2                                            
  Data shift = 0.015 ppm                                                   
  Ph:  65 deg      55.9 deg/ppm                                            
  alphaB,S = 8.5E+01,   8.3E+01                                            
   14 spline knots.   Ns = 7(1)                                            
  (12)12 infls.   (15) 9 extrs.                                            
  498 points on ppm-axis = NY
      4.000000     3.992357     3.984714     3.977070     3.969427     3.961784     3.954141     3.946497     3.938854     3.931211
      3.923568     3.915925     3.908281     3.900638     3.892995     3.885352     3.877708     3.870065     3.862422     3.854779
      3.847136     3.839492     3.831849     3.824206     3.816563     3.808919     3.801276     3.793633     3.785990     3.778347
      3.770703     3.763060     3.755417     3.747774     3.740130     3.732487     3.724844     3.717201     3.709558     3.701914
      3.694271     3.686628     3.678985     3.671341     3.663698     3.656055     3.648412     3.640769     3.633125     3.625482
      3.617839     3.610196     3.602552     3.594909     3.587266     3.579623     3.571980     3.564336     3.556693     3.549050
      3.541407     3.533763     3.526120     3.518477     3.510834     3.503191     3.495547     3.487904     3.480261     3.472618
      3.464974     3.457331     3.449688     3.442045     3.434402     3.426758     3.419115     3.411472     3.403829     3.396185
      3.388542     3.380899     3.373256     3.365613     3.357969     3.350326     3.342683     3.335040     3.327396     3.319753
      3.312110     3.304467     3.296824     3.289180     3.281537     3.273894     3.266251     3.258607     3.250964     3.243321
      3.235678     3.228034     3.220391     3.212748     3.205105     3.197462     3.189818     3.182175     3.174532     3.166889
      3.159245     3.151602     3.143959     3.136316     3.128673     3.121029     3.113386     3.105743     3.098100     3.090456
      3.082813     3.075170     3.067527     3.059884     3.052240     3.044597     3.036954     3.029311     3.021667     3.014024
      3.006381     2.998738     2.991095     2.983451     2.975808     2.968165     2.960522     2.952878     2.945235     2.937592
      2.929949     2.922306     2.914662     2.907019     2.899376     2.891733     2.884089     2.876446     2.868803     2.861160
      2.853517     2.845873     2.838230     2.830587     2.822944     2.815300     2.807657     2.800014     2.792371     2.784728
      2.777084     2.769441     2.761798     2.754155     2.746511     2.738868     2.731225     2.723582     2.715939     2.708295
      2.700652     2.693009     2.685366     2.677722     2.670079     2.662436     2.654793     2.647150     2.639506     2.631863
      2.624220     2.616577     2.608933     2.601290     2.593647     2.586004     2.578361     2.570717     2.563074     2.555431
      2.547788     2.540144     2.532501     2.524858     2.517215     2.509572     2.501928     2.494285     2.486642     2.478999
      2.471355     2.463712     2.456069     2.448426     2.440783     2.433139     2.425496     2.417853     2.410210     2.402566
      2.394923     2.387280     2.379637     2.371994     2.364350     2.356707     2.349064     2.341421     2.333777     2.326134
      2.318491     2.310848     2.303205     2.295561     2.287918     2.280275     2.272632     2.264988     2.257345     2.249702
      2.242059     2.234416     2.226772     2.219129     2.211486     2.203843     2.196199     2.188556     2.180913     2.173270
      2.165627     2.157983     2.150340     2.142697     2.135054     2.127410     2.119767     2.112124     2.104481     2.096838
      2.089194     2.081551     2.073908     2.066265     2.058621     2.050978     2.043335     2.035692     2.028049     2.020405
      2.012762     2.005119     1.997476     1.989833     1.982190     1.974546     1.966903     1.959260     1.951617     1.943974
      1.936331     1.928688     1.921045     1.913402     1.905759     1.898115     1.890472     1.882829     1.875186     1.867543
      1.859900     1.852257     1.844614     1.836971     1.829327     1.821684     1.814041     1.806398     1.798755     1.791112
      1.783469     1.775826     1.768183     1.760540     1.752896     1.745253     1.737610     1.729967     1.722324     1.714681
      1.707038     1.699395     1.691752     1.684108     1.676465     1.668822     1.661179     1.653536     1.645893     1.638250
      1.630607     1.622964     1.615321     1.607677     1.600034     1.592391     1.584748     1.577105     1.569462     1.561819
      1.554176     1.546533     1.538890     1.531246     1.523603     1.515960     1.508317     1.500674     1.493031     1.485388
      1.477745     1.470102     1.462458     1.454815     1.447172     1.439529     1.431886     1.424243     1.416600     1.408957
      1.401314     1.393671     1.386027     1.378384     1.370741     1.363098     1.355455     1.347812     1.340169     1.332526
      1.324883     1.317240     1.309596     1.301953     1.294310     1.286667     1.279024     1.271381     1.263738     1.256095
      1.248452     1.240808     1.233165     1.225522     1.217879     1.210236     1.202593     1.194950     1.187307     1.179664
      1.172021     1.164377     1.156734     1.149091     1.141448     1.133805     1.126162     1.118519     1.110876     1.103233
      1.095590     1.087946     1.080303     1.072660     1.065017     1.057374     1.049731     1.042088     1.034445     1.026802
      1.019158     1.011515     1.003872     0.996229     0.988586     0.980943     0.973300     0.965657     0.958014     0.950371
      0.942727     0.935084     0.927441     0.919798     0.912155     0.904512     0.896869     0.889226     0.881583     0.873940
      0.866296     0.858653     0.851010     0.843367     0.835724     0.828081     0.820438     0.812795     0.805152     0.797508
      0.789865     0.782222     0.774579     0.766936     0.759293     0.751650     0.744007     0.736364     0.728721     0.721077
      0.713434     0.705791     0.698148     0.690505     0.682862     0.675219     0.667576     0.659933     0.652290     0.644646
      0.637003     0.629360     0.621717     0.614074     0.606431     0.598788     0.591145     0.583502     0.575858     0.568215
      0.560572     0.552929     0.545286     0.537643     0.530000     0.522357     0.514714     0.507071     0.499427     0.491784
      0.484141     0.476498     0.468855     0.461212     0.453569     0.445925     0.438282     0.430639     0.422996     0.415353
      0.407710     0.400067     0.392424     0.384780     0.377137     0.369494     0.361851     0.354208     0.346565     0.338922
      0.331278     0.323635     0.315992     0.308349     0.300706     0.293063     0.285420     0.277777     0.270133     0.262490
      0.254847     0.247204     0.239561     0.231918     0.224275     0.216631     0.208988     0.201345
 NY phased data points follow
  -9.75373E+00  7.71006E+00 -3.52171E+00  3.83413E+00 -2.69815E+00  4.57226E+00  1.08673E-01  5.47818E+00 -6.62866E+00  2.02805E+00
   4.68586E+00  4.43585E+00  4.37940E+00  6.46265E+00  6.65982E-01  7.46304E+00  1.10187E+00  8.39994E+00  5.53799E+00  6.29969E+00
  -4.52127E+00  4.98178E+00 -8.06040E-01 -1.96121E-01  5.42102E+00  7.77571E+00  7.85031E-01  5.32897E+00 -3.38937E+00  6.45951E+00
   7.92464E-01 -6.93772E-01 -4.45338E+00  2.44310E+00  6.58138E-01  4.17184E+00 -6.59150E+00  4.81944E+00  1.79969E+00  2.67242E+00
   8.48180E-02  9.36542E-01  4.52200E+00  1.47291E+00  4.26575E+00  8.44965E+00  2.58788E+00  9.04666E+00 -3.41429E+00  1.49292E+01
   4.40421E+00  6.74066E+00  3.31021E+00  9.44849E+00  2.22199E+00  3.41050E+00 -7.94694E-01 -7.93582E-01 -3.71026E-01  9.90201E-01
   4.58458E+00  7.81649E+00 -7.64536E+00  2.75207E+00 -5.09423E+00 -2.74091E+00 -2.58992E+00  4.87954E+00 -5.73250E+00 -4.48401E-01
  -3.00046E+00 -3.41402E+00 -7.51524E+00  3.25997E+00 -3.62355E+00  5.39427E+00 -6.30863E+00  6.92926E-01 -4.68263E+00 -1.94892E+00
  -5.80927E+00 -2.01408E+00  1.36818E+00 -4.29804E+00 -1.11948E+01 -3.02691E+00 -5.13511E+00  1.82508E+00 -5.63796E+00 -2.79843E+00
  -6.79697E+00 -5.07428E+00 -6.47864E+00 -2.77794E+00 -2.45648E+00  1.69635E+00  1.39730E+00  8.12295E+00  2.15006E+00  4.63587E+00
   1.00056E+01  9.21884E+00  1.07998E+01  1.79332E+01  9.41633E+00  7.87455E+00  7.61449E+00  1.29570E+01  2.95948E+00  8.39382E-01
  -3.67302E-01  2.47646E+00 -9.07503E+00 -2.36116E+00 -4.51920E+00 -3.25702E+00 -5.99386E+00 -1.51009E+00 -8.58473E+00  3.13016E+00
  -9.20670E+00  3.63915E+00 -5.88613E+00 -6.39805E+00 -8.49340E+00  5.70884E+00  9.16272E-01  4.73564E+00  5.30484E+00  1.13569E+01
  -3.39489E+00  9.79110E+00 -4.46534E+00  4.81726E+00 -8.90435E-02 -9.42678E+00 -3.58196E+00 -2.14595E-01 -8.08887E+00 -2.40762E+00
  -5.81196E+00 -7.42642E+00 -6.39821E+00 -5.90670E+00 -4.54759E+00 -2.56731E+00 -3.39270E-01 -2.28772E+00 -5.68517E+00 -5.02165E+00
  -1.15870E+01 -1.11750E+01 -8.34129E+00 -9.13496E+00 -1.26217E+01 -1.23907E+01 -5.12789E+00 -8.48262E+00 -6.80536E+00 -2.73267E+00
  -8.43191E+00 -8.21970E+00 -8.04564E+00 -6.59019E+00 -4.14698E+00 -8.96388E+00 -1.34736E+01 -7.45270E+00 -1.41645E+01 -1.17084E+01
  -1.37622E+01 -1.07240E+01 -7.50659E+00 -8.17924E+00 -1.40017E+01 -1.18949E+01 -1.50981E+01 -1.10106E+01 -1.54872E+01 -1.07463E+01
  -1.65068E+01 -9.99544E+00 -7.95109E+00  2.83911E-01 -9.46464E+00 -4.30097E+00 -1.08794E+01 -9.28473E+00 -6.38400E+00 -3.95711E+00
  -9.14481E+00 -9.15193E+00 -7.79369E+00 -8.30873E+00 -7.18794E+00 -6.38885E+00 -9.24979E+00 -8.11575E+00 -1.26169E+01 -2.03428E+00
  -9.59484E+00 -7.26800E+00 -7.42393E+00 -7.46952E+00 -5.33905E+00 -5.40359E+00 -1.36036E+01 -1.33064E+01 -1.97893E+01 -1.24933E+01
  -1.48150E+01 -7.50721E+00 -7.72640E+00  3.25809E+00 -7.76703E+00 -4.59173E+00 -8.57162E+00 -9.46486E+00 -1.38244E+01 -1.12421E+01
  -8.94489E+00 -3.20120E+00 -1.30738E+01 -5.78410E+00 -9.85872E+00 -5.08152E+00 -9.63949E+00 -5.59508E+00 -8.15345E+00 -6.11823E+00
  -1.07756E+01 -2.95074E+00 -5.39309E+00 -3.47671E+00 -1.44583E+01 -9.28976E+00 -2.09896E+00 -4.51317E+00 -7.27850E+00 -8.86961E+00
  -1.60627E+01 -6.92696E+00 -2.63648E+00 -6.32672E+00 -1.11897E+01 -4.94561E+00 -6.63039E+00 -8.74792E-01 -1.23224E+01 -7.84513E-01
  -9.48303E+00 -3.60800E+00 -2.56809E+00  2.98635E+00 -1.36448E+00  2.68220E+00  1.22361E+01  9.28399E+00  8.14961E+00  1.56819E+01
   8.15889E+00  1.13768E+01 -2.03778E+00 -4.02698E+00 -9.18753E+00 -1.16292E+01 -1.27343E+01 -1.01951E+01 -1.27477E+01 -6.35444E+00
  -9.53298E+00 -8.98475E+00 -1.54541E+01 -1.90032E+00 -1.42229E+01 -9.05045E+00 -1.53417E+01 -1.47852E+01 -1.48228E+01 -9.02792E+00
  -2.16708E+01 -5.10058E+00 -1.56934E+01 -1.25542E+01 -9.87261E+00 -8.71497E+00 -8.98549E+00 -1.05291E+01 -1.06971E+01 -7.06464E+00
  -8.75825E+00 -1.38518E+01 -5.60816E+00 -7.47635E+00 -1.28499E+01 -8.86099E+00 -1.00306E+01 -6.77598E+00 -1.18696E+01 -6.22715E+00
  -1.03212E+01 -6.58422E+00 -8.31294E+00 -1.14993E+01 -9.37453E+00 -1.11961E+01 -1.72924E+01 -1.61347E+01 -6.93780E+00 -1.09251E+01
  -1.23593E+01 -1.24520E+00 -1.60383E+01 -7.30180E+00 -1.62630E+01 -1.59058E+01 -1.93267E+01 -1.25183E+01 -1.79949E+01 -1.27875E+01
  -1.33551E+01 -2.24768E+01 -2.51784E+01 -1.89226E+01 -2.16135E+01 -2.05517E+01 -1.97434E+01 -1.59078E+01 -1.58769E+01 -3.48369E+00
  -1.01787E+01 -2.98465E+00 -6.34478E+00 -2.04931E+00 -4.88601E-01  3.94315E+00  3.64276E+00  1.49145E-01  3.62841E+00  6.78136E+00
   3.92788E+00  7.28370E+00  2.70882E+00  1.19905E+01  3.10397E+00  2.03206E+00  2.57823E+00  3.16454E+00  7.82746E+00  7.82432E+00
   1.20023E+01  8.44782E+00  1.15231E+01  1.31408E+01  7.50834E+00  1.07389E+01  9.87230E+00  1.11633E+01  7.58337E+00  1.28912E+01
   7.15503E+00  1.47889E+01  4.44958E+00  9.07869E+00  1.50765E+00  1.90405E+00  7.97318E+00 -2.65693E+00 -9.82177E+00 -5.52677E+00
  -8.51557E-02 -2.59179E-01 -3.81654E+00  4.40585E+00 -7.35871E+00 -3.29743E+00 -3.89610E+00 -3.88279E+00 -3.89940E+00  1.83628E+00
   2.60765E+00 -1.56877E+00 -4.41511E-01 -1.61348E+00 -2.61708E+00  5.91681E+00  3.76733E+00 -2.77144E-01  7.01421E+00  2.36318E+00
   3.57679E+00  5.29242E+00  1.39622E+00  3.81691E-02  7.66403E-01 -2.68282E+00  2.65149E+00 -2.32746E+00 -4.01259E+00  3.45852E+00
  -1.71496E+00 -2.62427E+00 -5.31213E+00 -3.45304E+00 -4.68490E+00 -5.01669E+00 -7.43385E+00 -7.41220E+00 -3.40114E-01 -1.48448E+01
  -4.07917E+00 -6.40960E+00 -1.15093E+01 -9.50976E+00 -7.30433E+00 -3.66112E+00 -6.39995E+00 -8.48037E+00 -8.34148E+00 -7.27707E+00
  -1.05810E+01 -6.53711E+00  2.56446E+00 -5.70696E+00 -8.18551E+00 -1.09523E+01 -1.11684E+01 -7.94092E+00 -7.99137E+00 -7.27478E+00
  -1.30147E+01 -8.71887E+00 -9.93281E+00 -2.46378E+00 -4.30198E+00 -4.97067E+00 -1.01008E+01 -1.02272E+01 -1.08692E+01 -1.01725E+01
  -1.32778E+01 -5.23702E+00 -6.93430E+00 -3.25891E+00 -1.11888E+01 -4.26731E+00 -3.11640E+00 -1.07684E+01 -8.92981E+00 -9.72099E+00
  -5.95866E+00 -4.23539E+00 -6.82989E+00 -9.54743E+00 -1.25346E+01 -7.10117E+00 -4.95828E+00 -6.82511E-01 -7.38496E+00 -8.02742E+00
  -9.46430E-01 -9.98865E+00 -5.27656E+00 -5.91863E+00 -9.95721E+00 -7.65760E+00 -2.72021E+00 -1.18409E+01 -7.60649E+00 -5.27315E+00
  -4.97823E+00 -8.12349E+00 -1.09588E+01 -3.34819E+00 -5.98691E+00 -1.04860E+01 -7.05378E+00 -7.69512E+00 -2.20006E+00 -1.12316E+01
  -6.81222E+00 -4.69705E+00 -4.20036E+00 -9.10894E+00 -7.55259E+00 -3.75775E+00 -3.89898E+00 -1.83312E+00 -5.68971E+00 -9.54687E+00
  -9.97328E+00 -5.26047E+00 -5.41174E+00 -5.05493E+00 -6.86242E+00 -3.44314E+00 -6.33856E+00 -4.71083E+00
 NY points of the fit to the data follow
   2.88483E+00  2.33235E+00  1.89280E+00  1.56298E+00  1.46400E+00  1.63294E+00  1.90044E+00  2.23397E+00  2.69458E+00  3.31132E+00
   4.01897E+00  4.66763E+00  5.11222E+00  5.30805E+00  5.27152E+00  4.95593E+00  4.27303E+00  3.24020E+00  2.09509E+00  1.22627E+00
   8.21192E-01  7.49230E-01  7.44390E-01  7.64090E-01  8.22528E-01  9.19411E-01  1.03584E+00  1.15196E+00  1.26372E+00  1.38035E+00
   1.51548E+00  1.67381E+00  1.82813E+00  1.94813E+00  2.02461E+00  2.06689E+00  2.07617E+00  2.03070E+00  1.92974E+00  1.83198E+00
   1.84007E+00  2.02652E+00  2.36347E+00  2.81265E+00  3.37871E+00  4.05455E+00  4.73884E+00  5.23350E+00  5.32673E+00  4.94433E+00
   4.16426E+00  3.11151E+00  1.91761E+00  7.34823E-01 -2.20989E-01 -7.11276E-01 -6.52409E-01 -1.99317E-01  3.56038E-01  8.05001E-01
   1.06215E+00  1.11022E+00  9.68987E-01  6.82430E-01  3.12058E-01 -6.02425E-02 -3.78017E-01 -5.77180E-01 -5.80712E-01 -3.88385E-01
  -8.81378E-02  2.16872E-01  4.23885E-01  4.83621E-01  3.99780E-01  2.10182E-01 -4.42391E-02 -3.36323E-01 -6.39680E-01 -9.34931E-01
  -1.22013E+00 -1.49253E+00 -1.78799E+00 -2.11818E+00 -2.47617E+00 -2.85045E+00 -3.21945E+00 -3.53534E+00 -3.74346E+00 -3.79670E+00
  -3.67480E+00 -3.38955E+00 -2.95884E+00 -2.40971E+00 -1.77188E+00 -9.64424E-01  2.73814E-01  1.79465E+00  3.44708E+00  5.31108E+00
   7.39813E+00  9.51874E+00  1.13506E+01  1.24891E+01  1.26373E+01  1.17871E+01  1.00334E+01  7.41800E+00  4.14199E+00  6.89727E-01
  -2.23675E+00 -4.01220E+00 -4.54111E+00 -4.55429E+00 -4.49844E+00 -4.43574E+00 -4.37999E+00 -4.32754E+00 -4.26621E+00 -4.15583E+00
  -3.85232E+00 -3.23774E+00 -2.42863E+00 -1.47050E+00 -3.52707E-01  8.71742E-01  2.06251E+00  3.02391E+00  3.54287E+00  3.51503E+00
   2.97160E+00  1.95735E+00  5.12287E-01 -1.21709E+00 -2.94702E+00 -4.32442E+00 -5.09125E+00 -5.34415E+00 -5.44256E+00 -5.49831E+00
  -5.53320E+00 -5.55965E+00 -5.58296E+00 -5.60793E+00 -5.64075E+00 -5.68486E+00 -5.74521E+00 -5.83010E+00 -5.93586E+00 -6.05288E+00
  -6.18105E+00 -6.31764E+00 -6.45033E+00 -6.57725E+00 -6.68636E+00 -6.76398E+00 -6.81616E+00 -6.85988E+00 -6.90556E+00 -6.96023E+00
  -7.02683E+00 -7.11362E+00 -7.24090E+00 -7.42710E+00 -7.63240E+00 -7.80193E+00 -7.91413E+00 -7.96691E+00 -7.98428E+00 -7.99583E+00
  -7.98826E+00 -7.95958E+00 -7.93025E+00 -7.91812E+00 -7.92558E+00 -7.95542E+00 -8.01204E+00 -8.08782E+00 -8.18385E+00 -8.28299E+00
  -8.33052E+00 -8.29784E+00 -8.19558E+00 -8.04498E+00 -7.87229E+00 -7.68355E+00 -7.48245E+00 -7.28759E+00 -7.12037E+00 -7.01300E+00
  -6.99932E+00 -7.09157E+00 -7.25434E+00 -7.42413E+00 -7.58791E+00 -7.74464E+00 -7.88605E+00 -7.99905E+00 -8.06754E+00 -8.08030E+00
  -8.04405E+00 -7.99058E+00 -7.97399E+00 -8.01321E+00 -8.10892E+00 -8.26446E+00 -8.47000E+00 -8.69429E+00 -8.89296E+00 -9.03740E+00
  -9.13231E+00 -9.18546E+00 -9.20120E+00 -9.18075E+00 -9.12917E+00 -9.06034E+00 -8.99456E+00 -8.95102E+00 -8.93204E+00 -8.91172E+00
  -8.87462E+00 -8.82267E+00 -8.75704E+00 -8.68450E+00 -8.62758E+00 -8.59849E+00 -8.60128E+00 -8.63772E+00 -8.69359E+00 -8.75466E+00
  -8.81545E+00 -8.86199E+00 -8.86442E+00 -8.80988E+00 -8.71200E+00 -8.60771E+00 -8.52387E+00 -8.47042E+00 -8.45415E+00 -8.49187E+00
  -8.59160E+00 -8.72279E+00 -8.83998E+00 -8.89688E+00 -8.87361E+00 -8.79669E+00 -8.70597E+00 -8.61772E+00 -8.40575E+00 -7.65768E+00
  -6.39975E+00 -4.79814E+00 -2.78797E+00 -2.92167E-01  2.56110E+00  5.47331E+00  7.97510E+00  9.60578E+00  1.01800E+01  9.69993E+00
   8.12123E+00  5.48799E+00  2.13091E+00 -1.28707E+00 -3.95764E+00 -5.41428E+00 -6.16670E+00 -6.68808E+00 -7.09734E+00 -7.43043E+00
  -7.70974E+00 -7.94609E+00 -8.15072E+00 -8.33687E+00 -8.51790E+00 -8.70444E+00 -8.90656E+00 -9.12823E+00 -9.36597E+00 -9.60599E+00
  -9.82755E+00 -1.00119E+01 -1.01499E+01 -1.02414E+01 -1.02994E+01 -1.03428E+01 -1.03897E+01 -1.04446E+01 -1.05052E+01 -1.05671E+01
  -1.06234E+01 -1.06643E+01 -1.06837E+01 -1.06846E+01 -1.06762E+01 -1.06635E+01 -1.06563E+01 -1.06659E+01 -1.07006E+01 -1.07630E+01
  -1.08459E+01 -1.09364E+01 -1.10307E+01 -1.11297E+01 -1.12340E+01 -1.13454E+01 -1.14678E+01 -1.16073E+01 -1.17685E+01 -1.19476E+01
  -1.21390E+01 -1.23383E+01 -1.25402E+01 -1.27394E+01 -1.29301E+01 -1.31055E+01 -1.32581E+01 -1.33796E+01 -1.34604E+01 -1.34904E+01
  -1.34590E+01 -1.33548E+01 -1.31671E+01 -1.28853E+01 -1.25000E+01 -1.20037E+01 -1.13907E+01 -1.06586E+01 -9.80837E+00 -8.84513E+00
  -7.77827E+00 -6.62189E+00 -5.39434E+00 -4.11813E+00 -2.81900E+00 -1.52536E+00 -2.66851E-01  9.26764E-01  2.02747E+00  3.01055E+00
   3.85692E+00  4.55495E+00  5.10309E+00  5.51166E+00  5.80454E+00  6.01892E+00  6.20353E+00  6.41342E+00  6.70268E+00  7.11419E+00
   7.66951E+00  8.36002E+00  9.14320E+00  9.94500E+00  1.06699E+01  1.12164E+01  1.14954E+01  1.14463E+01  1.10482E+01  1.03219E+01
   9.32457E+00  8.13700E+00  6.84877E+00  5.54370E+00  4.28963E+00  3.13285E+00  2.09821E+00  1.19231E+00  4.09222E-01 -2.64146E-01
  -8.43015E-01 -1.34171E+00 -1.77159E+00 -2.14076E+00 -2.45400E+00 -2.71370E+00 -2.92040E+00 -3.07376E+00 -3.17301E+00 -3.21776E+00
  -3.20823E+00 -3.14581E+00 -3.03311E+00 -2.87430E+00 -2.67495E+00 -2.44225E+00 -2.18460E+00 -1.91164E+00 -1.63362E+00 -1.36126E+00
  -1.10503E+00 -8.74969E-01 -6.79965E-01 -5.27608E-01 -4.23611E-01 -3.71840E-01 -3.73977E-01 -4.29804E-01 -5.37098E-01 -6.92090E-01
  -8.89532E-01 -1.12330E+00 -1.38654E+00 -1.67228E+00 -1.97356E+00 -2.28388E+00 -2.59722E+00 -2.90846E+00 -3.21319E+00 -3.50804E+00
  -3.79034E+00 -4.05836E+00 -4.31091E+00 -4.54754E+00 -4.76817E+00 -4.97322E+00 -5.16327E+00 -5.33919E+00 -5.50182E+00 -5.65219E+00
  -5.79125E+00 -5.92001E+00 -6.03933E+00 -6.15009E+00 -6.25300E+00 -6.34884E+00 -6.43817E+00 -6.52165E+00 -6.59969E+00 -6.67282E+00
  -6.74136E+00 -6.80573E+00 -6.86620E+00 -6.92313E+00 -6.97668E+00 -7.02713E+00 -7.07464E+00 -7.11946E+00 -7.16169E+00 -7.20153E+00
  -7.23907E+00 -7.27447E+00 -7.30780E+00 -7.33923E+00 -7.36879E+00 -7.39662E+00 -7.42275E+00 -7.44729E+00 -7.47027E+00 -7.49183E+00
  -7.51195E+00 -7.53074E+00 -7.54819E+00 -7.56441E+00 -7.57940E+00 -7.59326E+00 -7.60597E+00 -7.61761E+00 -7.62815E+00 -7.63770E+00
  -7.64624E+00 -7.65386E+00 -7.66051E+00 -7.66627E+00 -7.67111E+00 -7.67513E+00 -7.67830E+00 -7.68068E+00 -7.68224E+00 -7.68304E+00
  -7.68306E+00 -7.68238E+00 -7.68097E+00 -7.67888E+00 -7.67607E+00 -7.67262E+00 -7.66850E+00 -7.66377E+00 -7.65840E+00 -7.65245E+00
  -7.64588E+00 -7.63876E+00 -7.63106E+00 -7.62284E+00 -7.61407E+00 -7.60481E+00 -7.59502E+00 -7.58477E+00 -7.57404E+00 -7.56290E+00
  -7.55129E+00 -7.53930E+00 -7.52689E+00 -7.51415E+00 -7.50105E+00 -7.48767E+00 -7.47398E+00 -7.46006E+00
 NY background values follow
    -4.686E-01   -5.027E-01   -5.368E-01   -5.711E-01   -6.055E-01   -6.400E-01   -6.746E-01   -7.093E-01   -7.442E-01   -7.791E-01
    -8.142E-01   -8.494E-01   -8.846E-01   -9.200E-01   -9.555E-01   -9.911E-01   -1.027E+00   -1.063E+00   -1.099E+00   -1.135E+00
    -1.171E+00   -1.207E+00   -1.243E+00   -1.280E+00   -1.316E+00   -1.353E+00   -1.389E+00   -1.426E+00   -1.463E+00   -1.500E+00
    -1.537E+00   -1.574E+00   -1.611E+00   -1.649E+00   -1.686E+00   -1.723E+00   -1.761E+00   -1.799E+00   -1.836E+00   -1.874E+00
    -1.912E+00   -1.950E+00   -1.988E+00   -2.026E+00   -2.064E+00   -2.102E+00   -2.141E+00   -2.179E+00   -2.218E+00   -2.256E+00
    -2.295E+00   -2.333E+00   -2.372E+00   -2.411E+00   -2.450E+00   -2.489E+00   -2.528E+00   -2.567E+00   -2.606E+00   -2.645E+00
    -2.684E+00   -2.723E+00   -2.763E+00   -2.802E+00   -2.842E+00   -2.881E+00   -2.921E+00   -2.960E+00   -3.000E+00   -3.039E+00
    -3.079E+00   -3.119E+00   -3.159E+00   -3.198E+00   -3.238E+00   -3.278E+00   -3.318E+00   -3.358E+00   -3.398E+00   -3.438E+00
    -3.478E+00   -3.518E+00   -3.559E+00   -3.599E+00   -3.639E+00   -3.679E+00   -3.720E+00   -3.760E+00   -3.800E+00   -3.840E+00
    -3.881E+00   -3.921E+00   -3.962E+00   -4.002E+00   -4.042E+00   -4.083E+00   -4.123E+00   -4.164E+00   -4.204E+00   -4.245E+00
    -4.285E+00   -4.326E+00   -4.366E+00   -4.407E+00   -4.448E+00   -4.488E+00   -4.529E+00   -4.569E+00   -4.610E+00   -4.650E+00
    -4.691E+00   -4.731E+00   -4.772E+00   -4.812E+00   -4.853E+00   -4.894E+00   -4.934E+00   -4.975E+00   -5.015E+00   -5.056E+00
    -5.096E+00   -5.137E+00   -5.177E+00   -5.217E+00   -5.258E+00   -5.298E+00   -5.339E+00   -5.379E+00   -5.419E+00   -5.460E+00
    -5.500E+00   -5.540E+00   -5.580E+00   -5.621E+00   -5.661E+00   -5.701E+00   -5.741E+00   -5.781E+00   -5.821E+00   -5.861E+00
    -5.901E+00   -5.941E+00   -5.981E+00   -6.021E+00   -6.061E+00   -6.100E+00   -6.140E+00   -6.180E+00   -6.219E+00   -6.259E+00
    -6.299E+00   -6.338E+00   -6.377E+00   -6.417E+00   -6.456E+00   -6.496E+00   -6.535E+00   -6.574E+00   -6.613E+00   -6.652E+00
    -6.691E+00   -6.730E+00   -6.769E+00   -6.808E+00   -6.846E+00   -6.885E+00   -6.924E+00   -6.962E+00   -7.001E+00   -7.039E+00
    -7.078E+00   -7.116E+00   -7.154E+00   -7.192E+00   -7.230E+00   -7.268E+00   -7.306E+00   -7.344E+00   -7.381E+00   -7.419E+00
    -7.457E+00   -7.494E+00   -7.532E+00   -7.569E+00   -7.606E+00   -7.643E+00   -7.680E+00   -7.717E+00   -7.754E+00   -7.791E+00
    -7.827E+00   -7.864E+00   -7.900E+00   -7.937E+00   -7.973E+00   -8.009E+00   -8.045E+00   -8.081E+00   -8.117E+00   -8.153E+00
    -8.189E+00   -8.224E+00   -8.260E+00   -8.295E+00   -8.330E+00   -8.365E+00   -8.400E+00   -8.435E+00   -8.470E+00   -8.505E+00
    -8.539E+00   -8.574E+00   -8.608E+00   -8.642E+00   -8.676E+00   -8.710E+00   -8.744E+00   -8.778E+00   -8.811E+00   -8.845E+00
    -8.878E+00   -8.911E+00   -8.944E+00   -8.977E+00   -9.010E+00   -9.042E+00   -9.075E+00   -9.107E+00   -9.140E+00   -9.172E+00
    -9.204E+00   -9.235E+00   -9.267E+00   -9.299E+00   -9.330E+00   -9.361E+00   -9.392E+00   -9.423E+00   -9.454E+00   -9.485E+00
    -9.515E+00   -9.546E+00   -9.576E+00   -9.606E+00   -9.636E+00   -9.666E+00   -9.695E+00   -9.725E+00   -9.754E+00   -9.783E+00
    -9.812E+00   -9.841E+00   -9.870E+00   -9.898E+00   -9.926E+00   -9.955E+00   -9.983E+00   -1.001E+01   -1.004E+01   -1.007E+01
    -1.009E+01   -1.012E+01   -1.015E+01   -1.017E+01   -1.020E+01   -1.023E+01   -1.025E+01   -1.028E+01   -1.030E+01   -1.033E+01
    -1.036E+01   -1.038E+01   -1.041E+01   -1.043E+01   -1.046E+01   -1.048E+01   -1.051E+01   -1.053E+01   -1.055E+01   -1.058E+01
    -1.060E+01   -1.063E+01   -1.065E+01   -1.067E+01   -1.069E+01   -1.072E+01   -1.074E+01   -1.076E+01   -1.078E+01   -1.081E+01
    -1.083E+01   -1.085E+01   -1.087E+01   -1.089E+01   -1.091E+01   -1.093E+01   -1.095E+01   -1.097E+01   -1.099E+01   -1.101E+01
    -1.103E+01   -1.105E+01   -1.107E+01   -1.109E+01   -1.111E+01   -1.113E+01   -1.115E+01   -1.117E+01   -1.118E+01   -1.120E+01
    -1.122E+01   -1.124E+01   -1.125E+01   -1.127E+01   -1.129E+01   -1.130E+01   -1.132E+01   -1.134E+01   -1.135E+01   -1.137E+01
    -1.138E+01   -1.140E+01   -1.141E+01   -1.143E+01   -1.144E+01   -1.146E+01   -1.147E+01   -1.148E+01   -1.150E+01   -1.151E+01
    -1.152E+01   -1.154E+01   -1.155E+01   -1.156E+01   -1.157E+01   -1.158E+01   -1.160E+01   -1.161E+01   -1.162E+01   -1.163E+01
    -1.164E+01   -1.165E+01   -1.166E+01   -1.167E+01   -1.168E+01   -1.169E+01   -1.170E+01   -1.171E+01   -1.172E+01   -1.172E+01
    -1.173E+01   -1.174E+01   -1.175E+01   -1.176E+01   -1.176E+01   -1.177E+01   -1.178E+01   -1.178E+01   -1.179E+01   -1.179E+01
    -1.180E+01   -1.181E+01   -1.181E+01   -1.182E+01   -1.182E+01   -1.182E+01   -1.183E+01   -1.183E+01   -1.184E+01   -1.184E+01
    -1.184E+01   -1.184E+01   -1.185E+01   -1.185E+01   -1.185E+01   -1.185E+01   -1.185E+01   -1.186E+01   -1.186E+01   -1.186E+01
    -1.186E+01   -1.186E+01   -1.186E+01   -1.186E+01   -1.186E+01   -1.185E+01   -1.185E+01   -1.185E+01   -1.185E+01   -1.185E+01
    -1.185E+01   -1.184E+01   -1.184E+01   -1.184E+01   -1.183E+01   -1.183E+01   -1.183E+01   -1.182E+01   -1.182E+01   -1.181E+01
    -1.181E+01   -1.180E+01   -1.179E+01   -1.179E+01   -1.178E+01   -1.178E+01   -1.177E+01   -1.176E+01   -1.175E+01   -1.175E+01
    -1.174E+01   -1.173E+01   -1.172E+01   -1.171E+01   -1.170E+01   -1.169E+01   -1.168E+01   -1.167E+01   -1.166E+01   -1.165E+01
    -1.164E+01   -1.163E+01   -1.162E+01   -1.161E+01   -1.160E+01   -1.158E+01   -1.157E+01   -1.156E+01   -1.154E+01   -1.153E+01
    -1.152E+01   -1.150E+01   -1.149E+01   -1.147E+01   -1.146E+01   -1.144E+01   -1.143E+01   -1.141E+01   -1.139E+01   -1.138E+01
    -1.136E+01   -1.134E+01   -1.133E+01   -1.131E+01   -1.129E+01   -1.127E+01   -1.125E+01   -1.124E+01   -1.122E+01   -1.120E+01
    -1.118E+01   -1.116E+01   -1.114E+01   -1.112E+01   -1.109E+01   -1.107E+01   -1.105E+01   -1.103E+01   -1.101E+01   -1.098E+01
    -1.096E+01   -1.094E+01   -1.091E+01   -1.089E+01   -1.087E+01   -1.084E+01   -1.082E+01   -1.079E+01   -1.077E+01   -1.074E+01
    -1.072E+01   -1.069E+01   -1.066E+01   -1.064E+01   -1.061E+01   -1.058E+01   -1.055E+01   -1.053E+01   -1.050E+01   -1.047E+01
    -1.044E+01   -1.041E+01   -1.038E+01   -1.035E+01   -1.032E+01   -1.029E+01   -1.026E+01   -1.023E+01   -1.020E+01   -1.016E+01
    -1.013E+01   -1.010E+01   -1.007E+01   -1.003E+01   -1.000E+01   -9.967E+00   -9.933E+00   -9.899E+00
 Asp      Conc. = 7.89E+01
