 LCModel (Version 6.3-1L) Copyright: S.W. Provencher.          Ref.: Magn. Reson. Med. 30:672-679 (1993).                
 Slice#1 Row#9 Col#10  PD_24_press_1_raw_act
 36 lines in following concentration table = NCONC+1
    Conc.  %SD /Cr+PCr  Metabolite                                         
   25.478 457% 3.5E-02 Ala                                                 
    0.000 999%   0.000 Asp                                                 
  461.781  39%   0.634 Cr                                                  
  266.289  69%   0.366 PCr                                                 
    0.000 999%   0.000 GABA                                                
   44.463 273% 6.1E-02 Glc                                                 
  705.395  35%   0.969 Gln                                                 
 1.03E+03  27%   1.417 Glu                                                 
  422.973   5%   0.581 GPC                                                 
    0.000 999%   0.000 PCh                                                 
  160.059  43%   0.220 GSH                                                 
 1.35E+03  17%   1.848 Ins                                                 
    0.000 999%   0.000 Lac                                                 
 1.62E+03   7%   2.227 NAA                                                 
  249.157  49%   0.342 NAAG                                                
  140.529  17%   0.193 Scyllo                                              
  165.522  98%   0.227 Tau                                                 
  361.783  25%   0.497 -CrCH2                                              
  422.973   5%   0.581 GPC+PCh                                             
 1.87E+03   4%   2.569 NAA+NAAG                                            
  728.070   7%   1.000 Cr+PCr                                              
 1.74E+03  24%   2.386 Glu+Gln                                             
 2.10E+03  22%   2.889 Lip13a                                              
    0.000 999%   0.000 Lip13b                                              
  420.567  63%   0.578 Lip09                                               
  787.984  33%   1.082 MM09                                                
  258.737  76%   0.355 Lip20                                               
 1.55E+03  20%   2.128 MM20                                                
  255.664  62%   0.351 MM12                                                
  476.955  63%   0.655 MM14                                                
  472.599  31%   0.649 MM17                                                
 2.10E+03  22%   2.889 Lip13a+Lip13b                                       
 2.84E+03  10%   3.895 MM14+Lip13a+Lip13b+MM12                             
 1.21E+03  12%   1.660 MM09+Lip09                                          
 1.81E+03  15%   2.483 MM20+Lip20                                          
   6 lines in following misc. output table
  FWHM = 0.061 ppm    S/N =  10                                            
  Data shift =-0.015 ppm                                                   
  Ph: -45 deg     -11.8 deg/ppm                                            
  alphaB,S = 8.5E+01,   2.0E+02                                            
   14 spline knots.   Ns = 8(1)                                            
   4 inflections.     1 extrema                                            
  498 points on ppm-axis = NY
      4.000000     3.992357     3.984714     3.977070     3.969427     3.961784     3.954141     3.946497     3.938854     3.931211
      3.923568     3.915925     3.908281     3.900638     3.892995     3.885352     3.877708     3.870065     3.862422     3.854779
      3.847136     3.839492     3.831849     3.824206     3.816563     3.808919     3.801276     3.793633     3.785990     3.778347
      3.770703     3.763060     3.755417     3.747774     3.740130     3.732487     3.724844     3.717201     3.709558     3.701914
      3.694271     3.686628     3.678985     3.671341     3.663698     3.656055     3.648412     3.640769     3.633125     3.625482
      3.617839     3.610196     3.602552     3.594909     3.587266     3.579623     3.571980     3.564336     3.556693     3.549050
      3.541407     3.533763     3.526120     3.518477     3.510834     3.503191     3.495547     3.487904     3.480261     3.472618
      3.464974     3.457331     3.449688     3.442045     3.434402     3.426758     3.419115     3.411472     3.403829     3.396185
      3.388542     3.380899     3.373256     3.365613     3.357969     3.350326     3.342683     3.335040     3.327396     3.319753
      3.312110     3.304467     3.296824     3.289180     3.281537     3.273894     3.266251     3.258607     3.250964     3.243321
      3.235678     3.228034     3.220391     3.212748     3.205105     3.197462     3.189818     3.182175     3.174532     3.166889
      3.159245     3.151602     3.143959     3.136316     3.128673     3.121029     3.113386     3.105743     3.098100     3.090456
      3.082813     3.075170     3.067527     3.059884     3.052240     3.044597     3.036954     3.029311     3.021667     3.014024
      3.006381     2.998738     2.991095     2.983451     2.975808     2.968165     2.960522     2.952878     2.945235     2.937592
      2.929949     2.922306     2.914662     2.907019     2.899376     2.891733     2.884089     2.876446     2.868803     2.861160
      2.853517     2.845873     2.838230     2.830587     2.822944     2.815300     2.807657     2.800014     2.792371     2.784728
      2.777084     2.769441     2.761798     2.754155     2.746511     2.738868     2.731225     2.723582     2.715939     2.708295
      2.700652     2.693009     2.685366     2.677722     2.670079     2.662436     2.654793     2.647150     2.639506     2.631863
      2.624220     2.616577     2.608933     2.601290     2.593647     2.586004     2.578361     2.570717     2.563074     2.555431
      2.547788     2.540144     2.532501     2.524858     2.517215     2.509572     2.501928     2.494285     2.486642     2.478999
      2.471355     2.463712     2.456069     2.448426     2.440783     2.433139     2.425496     2.417853     2.410210     2.402566
      2.394923     2.387280     2.379637     2.371994     2.364350     2.356707     2.349064     2.341421     2.333777     2.326134
      2.318491     2.310848     2.303205     2.295561     2.287918     2.280275     2.272632     2.264988     2.257345     2.249702
      2.242059     2.234416     2.226772     2.219129     2.211486     2.203843     2.196199     2.188556     2.180913     2.173270
      2.165627     2.157983     2.150340     2.142697     2.135054     2.127410     2.119767     2.112124     2.104481     2.096838
      2.089194     2.081551     2.073908     2.066265     2.058621     2.050978     2.043335     2.035692     2.028049     2.020405
      2.012762     2.005119     1.997476     1.989833     1.982190     1.974546     1.966903     1.959260     1.951617     1.943974
      1.936331     1.928688     1.921045     1.913402     1.905759     1.898115     1.890472     1.882829     1.875186     1.867543
      1.859900     1.852257     1.844614     1.836971     1.829327     1.821684     1.814041     1.806398     1.798755     1.791112
      1.783469     1.775826     1.768183     1.760540     1.752896     1.745253     1.737610     1.729967     1.722324     1.714681
      1.707038     1.699395     1.691752     1.684108     1.676465     1.668822     1.661179     1.653536     1.645893     1.638250
      1.630607     1.622964     1.615321     1.607677     1.600034     1.592391     1.584748     1.577105     1.569462     1.561819
      1.554176     1.546533     1.538890     1.531246     1.523603     1.515960     1.508317     1.500674     1.493031     1.485388
      1.477745     1.470102     1.462458     1.454815     1.447172     1.439529     1.431886     1.424243     1.416600     1.408957
      1.401314     1.393671     1.386027     1.378384     1.370741     1.363098     1.355455     1.347812     1.340169     1.332526
      1.324883     1.317240     1.309596     1.301953     1.294310     1.286667     1.279024     1.271381     1.263738     1.256095
      1.248452     1.240808     1.233165     1.225522     1.217879     1.210236     1.202593     1.194950     1.187307     1.179664
      1.172021     1.164377     1.156734     1.149091     1.141448     1.133805     1.126162     1.118519     1.110876     1.103233
      1.095590     1.087946     1.080303     1.072660     1.065017     1.057374     1.049731     1.042088     1.034445     1.026802
      1.019158     1.011515     1.003872     0.996229     0.988586     0.980943     0.973300     0.965657     0.958014     0.950371
      0.942727     0.935084     0.927441     0.919798     0.912155     0.904512     0.896869     0.889226     0.881583     0.873940
      0.866296     0.858653     0.851010     0.843367     0.835724     0.828081     0.820438     0.812795     0.805152     0.797508
      0.789865     0.782222     0.774579     0.766936     0.759293     0.751650     0.744007     0.736364     0.728721     0.721077
      0.713434     0.705791     0.698148     0.690505     0.682862     0.675219     0.667576     0.659933     0.652290     0.644646
      0.637003     0.629360     0.621717     0.614074     0.606431     0.598788     0.591145     0.583502     0.575858     0.568215
      0.560572     0.552929     0.545286     0.537643     0.530000     0.522357     0.514714     0.507071     0.499427     0.491784
      0.484141     0.476498     0.468855     0.461212     0.453569     0.445925     0.438282     0.430639     0.422996     0.415353
      0.407710     0.400067     0.392424     0.384780     0.377137     0.369494     0.361851     0.354208     0.346565     0.338922
      0.331278     0.323635     0.315992     0.308349     0.300706     0.293063     0.285420     0.277777     0.270133     0.262490
      0.254847     0.247204     0.239561     0.231918     0.224275     0.216631     0.208988     0.201345
 NY phased data points follow
   1.54300E+00  2.72441E+00  1.28398E+00  3.90049E+00  1.63234E+00  1.08406E+00  6.99406E-01  6.27418E+00  5.65106E+00  2.43580E+00
   6.99944E+00  3.70054E+00  9.61255E+00  3.86399E+00  6.21132E+00  4.75997E+00  8.17751E+00  6.46896E+00  7.86418E+00  5.39874E+00
   3.74061E+00  1.43813E-02  1.68037E+00 -2.45126E+00 -1.16404E+00  3.78209E+00  4.17820E+00 -1.52782E+00  2.54161E+00  2.88696E+00
   4.85256E+00 -8.90518E-01  1.11179E+00  1.60721E+00  6.34131E+00  6.28035E+00  1.80443E+00  3.91413E+00  4.40229E+00  4.82404E+00
   6.40190E+00  1.51881E+00  4.14821E+00  3.72221E+00  9.75002E+00  6.88865E+00  8.89886E+00  8.37761E+00  7.89091E+00  2.71327E+00
   4.27953E+00  5.26005E+00  5.63999E+00  3.39842E+00  6.18439E+00  7.28790E+00  3.22032E+00  3.48642E+00  1.57901E+00  3.39692E+00
  -3.15202E+00  3.80675E+00 -5.80213E+00 -1.96090E+00 -7.77041E-01  1.09818E+00  9.98177E-01 -7.53694E-02  9.76310E-01 -8.49545E-01
   2.61860E-01  2.06166E+00  3.71904E+00  2.08279E+00  4.18976E+00 -5.10603E-01  1.63392E+00 -9.72343E-01 -5.93856E-01  1.79484E+00
  -9.98258E-01  2.29317E+00  3.66052E+00 -2.30403E-01  4.76828E+00  7.45616E+00  4.12234E+00  7.18727E+00  9.84833E-02  3.03660E-01
   3.29187E+00  7.17974E+00  3.53149E+00  6.68873E+00  7.48314E+00  3.19413E+00  5.68802E+00  7.15702E+00  7.95769E+00  1.10245E+01
   1.88185E+01  2.58745E+01  3.36188E+01  3.45285E+01  3.03956E+01  2.29050E+01  2.10790E+01  1.34684E+01  1.44536E+01  1.20931E+01
   7.77455E+00  7.22656E+00  5.66570E+00  3.81032E+00  2.56505E-01  1.49727E+00  1.79011E+00 -2.55259E+00  1.04207E+00  2.95360E+00
   1.50221E+00  2.85058E+00  2.88090E+00  7.27739E+00  9.94362E+00  1.35459E+01  2.13436E+01  2.36616E+01  1.96976E+01  1.51067E+01
   9.56535E+00  7.94037E+00  8.48899E+00  7.63946E+00  5.99996E+00  9.90276E+00  6.19669E+00  6.07995E+00  1.62369E+00  1.48733E+00
  -1.77535E+00 -1.59006E-01 -1.41405E+00  5.31834E-01  1.17912E+00 -2.15329E-01 -1.78625E+00 -1.59149E+00 -2.44556E+00 -6.07701E-01
   1.50899E+00  4.13443E-01 -1.80279E+00  3.35891E+00 -7.57602E-02 -2.33067E+00 -2.54035E-01 -3.47693E-01 -3.06042E+00 -1.30307E+00
  -3.97596E+00  2.20449E+00 -3.83863E+00 -3.27043E+00 -5.28844E+00 -1.74669E+00 -4.73215E+00 -7.46924E+00 -7.38411E+00 -7.74285E+00
  -5.69403E+00 -1.05949E+01 -8.09692E+00 -5.67508E+00 -7.74725E+00 -9.53014E+00 -5.63638E+00 -9.28399E+00 -1.02331E+01 -9.37093E+00
  -8.51176E+00 -9.47473E+00 -3.40594E+00 -6.95822E+00 -6.92775E+00 -2.52132E+00 -3.06435E+00 -5.40692E+00 -7.47766E+00  2.54703E+00
  -6.49211E+00 -1.74813E+00 -1.48257E+00 -5.95622E+00 -3.73812E+00 -6.32261E+00 -6.61090E+00 -4.85871E+00 -5.47459E+00 -7.01356E+00
  -9.77892E-01 -5.27906E+00  1.26145E+00 -2.40446E+00  2.73574E-02  8.45479E-01 -4.32024E+00 -4.43848E-01 -3.20829E-01 -4.10227E+00
   1.36329E+00 -3.89751E-01  2.73409E+00  1.10164E-01  3.41981E+00  7.68311E+00  7.06082E+00  2.26591E+00  6.65399E+00  3.17118E+00
  -2.16199E+00 -2.75749E+00  5.37374E-01 -1.69950E+00 -1.52726E+00  3.95323E+00 -2.02220E+00  3.88823E+00  4.38849E+00  2.69266E+00
   2.01852E+00  3.77217E+00  8.45072E+00  4.44519E+00  4.64475E+00  4.71817E+00  4.51619E+00  2.37475E+00  4.03073E+00  6.11986E+00
   2.22668E+00 -2.49594E-02 -9.60329E-01  1.08256E+00  2.10522E+00  5.17484E+00  1.92816E+00  6.59524E+00  4.68998E+00  8.47785E+00
   9.03423E+00  6.88850E+00  1.55028E+01  1.44116E+01  2.18045E+01  2.72992E+01  3.21187E+01  3.64366E+01  4.74370E+01  5.55747E+01
   5.97802E+01  5.64366E+01  4.41498E+01  3.76528E+01  2.91544E+01  2.53415E+01  2.11241E+01  1.59960E+01  1.45771E+01  1.16946E+01
   6.93843E+00  5.96804E+00  7.29129E+00  5.83580E+00  3.79749E+00 -1.43269E+00 -7.15539E-01  3.49599E-01 -9.57657E-01  5.74297E-01
   1.85799E+00 -2.35450E+00 -1.64632E+00 -2.27352E+00  1.57622E+00  1.38398E+00 -1.26036E+00  1.38273E+00  4.87222E+00  4.22059E-01
   2.45679E+00  8.53616E-01  6.06809E-01  1.11837E+00  2.09147E+00  2.79384E-01  3.52410E+00  3.96423E-01 -1.06849E+00  7.35826E-01
  -1.86074E+00  3.87487E+00  3.30184E+00  2.50649E-01  1.73781E+00  3.17578E+00  6.45070E+00  3.23807E+00  4.40295E-01  7.58542E+00
   6.33662E+00  5.16518E+00  3.02259E+00  7.80008E+00  3.02925E+00 -2.92389E-01  1.45021E+00  4.95201E+00  6.51214E+00  5.14936E+00
   7.00164E+00  4.39973E+00  2.90874E+00  1.47672E+00  2.30117E+00  3.85045E+00  4.45323E+00  4.06459E+00  3.10013E+00  1.05309E+00
   2.26863E+00  7.01140E+00  3.92534E+00  4.74582E+00  5.90457E+00  3.21655E+00  6.20879E+00  6.18689E+00  5.83803E+00  3.73078E+00
   4.04948E+00  4.84340E+00  6.27207E+00  9.33844E+00  7.87551E+00  9.27864E+00  1.04410E+01  1.18450E+01  1.14703E+01  9.42826E+00
   1.27418E+01  1.27466E+01  1.01070E+01  1.29794E+01  1.17578E+01  1.02113E+01  1.08233E+01  1.47780E+01  1.31555E+01  1.01054E+01
   1.18145E+01  7.36152E+00  6.73080E+00  8.28626E+00  9.06297E+00  7.12915E+00  7.55168E+00  9.60439E+00  5.12606E+00  1.02636E+01
   1.11009E+01  1.04196E+01  9.88722E+00  8.96403E+00  7.28520E+00  8.67349E+00  4.25687E+00  4.88086E+00  5.32056E+00  4.42893E+00
   6.06578E+00  3.87396E+00  4.60234E+00  4.02515E+00  5.18163E+00  1.78255E+00  2.08006E+00  6.93041E+00 -1.87940E-01  2.94893E+00
   1.53518E+00  4.68574E-01  6.46399E+00  4.73954E+00  7.63802E+00  4.49179E+00  5.77665E+00  8.18139E+00  9.50767E+00  8.03168E+00
   5.61029E+00  8.28839E+00  1.19279E+01  9.75578E+00  9.96908E+00  8.34721E+00  9.69798E+00  7.11994E+00  9.47890E+00  1.32925E+01
   8.38271E+00  1.09918E+01  6.39603E+00  1.09430E+01  1.03567E+01  6.41764E+00  9.39140E+00  4.74868E+00  1.02371E+01  4.58071E+00
   6.28555E+00  8.43102E+00  6.90460E+00  6.37669E+00  6.95203E+00  3.65805E+00  2.79377E+00  7.67395E+00  1.75087E+00  6.65317E+00
   3.17573E+00  2.10868E+00  1.32985E+00  1.85762E+00  6.28296E-02  3.71214E+00  6.09309E+00  3.90797E+00  1.07174E+00  7.02257E-01
   4.72812E-01  3.34970E+00  1.36457E-01  5.14473E+00  4.99485E+00  1.94468E+00  3.74940E+00  2.54215E+00  1.46833E+00  3.87229E+00
   2.60836E+00  3.63091E+00  5.73212E+00  2.81803E+00  3.61246E+00  8.44574E-01  4.54922E+00  1.25130E+00  2.90062E-02  1.35602E+00
   5.90538E-01  5.28951E+00  4.83915E+00  9.48680E-01  7.76349E-01  6.99145E+00  3.16947E+00  6.12620E+00  1.43922E+00  2.68827E+00
   2.51627E-01  1.58319E+00  3.41858E+00 -3.37373E-01  3.21460E+00 -9.68747E-02  2.07936E+00  4.01827E+00  9.37378E-01  3.35453E+00
  -5.20780E-01  4.83329E+00  3.46451E+00  1.75542E+00 -5.88979E-01  1.45147E+00 -6.05703E-01  2.70389E+00  3.43558E+00  9.26583E-01
   7.94592E-02 -1.72212E+00 -1.16684E+00  3.79658E-01  3.56906E+00  4.70211E+00  4.75670E+00  2.05990E+00
 NY points of the fit to the data follow
   1.02946E+00  6.03462E-01  3.30128E-01  3.40598E-01  6.84591E-01  1.31007E+00  2.12055E+00  3.09010E+00  4.30715E+00  5.77523E+00
   7.23058E+00  8.20302E+00  8.35044E+00  7.71503E+00  6.68915E+00  5.68886E+00  4.93098E+00  4.38893E+00  3.90111E+00  3.24082E+00
   2.30893E+00  1.37586E+00  8.89972E-01  7.15158E-01  6.46143E-01  7.14752E-01  1.03456E+00  1.72095E+00  2.69972E+00  3.76316E+00
   4.63423E+00  5.05859E+00  4.96810E+00  4.46733E+00  3.73549E+00  3.00197E+00  2.39919E+00  1.97516E+00  1.69942E+00  1.72115E+00
   2.17644E+00  2.91747E+00  3.88580E+00  5.10013E+00  6.49518E+00  7.80368E+00  8.53460E+00  8.36916E+00  7.35309E+00  5.83268E+00
   4.34024E+00  3.24434E+00  2.57961E+00  2.24101E+00  2.02988E+00  1.74871E+00  1.51285E+00  1.61646E+00  1.98393E+00  2.24826E+00
   2.18230E+00  1.84396E+00  1.36679E+00  9.44230E-01  7.31582E-01  7.54142E-01  9.31566E-01  1.13262E+00  1.29441E+00  1.46131E+00
   1.64965E+00  1.83854E+00  1.97908E+00  2.01607E+00  1.94362E+00  1.76482E+00  1.50854E+00  1.25327E+00  1.11601E+00  1.27606E+00
   1.61168E+00  2.05133E+00  2.64477E+00  3.35701E+00  4.06115E+00  4.54692E+00  4.58160E+00  4.08097E+00  3.26463E+00  2.46834E+00
   1.90446E+00  1.59948E+00  1.42834E+00  1.25663E+00  1.11180E+00  1.57981E+00  3.39325E+00  6.35812E+00  1.01440E+01  1.48529E+01
   2.05140E+01  2.63717E+01  3.08481E+01  3.23545E+01  3.04173E+01  2.60800E+01  2.11544E+01  1.69540E+01  1.38208E+01  1.13352E+01
   8.79468E+00  5.71517E+00  2.30128E+00 -1.67358E-01 -9.54149E-01 -1.13743E+00 -1.17103E+00 -1.11516E+00 -8.93821E-01 -2.13417E-01
   1.19632E+00  3.14812E+00  5.54109E+00  8.47799E+00  1.19464E+01  1.55168E+01  1.83078E+01  1.94033E+01  1.84964E+01  1.61364E+01
   1.33117E+01  1.07956E+01  8.80403E+00  7.10607E+00  5.35247E+00  3.33305E+00  1.22956E+00 -2.48560E-01 -7.05528E-01 -7.04375E-01
  -6.48999E-01 -6.47035E-01 -7.08544E-01 -7.83239E-01 -8.29727E-01 -8.62092E-01 -9.01954E-01 -9.64915E-01 -1.06230E+00 -1.18294E+00
  -1.30677E+00 -1.41119E+00 -1.48389E+00 -1.56306E+00 -1.64983E+00 -1.72986E+00 -1.81877E+00 -1.93377E+00 -2.11326E+00 -2.34080E+00
  -2.52012E+00 -2.56245E+00 -2.47569E+00 -2.37162E+00 -2.39890E+00 -2.62733E+00 -2.99923E+00 -3.39598E+00 -3.72548E+00 -3.94419E+00
  -4.07430E+00 -4.25200E+00 -4.53598E+00 -4.89821E+00 -5.21465E+00 -5.31243E+00 -5.19935E+00 -5.00757E+00 -4.87081E+00 -4.87360E+00
  -4.94704E+00 -4.93230E+00 -4.75780E+00 -4.44631E+00 -4.04459E+00 -3.59090E+00 -3.10451E+00 -2.54041E+00 -1.87881E+00 -1.24365E+00
  -8.25536E-01 -7.33644E-01 -8.81651E-01 -1.06739E+00 -1.14403E+00 -1.06259E+00 -8.14952E-01 -4.42770E-01  6.73199E-02  7.18494E-01
   1.38096E+00  1.89234E+00  2.06484E+00  1.83044E+00  1.15117E+00  2.77405E-02 -1.37482E+00 -2.70251E+00 -3.61490E+00 -3.84070E+00
  -3.39570E+00 -2.42183E+00 -1.13783E+00  2.31126E-01  1.44536E+00  2.17386E+00  2.22958E+00  1.68676E+00  7.22957E-01 -4.44375E-01
  -1.58008E+00 -2.26249E+00 -2.28912E+00 -1.80075E+00 -1.02861E+00 -1.86226E-01  6.12601E-01  1.28255E+00  1.67435E+00  1.92237E+00
   2.18908E+00  2.52937E+00  2.86295E+00  3.09004E+00  3.27004E+00  3.51933E+00  3.82089E+00  4.07373E+00  4.16244E+00  4.00661E+00
   3.64842E+00  3.22394E+00  2.92813E+00  2.93789E+00  3.24790E+00  3.67722E+00  4.06786E+00  4.49718E+00  5.14882E+00  6.03024E+00
   7.17119E+00  8.75874E+00  1.15949E+01  1.61745E+01  2.15306E+01  2.72407E+01  3.35506E+01  4.06826E+01  4.79662E+01  5.35357E+01
   5.52721E+01  5.23845E+01  4.61183E+01  3.88177E+01  3.23002E+01  2.72380E+01  2.33447E+01  1.95606E+01  1.50023E+01  9.87887E+00
   6.15842E+00  4.81225E+00  4.23241E+00  3.84920E+00  3.55103E+00  3.29213E+00  3.02578E+00  2.76853E+00  2.53945E+00  2.34203E+00
   2.17443E+00  2.03095E+00  1.89493E+00  1.75771E+00  1.63178E+00  1.52812E+00  1.44306E+00  1.37337E+00  1.32540E+00  1.30695E+00
   1.31667E+00  1.34387E+00  1.38427E+00  1.43986E+00  1.51015E+00  1.59423E+00  1.69498E+00  1.81547E+00  1.95677E+00  2.11726E+00
   2.29167E+00  2.47496E+00  2.66451E+00  2.85533E+00  3.04156E+00  3.21873E+00  3.38287E+00  3.53080E+00  3.65802E+00  3.75983E+00
   3.83488E+00  3.88343E+00  3.90599E+00  3.90506E+00  3.88398E+00  3.84707E+00  3.79897E+00  3.74563E+00  3.69424E+00  3.65433E+00
   3.62601E+00  3.60659E+00  3.59924E+00  3.60584E+00  3.62096E+00  3.63303E+00  3.63111E+00  3.62304E+00  3.63281E+00  3.68119E+00
   3.78169E+00  3.93980E+00  4.15421E+00  4.41798E+00  4.71622E+00  5.03046E+00  5.34995E+00  5.67741E+00  6.00969E+00  6.34737E+00
   6.70004E+00  7.07061E+00  7.45404E+00  7.84044E+00  8.22130E+00  8.60456E+00  8.99846E+00  9.39364E+00  9.78050E+00  1.01509E+01
   1.04965E+01  1.08099E+01  1.10835E+01  1.13106E+01  1.14854E+01  1.16030E+01  1.16600E+01  1.16547E+01  1.15866E+01  1.14573E+01
   1.12695E+01  1.10275E+01  1.07366E+01  1.04035E+01  1.00351E+01  9.63912E+00  9.22305E+00  8.79456E+00  8.36073E+00  7.92851E+00
   7.50383E+00  7.09218E+00  6.69791E+00  6.32500E+00  5.97640E+00  5.65475E+00  5.36173E+00  5.09883E+00  4.86685E+00  4.66669E+00
   4.49881E+00  4.36390E+00  4.26226E+00  4.19456E+00  4.16124E+00  4.16321E+00  4.20116E+00  4.27603E+00  4.38837E+00  4.53883E+00
   4.72749E+00  4.95430E+00  5.21824E+00  5.51773E+00  5.84988E+00  6.21103E+00  6.59610E+00  6.99908E+00  7.41251E+00  7.82812E+00
   8.23652E+00  8.62811E+00  8.99284E+00  9.32118E+00  9.60385E+00  9.83292E+00  1.00016E+01  1.01052E+01  1.01406E+01  1.01073E+01
   1.00065E+01  9.84149E+00  9.61739E+00  9.34101E+00  9.02006E+00  8.66325E+00  8.27929E+00  7.87719E+00  7.46528E+00  7.05154E+00
   6.64275E+00  6.24488E+00  5.86250E+00  5.49938E+00  5.15796E+00  4.83999E+00  4.54606E+00  4.27628E+00  4.02993E+00  3.80617E+00
   3.60358E+00  3.42083E+00  3.25616E+00  3.10805E+00  2.97476E+00  2.85492E+00  2.74701E+00  2.64986E+00  2.56212E+00  2.48284E+00
   2.41093E+00  2.34572E+00  2.28636E+00  2.23233E+00  2.18290E+00  2.13768E+00  2.09612E+00  2.05801E+00  2.02290E+00  1.99059E+00
   1.96068E+00  1.93305E+00  1.90742E+00  1.88376E+00  1.86177E+00  1.84140E+00  1.82239E+00  1.80477E+00  1.78833E+00  1.77311E+00
   1.75890E+00  1.74570E+00  1.73333E+00  1.72187E+00  1.71117E+00  1.70128E+00  1.69201E+00  1.68342E+00  1.67536E+00  1.66793E+00
   1.66100E+00  1.65463E+00  1.64866E+00  1.64316E+00  1.63801E+00  1.63332E+00  1.62897E+00  1.62501E+00  1.62129E+00  1.61792E+00
   1.61477E+00  1.61198E+00  1.60938E+00  1.60706E+00  1.60487E+00  1.60293E+00  1.60114E+00  1.59959E+00  1.59813E+00  1.59685E+00
   1.59562E+00  1.59455E+00  1.59354E+00  1.59267E+00  1.59180E+00  1.59099E+00  1.59013E+00  1.58935E+00
 NY background values follow
    -3.661E+00   -3.652E+00   -3.643E+00   -3.635E+00   -3.626E+00   -3.618E+00   -3.609E+00   -3.600E+00   -3.592E+00   -3.583E+00
    -3.574E+00   -3.566E+00   -3.557E+00   -3.549E+00   -3.540E+00   -3.531E+00   -3.523E+00   -3.514E+00   -3.505E+00   -3.497E+00
    -3.488E+00   -3.479E+00   -3.471E+00   -3.462E+00   -3.453E+00   -3.445E+00   -3.436E+00   -3.427E+00   -3.419E+00   -3.410E+00
    -3.401E+00   -3.393E+00   -3.384E+00   -3.375E+00   -3.367E+00   -3.358E+00   -3.349E+00   -3.341E+00   -3.332E+00   -3.323E+00
    -3.315E+00   -3.306E+00   -3.297E+00   -3.289E+00   -3.280E+00   -3.271E+00   -3.263E+00   -3.254E+00   -3.245E+00   -3.236E+00
    -3.228E+00   -3.219E+00   -3.210E+00   -3.202E+00   -3.193E+00   -3.184E+00   -3.175E+00   -3.167E+00   -3.158E+00   -3.149E+00
    -3.141E+00   -3.132E+00   -3.123E+00   -3.114E+00   -3.106E+00   -3.097E+00   -3.088E+00   -3.079E+00   -3.071E+00   -3.062E+00
    -3.053E+00   -3.045E+00   -3.036E+00   -3.027E+00   -3.018E+00   -3.010E+00   -3.001E+00   -2.992E+00   -2.983E+00   -2.975E+00
    -2.966E+00   -2.957E+00   -2.948E+00   -2.940E+00   -2.931E+00   -2.922E+00   -2.913E+00   -2.905E+00   -2.896E+00   -2.887E+00
    -2.878E+00   -2.869E+00   -2.861E+00   -2.852E+00   -2.843E+00   -2.834E+00   -2.826E+00   -2.817E+00   -2.808E+00   -2.799E+00
    -2.790E+00   -2.782E+00   -2.773E+00   -2.764E+00   -2.755E+00   -2.747E+00   -2.738E+00   -2.729E+00   -2.720E+00   -2.711E+00
    -2.703E+00   -2.694E+00   -2.685E+00   -2.676E+00   -2.667E+00   -2.659E+00   -2.650E+00   -2.641E+00   -2.632E+00   -2.623E+00
    -2.615E+00   -2.606E+00   -2.597E+00   -2.588E+00   -2.579E+00   -2.571E+00   -2.562E+00   -2.553E+00   -2.544E+00   -2.535E+00
    -2.526E+00   -2.518E+00   -2.509E+00   -2.500E+00   -2.491E+00   -2.482E+00   -2.474E+00   -2.465E+00   -2.456E+00   -2.447E+00
    -2.438E+00   -2.429E+00   -2.421E+00   -2.412E+00   -2.403E+00   -2.394E+00   -2.385E+00   -2.376E+00   -2.368E+00   -2.359E+00
    -2.350E+00   -2.341E+00   -2.332E+00   -2.323E+00   -2.315E+00   -2.306E+00   -2.297E+00   -2.288E+00   -2.279E+00   -2.270E+00
    -2.262E+00   -2.253E+00   -2.244E+00   -2.235E+00   -2.226E+00   -2.217E+00   -2.208E+00   -2.200E+00   -2.191E+00   -2.182E+00
    -2.173E+00   -2.164E+00   -2.155E+00   -2.147E+00   -2.138E+00   -2.129E+00   -2.120E+00   -2.111E+00   -2.102E+00   -2.093E+00
    -2.085E+00   -2.076E+00   -2.067E+00   -2.058E+00   -2.049E+00   -2.040E+00   -2.031E+00   -2.022E+00   -2.014E+00   -2.005E+00
    -1.996E+00   -1.987E+00   -1.978E+00   -1.969E+00   -1.960E+00   -1.952E+00   -1.943E+00   -1.934E+00   -1.925E+00   -1.916E+00
    -1.907E+00   -1.898E+00   -1.889E+00   -1.881E+00   -1.872E+00   -1.863E+00   -1.854E+00   -1.845E+00   -1.836E+00   -1.827E+00
    -1.818E+00   -1.810E+00   -1.801E+00   -1.792E+00   -1.783E+00   -1.774E+00   -1.765E+00   -1.756E+00   -1.747E+00   -1.739E+00
    -1.730E+00   -1.721E+00   -1.712E+00   -1.703E+00   -1.694E+00   -1.685E+00   -1.676E+00   -1.667E+00   -1.659E+00   -1.650E+00
    -1.641E+00   -1.632E+00   -1.623E+00   -1.614E+00   -1.605E+00   -1.596E+00   -1.588E+00   -1.579E+00   -1.570E+00   -1.561E+00
    -1.552E+00   -1.543E+00   -1.534E+00   -1.525E+00   -1.516E+00   -1.508E+00   -1.499E+00   -1.490E+00   -1.481E+00   -1.472E+00
    -1.463E+00   -1.454E+00   -1.445E+00   -1.436E+00   -1.428E+00   -1.419E+00   -1.410E+00   -1.401E+00   -1.392E+00   -1.383E+00
    -1.374E+00   -1.365E+00   -1.357E+00   -1.348E+00   -1.339E+00   -1.330E+00   -1.321E+00   -1.312E+00   -1.303E+00   -1.294E+00
    -1.285E+00   -1.277E+00   -1.268E+00   -1.259E+00   -1.250E+00   -1.241E+00   -1.232E+00   -1.223E+00   -1.214E+00   -1.205E+00
    -1.197E+00   -1.188E+00   -1.179E+00   -1.170E+00   -1.161E+00   -1.152E+00   -1.143E+00   -1.134E+00   -1.125E+00   -1.117E+00
    -1.108E+00   -1.099E+00   -1.090E+00   -1.081E+00   -1.072E+00   -1.063E+00   -1.054E+00   -1.046E+00   -1.037E+00   -1.028E+00
    -1.019E+00   -1.010E+00   -1.001E+00   -9.923E-01   -9.834E-01   -9.745E-01   -9.656E-01   -9.568E-01   -9.479E-01   -9.390E-01
    -9.301E-01   -9.213E-01   -9.124E-01   -9.035E-01   -8.946E-01   -8.858E-01   -8.769E-01   -8.680E-01   -8.592E-01   -8.503E-01
    -8.414E-01   -8.325E-01   -8.237E-01   -8.148E-01   -8.059E-01   -7.971E-01   -7.882E-01   -7.793E-01   -7.705E-01   -7.616E-01
    -7.527E-01   -7.439E-01   -7.350E-01   -7.262E-01   -7.173E-01   -7.084E-01   -6.996E-01   -6.907E-01   -6.818E-01   -6.730E-01
    -6.641E-01   -6.553E-01   -6.464E-01   -6.376E-01   -6.287E-01   -6.199E-01   -6.110E-01   -6.021E-01   -5.933E-01   -5.844E-01
    -5.756E-01   -5.667E-01   -5.579E-01   -5.490E-01   -5.402E-01   -5.314E-01   -5.225E-01   -5.137E-01   -5.048E-01   -4.960E-01
    -4.871E-01   -4.783E-01   -4.695E-01   -4.606E-01   -4.518E-01   -4.429E-01   -4.341E-01   -4.253E-01   -4.164E-01   -4.076E-01
    -3.988E-01   -3.899E-01   -3.811E-01   -3.723E-01   -3.634E-01   -3.546E-01   -3.458E-01   -3.370E-01   -3.281E-01   -3.193E-01
    -3.105E-01   -3.017E-01   -2.928E-01   -2.840E-01   -2.752E-01   -2.664E-01   -2.576E-01   -2.488E-01   -2.399E-01   -2.311E-01
    -2.223E-01   -2.135E-01   -2.047E-01   -1.959E-01   -1.871E-01   -1.783E-01   -1.695E-01   -1.607E-01   -1.519E-01   -1.431E-01
    -1.343E-01   -1.255E-01   -1.167E-01   -1.079E-01   -9.908E-02   -9.029E-02   -8.150E-02   -7.270E-02   -6.392E-02   -5.513E-02
    -4.634E-02   -3.755E-02   -2.877E-02   -1.999E-02   -1.120E-02   -2.424E-03    6.355E-03    1.513E-02    2.391E-02    3.268E-02
     4.146E-02    5.023E-02    5.900E-02    6.777E-02    7.654E-02    8.530E-02    9.407E-02    1.028E-01    1.116E-01    1.204E-01
     1.291E-01    1.379E-01    1.466E-01    1.554E-01    1.641E-01    1.729E-01    1.816E-01    1.904E-01    1.991E-01    2.079E-01
     2.166E-01    2.254E-01    2.341E-01    2.428E-01    2.516E-01    2.603E-01    2.690E-01    2.778E-01    2.865E-01    2.952E-01
     3.040E-01    3.127E-01    3.214E-01    3.301E-01    3.389E-01    3.476E-01    3.563E-01    3.650E-01    3.737E-01    3.824E-01
     3.911E-01    3.999E-01    4.086E-01    4.173E-01    4.260E-01    4.347E-01    4.434E-01    4.521E-01    4.608E-01    4.695E-01
     4.781E-01    4.868E-01    4.955E-01    5.042E-01    5.129E-01    5.216E-01    5.303E-01    5.389E-01    5.476E-01    5.563E-01
     5.650E-01    5.736E-01    5.823E-01    5.910E-01    5.996E-01    6.083E-01    6.170E-01    6.256E-01    6.343E-01    6.429E-01
     6.516E-01    6.602E-01    6.689E-01    6.775E-01    6.862E-01    6.948E-01    7.035E-01    7.121E-01
 Ala      Conc. = 2.55E+01
