 LCModel (Version 6.3-1L) Copyright: S.W. Provencher.          Ref.: Magn. Reson. Med. 30:672-679 (1993).                
 Slice#1 Row#9 Col#11  PD_24_press_1_raw_act
 36 lines in following concentration table = NCONC+1
    Conc.  %SD /Cr+PCr  Metabolite                                         
  192.615  48%   0.359 Ala                                                 
    0.000 999%   0.000 Asp                                                 
    0.000 999%   0.000 Cr                                                  
  537.007   8%   1.000 PCr                                                 
    0.000 999%   0.000 GABA                                                
   59.429 158%   0.111 Glc                                                 
  579.077  34%   1.078 Gln                                                 
  894.553  24%   1.666 Glu                                                 
  221.318   8%   0.412 GPC                                                 
    0.000 999%   0.000 PCh                                                 
   80.561  71%   0.150 GSH                                                 
  531.301  36%   0.989 Ins                                                 
    6.661 999% 1.2E-02 Lac                                                 
 1.73E+03   9%   3.227 NAA                                                 
  285.487  54%   0.532 NAAG                                                
   84.005  24%   0.156 Scyllo                                              
  313.881  42%   0.585 Tau                                                 
  456.935  15%   0.851 -CrCH2                                              
  221.318   8%   0.412 GPC+PCh                                             
 2.02E+03   4%   3.758 NAA+NAAG                                            
  537.007   8%   1.000 Cr+PCr                                              
 1.47E+03  22%   2.744 Glu+Gln                                             
 1.22E+03  45%   2.266 Lip13a                                              
    0.000 999%   0.000 Lip13b                                              
  232.034 103%   0.432 Lip09                                               
 1.72E+03  17%   3.195 MM09                                                
  224.088  68%   0.417 Lip20                                               
 3.77E+03   9%   7.013 MM20                                                
  646.573  37%   1.204 MM12                                                
 1.06E+03  31%   1.971 MM14                                                
  673.734  25%   1.255 MM17                                                
 1.22E+03  45%   2.266 Lip13a+Lip13b                                       
 2.92E+03  10%   5.442 MM14+Lip13a+Lip13b+MM12                             
 1.95E+03   9%   3.628 MM09+Lip09                                          
 3.99E+03   8%   7.430 MM20+Lip20                                          
   6 lines in following misc. output table
  FWHM = 0.054 ppm    S/N =  13                                            
  Data shift =-0.031 ppm                                                   
  Ph: -35 deg      -8.8 deg/ppm                                            
  alphaB,S = 8.5E+01,   1.5E+02                                            
   14 spline knots.   Ns = 8(1)                                            
   2 inflections.     1 extrema                                            
  498 points on ppm-axis = NY
      4.000000     3.992357     3.984714     3.977070     3.969427     3.961784     3.954141     3.946497     3.938854     3.931211
      3.923568     3.915925     3.908281     3.900638     3.892995     3.885352     3.877708     3.870065     3.862422     3.854779
      3.847136     3.839492     3.831849     3.824206     3.816563     3.808919     3.801276     3.793633     3.785990     3.778347
      3.770703     3.763060     3.755417     3.747774     3.740130     3.732487     3.724844     3.717201     3.709558     3.701914
      3.694271     3.686628     3.678985     3.671341     3.663698     3.656055     3.648412     3.640769     3.633125     3.625482
      3.617839     3.610196     3.602552     3.594909     3.587266     3.579623     3.571980     3.564336     3.556693     3.549050
      3.541407     3.533763     3.526120     3.518477     3.510834     3.503191     3.495547     3.487904     3.480261     3.472618
      3.464974     3.457331     3.449688     3.442045     3.434402     3.426758     3.419115     3.411472     3.403829     3.396185
      3.388542     3.380899     3.373256     3.365613     3.357969     3.350326     3.342683     3.335040     3.327396     3.319753
      3.312110     3.304467     3.296824     3.289180     3.281537     3.273894     3.266251     3.258607     3.250964     3.243321
      3.235678     3.228034     3.220391     3.212748     3.205105     3.197462     3.189818     3.182175     3.174532     3.166889
      3.159245     3.151602     3.143959     3.136316     3.128673     3.121029     3.113386     3.105743     3.098100     3.090456
      3.082813     3.075170     3.067527     3.059884     3.052240     3.044597     3.036954     3.029311     3.021667     3.014024
      3.006381     2.998738     2.991095     2.983451     2.975808     2.968165     2.960522     2.952878     2.945235     2.937592
      2.929949     2.922306     2.914662     2.907019     2.899376     2.891733     2.884089     2.876446     2.868803     2.861160
      2.853517     2.845873     2.838230     2.830587     2.822944     2.815300     2.807657     2.800014     2.792371     2.784728
      2.777084     2.769441     2.761798     2.754155     2.746511     2.738868     2.731225     2.723582     2.715939     2.708295
      2.700652     2.693009     2.685366     2.677722     2.670079     2.662436     2.654793     2.647150     2.639506     2.631863
      2.624220     2.616577     2.608933     2.601290     2.593647     2.586004     2.578361     2.570717     2.563074     2.555431
      2.547788     2.540144     2.532501     2.524858     2.517215     2.509572     2.501928     2.494285     2.486642     2.478999
      2.471355     2.463712     2.456069     2.448426     2.440783     2.433139     2.425496     2.417853     2.410210     2.402566
      2.394923     2.387280     2.379637     2.371994     2.364350     2.356707     2.349064     2.341421     2.333777     2.326134
      2.318491     2.310848     2.303205     2.295561     2.287918     2.280275     2.272632     2.264988     2.257345     2.249702
      2.242059     2.234416     2.226772     2.219129     2.211486     2.203843     2.196199     2.188556     2.180913     2.173270
      2.165627     2.157983     2.150340     2.142697     2.135054     2.127410     2.119767     2.112124     2.104481     2.096838
      2.089194     2.081551     2.073908     2.066265     2.058621     2.050978     2.043335     2.035692     2.028049     2.020405
      2.012762     2.005119     1.997476     1.989833     1.982190     1.974546     1.966903     1.959260     1.951617     1.943974
      1.936331     1.928688     1.921045     1.913402     1.905759     1.898115     1.890472     1.882829     1.875186     1.867543
      1.859900     1.852257     1.844614     1.836971     1.829327     1.821684     1.814041     1.806398     1.798755     1.791112
      1.783469     1.775826     1.768183     1.760540     1.752896     1.745253     1.737610     1.729967     1.722324     1.714681
      1.707038     1.699395     1.691752     1.684108     1.676465     1.668822     1.661179     1.653536     1.645893     1.638250
      1.630607     1.622964     1.615321     1.607677     1.600034     1.592391     1.584748     1.577105     1.569462     1.561819
      1.554176     1.546533     1.538890     1.531246     1.523603     1.515960     1.508317     1.500674     1.493031     1.485388
      1.477745     1.470102     1.462458     1.454815     1.447172     1.439529     1.431886     1.424243     1.416600     1.408957
      1.401314     1.393671     1.386027     1.378384     1.370741     1.363098     1.355455     1.347812     1.340169     1.332526
      1.324883     1.317240     1.309596     1.301953     1.294310     1.286667     1.279024     1.271381     1.263738     1.256095
      1.248452     1.240808     1.233165     1.225522     1.217879     1.210236     1.202593     1.194950     1.187307     1.179664
      1.172021     1.164377     1.156734     1.149091     1.141448     1.133805     1.126162     1.118519     1.110876     1.103233
      1.095590     1.087946     1.080303     1.072660     1.065017     1.057374     1.049731     1.042088     1.034445     1.026802
      1.019158     1.011515     1.003872     0.996229     0.988586     0.980943     0.973300     0.965657     0.958014     0.950371
      0.942727     0.935084     0.927441     0.919798     0.912155     0.904512     0.896869     0.889226     0.881583     0.873940
      0.866296     0.858653     0.851010     0.843367     0.835724     0.828081     0.820438     0.812795     0.805152     0.797508
      0.789865     0.782222     0.774579     0.766936     0.759293     0.751650     0.744007     0.736364     0.728721     0.721077
      0.713434     0.705791     0.698148     0.690505     0.682862     0.675219     0.667576     0.659933     0.652290     0.644646
      0.637003     0.629360     0.621717     0.614074     0.606431     0.598788     0.591145     0.583502     0.575858     0.568215
      0.560572     0.552929     0.545286     0.537643     0.530000     0.522357     0.514714     0.507071     0.499427     0.491784
      0.484141     0.476498     0.468855     0.461212     0.453569     0.445925     0.438282     0.430639     0.422996     0.415353
      0.407710     0.400067     0.392424     0.384780     0.377137     0.369494     0.361851     0.354208     0.346565     0.338922
      0.331278     0.323635     0.315992     0.308349     0.300706     0.293063     0.285420     0.277777     0.270133     0.262490
      0.254847     0.247204     0.239561     0.231918     0.224275     0.216631     0.208988     0.201345
 NY phased data points follow
   3.39142E+00  4.38597E+00  2.14576E+00  5.93168E+00  2.37076E+00  5.06635E+00  2.89499E+00  4.21236E+00 -4.27154E-01  3.88620E+00
   5.16685E+00  3.12950E+00  6.09005E+00  3.16050E+00  4.07273E+00  5.40028E+00  4.84999E+00  5.08881E+00  6.23221E+00  5.81078E+00
   3.02208E+00  6.83033E+00  4.63987E+00  4.85579E+00  5.15933E+00  3.30518E+00  1.94778E+00  3.40048E+00  4.27608E+00  3.20595E-01
   3.32545E+00  5.71916E+00  4.69730E+00  2.48961E+00  4.27993E+00  6.26948E+00  4.81006E+00  5.87226E+00  3.02965E+00  4.78708E+00
   5.10971E+00  5.23667E+00  9.03551E+00  2.77137E+00  4.58857E+00  3.35351E+00  8.73431E+00  6.51264E+00  6.37832E+00  6.98549E+00
   6.00310E+00  2.98191E+00  5.76545E+00  3.65615E+00  6.40709E+00  6.89481E+00  4.58589E+00  6.93293E+00  5.95991E+00  3.26424E+00
   5.76622E+00  3.26208E+00  3.31394E+00  3.29606E+00  3.43784E+00  5.91961E-01  4.22057E+00  4.92904E+00  4.74805E+00  6.16376E+00
   1.10168E+00  2.52136E+00  3.59551E+00  4.17885E+00  2.97665E+00  5.42478E+00  2.46602E+00  4.15475E+00  4.70937E+00  1.80836E+00
   3.61804E+00  2.31451E+00  2.43179E+00  4.27561E+00  5.95217E+00  4.45969E+00  8.48784E+00  7.59111E+00  5.93299E+00  7.07258E+00
   6.89749E+00  3.88812E+00  4.22630E+00  9.30439E+00  3.88070E+00  5.28368E+00  6.32278E+00  6.04970E+00  7.51737E+00  8.87180E+00
   7.71692E+00  1.26712E+01  1.72622E+01  2.13523E+01  2.44512E+01  2.20171E+01  2.00335E+01  1.61827E+01  1.36577E+01  9.46008E+00
   6.80882E+00  9.32069E+00  1.04191E+01  8.77797E+00  7.44036E+00  7.33532E+00  3.79601E+00  4.64108E+00  6.31384E+00  1.43600E+00
   1.95968E+00  1.18816E+00  4.05679E+00  7.97952E+00  3.86550E+00  9.82880E+00  1.64458E+01  2.07801E+01  2.29871E+01  2.40026E+01
   2.30307E+01  1.56242E+01  1.29295E+01  8.05689E+00  9.30003E+00  9.34704E+00  8.60140E+00  8.66425E+00  6.65712E+00  8.94922E+00
   1.01725E+01  3.83472E+00  4.71213E+00  6.22068E+00  2.78973E+00  3.37747E+00  5.97277E+00  2.93582E+00  4.27131E+00  1.53457E+00
   1.06138E+00  2.97574E+00  8.67159E-01  3.80033E+00  2.72269E+00  6.57134E+00  4.63355E+00 -1.20686E+00  3.52438E+00  3.94535E+00
   2.90847E+00  2.61029E+00  2.26516E+00  1.00115E+00  1.73416E+00 -6.61751E-01 -2.47187E+00  4.08761E-01 -5.64305E+00 -3.71836E+00
  -3.72800E+00 -5.49519E+00 -3.18779E+00 -2.98736E+00 -8.61648E+00 -4.22233E+00 -4.68019E+00 -8.39854E+00 -1.99130E+00 -7.18832E+00
  -7.68512E+00 -5.58516E+00 -2.54457E+00 -5.27899E+00 -1.78084E-01 -2.58189E+00 -3.73324E+00 -7.19804E-01  1.63324E+00 -3.14924E+00
  -3.53992E+00  5.48342E+00 -2.51496E+00 -1.15421E+00 -1.54357E+00 -2.76773E+00 -1.45173E+00 -1.72938E-01 -3.62052E+00  3.00524E-01
  -3.12833E+00 -3.12044E+00 -1.08372E+00 -9.62809E-01  4.01567E+00  2.09803E+00 -7.15646E-01  5.76552E+00  1.11612E+00  6.80399E+00
   1.12674E+00  3.69266E+00  4.01224E+00  6.58288E+00  9.96775E+00  9.56542E+00  1.22820E+01  1.07388E+01  1.26250E+01  6.37700E+00
   1.04128E+01  6.65471E+00  5.49078E-01  1.49660E+00  6.60482E+00  6.06629E+00  4.96946E+00  1.03416E+01  1.16493E+01  1.29023E+01
   9.81236E+00  1.34396E+01  7.92369E+00  7.44214E+00  1.34512E+01  1.21847E+01  9.28464E+00  1.07752E+01  1.10664E+01  1.36232E+01
   1.21053E+01  1.21509E+01  1.08328E+01  8.52764E+00  9.86632E+00  8.97119E+00  1.13419E+01  1.39327E+01  1.23812E+01  1.46799E+01
   1.35806E+01  1.71953E+01  1.97174E+01  1.99261E+01  2.71565E+01  3.37184E+01  4.07480E+01  4.90634E+01  5.36206E+01  6.25829E+01
   7.01025E+01  7.42892E+01  6.97812E+01  5.97273E+01  4.66735E+01  3.84470E+01  3.05200E+01  2.24864E+01  1.79950E+01  1.56242E+01
   1.64165E+01  1.28857E+01  7.82619E+00  8.97654E+00  7.26801E+00  8.66157E+00  5.01126E+00  3.80891E+00  4.51242E+00  4.56431E+00
   6.15521E+00  2.63433E+00  4.79763E+00  5.25618E+00  4.82085E+00  4.27767E+00  2.83844E+00  4.60779E+00  1.83788E+00  1.64877E+00
   6.37492E+00  5.42639E+00  3.98306E+00  5.71555E+00  7.11916E+00  7.90605E+00  6.44298E+00  4.16847E+00  4.97113E-01  4.45423E+00
   5.47782E+00  2.44190E+00  3.65274E+00  8.97155E+00  1.06676E+01  5.62146E+00  6.99865E+00  7.49754E+00  8.68363E+00  1.02175E+01
   6.71762E+00  7.47258E+00  8.17008E+00  1.08701E+01  5.41619E+00  5.71049E+00  4.65239E+00  4.68153E+00  6.85457E+00  6.41135E+00
   1.04135E+01  7.55896E+00  9.51458E+00  6.82357E+00  5.71694E+00  1.57861E+00  4.11582E+00  4.17604E+00  5.61141E+00  3.45460E+00
   4.69635E+00  6.02116E+00  3.03039E+00  7.36528E+00  6.94114E+00  7.23415E+00  1.10007E+01  9.08643E+00  1.27938E+01  1.03090E+01
   9.74358E+00  9.23825E+00  1.03923E+01  1.29823E+01  1.42136E+01  1.26329E+01  1.22439E+01  1.11056E+01  1.29334E+01  1.04931E+01
   1.12231E+01  1.08381E+01  1.14852E+01  1.15800E+01  1.15396E+01  9.97025E+00  8.45068E+00  6.90544E+00  9.52292E+00  1.29665E+01
   9.43552E+00  8.38527E+00  9.08495E+00  8.55026E+00  8.52056E+00  9.72712E+00  8.53911E+00  1.03328E+01  9.95850E+00  1.11705E+01
   8.31950E+00  1.01911E+01  9.58850E+00  1.07079E+01  1.04096E+01  9.06939E+00  5.52252E+00  6.75104E+00  5.67751E+00  6.44300E+00
   7.44224E+00  5.79168E+00  7.69026E+00  6.82352E+00  8.46185E+00  4.34824E+00  6.83778E+00  7.22661E+00  5.74573E+00  9.41452E+00
   3.75543E+00  9.40422E+00  8.69783E+00  6.62309E+00  1.11957E+01  1.28804E+01  1.20965E+01  1.30107E+01  1.16850E+01  1.28142E+01
   1.31284E+01  1.05609E+01  1.23863E+01  1.22274E+01  1.34749E+01  1.21727E+01  1.23480E+01  1.30527E+01  1.24363E+01  1.26606E+01
   1.30195E+01  1.71264E+01  1.25041E+01  1.16308E+01  1.09079E+01  1.52163E+01  1.22455E+01  8.66566E+00  8.64549E+00  7.44189E+00
   1.00914E+01  6.53829E+00  5.98960E+00  9.66324E+00  4.30720E+00  5.99999E+00  4.03863E+00  4.07239E+00  6.18728E+00  5.65469E+00
   6.97143E+00  6.19919E+00  5.57163E+00  3.89950E+00  1.28861E+00  2.84557E+00  1.88558E+00  1.88568E+00  6.16713E+00  2.79420E+00
   1.52321E+00  6.97943E-01  7.27876E-01  3.24660E+00  1.66366E+00  2.16800E+00  3.12107E+00  1.11563E+00  6.44724E+00  2.17661E+00
   2.72562E+00  2.89018E+00  1.88099E+00  1.57829E+00  4.48926E+00  2.75479E+00  1.78990E+00  2.79381E+00  1.33311E+00  1.59384E+00
   2.81487E-01  2.53085E+00 -1.05568E-01  2.67322E+00  4.35209E+00  2.15399E+00  1.16115E+00  2.22311E+00  3.24101E+00  3.53610E-01
   2.77258E+00  3.46588E+00  1.46027E+00 -1.48225E+00  9.95413E-01  2.34530E+00  2.70411E+00  6.45833E-01 -1.76028E+00  1.43478E+00
   1.22043E+00  6.90628E-01 -8.82943E-01  2.51536E+00  1.40024E+00  3.94756E-01 -3.67085E-01  2.22807E+00 -2.72631E-01  1.26556E+00
   4.02348E+00 -1.88025E+00 -1.31479E+00  7.75996E-02 -2.36650E+00 -1.40617E+00  1.22943E+00  1.50047E+00
 NY points of the fit to the data follow
   3.24571E+00  2.93874E+00  2.69189E+00  2.57661E+00  2.58361E+00  2.68151E+00  2.83172E+00  3.03187E+00  3.38748E+00  3.99389E+00
   4.79133E+00  5.53182E+00  5.94734E+00  5.91581E+00  5.56448E+00  5.11721E+00  4.76413E+00  4.57283E+00  4.48388E+00  4.28339E+00
   4.15615E+00  4.15229E+00  4.12057E+00  4.02881E+00  3.84321E+00  3.56574E+00  3.25189E+00  3.04702E+00  3.11788E+00  3.58531E+00
   4.41449E+00  5.40463E+00  6.24640E+00  6.66622E+00  6.54019E+00  5.94151E+00  5.06565E+00  4.20585E+00  3.54450E+00  3.20097E+00
   3.21210E+00  3.49243E+00  3.94375E+00  4.48940E+00  5.10790E+00  5.78804E+00  6.42793E+00  6.87323E+00  6.96091E+00  6.61385E+00
   5.93860E+00  5.13247E+00  4.38364E+00  3.83098E+00  3.50141E+00  3.31845E+00  3.23911E+00  3.30692E+00  3.51018E+00  3.75148E+00
   3.93281E+00  4.00469E+00  3.94080E+00  3.77178E+00  3.57150E+00  3.42340E+00  3.37104E+00  3.39654E+00  3.46262E+00  3.56388E+00
   3.70074E+00  3.86865E+00  4.05875E+00  4.25025E+00  4.41136E+00  4.48733E+00  4.41993E+00  4.18613E+00  3.83124E+00  3.52923E+00
   3.42258E+00  3.57585E+00  3.98545E+00  4.58023E+00  5.27182E+00  5.98672E+00  6.57780E+00  6.80863E+00  6.56113E+00  5.91873E+00
   5.09777E+00  4.32808E+00  3.73104E+00  3.29888E+00  2.99000E+00  2.89936E+00  3.33983E+00  4.52501E+00  6.30375E+00  8.51160E+00
   1.11507E+01  1.43043E+01  1.77938E+01  2.09208E+01  2.26901E+01  2.24364E+01  2.02737E+01  1.70075E+01  1.36402E+01  1.08244E+01
   8.65529E+00  6.91309E+00  5.39424E+00  4.30310E+00  3.88750E+00  3.74685E+00  3.69106E+00  3.67607E+00  3.71689E+00  3.86356E+00
   4.27639E+00  5.09723E+00  6.36329E+00  8.04492E+00  1.01628E+01  1.27999E+01  1.58560E+01  1.88093E+01  2.08095E+01  2.11483E+01
   1.97189E+01  1.70923E+01  1.41367E+01  1.14928E+01  9.37156E+00  7.65872E+00  6.14554E+00  4.90634E+00  4.30836E+00  4.10072E+00
   4.01966E+00  3.97854E+00  3.92633E+00  3.84334E+00  3.73169E+00  3.59492E+00  3.44359E+00  3.28897E+00  3.13284E+00  2.97858E+00
   2.83089E+00  2.69291E+00  2.56713E+00  2.43788E+00  2.29627E+00  2.14988E+00  2.01220E+00  1.88324E+00  1.72516E+00  1.49563E+00
   1.20389E+00  9.35636E-01  7.98745E-01  8.27040E-01  9.26251E-01  9.35221E-01  7.46678E-01  3.63212E-01 -1.18564E-01 -5.68830E-01
  -9.25116E-01 -1.22420E+00 -1.49609E+00 -1.78637E+00 -2.09756E+00 -2.33929E+00 -2.44607E+00 -2.37827E+00 -2.18160E+00 -1.99099E+00
  -1.91160E+00 -1.91305E+00 -1.87517E+00 -1.70881E+00 -1.40951E+00 -1.03695E+00 -6.44016E-01 -1.70112E-01  4.72966E-01  1.24184E+00
   1.98298E+00  2.49932E+00  2.72288E+00  2.71305E+00  2.59473E+00  2.48440E+00  2.44304E+00  2.48288E+00  2.67845E+00  3.08328E+00
   3.67166E+00  4.36053E+00  4.99218E+00  5.37159E+00  5.32401E+00  4.75735E+00  3.68207E+00  2.26618E+00  7.81867E-01 -3.85386E-01
  -9.04635E-01 -6.33175E-01  3.56199E-01  1.87029E+00  3.64090E+00  5.28713E+00  6.41376E+00  6.75337E+00  6.27632E+00  5.15397E+00
   3.68192E+00  2.35550E+00  1.55325E+00  1.44462E+00  2.07426E+00  3.28174E+00  4.80536E+00  6.27414E+00  7.38843E+00  8.09999E+00
   8.50253E+00  8.72918E+00  8.84898E+00  8.92205E+00  9.07773E+00  9.41399E+00  9.91973E+00  1.05583E+01  1.12400E+01  1.18240E+01
   1.21812E+01  1.22536E+01  1.21263E+01  1.20078E+01  1.20790E+01  1.23804E+01  1.28414E+01  1.34149E+01  1.40916E+01  1.49097E+01
   1.59238E+01  1.72400E+01  1.92446E+01  2.25007E+01  2.72641E+01  3.32530E+01  4.00045E+01  4.74245E+01  5.55805E+01  6.37549E+01
   6.99903E+01  7.18893E+01  6.82073E+01  5.98294E+01  4.92484E+01  3.90703E+01  3.08532E+01  2.45838E+01  1.93839E+01  1.47861E+01
   1.17795E+01  1.04642E+01  9.67444E+00  9.08272E+00  8.60371E+00  8.17199E+00  7.73300E+00  7.28900E+00  6.85176E+00  6.43939E+00
   6.06740E+00  5.74339E+00  5.46305E+00  5.22173E+00  5.01749E+00  4.84498E+00  4.69579E+00  4.56525E+00  4.45978E+00  4.39079E+00
   4.36552E+00  4.38506E+00  4.44940E+00  4.55583E+00  4.69751E+00  4.86473E+00  5.05262E+00  5.25891E+00  5.48209E+00  5.72100E+00
   5.97184E+00  6.22804E+00  6.48314E+00  6.72682E+00  6.94708E+00  7.13420E+00  7.28101E+00  7.38357E+00  7.43941E+00  7.44717E+00
   7.40941E+00  7.33156E+00  7.21979E+00  7.08258E+00  6.92964E+00  6.77230E+00  6.62310E+00  6.49701E+00  6.41441E+00  6.40168E+00
   6.46482E+00  6.58760E+00  6.74728E+00  6.92926E+00  7.11255E+00  7.23216E+00  7.17809E+00  6.87539E+00  6.36010E+00  5.78113E+00
   5.32959E+00  5.15618E+00  5.33662E+00  5.88267E+00  6.73862E+00  7.77396E+00  8.82932E+00  9.75783E+00  1.03976E+01  1.07478E+01
   1.09180E+01  1.10076E+01  1.10653E+01  1.10816E+01  1.10368E+01  1.10016E+01  1.10027E+01  1.10093E+01  1.10079E+01  1.09971E+01
   1.09805E+01  1.09633E+01  1.09487E+01  1.09374E+01  1.09265E+01  1.09103E+01  1.08812E+01  1.08336E+01  1.07620E+01  1.06639E+01
   1.05420E+01  1.03993E+01  1.02373E+01  1.00561E+01  9.85570E+00  9.63973E+00  9.41109E+00  9.17118E+00  8.92205E+00  8.66669E+00
   8.40829E+00  8.15062E+00  7.89735E+00  7.65247E+00  7.41972E+00  7.20307E+00  7.00619E+00  6.83282E+00  6.68630E+00  6.56994E+00
   6.48663E+00  6.43930E+00  6.43042E+00  6.46243E+00  6.53721E+00  6.65647E+00  6.82133E+00  7.03262E+00  7.29034E+00  7.59395E+00
   7.94174E+00  8.33120E+00  8.75850E+00  9.21880E+00  9.70574E+00  1.02119E+01  1.07283E+01  1.12452E+01  1.17519E+01  1.22370E+01
   1.26891E+01  1.30970E+01  1.34497E+01  1.37378E+01  1.39530E+01  1.40892E+01  1.41420E+01  1.41095E+01  1.39922E+01  1.37927E+01
   1.35160E+01  1.31688E+01  1.27595E+01  1.22976E+01  1.17931E+01  1.12568E+01  1.06990E+01  1.01297E+01  9.55803E+00  8.99221E+00
   8.43920E+00  7.90492E+00  7.39382E+00  6.90933E+00  6.45355E+00  6.02778E+00  5.63231E+00  5.26690E+00  4.93056E+00  4.62205E+00
   4.33964E+00  4.08165E+00  3.84613E+00  3.63129E+00  3.43519E+00  3.25613E+00  3.09233E+00  2.94237E+00  2.80476E+00  2.67833E+00
   2.56181E+00  2.45427E+00  2.35467E+00  2.26233E+00  2.17644E+00  2.09645E+00  2.02167E+00  1.95169E+00  1.88598E+00  1.82425E+00
   1.76607E+00  1.71121E+00  1.65927E+00  1.61011E+00  1.56341E+00  1.51909E+00  1.47687E+00  1.43666E+00  1.39822E+00  1.36150E+00
   1.32631E+00  1.29264E+00  1.26030E+00  1.22926E+00  1.19934E+00  1.17058E+00  1.14282E+00  1.11609E+00  1.09023E+00  1.06526E+00
   1.04103E+00  1.01761E+00  9.94884E-01  9.72888E-01  9.51475E-01  9.30695E-01  9.10433E-01  8.90771E-01  8.71589E-01  8.52939E-01
   8.34685E-01  8.16897E-01  7.99476E-01  7.82510E-01  7.65880E-01  7.49642E-01  7.33674E-01  7.18061E-01  7.02713E-01  6.87714E-01
   6.72942E-01  6.58457E-01  6.44152E-01  6.30118E-01  6.16270E-01  6.02682E-01  5.89234E-01  5.75987E-01
 NY background values follow
     1.461E+00    1.457E+00    1.454E+00    1.450E+00    1.447E+00    1.444E+00    1.440E+00    1.437E+00    1.434E+00    1.430E+00
     1.427E+00    1.424E+00    1.420E+00    1.417E+00    1.413E+00    1.410E+00    1.407E+00    1.403E+00    1.400E+00    1.397E+00
     1.393E+00    1.390E+00    1.387E+00    1.383E+00    1.380E+00    1.376E+00    1.373E+00    1.370E+00    1.366E+00    1.363E+00
     1.360E+00    1.356E+00    1.353E+00    1.350E+00    1.346E+00    1.343E+00    1.339E+00    1.336E+00    1.333E+00    1.329E+00
     1.326E+00    1.323E+00    1.319E+00    1.316E+00    1.313E+00    1.309E+00    1.306E+00    1.302E+00    1.299E+00    1.296E+00
     1.292E+00    1.289E+00    1.286E+00    1.282E+00    1.279E+00    1.276E+00    1.272E+00    1.269E+00    1.265E+00    1.262E+00
     1.259E+00    1.255E+00    1.252E+00    1.249E+00    1.245E+00    1.242E+00    1.239E+00    1.235E+00    1.232E+00    1.229E+00
     1.225E+00    1.222E+00    1.218E+00    1.215E+00    1.212E+00    1.208E+00    1.205E+00    1.202E+00    1.198E+00    1.195E+00
     1.192E+00    1.188E+00    1.185E+00    1.181E+00    1.178E+00    1.175E+00    1.171E+00    1.168E+00    1.165E+00    1.161E+00
     1.158E+00    1.155E+00    1.151E+00    1.148E+00    1.144E+00    1.141E+00    1.138E+00    1.134E+00    1.131E+00    1.128E+00
     1.124E+00    1.121E+00    1.118E+00    1.114E+00    1.111E+00    1.107E+00    1.104E+00    1.101E+00    1.097E+00    1.094E+00
     1.091E+00    1.087E+00    1.084E+00    1.081E+00    1.077E+00    1.074E+00    1.070E+00    1.067E+00    1.064E+00    1.060E+00
     1.057E+00    1.054E+00    1.050E+00    1.047E+00    1.044E+00    1.040E+00    1.037E+00    1.034E+00    1.030E+00    1.027E+00
     1.023E+00    1.020E+00    1.017E+00    1.013E+00    1.010E+00    1.007E+00    1.003E+00    9.999E-01    9.965E-01    9.932E-01
     9.898E-01    9.865E-01    9.831E-01    9.797E-01    9.764E-01    9.730E-01    9.697E-01    9.663E-01    9.629E-01    9.596E-01
     9.562E-01    9.529E-01    9.495E-01    9.461E-01    9.428E-01    9.394E-01    9.361E-01    9.327E-01    9.293E-01    9.260E-01
     9.226E-01    9.193E-01    9.159E-01    9.125E-01    9.092E-01    9.058E-01    9.025E-01    8.991E-01    8.958E-01    8.924E-01
     8.890E-01    8.857E-01    8.823E-01    8.790E-01    8.756E-01    8.722E-01    8.689E-01    8.655E-01    8.622E-01    8.588E-01
     8.555E-01    8.521E-01    8.487E-01    8.454E-01    8.420E-01    8.387E-01    8.353E-01    8.319E-01    8.286E-01    8.252E-01
     8.219E-01    8.185E-01    8.152E-01    8.118E-01    8.085E-01    8.051E-01    8.017E-01    7.984E-01    7.950E-01    7.917E-01
     7.883E-01    7.850E-01    7.816E-01    7.782E-01    7.749E-01    7.715E-01    7.682E-01    7.648E-01    7.615E-01    7.581E-01
     7.548E-01    7.514E-01    7.481E-01    7.447E-01    7.413E-01    7.380E-01    7.346E-01    7.313E-01    7.279E-01    7.246E-01
     7.212E-01    7.179E-01    7.145E-01    7.112E-01    7.078E-01    7.044E-01    7.011E-01    6.977E-01    6.944E-01    6.910E-01
     6.877E-01    6.843E-01    6.810E-01    6.776E-01    6.743E-01    6.709E-01    6.676E-01    6.642E-01    6.609E-01    6.575E-01
     6.541E-01    6.508E-01    6.474E-01    6.441E-01    6.407E-01    6.374E-01    6.340E-01    6.307E-01    6.273E-01    6.240E-01
     6.206E-01    6.173E-01    6.139E-01    6.106E-01    6.072E-01    6.039E-01    6.005E-01    5.972E-01    5.938E-01    5.905E-01
     5.871E-01    5.838E-01    5.804E-01    5.771E-01    5.737E-01    5.704E-01    5.670E-01    5.637E-01    5.603E-01    5.570E-01
     5.536E-01    5.503E-01    5.469E-01    5.436E-01    5.402E-01    5.369E-01    5.335E-01    5.302E-01    5.268E-01    5.235E-01
     5.201E-01    5.168E-01    5.134E-01    5.101E-01    5.067E-01    5.034E-01    5.000E-01    4.967E-01    4.933E-01    4.900E-01
     4.866E-01    4.833E-01    4.800E-01    4.766E-01    4.733E-01    4.699E-01    4.666E-01    4.632E-01    4.599E-01    4.565E-01
     4.532E-01    4.498E-01    4.465E-01    4.431E-01    4.398E-01    4.364E-01    4.331E-01    4.298E-01    4.264E-01    4.231E-01
     4.197E-01    4.164E-01    4.130E-01    4.097E-01    4.063E-01    4.030E-01    3.997E-01    3.963E-01    3.930E-01    3.896E-01
     3.863E-01    3.829E-01    3.796E-01    3.762E-01    3.729E-01    3.696E-01    3.662E-01    3.629E-01    3.595E-01    3.562E-01
     3.528E-01    3.495E-01    3.461E-01    3.428E-01    3.395E-01    3.361E-01    3.328E-01    3.294E-01    3.261E-01    3.228E-01
     3.194E-01    3.161E-01    3.127E-01    3.094E-01    3.060E-01    3.027E-01    2.994E-01    2.960E-01    2.927E-01    2.893E-01
     2.860E-01    2.827E-01    2.793E-01    2.760E-01    2.726E-01    2.693E-01    2.659E-01    2.626E-01    2.593E-01    2.559E-01
     2.526E-01    2.492E-01    2.459E-01    2.426E-01    2.392E-01    2.359E-01    2.325E-01    2.292E-01    2.259E-01    2.225E-01
     2.192E-01    2.159E-01    2.125E-01    2.092E-01    2.058E-01    2.025E-01    1.992E-01    1.958E-01    1.925E-01    1.891E-01
     1.858E-01    1.825E-01    1.791E-01    1.758E-01    1.725E-01    1.691E-01    1.658E-01    1.624E-01    1.591E-01    1.558E-01
     1.524E-01    1.491E-01    1.458E-01    1.424E-01    1.391E-01    1.357E-01    1.324E-01    1.291E-01    1.257E-01    1.224E-01
     1.191E-01    1.157E-01    1.124E-01    1.091E-01    1.057E-01    1.024E-01    9.905E-02    9.572E-02    9.238E-02    8.904E-02
     8.571E-02    8.237E-02    7.904E-02    7.571E-02    7.237E-02    6.904E-02    6.570E-02    6.237E-02    5.903E-02    5.570E-02
     5.237E-02    4.903E-02    4.570E-02    4.236E-02    3.903E-02    3.570E-02    3.236E-02    2.903E-02    2.570E-02    2.236E-02
     1.903E-02    1.570E-02    1.237E-02    9.033E-03    5.701E-03    2.368E-03   -9.641E-04   -4.296E-03   -7.628E-03   -1.096E-02
    -1.429E-02   -1.762E-02   -2.096E-02   -2.429E-02   -2.762E-02   -3.095E-02   -3.428E-02   -3.761E-02   -4.094E-02   -4.428E-02
    -4.761E-02   -5.094E-02   -5.427E-02   -5.760E-02   -6.093E-02   -6.426E-02   -6.759E-02   -7.092E-02   -7.425E-02   -7.758E-02
    -8.091E-02   -8.424E-02   -8.757E-02   -9.090E-02   -9.423E-02   -9.756E-02   -1.009E-01   -1.042E-01   -1.075E-01   -1.109E-01
    -1.142E-01   -1.175E-01   -1.209E-01   -1.242E-01   -1.275E-01   -1.308E-01   -1.342E-01   -1.375E-01   -1.408E-01   -1.442E-01
    -1.475E-01   -1.508E-01   -1.541E-01   -1.575E-01   -1.608E-01   -1.641E-01   -1.675E-01   -1.708E-01   -1.741E-01   -1.774E-01
    -1.808E-01   -1.841E-01   -1.874E-01   -1.907E-01   -1.941E-01   -1.974E-01   -2.007E-01   -2.040E-01
 Ala      Conc. = 1.93E+02
