 LCModel (Version 6.3-1L) Copyright: S.W. Provencher.          Ref.: Magn. Reson. Med. 30:672-679 (1993).                
 Slice#3 Row#9 Col#6  PD_24_press_1_raw_act
 36 lines in following concentration table = NCONC+1
    Conc.  %SD /Cr+PCr  Metabolite                                         
    0.000 999%   0.000 Ala                                                 
    0.000 999%   0.000 Asp                                                 
  816.256  29%   0.437 Cr                                                  
 1.05E+03  23%   0.563 PCr                                                 
    0.000 999%   0.000 GABA                                                
    0.000 999%   0.000 Glc                                                 
  703.392  35%   0.377 Gln                                                 
 1.68E+03  16%   0.900 Glu                                                 
  787.406   3%   0.422 GPC                                                 
    0.000 999%   0.000 PCh                                                 
  511.286  16%   0.274 GSH                                                 
  853.052  33%   0.457 Ins                                                 
  128.491  99% 6.9E-02 Lac                                                 
 2.24E+03   5%   1.198 NAA                                                 
  279.988  42%   0.150 NAAG                                                
   76.599  40% 4.1E-02 Scyllo                                              
    0.000 999%   0.000 Tau                                                 
    0.000 999%   0.000 -CrCH2                                              
  787.406   3%   0.422 GPC+PCh                                             
 2.52E+03   4%   1.348 NAA+NAAG                                            
 1.87E+03   3%   1.000 Cr+PCr                                              
 2.38E+03  16%   1.277 Glu+Gln                                             
    0.000 999%   0.000 Lip13a                                              
    0.000 999%   0.000 Lip13b                                              
    0.000 999%   0.000 Lip09                                               
 1.66E+03  14%   0.889 MM09                                                
 2.53E-03 999% 1.4E-06 Lip20                                               
 3.69E+03  12%   1.978 MM20                                                
  301.588  56%   0.162 MM12                                                
    0.000 999%   0.000 MM14                                                
  986.214  27%   0.528 MM17                                                
    0.000 999%   0.000 Lip13a+Lip13b                                       
  301.588  56%   0.162 MM14+Lip13a+Lip13b+MM12                             
 1.66E+03  14%   0.889 MM09+Lip09                                          
 3.69E+03  12%   1.978 MM20+Lip20                                          
   6 lines in following misc. output table
  FWHM = 0.046 ppm    S/N =  11                                            
  Data shift = 0.023 ppm                                                   
  Ph:  -5 deg      -6.0 deg/ppm                                            
  alphaB,S = 1.0E+00,   9.2E+01                                            
   14 spline knots.   Ns = 6(1)                                            
  (10) 4 infls.   ( 9) 1 extrs.                                            
  498 points on ppm-axis = NY
      4.000000     3.992357     3.984714     3.977070     3.969427     3.961784     3.954141     3.946497     3.938854     3.931211
      3.923568     3.915925     3.908281     3.900638     3.892995     3.885352     3.877708     3.870065     3.862422     3.854779
      3.847136     3.839492     3.831849     3.824206     3.816563     3.808919     3.801276     3.793633     3.785990     3.778347
      3.770703     3.763060     3.755417     3.747774     3.740130     3.732487     3.724844     3.717201     3.709558     3.701914
      3.694271     3.686628     3.678985     3.671341     3.663698     3.656055     3.648412     3.640769     3.633125     3.625482
      3.617839     3.610196     3.602552     3.594909     3.587266     3.579623     3.571980     3.564336     3.556693     3.549050
      3.541407     3.533763     3.526120     3.518477     3.510834     3.503191     3.495547     3.487904     3.480261     3.472618
      3.464974     3.457331     3.449688     3.442045     3.434402     3.426758     3.419115     3.411472     3.403829     3.396185
      3.388542     3.380899     3.373256     3.365613     3.357969     3.350326     3.342683     3.335040     3.327396     3.319753
      3.312110     3.304467     3.296824     3.289180     3.281537     3.273894     3.266251     3.258607     3.250964     3.243321
      3.235678     3.228034     3.220391     3.212748     3.205105     3.197462     3.189818     3.182175     3.174532     3.166889
      3.159245     3.151602     3.143959     3.136316     3.128673     3.121029     3.113386     3.105743     3.098100     3.090456
      3.082813     3.075170     3.067527     3.059884     3.052240     3.044597     3.036954     3.029311     3.021667     3.014024
      3.006381     2.998738     2.991095     2.983451     2.975808     2.968165     2.960522     2.952878     2.945235     2.937592
      2.929949     2.922306     2.914662     2.907019     2.899376     2.891733     2.884089     2.876446     2.868803     2.861160
      2.853517     2.845873     2.838230     2.830587     2.822944     2.815300     2.807657     2.800014     2.792371     2.784728
      2.777084     2.769441     2.761798     2.754155     2.746511     2.738868     2.731225     2.723582     2.715939     2.708295
      2.700652     2.693009     2.685366     2.677722     2.670079     2.662436     2.654793     2.647150     2.639506     2.631863
      2.624220     2.616577     2.608933     2.601290     2.593647     2.586004     2.578361     2.570717     2.563074     2.555431
      2.547788     2.540144     2.532501     2.524858     2.517215     2.509572     2.501928     2.494285     2.486642     2.478999
      2.471355     2.463712     2.456069     2.448426     2.440783     2.433139     2.425496     2.417853     2.410210     2.402566
      2.394923     2.387280     2.379637     2.371994     2.364350     2.356707     2.349064     2.341421     2.333777     2.326134
      2.318491     2.310848     2.303205     2.295561     2.287918     2.280275     2.272632     2.264988     2.257345     2.249702
      2.242059     2.234416     2.226772     2.219129     2.211486     2.203843     2.196199     2.188556     2.180913     2.173270
      2.165627     2.157983     2.150340     2.142697     2.135054     2.127410     2.119767     2.112124     2.104481     2.096838
      2.089194     2.081551     2.073908     2.066265     2.058621     2.050978     2.043335     2.035692     2.028049     2.020405
      2.012762     2.005119     1.997476     1.989833     1.982190     1.974546     1.966903     1.959260     1.951617     1.943974
      1.936331     1.928688     1.921045     1.913402     1.905759     1.898115     1.890472     1.882829     1.875186     1.867543
      1.859900     1.852257     1.844614     1.836971     1.829327     1.821684     1.814041     1.806398     1.798755     1.791112
      1.783469     1.775826     1.768183     1.760540     1.752896     1.745253     1.737610     1.729967     1.722324     1.714681
      1.707038     1.699395     1.691752     1.684108     1.676465     1.668822     1.661179     1.653536     1.645893     1.638250
      1.630607     1.622964     1.615321     1.607677     1.600034     1.592391     1.584748     1.577105     1.569462     1.561819
      1.554176     1.546533     1.538890     1.531246     1.523603     1.515960     1.508317     1.500674     1.493031     1.485388
      1.477745     1.470102     1.462458     1.454815     1.447172     1.439529     1.431886     1.424243     1.416600     1.408957
      1.401314     1.393671     1.386027     1.378384     1.370741     1.363098     1.355455     1.347812     1.340169     1.332526
      1.324883     1.317240     1.309596     1.301953     1.294310     1.286667     1.279024     1.271381     1.263738     1.256095
      1.248452     1.240808     1.233165     1.225522     1.217879     1.210236     1.202593     1.194950     1.187307     1.179664
      1.172021     1.164377     1.156734     1.149091     1.141448     1.133805     1.126162     1.118519     1.110876     1.103233
      1.095590     1.087946     1.080303     1.072660     1.065017     1.057374     1.049731     1.042088     1.034445     1.026802
      1.019158     1.011515     1.003872     0.996229     0.988586     0.980943     0.973300     0.965657     0.958014     0.950371
      0.942727     0.935084     0.927441     0.919798     0.912155     0.904512     0.896869     0.889226     0.881583     0.873940
      0.866296     0.858653     0.851010     0.843367     0.835724     0.828081     0.820438     0.812795     0.805152     0.797508
      0.789865     0.782222     0.774579     0.766936     0.759293     0.751650     0.744007     0.736364     0.728721     0.721077
      0.713434     0.705791     0.698148     0.690505     0.682862     0.675219     0.667576     0.659933     0.652290     0.644646
      0.637003     0.629360     0.621717     0.614074     0.606431     0.598788     0.591145     0.583502     0.575858     0.568215
      0.560572     0.552929     0.545286     0.537643     0.530000     0.522357     0.514714     0.507071     0.499427     0.491784
      0.484141     0.476498     0.468855     0.461212     0.453569     0.445925     0.438282     0.430639     0.422996     0.415353
      0.407710     0.400067     0.392424     0.384780     0.377137     0.369494     0.361851     0.354208     0.346565     0.338922
      0.331278     0.323635     0.315992     0.308349     0.300706     0.293063     0.285420     0.277777     0.270133     0.262490
      0.254847     0.247204     0.239561     0.231918     0.224275     0.216631     0.208988     0.201345
 NY phased data points follow
   9.73647E+00  2.02968E+01  1.53477E+01  2.24638E+01  1.83426E+01  3.03643E+01  2.99681E+01  4.65790E+01  4.44620E+01  6.17852E+01
   5.97991E+01  6.83603E+01  5.15219E+01  5.06838E+01  3.57717E+01  3.56296E+01  2.88779E+01  2.51087E+01  1.44252E+01  1.83920E+01
   1.71881E+01  1.55255E+01  1.34267E+01  2.01286E+01  1.33357E+01  1.82364E+01  1.71254E+01  2.58697E+01  2.17798E+01  2.53500E+01
   2.51410E+01  2.45660E+01  2.01034E+01  2.86420E+01  2.14787E+01  2.48404E+01  1.12694E+01  2.12343E+01  1.55314E+01  2.16143E+01
   1.76127E+01  2.01345E+01  1.55756E+01  2.45769E+01  1.55838E+01  2.57684E+01  1.92883E+01  2.66109E+01  1.75877E+01  2.46256E+01
   1.84790E+01  1.80252E+01  1.50302E+01  1.49342E+01  9.83465E+00  1.20238E+01  1.47382E+01  2.19832E+01  1.45043E+01  1.87022E+01
   6.81613E+00  1.17110E+01  8.20331E+00  5.93964E+00  4.38489E+00  9.09426E+00  4.84985E+00  9.20626E+00 -1.75425E+00  1.18403E+01
   2.10964E+00  5.05352E+00  6.29626E+00  4.28072E+00  2.71008E+00  7.47171E+00  1.28568E+00  8.21443E+00  4.94270E+00  1.01702E+01
   2.71888E+00  5.71471E+00  4.20537E+00  1.08522E+01  3.26922E+00  1.21368E+01  9.00804E+00  1.55737E+01  5.29026E+00  1.41890E+01
   2.84230E+00  1.01111E+01  7.15251E+00  1.57077E+01  4.87168E+00  1.12847E+01  6.65590E+00  1.21792E+01  1.81419E+01  3.02999E+01
   5.18137E+01  7.75052E+01  7.76639E+01  8.38476E+01  7.27058E+01  7.24807E+01  4.63888E+01  4.34610E+01  3.00398E+01  2.86995E+01
   1.96314E+01  1.47813E+01  8.91745E+00  8.30975E+00  3.81827E+00  8.32019E+00  4.72153E+00  8.89190E+00  7.51161E+00  7.34500E+00
   3.56028E+00  1.14679E+01  1.81312E+01  1.93427E+01  3.77405E+01  5.54515E+01  6.22067E+01  7.07351E+01  6.98245E+01  6.46334E+01
   4.42675E+01  4.42739E+01  2.67619E+01  2.43584E+01  1.32921E+01  1.36680E+01  6.46560E+00  8.93730E+00  6.11541E+00  1.12278E+01
   4.46780E+00  7.91058E+00  5.34552E+00  6.05748E+00  1.03432E+00  6.29218E-01 -3.87299E+00  2.98776E+00  5.53120E+00  8.97043E-01
   2.76316E+00  3.89032E+00  2.41880E+00  4.29886E+00  1.27033E-01  1.40270E+00  1.73509E+00  2.39348E+00  7.35662E-01  4.15443E+00
  -2.69530E+00  7.60689E-01 -3.14094E+00  5.98521E-01  3.61377E+00  4.66306E+00  5.24015E-01  7.98209E+00 -4.56333E+00 -6.84972E+00
  -5.67499E+00 -1.32188E+00 -4.74758E+00 -8.23771E+00 -1.10570E+01 -5.24275E+00 -6.59847E+00 -9.11461E+00 -4.12460E+00 -6.08061E+00
  -7.01607E+00 -8.11229E+00 -1.01093E+01 -8.19186E+00 -8.97383E+00 -5.42524E+00 -6.65023E+00 -9.60763E-01 -1.90029E+00  2.95007E+00
   6.30102E+00  1.13257E+01  6.07500E+00  1.08166E+01  6.75495E+00  1.41192E+01  4.18699E+00  8.22653E+00  4.32998E+00  1.57521E+00
   5.58220E-01  7.78016E+00  1.90739E+00  1.16384E+01  1.04380E+01  3.56374E+00  5.75956E+00  4.04141E+00 -1.00477E+00 -2.49494E-01
  -6.48074E+00  1.79285E+00  4.32889E+00  1.38817E+01  1.22110E+01  1.65115E+01  1.66646E+01  2.04748E+01  1.28914E+01  1.09174E+01
  -2.70553E+00  2.75012E+00  2.11329E+00  5.38238E+00  6.16419E-01  1.41804E+01  1.37636E+01  1.23840E+01  1.02071E+01  1.57601E+01
   1.29450E+01  1.40720E+01  1.24204E+01  9.32152E+00  1.10541E+01  1.41721E+01  1.29904E+01  1.52702E+01  7.04783E+00  1.07396E+01
   7.93302E+00  6.14423E+00  6.27694E-02  8.78769E+00  8.87841E+00  1.08757E+01  1.17854E+01  1.22221E+01  1.44960E+01  1.32902E+01
   1.38016E+01  1.74015E+01  1.84266E+01  2.67148E+01  2.93285E+01  3.22551E+01  4.29049E+01  5.38512E+01  7.59685E+01  9.67111E+01
   9.97571E+01  9.43524E+01  7.76910E+01  6.05965E+01  4.47217E+01  3.59639E+01  3.18776E+01  2.33584E+01  1.49275E+01  2.06901E+01
   1.33779E+01  1.40195E+01  1.02569E+01  1.28124E+01  1.24298E+01  1.22303E+01  1.02669E+01  1.37890E+01  4.64774E+00  1.14839E+01
   5.17567E+00  7.92154E+00  4.84083E+00  6.83461E+00  5.76039E+00  6.50822E+00  4.09728E+00  8.05177E+00  2.99457E+00  4.37126E+00
   2.23009E+00  5.87069E+00  4.89985E+00  9.29111E+00  5.76544E+00  8.14512E+00  2.01349E+00  1.81357E+00  2.82309E+00  3.46044E+00
   3.62072E+00  6.47056E+00  2.96102E+00  4.45227E+00  7.67979E+00  6.96762E+00  4.94600E+00  6.48245E+00  7.03199E+00  1.05488E+01
   4.80971E+00  1.16968E+01  6.48677E+00  1.02147E+01  6.79025E+00  9.02684E+00  9.45882E+00  7.24644E+00  3.83521E+00  7.36348E+00
   3.07154E+00  8.44872E+00  1.03546E+00  6.32540E+00  3.43222E+00  3.72398E+00  5.30004E+00  6.09891E+00  3.10665E+00  2.58686E+00
   1.45230E+00  6.47309E+00  5.85648E+00  7.90428E+00  4.27840E+00  3.60493E+00  3.96269E+00  4.80987E+00  7.96464E-01  9.52413E-01
  -1.63653E+00  3.63859E-01 -7.30547E+00  1.07651E+00 -1.82424E+00 -3.38258E+00 -2.23029E+00 -5.75193E+00 -1.11590E+01 -8.89314E+00
  -1.30199E+01 -5.80319E+00 -8.70083E+00 -5.70358E+00 -5.13365E+00 -2.22763E+00 -4.47291E+00 -4.05952E+00 -7.26770E-01 -7.81112E-01
   4.64605E+00 -9.75713E-01 -6.50578E+00  1.85678E+00 -1.19873E-01  2.67920E+00  2.64946E+00  8.67791E-02  5.38953E+00  1.65985E+00
   6.46800E+00  9.34541E+00  3.10564E+00  9.43813E+00  1.05573E+01  7.49428E+00  1.16919E+01  9.77074E+00  3.61509E+00  6.28841E+00
   1.02667E+01  1.18271E+01  7.90848E+00  1.10829E+01  2.91640E+00  1.11657E+01  1.41968E+00  5.95675E+00  6.19795E+00  8.60170E+00
   5.23485E+00  7.93750E+00  4.88855E+00  7.06963E+00  1.45969E+01  1.08346E+01  1.37947E+01  1.24807E+01  1.20084E+01  1.39717E+01
   1.38746E+01  1.06234E+01  9.57602E+00  1.26598E+01  1.03085E+01  1.24636E+01  9.97928E+00  1.30441E+01  1.19826E+01  1.12274E+01
   9.94137E+00  1.59438E+01  1.11526E+01  1.36858E+01  1.05790E+01  6.22425E+00  5.54817E+00  7.23223E+00  8.85123E+00  1.23086E+01
   5.93374E+00  8.29418E+00  1.13265E+01  7.37957E+00  6.75167E+00  1.95501E+00  6.10545E+00  7.93270E+00  4.75014E+00  6.27692E+00
   8.41849E+00  5.25036E+00  2.97333E+00  2.98406E+00  7.63640E+00  1.75125E+00  4.25664E+00  7.90063E+00  7.15576E+00  2.02472E+00
   5.07134E+00  5.79351E+00  5.08216E+00  1.08607E+01  5.62567E+00  4.79151E+00  3.82101E+00  9.93313E+00  1.00188E+01  3.80116E+00
   5.67594E+00 -4.09614E-01  8.41060E+00  7.27660E+00  5.87562E+00  4.36011E+00  8.18645E+00  9.84841E+00  1.63495E+00  5.66203E+00
   8.59399E+00  7.08527E+00  1.47754E+00  8.09495E-01  7.60760E+00  7.34480E+00  8.17719E+00  7.37969E+00  8.61608E+00  6.32360E+00
   4.85031E+00  5.76886E+00  6.11923E+00  3.07732E+00  5.00268E+00  5.91908E+00  6.45965E+00  6.14190E+00  9.90811E+00  4.52333E+00
   5.51605E+00  8.77915E+00  5.78246E+00  7.42596E+00  1.64609E+00  2.25420E+00  4.28768E+00  8.90026E+00  4.04316E+00  7.89807E+00
   3.01449E+00  5.32402E+00  4.22920E+00  6.08502E+00 -1.67744E+00  4.05609E+00  5.90209E+00  7.02404E+00
 NY points of the fit to the data follow
   1.64317E+01  1.66247E+01  1.71644E+01  1.82844E+01  2.07010E+01  2.51202E+01  3.21354E+01  4.13544E+01  5.09366E+01  5.82124E+01
   6.10656E+01  5.90154E+01  5.32283E+01  4.58985E+01  3.90856E+01  3.36349E+01  2.89861E+01  2.45583E+01  2.10204E+01  1.87792E+01
   1.77139E+01  1.70347E+01  1.63566E+01  1.56762E+01  1.53321E+01  1.57115E+01  1.72592E+01  1.99203E+01  2.29983E+01  2.57184E+01
   2.74185E+01  2.76190E+01  2.62365E+01  2.38414E+01  2.11654E+01  1.86090E+01  1.61736E+01  1.43946E+01  1.39113E+01  1.40797E+01
   1.45731E+01  1.53509E+01  1.63953E+01  1.77964E+01  1.93438E+01  2.06288E+01  2.11449E+01  2.07462E+01  1.96939E+01  1.81487E+01
   1.64444E+01  1.50714E+01  1.40697E+01  1.30870E+01  1.22052E+01  1.18422E+01  1.19638E+01  1.21929E+01  1.23334E+01  1.22878E+01
   1.19330E+01  1.12652E+01  1.04109E+01  9.62450E+00  9.09921E+00  8.83644E+00  8.76334E+00  8.85305E+00  9.06245E+00  9.31597E+00
   9.52315E+00  9.59379E+00  9.51115E+00  9.29284E+00  8.99157E+00  8.69799E+00  8.45814E+00  8.27338E+00  8.09661E+00  7.95237E+00
   7.95942E+00  8.20713E+00  8.71245E+00  9.41677E+00  1.00680E+01  1.03321E+01  1.00742E+01  9.40317E+00  8.56766E+00  7.86435E+00
   7.51961E+00  7.50737E+00  7.59605E+00  7.60020E+00  7.64996E+00  7.98883E+00  8.88860E+00  1.20298E+01  1.96032E+01  3.28743E+01
   5.11759E+01  6.98154E+01  8.25508E+01  8.57639E+01  7.94879E+01  6.66426E+01  5.20316E+01  3.98444E+01  3.09004E+01  2.29671E+01
   1.46176E+01  8.89662E+00  7.16566E+00  6.66219E+00  6.46708E+00  6.38920E+00  6.36850E+00  6.39616E+00  6.51076E+00  6.80038E+00
   7.50013E+00  9.57610E+00  1.47934E+01  2.43222E+01  3.83215E+01  5.40816E+01  6.66079E+01  7.21549E+01  6.98497E+01  6.13408E+01
   5.00317E+01  3.95002E+01  3.11405E+01  2.37387E+01  1.57119E+01  8.79092E+00  5.81928E+00  5.22663E+00  5.57256E+00  6.21201E+00
   6.72023E+00  7.00093E+00  7.06858E+00  6.87965E+00  6.53470E+00  6.14349E+00  5.70959E+00  5.25582E+00  4.77302E+00  4.30270E+00
   3.89877E+00  3.53357E+00  3.24088E+00  3.07087E+00  3.02192E+00  3.00138E+00  2.88789E+00  2.56718E+00  2.00503E+00  1.40097E+00
   1.02703E+00  1.03374E+00  1.34080E+00  1.65974E+00  1.70882E+00  1.36559E+00  7.40409E-01  1.16642E-01 -2.87142E-01 -5.57338E-01
  -8.74496E-01 -1.37531E+00 -2.04963E+00 -2.67691E+00 -3.07831E+00 -3.17637E+00 -2.99549E+00 -2.72023E+00 -2.56322E+00 -2.58770E+00
  -2.71002E+00 -2.81746E+00 -2.81335E+00 -2.68122E+00 -2.49877E+00 -2.11969E+00 -1.13720E+00  5.15873E-01  2.53155E+00  4.30565E+00
   5.32068E+00  5.47146E+00  4.92728E+00  3.99641E+00  2.98478E+00  2.07399E+00  1.54180E+00  1.65315E+00  2.43330E+00  3.79585E+00
   5.56301E+00  7.36408E+00  8.74201E+00  9.37084E+00  8.93790E+00  7.37678E+00  4.81708E+00  1.81780E+00 -7.93984E-01 -2.33874E+00
  -2.42055E+00 -8.84998E-01  2.14572E+00  6.01266E+00  9.60319E+00  1.18728E+01  1.22457E+01  1.05872E+01  7.03535E+00  2.73377E+00
  -9.37101E-01 -3.16370E+00 -3.62140E+00 -2.39366E+00  3.13933E-01  3.67144E+00  6.44681E+00  8.16443E+00  9.00451E+00  9.41269E+00
   9.53286E+00  9.39034E+00  9.35856E+00  9.81973E+00  1.06642E+01  1.15691E+01  1.22210E+01  1.24177E+01  1.21246E+01  1.12665E+01
   1.00547E+01  9.12267E+00  8.96343E+00  9.55163E+00  1.05287E+01  1.17161E+01  1.28042E+01  1.34602E+01  1.37578E+01  1.41428E+01
   1.51165E+01  1.67350E+01  1.91220E+01  2.22502E+01  2.66219E+01  3.37306E+01  4.49456E+01  6.09348E+01  7.85473E+01  9.19112E+01
   9.67840E+01  9.21220E+01  7.97119E+01  6.40684E+01  5.05035E+01  4.06225E+01  3.22183E+01  2.29542E+01  1.53147E+01  1.22587E+01
   1.09177E+01  1.00885E+01  9.58225E+00  9.25769E+00  8.91832E+00  8.53367E+00  8.09243E+00  7.61070E+00  7.13667E+00  6.71111E+00
   6.32251E+00  5.96295E+00  5.65701E+00  5.41282E+00  5.20061E+00  4.99053E+00  4.78730E+00  4.61416E+00  4.48386E+00  4.39062E+00
   4.33954E+00  4.33634E+00  4.37505E+00  4.44042E+00  4.52605E+00  4.63163E+00  4.76073E+00  4.91767E+00  5.10309E+00  5.31486E+00
   5.55459E+00  5.81621E+00  6.08753E+00  6.35567E+00  6.61052E+00  6.84496E+00  7.05095E+00  7.21795E+00  7.34076E+00  7.41519E+00
   7.43676E+00  7.40382E+00  7.31706E+00  7.17814E+00  6.99037E+00  6.75838E+00  6.48830E+00  6.18737E+00  5.86348E+00  5.52453E+00
   5.17810E+00  4.83125E+00  4.49037E+00  4.16121E+00  3.84857E+00  3.55599E+00  3.28578E+00  3.03934E+00  2.81749E+00  2.62049E+00
   2.44801E+00  2.29914E+00  2.17263E+00  2.06739E+00  1.98264E+00  1.91805E+00  1.87372E+00  1.85061E+00  1.85154E+00  1.88357E+00
   1.96501E+00  2.13302E+00  2.38897E+00  2.68743E+00  2.91832E+00  2.91970E+00  2.60778E+00  2.02839E+00  1.30860E+00  6.44627E-01
   2.28745E-01  1.85435E-01  5.08520E-01  1.05130E+00  1.67513E+00  2.31902E+00  2.81922E+00  3.06755E+00  3.14594E+00  3.17489E+00
   3.20931E+00  3.19916E+00  3.10237E+00  3.03151E+00  3.02116E+00  3.03811E+00  3.06801E+00  3.10511E+00  3.14688E+00  3.19234E+00
   3.24139E+00  3.29464E+00  3.35341E+00  3.41958E+00  3.49537E+00  3.58314E+00  3.68544E+00  3.80501E+00  3.94487E+00  4.10815E+00
   4.29787E+00  4.51680E+00  4.76742E+00  5.05198E+00  5.37236E+00  5.72980E+00  6.12463E+00  6.55610E+00  7.02234E+00  7.52039E+00
   8.04598E+00  8.59340E+00  9.15540E+00  9.72338E+00  1.02877E+01  1.08379E+01  1.13630E+01  1.18519E+01  1.22935E+01  1.26775E+01
   1.29950E+01  1.32386E+01  1.34031E+01  1.34852E+01  1.34839E+01  1.34008E+01  1.32397E+01  1.30067E+01  1.27094E+01  1.23568E+01
   1.19588E+01  1.15257E+01  1.10682E+01  1.05965E+01  1.01201E+01  9.64715E+00  9.18509E+00  8.74001E+00  8.31678E+00  7.91898E+00
   7.54888E+00  7.20770E+00  6.89584E+00  6.61305E+00  6.35847E+00  6.13075E+00  5.92814E+00  5.74873E+00  5.59066E+00  5.45208E+00
   5.33118E+00  5.22615E+00  5.13522E+00  5.05685E+00  4.98972E+00  4.93267E+00  4.88460E+00  4.84444E+00  4.81125E+00  4.78427E+00
   4.76293E+00  4.74668E+00  4.73497E+00  4.72724E+00  4.72305E+00  4.72211E+00  4.72416E+00  4.72895E+00  4.73615E+00  4.74548E+00
   4.75672E+00  4.76978E+00  4.78456E+00  4.80091E+00  4.81861E+00  4.83750E+00  4.85754E+00  4.87870E+00  4.90094E+00  4.92411E+00
   4.94806E+00  4.97275E+00  4.99817E+00  5.02434E+00  5.05121E+00  5.07865E+00  5.10656E+00  5.13495E+00  5.16384E+00  5.19325E+00
   5.22311E+00  5.25330E+00  5.28380E+00  5.31463E+00  5.34584E+00  5.37742E+00  5.40927E+00  5.44131E+00  5.47355E+00  5.50604E+00
   5.53881E+00  5.57182E+00  5.60497E+00  5.63822E+00  5.67161E+00  5.70520E+00  5.73898E+00  5.77290E+00  5.80686E+00  5.84086E+00
   5.87496E+00  5.90921E+00  5.94356E+00  5.97793E+00  6.01227E+00  6.04660E+00  6.08099E+00  6.11544E+00
 NY background values follow
     1.226E+01    1.217E+01    1.208E+01    1.200E+01    1.191E+01    1.182E+01    1.174E+01    1.165E+01    1.156E+01    1.148E+01
     1.139E+01    1.130E+01    1.121E+01    1.113E+01    1.104E+01    1.095E+01    1.087E+01    1.078E+01    1.069E+01    1.061E+01
     1.052E+01    1.043E+01    1.035E+01    1.026E+01    1.017E+01    1.008E+01    9.998E+00    9.912E+00    9.825E+00    9.739E+00
     9.652E+00    9.566E+00    9.480E+00    9.394E+00    9.308E+00    9.222E+00    9.136E+00    9.050E+00    8.965E+00    8.879E+00
     8.794E+00    8.708E+00    8.623E+00    8.538E+00    8.453E+00    8.369E+00    8.284E+00    8.200E+00    8.115E+00    8.031E+00
     7.947E+00    7.864E+00    7.780E+00    7.697E+00    7.614E+00    7.531E+00    7.448E+00    7.366E+00    7.284E+00    7.202E+00
     7.121E+00    7.039E+00    6.958E+00    6.878E+00    6.798E+00    6.718E+00    6.638E+00    6.559E+00    6.480E+00    6.401E+00
     6.323E+00    6.245E+00    6.168E+00    6.091E+00    6.015E+00    5.938E+00    5.863E+00    5.788E+00    5.713E+00    5.639E+00
     5.565E+00    5.491E+00    5.419E+00    5.346E+00    5.275E+00    5.203E+00    5.133E+00    5.063E+00    4.993E+00    4.924E+00
     4.856E+00    4.788E+00    4.720E+00    4.654E+00    4.588E+00    4.522E+00    4.457E+00    4.393E+00    4.330E+00    4.267E+00
     4.204E+00    4.143E+00    4.081E+00    4.021E+00    3.961E+00    3.902E+00    3.843E+00    3.785E+00    3.728E+00    3.671E+00
     3.615E+00    3.560E+00    3.505E+00    3.451E+00    3.397E+00    3.345E+00    3.293E+00    3.241E+00    3.190E+00    3.140E+00
     3.091E+00    3.042E+00    2.994E+00    2.947E+00    2.900E+00    2.854E+00    2.809E+00    2.764E+00    2.720E+00    2.677E+00
     2.634E+00    2.592E+00    2.551E+00    2.511E+00    2.471E+00    2.432E+00    2.394E+00    2.356E+00    2.320E+00    2.284E+00
     2.248E+00    2.213E+00    2.179E+00    2.146E+00    2.114E+00    2.082E+00    2.050E+00    2.020E+00    1.990E+00    1.961E+00
     1.932E+00    1.904E+00    1.877E+00    1.850E+00    1.824E+00    1.799E+00    1.774E+00    1.750E+00    1.727E+00    1.704E+00
     1.682E+00    1.660E+00    1.639E+00    1.619E+00    1.599E+00    1.580E+00    1.562E+00    1.544E+00    1.526E+00    1.509E+00
     1.493E+00    1.478E+00    1.462E+00    1.448E+00    1.434E+00    1.421E+00    1.408E+00    1.395E+00    1.384E+00    1.373E+00
     1.362E+00    1.352E+00    1.342E+00    1.333E+00    1.324E+00    1.316E+00    1.308E+00    1.301E+00    1.294E+00    1.287E+00
     1.281E+00    1.275E+00    1.270E+00    1.264E+00    1.259E+00    1.255E+00    1.250E+00    1.246E+00    1.242E+00    1.238E+00
     1.234E+00    1.230E+00    1.226E+00    1.223E+00    1.219E+00    1.216E+00    1.212E+00    1.209E+00    1.205E+00    1.202E+00
     1.198E+00    1.194E+00    1.190E+00    1.186E+00    1.182E+00    1.178E+00    1.173E+00    1.169E+00    1.164E+00    1.158E+00
     1.153E+00    1.147E+00    1.141E+00    1.134E+00    1.127E+00    1.120E+00    1.112E+00    1.104E+00    1.096E+00    1.087E+00
     1.077E+00    1.068E+00    1.057E+00    1.047E+00    1.036E+00    1.025E+00    1.013E+00    1.001E+00    9.886E-01    9.759E-01
     9.629E-01    9.495E-01    9.358E-01    9.218E-01    9.075E-01    8.929E-01    8.780E-01    8.628E-01    8.473E-01    8.316E-01
     8.156E-01    7.994E-01    7.829E-01    7.661E-01    7.492E-01    7.320E-01    7.146E-01    6.970E-01    6.791E-01    6.611E-01
     6.429E-01    6.245E-01    6.060E-01    5.873E-01    5.684E-01    5.493E-01    5.302E-01    5.108E-01    4.914E-01    4.718E-01
     4.521E-01    4.323E-01    4.124E-01    3.925E-01    3.724E-01    3.523E-01    3.321E-01    3.119E-01    2.917E-01    2.714E-01
     2.512E-01    2.309E-01    2.107E-01    1.905E-01    1.704E-01    1.504E-01    1.304E-01    1.105E-01    9.066E-02    7.096E-02
     5.139E-02    3.196E-02    1.268E-02   -6.442E-03   -2.539E-02   -4.415E-02   -6.271E-02   -8.105E-02   -9.918E-02   -1.171E-01
    -1.347E-01   -1.521E-01   -1.692E-01   -1.860E-01   -2.025E-01   -2.187E-01   -2.346E-01   -2.501E-01   -2.653E-01   -2.801E-01
    -2.946E-01   -3.087E-01   -3.223E-01   -3.356E-01   -3.484E-01   -3.608E-01   -3.728E-01   -3.843E-01   -3.953E-01   -4.058E-01
    -4.158E-01   -4.254E-01   -4.344E-01   -4.429E-01   -4.509E-01   -4.584E-01   -4.653E-01   -4.717E-01   -4.775E-01   -4.827E-01
    -4.873E-01   -4.914E-01   -4.948E-01   -4.977E-01   -4.999E-01   -5.015E-01   -5.025E-01   -5.028E-01   -5.025E-01   -5.015E-01
    -4.998E-01   -4.974E-01   -4.944E-01   -4.907E-01   -4.862E-01   -4.810E-01   -4.752E-01   -4.685E-01   -4.612E-01   -4.530E-01
    -4.441E-01   -4.345E-01   -4.241E-01   -4.128E-01   -4.008E-01   -3.880E-01   -3.743E-01   -3.598E-01   -3.445E-01   -3.284E-01
    -3.113E-01   -2.935E-01   -2.747E-01   -2.551E-01   -2.346E-01   -2.133E-01   -1.912E-01   -1.683E-01   -1.446E-01   -1.200E-01
    -9.477E-02   -6.875E-02   -4.199E-02   -1.451E-02    1.368E-02    4.255E-02    7.211E-02    1.023E-01    1.332E-01    1.647E-01
     1.968E-01    2.295E-01    2.628E-01    2.967E-01    3.311E-01    3.661E-01    4.017E-01    4.377E-01    4.742E-01    5.112E-01
     5.487E-01    5.867E-01    6.251E-01    6.639E-01    7.031E-01    7.428E-01    7.828E-01    8.231E-01    8.639E-01    9.050E-01
     9.464E-01    9.881E-01    1.030E+00    1.072E+00    1.115E+00    1.158E+00    1.201E+00    1.244E+00    1.288E+00    1.331E+00
     1.375E+00    1.419E+00    1.463E+00    1.508E+00    1.553E+00    1.597E+00    1.642E+00    1.687E+00    1.733E+00    1.778E+00
     1.823E+00    1.869E+00    1.915E+00    1.960E+00    2.006E+00    2.052E+00    2.098E+00    2.145E+00    2.191E+00    2.237E+00
     2.284E+00    2.330E+00    2.376E+00    2.423E+00    2.469E+00    2.516E+00    2.563E+00    2.609E+00    2.656E+00    2.702E+00
     2.749E+00    2.795E+00    2.842E+00    2.888E+00    2.935E+00    2.981E+00    3.028E+00    3.074E+00    3.120E+00    3.166E+00
     3.212E+00    3.258E+00    3.304E+00    3.350E+00    3.396E+00    3.441E+00    3.487E+00    3.532E+00    3.577E+00    3.623E+00
     3.668E+00    3.713E+00    3.758E+00    3.802E+00    3.847E+00    3.892E+00    3.937E+00    3.981E+00    4.026E+00    4.070E+00
     4.114E+00    4.159E+00    4.203E+00    4.247E+00    4.291E+00    4.335E+00    4.379E+00    4.423E+00    4.467E+00    4.510E+00
     4.554E+00    4.598E+00    4.641E+00    4.685E+00    4.729E+00    4.772E+00    4.815E+00    4.859E+00    4.902E+00    4.946E+00
     4.989E+00    5.032E+00    5.075E+00    5.119E+00    5.162E+00    5.205E+00    5.248E+00    5.291E+00
 Cr       Conc. = 8.16E+02
