 LCModel (Version 6.3-1L) Copyright: S.W. Provencher.          Ref.: Magn. Reson. Med. 30:672-679 (1993).                
 Slice#1 Row#10 Col#10  PD_24_press_1_raw_act
 36 lines in following concentration table = NCONC+1
    Conc.  %SD /Cr+PCr  Metabolite                                         
  189.584  44%   0.225 Ala                                                 
    0.000 999%   0.000 Asp                                                 
  281.833  61%   0.335 Cr                                                  
  559.732  32%   0.665 PCr                                                 
    0.000 999%   0.000 GABA                                                
   60.765 197% 7.2E-02 Glc                                                 
  332.068  51%   0.395 Gln                                                 
  857.123  22%   1.018 Glu                                                 
  443.398   4%   0.527 GPC                                                 
    0.000 999%   0.000 PCh                                                 
  271.985  21%   0.323 GSH                                                 
 1.18E+03  16%   1.407 Ins                                                 
   45.589 199% 5.4E-02 Lac                                                 
 1.43E+03   8%   1.705 NAA                                                 
  522.091  20%   0.620 NAAG                                                
  113.818  19%   0.135 Scyllo                                              
  258.653  60%   0.307 Tau                                                 
  400.217  21%   0.476 -CrCH2                                              
  443.398   4%   0.527 GPC+PCh                                             
 1.96E+03   3%   2.325 NAA+NAAG                                            
  841.565   5%   1.000 Cr+PCr                                              
 1.19E+03  23%   1.413 Glu+Gln                                             
 2.54E+03  19%   3.023 Lip13a                                              
    0.000 999%   0.000 Lip13b                                              
  639.965  41%   0.760 Lip09                                               
  577.093  45%   0.686 MM09                                                
  518.020  37%   0.616 Lip20                                               
 1.24E+03  24%   1.471 MM20                                                
  207.633  79%   0.247 MM12                                                
   93.697 292%   0.111 MM14                                                
  213.279  61%   0.253 MM17                                                
 2.54E+03  19%   3.023 Lip13a+Lip13b                                       
 2.85E+03  11%   3.381 MM14+Lip13a+Lip13b+MM12                             
 1.22E+03  12%   1.446 MM09+Lip09                                          
 1.76E+03  15%   2.087 MM20+Lip20                                          
   6 lines in following misc. output table
  FWHM = 0.054 ppm    S/N =  11                                            
  Data shift =-0.023 ppm                                                   
  Ph:  -1 deg       4.3 deg/ppm                                            
  alphaB,S = 3.8E+00,   9.5E+01                                            
   14 spline knots.   Ns = 7(1)                                            
  (10) 4 infls.   ( 9) 1 extrs.                                            
  498 points on ppm-axis = NY
      4.000000     3.992357     3.984714     3.977070     3.969427     3.961784     3.954141     3.946497     3.938854     3.931211
      3.923568     3.915925     3.908281     3.900638     3.892995     3.885352     3.877708     3.870065     3.862422     3.854779
      3.847136     3.839492     3.831849     3.824206     3.816563     3.808919     3.801276     3.793633     3.785990     3.778347
      3.770703     3.763060     3.755417     3.747774     3.740130     3.732487     3.724844     3.717201     3.709558     3.701914
      3.694271     3.686628     3.678985     3.671341     3.663698     3.656055     3.648412     3.640769     3.633125     3.625482
      3.617839     3.610196     3.602552     3.594909     3.587266     3.579623     3.571980     3.564336     3.556693     3.549050
      3.541407     3.533763     3.526120     3.518477     3.510834     3.503191     3.495547     3.487904     3.480261     3.472618
      3.464974     3.457331     3.449688     3.442045     3.434402     3.426758     3.419115     3.411472     3.403829     3.396185
      3.388542     3.380899     3.373256     3.365613     3.357969     3.350326     3.342683     3.335040     3.327396     3.319753
      3.312110     3.304467     3.296824     3.289180     3.281537     3.273894     3.266251     3.258607     3.250964     3.243321
      3.235678     3.228034     3.220391     3.212748     3.205105     3.197462     3.189818     3.182175     3.174532     3.166889
      3.159245     3.151602     3.143959     3.136316     3.128673     3.121029     3.113386     3.105743     3.098100     3.090456
      3.082813     3.075170     3.067527     3.059884     3.052240     3.044597     3.036954     3.029311     3.021667     3.014024
      3.006381     2.998738     2.991095     2.983451     2.975808     2.968165     2.960522     2.952878     2.945235     2.937592
      2.929949     2.922306     2.914662     2.907019     2.899376     2.891733     2.884089     2.876446     2.868803     2.861160
      2.853517     2.845873     2.838230     2.830587     2.822944     2.815300     2.807657     2.800014     2.792371     2.784728
      2.777084     2.769441     2.761798     2.754155     2.746511     2.738868     2.731225     2.723582     2.715939     2.708295
      2.700652     2.693009     2.685366     2.677722     2.670079     2.662436     2.654793     2.647150     2.639506     2.631863
      2.624220     2.616577     2.608933     2.601290     2.593647     2.586004     2.578361     2.570717     2.563074     2.555431
      2.547788     2.540144     2.532501     2.524858     2.517215     2.509572     2.501928     2.494285     2.486642     2.478999
      2.471355     2.463712     2.456069     2.448426     2.440783     2.433139     2.425496     2.417853     2.410210     2.402566
      2.394923     2.387280     2.379637     2.371994     2.364350     2.356707     2.349064     2.341421     2.333777     2.326134
      2.318491     2.310848     2.303205     2.295561     2.287918     2.280275     2.272632     2.264988     2.257345     2.249702
      2.242059     2.234416     2.226772     2.219129     2.211486     2.203843     2.196199     2.188556     2.180913     2.173270
      2.165627     2.157983     2.150340     2.142697     2.135054     2.127410     2.119767     2.112124     2.104481     2.096838
      2.089194     2.081551     2.073908     2.066265     2.058621     2.050978     2.043335     2.035692     2.028049     2.020405
      2.012762     2.005119     1.997476     1.989833     1.982190     1.974546     1.966903     1.959260     1.951617     1.943974
      1.936331     1.928688     1.921045     1.913402     1.905759     1.898115     1.890472     1.882829     1.875186     1.867543
      1.859900     1.852257     1.844614     1.836971     1.829327     1.821684     1.814041     1.806398     1.798755     1.791112
      1.783469     1.775826     1.768183     1.760540     1.752896     1.745253     1.737610     1.729967     1.722324     1.714681
      1.707038     1.699395     1.691752     1.684108     1.676465     1.668822     1.661179     1.653536     1.645893     1.638250
      1.630607     1.622964     1.615321     1.607677     1.600034     1.592391     1.584748     1.577105     1.569462     1.561819
      1.554176     1.546533     1.538890     1.531246     1.523603     1.515960     1.508317     1.500674     1.493031     1.485388
      1.477745     1.470102     1.462458     1.454815     1.447172     1.439529     1.431886     1.424243     1.416600     1.408957
      1.401314     1.393671     1.386027     1.378384     1.370741     1.363098     1.355455     1.347812     1.340169     1.332526
      1.324883     1.317240     1.309596     1.301953     1.294310     1.286667     1.279024     1.271381     1.263738     1.256095
      1.248452     1.240808     1.233165     1.225522     1.217879     1.210236     1.202593     1.194950     1.187307     1.179664
      1.172021     1.164377     1.156734     1.149091     1.141448     1.133805     1.126162     1.118519     1.110876     1.103233
      1.095590     1.087946     1.080303     1.072660     1.065017     1.057374     1.049731     1.042088     1.034445     1.026802
      1.019158     1.011515     1.003872     0.996229     0.988586     0.980943     0.973300     0.965657     0.958014     0.950371
      0.942727     0.935084     0.927441     0.919798     0.912155     0.904512     0.896869     0.889226     0.881583     0.873940
      0.866296     0.858653     0.851010     0.843367     0.835724     0.828081     0.820438     0.812795     0.805152     0.797508
      0.789865     0.782222     0.774579     0.766936     0.759293     0.751650     0.744007     0.736364     0.728721     0.721077
      0.713434     0.705791     0.698148     0.690505     0.682862     0.675219     0.667576     0.659933     0.652290     0.644646
      0.637003     0.629360     0.621717     0.614074     0.606431     0.598788     0.591145     0.583502     0.575858     0.568215
      0.560572     0.552929     0.545286     0.537643     0.530000     0.522357     0.514714     0.507071     0.499427     0.491784
      0.484141     0.476498     0.468855     0.461212     0.453569     0.445925     0.438282     0.430639     0.422996     0.415353
      0.407710     0.400067     0.392424     0.384780     0.377137     0.369494     0.361851     0.354208     0.346565     0.338922
      0.331278     0.323635     0.315992     0.308349     0.300706     0.293063     0.285420     0.277777     0.270133     0.262490
      0.254847     0.247204     0.239561     0.231918     0.224275     0.216631     0.208988     0.201345
 NY phased data points follow
   2.18448E+00 -1.02607E+00  2.33017E+00  3.04270E-01  6.42778E+00  3.96875E+00  2.44063E+00  4.83856E+00  4.78893E+00  1.07586E+01
   8.94516E+00  9.97918E+00  8.23817E+00  9.30460E+00  9.87849E+00  7.74354E+00  6.31752E+00  3.54213E+00  6.70987E+00  1.19289E+00
   6.52820E+00  4.92255E+00  5.32650E+00  1.49009E+00  2.79421E+00  1.51212E+00  3.00523E+00  5.25165E+00  4.88910E+00  3.31218E+00
   4.03867E+00  5.15640E+00  5.44857E+00  5.76833E-02  5.76909E+00  5.03760E+00  2.65320E+00  5.53342E-01  6.62888E+00  2.49011E+00
   4.96846E+00  4.08957E+00  3.99128E+00  2.75539E+00  6.74377E+00  4.74356E+00  1.11566E+01  6.89197E+00  1.11667E+01  7.87343E+00
   7.15772E+00  4.22305E+00  6.04397E+00  5.31976E+00  2.35920E+00  2.32326E+00  6.68302E-01  6.75074E+00  3.08832E+00  6.67133E-01
   3.38006E+00 -6.39208E-01  1.70198E+00  4.33752E-01 -4.55513E-02 -3.68464E+00 -4.75824E-01 -1.98620E-02  8.08112E-01 -1.42966E+00
  -1.88957E+00  1.49626E+00  3.53443E+00 -6.67563E-01  2.84182E+00  5.91127E+00  8.22026E-01 -6.06652E-01  1.32422E+00 -3.23250E+00
   1.48628E+00 -1.98036E+00  3.31032E-01  5.54981E+00  2.22416E+00  1.50638E+00  5.15037E+00  4.23662E+00  2.64755E+00  2.94436E+00
   5.45305E-01  2.69268E+00  7.12314E+00  5.65613E+00  4.16450E+00  4.56924E+00  3.00563E+00  3.07833E+00  5.87190E+00  8.07576E+00
   1.12351E+01  2.21080E+01  3.41949E+01  3.83199E+01  4.14797E+01  3.62099E+01  3.18747E+01  2.31755E+01  1.49955E+01  8.89196E+00
   1.08514E+01  7.81921E+00  1.99384E+00  3.58608E+00  4.71595E+00  3.58020E+00  3.64491E+00  2.16976E+00 -2.74975E-01 -2.41851E+00
   1.74881E+00 -3.22118E+00  1.80050E+00  2.39014E+00  1.05469E+01  1.15811E+01  1.99985E+01  2.70369E+01  3.00676E+01  2.48494E+01
   2.41690E+01  1.42194E+01  8.51179E+00  7.67038E+00  5.59073E+00  9.78545E-01  5.75252E+00  3.53669E+00  1.91163E+00  5.79259E-01
   1.35291E-01  6.46961E-01  5.61460E-02  7.40304E-01 -1.17683E+00 -5.47898E-01 -1.88560E+00 -1.41721E+00 -1.68492E-01 -2.12491E+00
   1.36609E+00 -6.03842E-01  2.64324E+00 -2.14357E+00  6.34619E-01 -3.48564E-01  5.76732E-01 -6.33185E-01  2.03150E+00 -3.17941E+00
  -2.19923E+00 -2.53135E+00 -1.04050E+00 -4.38902E+00 -4.25509E+00 -1.52996E+00 -8.45730E+00 -3.77678E+00 -7.14829E+00 -7.75868E+00
  -9.05515E+00 -6.90134E+00 -1.38062E+01 -1.07706E+01 -9.17822E+00 -8.65357E+00 -1.11212E+01 -1.35201E+01 -1.09749E+01 -1.22763E+01
  -1.12442E+01 -8.69614E+00 -5.42267E+00 -5.73878E+00 -9.04337E+00 -6.19693E+00 -4.99318E+00 -4.80083E+00 -7.72534E+00 -8.03458E+00
  -2.02618E+00 -4.54232E+00 -5.80675E+00 -1.53500E+00 -7.33251E+00 -5.46324E+00 -8.15325E+00 -1.12076E+01 -9.59305E+00 -5.70919E+00
  -4.16666E+00 -3.83073E+00 -2.95106E+00 -2.73855E+00 -7.05578E-01 -2.37722E+00  6.73368E-01 -3.97639E+00  1.77384E+00 -2.94960E+00
  -2.52644E+00  2.48494E-03 -2.54108E+00  7.97904E-01  3.79661E+00  2.87268E+00  6.70228E+00  3.83900E+00  3.07153E+00 -1.80944E+00
  -6.07255E-01 -5.42560E+00 -2.35395E+00 -3.35502E+00 -4.00609E-01  2.03689E-01  4.01098E+00  2.37279E+00  2.41134E+00  7.78801E+00
   3.10522E+00  3.60532E+00  3.44691E+00  6.97116E+00  4.19074E+00  4.90224E+00  6.16343E+00  4.89671E+00 -9.56509E-02  1.40464E-01
   3.07239E+00 -4.65044E-02 -5.30919E+00 -1.72555E+00 -1.96985E+00  2.63800E+00  1.85536E+00  1.21972E+00  4.74788E+00  5.46906E+00
   6.66915E+00  8.66433E+00  1.07229E+01  1.92188E+01  2.03186E+01  2.74928E+01  3.76114E+01  3.95708E+01  4.91847E+01  5.69009E+01
   6.18704E+01  6.18567E+01  5.12156E+01  3.89454E+01  2.79616E+01  2.01073E+01  1.27683E+01  1.10423E+01  6.26668E+00  5.45102E+00
   3.96991E+00  2.29032E-01  3.81093E-01  3.25157E+00 -5.39353E-01  3.47722E-01 -2.88225E+00 -2.38172E+00 -1.65264E+00 -9.08572E-01
  -6.87633E-01 -1.20135E+00 -2.10746E+00 -2.81878E+00 -4.33612E+00 -1.28427E+00 -8.18982E-01 -2.76080E+00 -2.40769E+00  8.38718E-01
  -1.93943E+00  2.01294E+00 -2.64716E+00 -3.14778E+00 -2.80526E-01 -2.09309E+00 -1.26225E+00 -8.84527E-01 -2.28660E+00 -4.98673E+00
  -1.72181E+00 -3.48946E+00 -4.02793E-01  3.70053E-01 -8.21483E-01  1.60220E+00 -1.51530E+00  2.38538E+00  6.30382E-01  5.50393E-01
   1.02345E-01  4.47971E+00  2.33633E+00 -7.11345E-01  2.64079E+00  2.10962E+00 -2.39081E+00 -2.43123E+00 -6.21594E-02  1.70451E+00
  -2.04104E+00  1.79292E+00  9.44045E-01  6.95016E-01  1.65551E+00 -2.54795E+00 -3.61930E-01 -8.83036E-01  1.22020E+00 -2.74869E+00
  -3.75393E+00 -1.46185E+00  8.88873E-01 -1.21317E+00  6.09413E-01  1.53778E+00  3.48949E+00  6.31975E+00  4.71326E+00  3.55231E+00
   8.82309E+00  1.86164E+00  5.11439E+00  2.06737E+00  7.26170E+00  5.54307E+00  6.24274E+00  7.22779E+00  3.18803E+00  8.33831E+00
   5.43412E+00  1.01183E+01  7.35896E+00  7.79620E+00  7.39809E+00  4.19528E+00  8.90452E+00  8.73805E+00  1.03294E+01  1.07681E+01
   8.93228E+00  9.72070E+00  9.20917E+00  8.53608E+00  8.40658E+00  8.68824E+00  7.78977E+00  8.89208E+00  8.61108E+00  8.29979E+00
   9.86522E+00  8.57831E+00  5.72584E+00  3.95110E+00  6.63008E+00  1.35453E+00  4.32370E+00  4.47998E+00  1.38421E+00  8.45948E-01
   1.23766E+00  4.37734E+00  1.52802E+00  1.83964E+00  1.51359E+00  4.53309E+00  2.85939E+00  1.08926E+00  1.68752E+00  6.11335E-02
   3.31659E+00  8.35309E-01  3.72132E+00  3.98626E+00  4.90605E+00  5.25105E+00  3.14048E+00  5.42490E+00  6.51851E+00  6.06072E+00
   6.60593E+00  1.85757E+00  4.39566E+00  8.11023E+00  8.97630E+00  7.16450E+00  4.14445E+00  6.47445E+00  7.49626E+00  7.48636E+00
   7.02270E+00  6.97964E+00  6.98862E+00  3.41102E+00  6.25001E+00  8.19165E+00  2.97988E+00  3.89822E+00  6.25552E+00  4.95099E+00
   7.47938E-01  2.34679E+00  6.30157E+00  1.19448E+00  4.27984E+00  1.98090E+00  1.89045E+00 -9.71598E-01  3.01949E+00 -2.53193E-01
   1.94793E+00  9.78073E-01 -3.94584E+00 -1.34804E+00 -1.14338E+00  6.53841E-01 -7.25260E-01  1.39915E+00 -2.40189E+00  1.46906E+00
  -7.41632E-01  2.64265E+00  1.95483E+00  8.47611E-01  2.11340E+00 -7.11978E-01 -5.20215E-01  1.23901E+00 -1.87308E+00  3.07308E-02
   1.01766E+00 -3.15597E-01 -1.31109E+00  2.02549E+00  2.27872E+00 -4.43202E-01 -1.07365E+00 -9.92461E-01 -3.34372E-01 -4.15130E+00
  -2.35326E+00 -3.73436E+00  2.27827E+00 -2.38900E+00  2.49794E-01  1.12656E+00  1.63921E+00 -6.49792E-01 -1.40735E+00 -1.62283E+00
  -7.10793E-01  1.09539E+00 -2.31317E+00 -7.46623E-01 -5.83495E+00  6.84377E-01 -1.10543E+00 -2.62076E+00  2.18393E+00  7.43370E-02
  -1.76859E+00 -1.82722E+00  2.55026E+00 -3.00260E-01 -3.30992E+00 -2.43361E+00 -3.03176E+00 -1.36385E+00 -1.40351E+00  3.28774E+00
  -5.64875E-01 -8.81675E-01 -1.83366E-01 -1.39846E+00 -1.41501E+00 -1.31483E+00 -7.21689E-01  2.45450E+00
 NY points of the fit to the data follow
   1.33270E+00  8.36157E-01  7.01373E-01  8.70561E-01  1.26800E+00  2.05202E+00  3.17717E+00  4.60250E+00  6.35479E+00  8.29412E+00
   1.00529E+01  1.11408E+01  1.12054E+01  1.02576E+01  8.68387E+00  7.03200E+00  5.64883E+00  4.61864E+00  3.73739E+00  3.02045E+00
   2.36221E+00  1.92594E+00  1.79909E+00  1.78280E+00  1.74660E+00  1.83460E+00  2.25560E+00  3.12815E+00  4.35835E+00  5.63742E+00
   6.62180E+00  7.05500E+00  6.85460E+00  6.17096E+00  5.26880E+00  4.27733E+00  3.24655E+00  2.21044E+00  1.50341E+00  1.25806E+00
   1.28967E+00  1.60885E+00  2.26041E+00  3.33746E+00  4.87619E+00  6.71183E+00  8.44844E+00  9.44053E+00  9.20937E+00  7.86740E+00
   5.87969E+00  3.84950E+00  2.36575E+00  1.57445E+00  1.10900E+00  7.42873E-01  7.34282E-01  1.24320E+00  1.98379E+00  2.59657E+00
   2.90854E+00  2.78055E+00  2.25071E+00  1.49475E+00  8.14502E-01  4.74136E-01  4.53474E-01  5.86795E-01  8.27697E-01  1.15788E+00
   1.52020E+00  1.89801E+00  2.22311E+00  2.43459E+00  2.48723E+00  2.34914E+00  2.02497E+00  1.53586E+00  1.02175E+00  6.18734E-01
   5.21745E-01  7.54775E-01  1.23901E+00  1.91820E+00  2.77266E+00  3.68411E+00  4.28614E+00  4.25344E+00  3.55340E+00  2.47494E+00
   1.41852E+00  7.08945E-01  4.02590E-01  2.49794E-01  3.81989E-02 -6.42840E-02  6.86686E-01  2.66578E+00  5.33097E+00  9.16076E+00
   1.49748E+01  2.29444E+01  3.17958E+01  3.88325E+01  4.13415E+01  3.84141E+01  3.14949E+01  2.33139E+01  1.64072E+01  1.16014E+01
   7.96303E+00  4.21581E+00  8.31698E-01 -6.14666E-01 -1.05592E+00 -1.25714E+00 -1.38934E+00 -1.45483E+00 -1.44826E+00 -1.30694E+00
  -7.19820E-01  6.38894E-01  2.53621E+00  5.31386E+00  9.46798E+00  1.50148E+01  2.10560E+01  2.57706E+01  2.73991E+01  2.54400E+01
   2.09316E+01  1.56385E+01  1.10786E+01  7.67977E+00  4.82927E+00  1.82480E+00 -7.17682E-01 -1.62141E+00 -1.56228E+00 -1.18560E+00
  -8.00335E-01 -5.53160E-01 -4.41848E-01 -4.56651E-01 -5.68406E-01 -7.02976E-01 -8.36469E-01 -9.90686E-01 -1.15435E+00 -1.33795E+00
  -1.50755E+00 -1.66733E+00 -1.81499E+00 -1.93864E+00 -2.01976E+00 -2.01996E+00 -1.97240E+00 -1.96777E+00 -2.09569E+00 -2.41675E+00
  -2.81370E+00 -3.08087E+00 -3.10591E+00 -2.98188E+00 -2.89843E+00 -3.03327E+00 -3.44520E+00 -3.98992E+00 -4.44875E+00 -4.73677E+00
  -4.91189E+00 -5.05140E+00 -5.29019E+00 -5.65740E+00 -6.04160E+00 -6.32588E+00 -6.38298E+00 -6.20626E+00 -5.97915E+00 -5.90954E+00
  -6.02547E+00 -6.14517E+00 -6.08240E+00 -5.78288E+00 -5.34237E+00 -4.88967E+00 -4.35709E+00 -3.56173E+00 -2.49114E+00 -1.36324E+00
  -5.41526E-01 -2.52103E-01 -4.63857E-01 -9.77751E-01 -1.56408E+00 -2.05774E+00 -2.39475E+00 -2.44301E+00 -2.15832E+00 -1.60217E+00
  -8.71746E-01 -6.17685E-02  6.28008E-01  9.72005E-01  8.90497E-01  3.03659E-01 -8.10264E-01 -2.26476E+00 -3.67628E+00 -4.63045E+00
  -4.94154E+00 -4.53067E+00 -3.41306E+00 -1.76276E+00 -1.81610E-03  1.31910E+00  1.78660E+00  1.32970E+00  7.17470E-02 -1.72040E+00
  -3.42525E+00 -4.54049E+00 -4.87916E+00 -4.38730E+00 -3.22123E+00 -1.61044E+00 -1.09375E-01  8.87505E-01  1.36044E+00  1.51385E+00
   1.57847E+00  1.58636E+00  1.61221E+00  1.81624E+00  2.19791E+00  2.54039E+00  2.67543E+00  2.57149E+00  2.27961E+00  1.85557E+00
   1.33727E+00  9.06025E-01  7.74726E-01  1.04615E+00  1.65201E+00  2.38389E+00  3.08863E+00  3.61455E+00  4.06978E+00  4.86459E+00
   6.06804E+00  7.89284E+00  1.07848E+01  1.56801E+01  2.21109E+01  2.87541E+01  3.54487E+01  4.25395E+01  5.01237E+01  5.69494E+01
   6.05195E+01  5.86753E+01  5.12907E+01  4.04076E+01  2.94873E+01  2.16147E+01  1.64783E+01  1.19544E+01  7.01871E+00  3.67320E+00
   2.53135E+00  2.00481E+00  1.68925E+00  1.48249E+00  1.27376E+00  1.00250E+00  6.91506E-01  3.70521E-01  8.16051E-02 -1.44391E-01
  -3.03034E-01 -4.14774E-01 -4.97591E-01 -5.60261E-01 -6.11828E-01 -6.71178E-01 -7.56530E-01 -8.53376E-01 -9.33398E-01 -9.82328E-01
  -9.96756E-01 -9.76327E-01 -9.25609E-01 -8.60369E-01 -8.03730E-01 -7.64360E-01 -7.39517E-01 -7.19912E-01 -6.93814E-01 -6.58139E-01
  -6.11094E-01 -5.45812E-01 -4.67881E-01 -3.89232E-01 -3.17920E-01 -2.56000E-01 -2.00774E-01 -1.53239E-01 -1.18947E-01 -9.57391E-02
  -8.05220E-02 -7.23060E-02 -6.85093E-02 -6.69648E-02 -6.43813E-02 -5.70705E-02 -3.98546E-02 -6.52367E-03  5.35519E-02  1.61891E-01
   3.42011E-01  5.47638E-01  7.88936E-01  1.08256E+00  1.36763E+00  1.50418E+00  1.32042E+00  7.35426E-01 -9.88737E-02 -9.38646E-01
  -1.56354E+00 -1.79167E+00 -1.55147E+00 -8.87499E-01  7.66518E-02  1.20391E+00  2.34404E+00  3.21448E+00  3.72758E+00  4.02710E+00
   4.30388E+00  4.64641E+00  4.99532E+00  5.26873E+00  5.56749E+00  5.94110E+00  6.30092E+00  6.58595E+00  6.79817E+00  6.97582E+00
   7.16877E+00  7.42562E+00  7.76949E+00  8.18566E+00  8.62834E+00  9.04380E+00  9.39551E+00  9.63460E+00  9.72397E+00  9.69185E+00
   9.58291E+00  9.42178E+00  9.20067E+00  8.90324E+00  8.56021E+00  8.19806E+00  7.81423E+00  7.41059E+00  6.99263E+00  6.56633E+00
   6.13831E+00  5.71452E+00  5.30083E+00  4.90208E+00  4.52289E+00  4.16689E+00  3.83752E+00  3.53717E+00  3.26811E+00  3.03170E+00
   2.82945E+00  2.66221E+00  2.53107E+00  2.43650E+00  2.37923E+00  2.35950E+00  2.37792E+00  2.43453E+00  2.52956E+00  2.66244E+00
   2.83255E+00  3.03835E+00  3.27807E+00  3.54871E+00  3.84675E+00  4.16724E+00  4.50468E+00  4.85224E+00  5.20274E+00  5.54789E+00
   5.87931E+00  6.18809E+00  6.46591E+00  6.70462E+00  6.89736E+00  7.03803E+00  7.12231E+00  7.14717E+00  7.11174E+00  7.01662E+00
   6.86450E+00  6.65920E+00  6.40625E+00  6.11185E+00  5.78339E+00  5.42829E+00  5.05438E+00  4.66888E+00  4.27889E+00  3.89053E+00
   3.50948E+00  3.14016E+00  2.78641E+00  2.45075E+00  2.13521E+00  1.84075E+00  1.56803E+00  1.31678E+00  1.08660E+00  8.76392E-01
   6.85195E-01  5.11591E-01  3.54435E-01  2.12170E-01  8.35769E-02 -3.28448E-02 -1.38136E-01 -2.33569E-01 -3.19989E-01 -3.98530E-01
  -4.69903E-01 -5.35045E-01 -5.94435E-01 -6.48804E-01 -6.98507E-01 -7.44209E-01 -7.86183E-01 -8.24953E-01 -8.60639E-01 -8.93667E-01
  -9.24135E-01 -9.52465E-01 -9.78703E-01 -1.00317E+00 -1.02582E+00 -1.04694E+00 -1.06654E+00 -1.08491E+00 -1.10200E+00 -1.11803E+00
  -1.13289E+00 -1.14684E+00 -1.15981E+00 -1.17204E+00 -1.18342E+00 -1.19411E+00 -1.20401E+00 -1.21334E+00 -1.22200E+00 -1.23020E+00
  -1.23780E+00 -1.24494E+00 -1.25151E+00 -1.25771E+00 -1.26345E+00 -1.26889E+00 -1.27386E+00 -1.27853E+00 -1.28277E+00 -1.28680E+00
  -1.29048E+00 -1.29397E+00 -1.29710E+00 -1.30002E+00 -1.30263E+00 -1.30512E+00 -1.30736E+00 -1.30946E+00 -1.31127E+00 -1.31296E+00
  -1.31444E+00 -1.31586E+00 -1.31709E+00 -1.31824E+00 -1.31917E+00 -1.32005E+00 -1.32080E+00 -1.32155E+00
 NY background values follow
    -2.577E+00   -2.581E+00   -2.585E+00   -2.589E+00   -2.593E+00   -2.597E+00   -2.601E+00   -2.605E+00   -2.609E+00   -2.613E+00
    -2.618E+00   -2.622E+00   -2.626E+00   -2.630E+00   -2.634E+00   -2.638E+00   -2.642E+00   -2.646E+00   -2.650E+00   -2.654E+00
    -2.658E+00   -2.662E+00   -2.666E+00   -2.671E+00   -2.675E+00   -2.679E+00   -2.683E+00   -2.687E+00   -2.691E+00   -2.695E+00
    -2.699E+00   -2.703E+00   -2.707E+00   -2.711E+00   -2.715E+00   -2.719E+00   -2.723E+00   -2.727E+00   -2.731E+00   -2.735E+00
    -2.739E+00   -2.744E+00   -2.748E+00   -2.752E+00   -2.756E+00   -2.760E+00   -2.764E+00   -2.768E+00   -2.772E+00   -2.776E+00
    -2.780E+00   -2.784E+00   -2.788E+00   -2.792E+00   -2.796E+00   -2.800E+00   -2.804E+00   -2.808E+00   -2.812E+00   -2.816E+00
    -2.820E+00   -2.824E+00   -2.827E+00   -2.831E+00   -2.835E+00   -2.839E+00   -2.843E+00   -2.847E+00   -2.851E+00   -2.855E+00
    -2.859E+00   -2.863E+00   -2.867E+00   -2.871E+00   -2.874E+00   -2.878E+00   -2.882E+00   -2.886E+00   -2.890E+00   -2.894E+00
    -2.898E+00   -2.901E+00   -2.905E+00   -2.909E+00   -2.913E+00   -2.917E+00   -2.920E+00   -2.924E+00   -2.928E+00   -2.932E+00
    -2.935E+00   -2.939E+00   -2.943E+00   -2.947E+00   -2.950E+00   -2.954E+00   -2.958E+00   -2.961E+00   -2.965E+00   -2.969E+00
    -2.972E+00   -2.976E+00   -2.980E+00   -2.983E+00   -2.987E+00   -2.990E+00   -2.994E+00   -2.998E+00   -3.001E+00   -3.005E+00
    -3.008E+00   -3.012E+00   -3.015E+00   -3.019E+00   -3.022E+00   -3.026E+00   -3.029E+00   -3.032E+00   -3.036E+00   -3.039E+00
    -3.042E+00   -3.046E+00   -3.049E+00   -3.052E+00   -3.056E+00   -3.059E+00   -3.062E+00   -3.065E+00   -3.069E+00   -3.072E+00
    -3.075E+00   -3.078E+00   -3.081E+00   -3.084E+00   -3.088E+00   -3.091E+00   -3.094E+00   -3.097E+00   -3.100E+00   -3.103E+00
    -3.106E+00   -3.109E+00   -3.111E+00   -3.114E+00   -3.117E+00   -3.120E+00   -3.123E+00   -3.126E+00   -3.128E+00   -3.131E+00
    -3.134E+00   -3.136E+00   -3.139E+00   -3.142E+00   -3.144E+00   -3.147E+00   -3.149E+00   -3.152E+00   -3.154E+00   -3.157E+00
    -3.159E+00   -3.161E+00   -3.164E+00   -3.166E+00   -3.168E+00   -3.170E+00   -3.172E+00   -3.175E+00   -3.177E+00   -3.179E+00
    -3.181E+00   -3.183E+00   -3.184E+00   -3.186E+00   -3.188E+00   -3.190E+00   -3.192E+00   -3.193E+00   -3.195E+00   -3.197E+00
    -3.198E+00   -3.200E+00   -3.201E+00   -3.202E+00   -3.204E+00   -3.205E+00   -3.206E+00   -3.208E+00   -3.209E+00   -3.210E+00
    -3.211E+00   -3.212E+00   -3.213E+00   -3.214E+00   -3.215E+00   -3.216E+00   -3.216E+00   -3.217E+00   -3.218E+00   -3.219E+00
    -3.219E+00   -3.220E+00   -3.220E+00   -3.221E+00   -3.221E+00   -3.222E+00   -3.222E+00   -3.222E+00   -3.223E+00   -3.223E+00
    -3.223E+00   -3.223E+00   -3.223E+00   -3.223E+00   -3.223E+00   -3.223E+00   -3.223E+00   -3.223E+00   -3.223E+00   -3.223E+00
    -3.223E+00   -3.222E+00   -3.222E+00   -3.222E+00   -3.221E+00   -3.221E+00   -3.220E+00   -3.220E+00   -3.219E+00   -3.219E+00
    -3.218E+00   -3.217E+00   -3.217E+00   -3.216E+00   -3.215E+00   -3.214E+00   -3.213E+00   -3.213E+00   -3.212E+00   -3.211E+00
    -3.210E+00   -3.208E+00   -3.207E+00   -3.206E+00   -3.205E+00   -3.204E+00   -3.203E+00   -3.201E+00   -3.200E+00   -3.199E+00
    -3.197E+00   -3.196E+00   -3.194E+00   -3.193E+00   -3.191E+00   -3.189E+00   -3.188E+00   -3.186E+00   -3.184E+00   -3.182E+00
    -3.181E+00   -3.179E+00   -3.177E+00   -3.175E+00   -3.173E+00   -3.171E+00   -3.169E+00   -3.167E+00   -3.164E+00   -3.162E+00
    -3.160E+00   -3.158E+00   -3.155E+00   -3.153E+00   -3.151E+00   -3.148E+00   -3.146E+00   -3.143E+00   -3.141E+00   -3.138E+00
    -3.135E+00   -3.133E+00   -3.130E+00   -3.127E+00   -3.124E+00   -3.121E+00   -3.119E+00   -3.116E+00   -3.113E+00   -3.110E+00
    -3.107E+00   -3.104E+00   -3.100E+00   -3.097E+00   -3.094E+00   -3.091E+00   -3.088E+00   -3.084E+00   -3.081E+00   -3.078E+00
    -3.074E+00   -3.071E+00   -3.067E+00   -3.064E+00   -3.060E+00   -3.057E+00   -3.053E+00   -3.049E+00   -3.046E+00   -3.042E+00
    -3.038E+00   -3.034E+00   -3.030E+00   -3.027E+00   -3.023E+00   -3.019E+00   -3.015E+00   -3.011E+00   -3.007E+00   -3.003E+00
    -2.998E+00   -2.994E+00   -2.990E+00   -2.986E+00   -2.982E+00   -2.977E+00   -2.973E+00   -2.969E+00   -2.964E+00   -2.960E+00
    -2.956E+00   -2.951E+00   -2.947E+00   -2.942E+00   -2.938E+00   -2.933E+00   -2.928E+00   -2.924E+00   -2.919E+00   -2.914E+00
    -2.910E+00   -2.905E+00   -2.900E+00   -2.895E+00   -2.891E+00   -2.886E+00   -2.881E+00   -2.876E+00   -2.871E+00   -2.866E+00
    -2.861E+00   -2.856E+00   -2.851E+00   -2.846E+00   -2.841E+00   -2.836E+00   -2.830E+00   -2.825E+00   -2.820E+00   -2.815E+00
    -2.810E+00   -2.804E+00   -2.799E+00   -2.794E+00   -2.788E+00   -2.783E+00   -2.777E+00   -2.772E+00   -2.767E+00   -2.761E+00
    -2.756E+00   -2.750E+00   -2.745E+00   -2.739E+00   -2.734E+00   -2.728E+00   -2.722E+00   -2.717E+00   -2.711E+00   -2.705E+00
    -2.700E+00   -2.694E+00   -2.688E+00   -2.682E+00   -2.677E+00   -2.671E+00   -2.665E+00   -2.659E+00   -2.653E+00   -2.648E+00
    -2.642E+00   -2.636E+00   -2.630E+00   -2.624E+00   -2.618E+00   -2.612E+00   -2.606E+00   -2.600E+00   -2.594E+00   -2.588E+00
    -2.582E+00   -2.576E+00   -2.570E+00   -2.564E+00   -2.558E+00   -2.551E+00   -2.545E+00   -2.539E+00   -2.533E+00   -2.527E+00
    -2.521E+00   -2.514E+00   -2.508E+00   -2.502E+00   -2.496E+00   -2.489E+00   -2.483E+00   -2.477E+00   -2.471E+00   -2.464E+00
    -2.458E+00   -2.452E+00   -2.445E+00   -2.439E+00   -2.433E+00   -2.426E+00   -2.420E+00   -2.413E+00   -2.407E+00   -2.401E+00
    -2.394E+00   -2.388E+00   -2.381E+00   -2.375E+00   -2.368E+00   -2.362E+00   -2.355E+00   -2.349E+00   -2.343E+00   -2.336E+00
    -2.330E+00   -2.323E+00   -2.317E+00   -2.310E+00   -2.304E+00   -2.297E+00   -2.290E+00   -2.284E+00   -2.277E+00   -2.271E+00
    -2.264E+00   -2.258E+00   -2.251E+00   -2.245E+00   -2.238E+00   -2.232E+00   -2.225E+00   -2.218E+00   -2.212E+00   -2.205E+00
    -2.199E+00   -2.192E+00   -2.186E+00   -2.179E+00   -2.172E+00   -2.166E+00   -2.159E+00   -2.153E+00   -2.146E+00   -2.139E+00
    -2.133E+00   -2.126E+00   -2.120E+00   -2.113E+00   -2.106E+00   -2.100E+00   -2.093E+00   -2.087E+00   -2.080E+00   -2.073E+00
    -2.067E+00   -2.060E+00   -2.054E+00   -2.047E+00   -2.040E+00   -2.034E+00   -2.027E+00   -2.020E+00   -2.014E+00   -2.007E+00
    -2.001E+00   -1.994E+00   -1.987E+00   -1.981E+00   -1.974E+00   -1.968E+00   -1.961E+00   -1.954E+00
 Ala      Conc. = 1.90E+02
