 LCModel (Version 6.3-1L) Copyright: S.W. Provencher.          Ref.: Magn. Reson. Med. 30:672-679 (1993).                
 Slice#1 Row#7 Col#5  PD_24_press_1_raw_act
 36 lines in following concentration table = NCONC+1
    Conc.  %SD /Cr+PCr  Metabolite                                         
   46.423 197% 5.1E-02 Ala                                                 
  136.473 138%   0.151 Asp                                                 
  242.184  69%   0.267 Cr                                                  
  663.327  27%   0.733 PCr                                                 
    0.000 999%   0.000 GABA                                                
  116.900 104%   0.129 Glc                                                 
  390.767  46%   0.432 Gln                                                 
 1.11E+03  18%   1.226 Glu                                                 
  329.561  49%   0.364 GPC                                                 
  149.897 109%   0.166 PCh                                                 
  173.224  39%   0.191 GSH                                                 
  786.473  28%   0.869 Ins                                                 
   53.059 182% 5.9E-02 Lac                                                 
 1.75E+03   5%   1.934 NAA                                                 
  251.854  34%   0.278 NAAG                                                
   83.334  30% 9.2E-02 Scyllo                                              
  147.027 116%   0.162 Tau                                                 
  215.840  50%   0.238 -CrCH2                                              
  479.458   5%   0.529 GPC+PCh                                             
 2.00E+03   5%   2.212 NAA+NAAG                                            
  905.511   7%   1.000 Cr+PCr                                              
 1.50E+03  18%   1.658 Glu+Gln                                             
 3.27E+03  29%   3.612 Lip13a                                              
    0.000 999%   0.000 Lip13b                                              
   37.424 999% 4.1E-02 Lip09                                               
 2.85E+03  17%   3.146 MM09                                                
  280.574 113%   0.310 Lip20                                               
 4.56E+03  11%   5.031 MM20                                                
 1.06E+03  24%   1.174 MM12                                                
 3.25E+03  19%   3.589 MM14                                                
 2.09E+03  17%   2.313 MM17                                                
 3.27E+03  29%   3.612 Lip13a+Lip13b                                       
 7.58E+03   8%   8.376 MM14+Lip13a+Lip13b+MM12                             
 2.89E+03   9%   3.188 MM09+Lip09                                          
 4.84E+03   9%   5.341 MM20+Lip20                                          
   6 lines in following misc. output table
  FWHM = 0.038 ppm    S/N =  11                                            
  Data shift = 0.015 ppm                                                   
  Ph: -65 deg      -9.1 deg/ppm                                            
  alphaB,S = 8.5E+01,   2.6E+01                                            
   14 spline knots.   Ns = 5(1)                                            
   2 inflections.     1 extrema                                            
  498 points on ppm-axis = NY
      4.000000     3.992357     3.984714     3.977070     3.969427     3.961784     3.954141     3.946497     3.938854     3.931211
      3.923568     3.915925     3.908281     3.900638     3.892995     3.885352     3.877708     3.870065     3.862422     3.854779
      3.847136     3.839492     3.831849     3.824206     3.816563     3.808919     3.801276     3.793633     3.785990     3.778347
      3.770703     3.763060     3.755417     3.747774     3.740130     3.732487     3.724844     3.717201     3.709558     3.701914
      3.694271     3.686628     3.678985     3.671341     3.663698     3.656055     3.648412     3.640769     3.633125     3.625482
      3.617839     3.610196     3.602552     3.594909     3.587266     3.579623     3.571980     3.564336     3.556693     3.549050
      3.541407     3.533763     3.526120     3.518477     3.510834     3.503191     3.495547     3.487904     3.480261     3.472618
      3.464974     3.457331     3.449688     3.442045     3.434402     3.426758     3.419115     3.411472     3.403829     3.396185
      3.388542     3.380899     3.373256     3.365613     3.357969     3.350326     3.342683     3.335040     3.327396     3.319753
      3.312110     3.304467     3.296824     3.289180     3.281537     3.273894     3.266251     3.258607     3.250964     3.243321
      3.235678     3.228034     3.220391     3.212748     3.205105     3.197462     3.189818     3.182175     3.174532     3.166889
      3.159245     3.151602     3.143959     3.136316     3.128673     3.121029     3.113386     3.105743     3.098100     3.090456
      3.082813     3.075170     3.067527     3.059884     3.052240     3.044597     3.036954     3.029311     3.021667     3.014024
      3.006381     2.998738     2.991095     2.983451     2.975808     2.968165     2.960522     2.952878     2.945235     2.937592
      2.929949     2.922306     2.914662     2.907019     2.899376     2.891733     2.884089     2.876446     2.868803     2.861160
      2.853517     2.845873     2.838230     2.830587     2.822944     2.815300     2.807657     2.800014     2.792371     2.784728
      2.777084     2.769441     2.761798     2.754155     2.746511     2.738868     2.731225     2.723582     2.715939     2.708295
      2.700652     2.693009     2.685366     2.677722     2.670079     2.662436     2.654793     2.647150     2.639506     2.631863
      2.624220     2.616577     2.608933     2.601290     2.593647     2.586004     2.578361     2.570717     2.563074     2.555431
      2.547788     2.540144     2.532501     2.524858     2.517215     2.509572     2.501928     2.494285     2.486642     2.478999
      2.471355     2.463712     2.456069     2.448426     2.440783     2.433139     2.425496     2.417853     2.410210     2.402566
      2.394923     2.387280     2.379637     2.371994     2.364350     2.356707     2.349064     2.341421     2.333777     2.326134
      2.318491     2.310848     2.303205     2.295561     2.287918     2.280275     2.272632     2.264988     2.257345     2.249702
      2.242059     2.234416     2.226772     2.219129     2.211486     2.203843     2.196199     2.188556     2.180913     2.173270
      2.165627     2.157983     2.150340     2.142697     2.135054     2.127410     2.119767     2.112124     2.104481     2.096838
      2.089194     2.081551     2.073908     2.066265     2.058621     2.050978     2.043335     2.035692     2.028049     2.020405
      2.012762     2.005119     1.997476     1.989833     1.982190     1.974546     1.966903     1.959260     1.951617     1.943974
      1.936331     1.928688     1.921045     1.913402     1.905759     1.898115     1.890472     1.882829     1.875186     1.867543
      1.859900     1.852257     1.844614     1.836971     1.829327     1.821684     1.814041     1.806398     1.798755     1.791112
      1.783469     1.775826     1.768183     1.760540     1.752896     1.745253     1.737610     1.729967     1.722324     1.714681
      1.707038     1.699395     1.691752     1.684108     1.676465     1.668822     1.661179     1.653536     1.645893     1.638250
      1.630607     1.622964     1.615321     1.607677     1.600034     1.592391     1.584748     1.577105     1.569462     1.561819
      1.554176     1.546533     1.538890     1.531246     1.523603     1.515960     1.508317     1.500674     1.493031     1.485388
      1.477745     1.470102     1.462458     1.454815     1.447172     1.439529     1.431886     1.424243     1.416600     1.408957
      1.401314     1.393671     1.386027     1.378384     1.370741     1.363098     1.355455     1.347812     1.340169     1.332526
      1.324883     1.317240     1.309596     1.301953     1.294310     1.286667     1.279024     1.271381     1.263738     1.256095
      1.248452     1.240808     1.233165     1.225522     1.217879     1.210236     1.202593     1.194950     1.187307     1.179664
      1.172021     1.164377     1.156734     1.149091     1.141448     1.133805     1.126162     1.118519     1.110876     1.103233
      1.095590     1.087946     1.080303     1.072660     1.065017     1.057374     1.049731     1.042088     1.034445     1.026802
      1.019158     1.011515     1.003872     0.996229     0.988586     0.980943     0.973300     0.965657     0.958014     0.950371
      0.942727     0.935084     0.927441     0.919798     0.912155     0.904512     0.896869     0.889226     0.881583     0.873940
      0.866296     0.858653     0.851010     0.843367     0.835724     0.828081     0.820438     0.812795     0.805152     0.797508
      0.789865     0.782222     0.774579     0.766936     0.759293     0.751650     0.744007     0.736364     0.728721     0.721077
      0.713434     0.705791     0.698148     0.690505     0.682862     0.675219     0.667576     0.659933     0.652290     0.644646
      0.637003     0.629360     0.621717     0.614074     0.606431     0.598788     0.591145     0.583502     0.575858     0.568215
      0.560572     0.552929     0.545286     0.537643     0.530000     0.522357     0.514714     0.507071     0.499427     0.491784
      0.484141     0.476498     0.468855     0.461212     0.453569     0.445925     0.438282     0.430639     0.422996     0.415353
      0.407710     0.400067     0.392424     0.384780     0.377137     0.369494     0.361851     0.354208     0.346565     0.338922
      0.331278     0.323635     0.315992     0.308349     0.300706     0.293063     0.285420     0.277777     0.270133     0.262490
      0.254847     0.247204     0.239561     0.231918     0.224275     0.216631     0.208988     0.201345
 NY phased data points follow
  -9.52817E+00 -1.19834E+01 -5.37115E+00 -8.81183E+00 -1.08687E+01 -6.21148E+00 -4.70093E+00 -9.94660E-01  9.64994E+00  1.06017E+01
   1.22637E+01  7.24689E+00  1.05434E+01  8.83467E+00  3.10029E-01 -2.69242E+00 -9.48125E+00 -9.75116E+00 -8.89684E+00 -3.31184E+00
  -1.09910E+01 -9.64037E+00 -6.31632E+00 -5.99011E+00 -1.23649E+01 -7.55973E+00 -2.62055E+00 -6.35680E+00 -2.46853E+00 -6.57447E+00
  -2.34887E+00 -3.13344E-01  1.12064E+00 -2.72246E+00 -9.25338E+00 -6.10000E+00 -1.13130E+01 -1.03119E+01 -2.65464E+00 -8.35645E-01
  -1.17382E+01  5.66899E-01  3.28576E-01 -7.16295E+00  5.22601E+00  6.64360E+00  9.07698E-01  6.37001E+00  1.13061E+00 -1.54832E+00
  -4.06994E+00 -9.90219E+00 -3.23300E+00  1.52343E+00 -3.41239E+00 -9.63663E+00 -8.08677E+00 -9.66351E+00 -2.67298E+00 -5.05452E+00
  -3.34028E+00 -4.53513E+00 -3.32956E+00 -1.09868E+01 -3.54884E+00 -7.52194E+00 -1.83083E+01 -9.21762E+00 -1.21350E+01 -1.05881E+01
  -9.74780E+00 -9.36419E+00 -9.71045E+00 -5.41908E+00 -4.22747E-01 -6.31137E+00 -2.88651E+00 -9.11450E+00 -2.27352E+00 -5.95697E+00
  -6.87231E+00 -8.92049E-01 -1.37789E+00 -4.07701E+00 -1.52691E+00 -7.75589E+00 -4.32879E+00 -3.28144E+00 -5.15238E+00 -5.10059E-01
   1.38175E+00 -2.80849E+00  6.97199E+00 -7.14166E-01  4.31644E+00  2.97483E+00 -4.48813E+00 -1.21894E+01 -9.83002E+00  1.19816E+01
   2.21724E+01  4.04034E+01  5.50083E+01  5.28105E+01  4.78137E+01  3.16349E+01  1.57750E+01  9.04356E+00  3.16579E-01  2.08965E+00
  -6.90764E+00 -6.12948E+00 -5.96966E+00 -3.29018E+00  4.36317E-01 -5.45754E+00 -3.75717E+00  1.52315E+00  1.73450E+00  2.42914E+00
  -8.81172E+00 -1.18009E+01 -1.14446E+01  9.92108E-01  1.18916E+01  2.20296E+01  3.21074E+01  4.40644E+01  3.20421E+01  2.27479E+01
   1.77363E+01  6.53165E+00  4.55544E+00  7.57961E+00 -3.70528E+00 -2.86936E-01  1.47102E-01 -5.99226E+00 -5.97617E-01 -2.70141E-01
  -3.14639E+00 -6.37296E+00  1.96797E+00 -1.26336E+01 -2.49202E+00 -1.20772E+01 -6.43117E+00 -3.61258E+00 -5.02728E+00 -8.45008E+00
  -2.14938E+00 -6.82684E-01 -5.80186E+00 -3.31782E+00 -8.14158E+00 -2.62920E+00 -1.25590E+01 -5.36337E+00 -4.87387E+00 -7.45111E+00
  -2.56099E+00 -5.59889E+00 -1.04488E+01 -4.14888E+00 -1.08581E+01 -7.02354E+00 -8.11633E+00 -1.00883E+01 -1.00651E+01 -1.14045E+01
  -1.38516E+01 -1.08335E+01 -9.59870E+00 -1.96091E+01 -1.70681E+01 -1.54538E+01 -2.28905E+01 -1.49996E+01 -1.11548E+01 -1.53202E+01
  -1.37874E+01 -1.53805E+01 -1.18897E+01 -8.05420E+00 -9.53541E+00 -8.81749E+00 -7.96679E+00 -3.74636E+00 -1.46026E+01 -9.07644E+00
  -5.97388E+00 -8.78554E+00 -7.85614E+00 -6.35408E+00 -2.07407E+00 -7.62907E+00 -9.21517E+00 -1.18560E+01 -9.85414E+00 -7.92373E+00
  -6.12422E+00 -8.36554E-01 -5.07558E-01 -1.83451E+00  8.72276E+00 -2.46406E+00 -1.36755E+00 -3.39532E+00 -3.68842E+00 -3.44559E+00
  -1.09971E+00 -5.22027E+00 -3.74364E+00  5.06522E+00  4.57257E+00  1.15599E+01  8.44256E+00  4.50180E+00  3.87699E+00  3.03340E+00
  -4.22372E+00 -1.11790E+01 -1.05948E+01 -7.92567E+00 -7.09617E+00 -2.71808E+00  2.58921E+00  1.48671E+00  2.73855E-01  6.20772E+00
   2.76227E+00  6.24123E+00  1.09065E+00  3.29077E+00 -3.76559E+00  4.01550E+00  1.68681E+00  3.81722E+00  9.58615E+00  6.93064E+00
   2.82117E+00 -4.81114E+00 -2.54308E+00 -3.65145E+00  4.96874E+00  7.68800E+00  1.42987E+01  1.20779E+01  1.23532E+01  1.81987E+01
   1.47783E+01  2.09863E+01  2.05707E+01  2.36840E+01  2.73810E+01  2.66940E+01  2.42043E+01  4.45293E+01  6.53015E+01  8.84811E+01
   9.21646E+01  8.75206E+01  6.47384E+01  4.87683E+01  2.81375E+01  2.08766E+01  1.03549E+01  1.48171E+01  8.70026E+00  1.28310E+01
   2.76347E+00  3.74660E+00  6.07902E+00  9.34592E+00  5.95757E+00 -2.60266E+00 -6.91468E-01  1.65637E+00 -2.57714E+00  1.03240E+01
   4.50364E+00  1.88078E-01  9.54411E+00 -1.78782E+00  2.83695E+00  4.86358E+00 -9.63668E-01  3.61323E+00  3.95914E+00  5.12737E+00
   2.59522E+00  2.29579E+00 -6.95902E-02  6.70888E-01 -3.19165E+00  4.07539E+00 -1.60237E+00 -1.21371E+00  6.86491E+00  8.24220E+00
   2.34155E+00  8.40025E+00  6.93193E+00  1.07084E+01  2.82782E+00  6.96136E+00  1.02330E+01  7.90072E+00  1.66209E+01  1.42584E+01
   1.30911E+01  1.06147E+01  1.53233E+01  1.01351E+01  1.01957E+01  1.48943E+01  1.38419E+01  7.52171E+00  8.45546E+00  9.42630E+00
   7.99289E+00  1.57608E+01  5.27226E+00  7.09392E+00  6.95302E+00  1.92570E+01  1.34477E+01  1.40313E+01  1.29312E+01  1.33794E+01
   1.14153E+01  7.37698E+00  1.68379E+01  1.37597E+01  1.34965E+01  1.67487E+01  1.05024E+01  1.26617E+01  1.78033E+01  2.10128E+01
   1.77074E+01  1.54208E+01  1.97923E+01  1.82300E+01  1.74952E+01  2.37192E+01  2.77080E+01  1.54573E+01  2.17077E+01  1.49153E+01
   1.79173E+01  9.52570E+00  1.43245E+01  1.87701E+01  6.83112E+00  1.14442E+01  1.00386E+01  1.05234E+01  9.10394E+00  7.94044E+00
   1.31098E+01  7.65653E+00  9.88189E+00  1.12560E+01  1.57906E+01  1.28327E+01  8.86173E+00  1.13601E+01  1.22242E+01  1.68750E+01
   1.18715E+01  1.22117E+01  1.25332E+01  8.49575E+00  8.53415E+00  7.76996E+00  1.60935E+01  1.63920E+01  1.24192E+01  8.75847E+00
   1.45632E+01  8.83515E+00  7.58208E+00  1.39647E+01  8.85989E+00  7.89264E+00  7.95690E+00  4.20492E+00  9.60424E+00  8.18429E+00
   2.58134E+00  3.52074E+00  9.41702E+00  1.11651E+01  7.18017E+00  6.88740E+00  3.20676E+00  1.16575E+01  1.18733E+01  1.43576E+01
   5.25945E+00  1.23715E+01  1.16048E+01  7.09997E+00  1.52739E+01  1.07108E+01  1.04945E+01  9.95803E+00  1.20225E+01  6.79789E+00
   1.12071E+01  1.15126E+01  9.34874E+00  1.37165E+01  9.58213E+00  1.57482E+00 -2.48401E+00 -7.42148E-01  4.81072E+00 -7.26510E+00
  -9.13370E-01  2.34770E+00 -8.72304E+00 -5.08856E+00 -9.00298E+00 -5.78815E+00 -6.72147E-01 -8.68715E+00 -8.40447E+00 -3.69780E+00
  -3.69415E+00 -4.76448E+00 -6.70308E+00 -5.94077E+00 -9.74416E+00 -7.33398E+00 -7.99990E+00  1.82962E+00 -9.22338E+00 -4.48447E+00
  -9.26052E+00 -3.88130E+00 -1.53025E+00 -5.37665E+00 -1.09069E+01 -6.69840E+00 -8.89065E+00 -8.31255E+00 -1.08443E+01 -4.79919E+00
  -5.83438E+00 -3.04831E+00 -6.56267E+00 -7.62430E+00 -5.90672E+00 -9.12928E+00 -2.36405E+00 -6.08820E+00  4.11294E+00 -6.99515E+00
  -5.15894E+00 -4.09150E-01 -3.64054E+00 -1.32670E+01 -1.03809E+01 -6.90969E+00 -9.06562E-01 -4.95780E+00 -4.84523E+00 -8.64219E+00
  -8.57912E+00 -8.13337E+00 -5.82173E+00 -6.83876E+00 -9.44642E+00 -8.02612E+00 -4.12320E+00 -7.88794E+00 -9.43494E+00 -9.70617E+00
  -7.33406E+00 -6.42533E+00 -6.18471E+00 -8.15847E+00 -6.62284E+00 -1.97571E+00 -6.64679E+00 -5.99650E+00 -5.99529E+00 -8.62413E+00
  -7.73076E+00 -7.30582E+00 -6.45790E+00 -8.80595E+00 -3.42570E+00 -6.00270E+00 -9.49947E+00 -4.09665E+00
 NY points of the fit to the data follow
  -8.08771E+00 -8.23599E+00 -8.16464E+00 -7.83806E+00 -7.57320E+00 -6.74389E+00 -3.76087E+00  1.00281E+00  6.70664E+00  1.12343E+01
   1.28646E+01  1.13942E+01  7.96026E+00  4.06658E+00  9.05577E-01 -1.47699E+00 -3.33708E+00 -4.59950E+00 -5.49167E+00 -5.84810E+00
  -5.84594E+00 -5.65652E+00 -5.55279E+00 -5.46875E+00 -5.71344E+00 -6.53817E+00 -7.01860E+00 -6.58394E+00 -5.21088E+00 -3.17755E+00
  -1.08862E+00  5.63584E-01  1.24349E+00  7.16196E-01 -5.84798E-01 -2.42825E+00 -4.54710E+00 -6.24349E+00 -7.14207E+00 -7.12722E+00
  -6.61852E+00 -6.16762E+00 -5.64185E+00 -4.45463E+00 -2.37751E+00  3.69743E-02  1.79232E+00  2.07508E+00  8.28846E-01 -1.30852E+00
  -3.47031E+00 -5.08322E+00 -6.00616E+00 -6.46718E+00 -6.67360E+00 -6.54583E+00 -6.08337E+00 -5.29670E+00 -4.42523E+00 -3.87631E+00
  -3.92281E+00 -4.58347E+00 -5.60584E+00 -6.48966E+00 -7.01303E+00 -7.09775E+00 -6.90739E+00 -6.61992E+00 -6.22944E+00 -5.80216E+00
  -5.49306E+00 -5.28994E+00 -5.07053E+00 -4.85610E+00 -4.71189E+00 -4.77020E+00 -5.07640E+00 -5.62212E+00 -6.21405E+00 -6.62310E+00
  -6.77445E+00 -6.78067E+00 -6.56634E+00 -5.42106E+00 -3.81294E+00 -2.56679E+00 -2.24502E+00 -2.97755E+00 -4.32508E+00 -5.58906E+00
  -6.43550E+00 -6.85306E+00 -7.00527E+00 -7.21622E+00 -7.38108E+00 -7.44670E+00 -7.49802E+00 -7.86308E+00 -5.95751E+00  4.71388E+00
   2.31763E+01  4.21750E+01  5.40775E+01  5.45538E+01  4.49901E+01  3.09457E+01  1.77300E+01  8.37220E+00  2.50775E+00 -1.50517E+00
  -3.52913E+00 -4.28025E+00 -4.61358E+00 -4.79026E+00 -4.90009E+00 -4.95758E+00 -4.99069E+00 -5.00734E+00 -4.99486E+00 -4.93391E+00
  -4.80332E+00 -4.68150E+00 -4.63401E+00 -2.46175E-01  1.08685E+01  2.42905E+01  3.46300E+01  3.78664E+01  3.33999E+01  2.45914E+01
   1.55527E+01  8.72533E+00  4.52589E+00  1.30583E+00 -1.18063E+00 -2.60500E+00 -3.47620E+00 -3.82628E+00 -3.68616E+00 -3.33347E+00
  -3.03096E+00 -2.89283E+00 -2.92522E+00 -3.07775E+00 -3.29841E+00 -3.56392E+00 -3.86147E+00 -4.17709E+00 -4.48519E+00 -4.74589E+00
  -5.00475E+00 -5.29727E+00 -5.58815E+00 -5.80227E+00 -5.87513E+00 -5.78046E+00 -5.61205E+00 -5.74463E+00 -6.41722E+00 -7.40062E+00
  -8.28321E+00 -8.48361E+00 -7.91792E+00 -7.09473E+00 -6.52839E+00 -6.52314E+00 -7.06445E+00 -7.77396E+00 -8.34702E+00 -8.67281E+00
  -8.76035E+00 -8.83024E+00 -9.14847E+00 -9.92002E+00 -1.06966E+01 -1.09865E+01 -1.06005E+01 -9.93824E+00 -9.60099E+00 -9.71443E+00
  -9.95791E+00 -9.97989E+00 -9.63262E+00 -9.30582E+00 -9.36988E+00 -9.39700E+00 -8.98516E+00 -7.89342E+00 -6.26819E+00 -4.74485E+00
  -3.84718E+00 -3.68427E+00 -4.12748E+00 -4.63731E+00 -5.09328E+00 -5.51986E+00 -5.74686E+00 -5.66014E+00 -5.24881E+00 -4.59369E+00
  -3.55737E+00 -2.21837E+00 -9.02537E-01 -4.93603E-02 -8.04773E-02 -1.24246E+00 -3.60733E+00 -6.32699E+00 -8.40694E+00 -9.56957E+00
  -9.82209E+00 -9.00072E+00 -6.69695E+00 -2.80475E+00  1.34202E+00  4.29173E+00  5.16126E+00  3.77285E+00  6.53543E-01 -3.58573E+00
  -7.88905E+00 -1.06239E+01 -1.10116E+01 -9.05032E+00 -5.45871E+00 -1.63297E+00  1.47929E+00  3.38547E+00  4.03707E+00  3.89174E+00
   3.39683E+00  2.84876E+00  2.56782E+00  2.84902E+00  3.73905E+00  5.03132E+00  6.41848E+00  7.54599E+00  8.00358E+00  7.52728E+00
   6.45388E+00  5.54834E+00  5.49360E+00  6.37024E+00  7.94462E+00  9.76652E+00  1.13570E+01  1.24037E+01  1.28579E+01  1.30019E+01
   1.31410E+01  1.38614E+01  1.65847E+01  2.08492E+01  2.47959E+01  2.64002E+01  3.01125E+01  4.52734E+01  6.70057E+01  8.57201E+01
   9.31144E+01  8.58608E+01  6.79417E+01  4.77700E+01  3.10897E+01  2.03716E+01  1.35298E+01  8.54366E+00  6.31269E+00  5.12739E+00
   4.27814E+00  3.71683E+00  3.41050E+00  3.17779E+00  2.90399E+00  2.53844E+00  2.09572E+00  1.60566E+00  1.13129E+00  7.29552E-01
   4.22698E-01  2.11943E-01  8.95990E-02  2.34618E-02 -1.83639E-02 -4.59192E-02 -5.39572E-02 -2.40409E-02  7.22475E-02  2.56071E-01
   5.37611E-01  9.08190E-01  1.34407E+00  1.82774E+00  2.34951E+00  2.89723E+00  3.47462E+00  4.08734E+00  4.73495E+00  5.41741E+00
   6.12388E+00  6.83375E+00  7.52444E+00  8.17432E+00  8.76719E+00  9.29270E+00  9.74045E+00  1.01063E+01  1.03886E+01  1.05874E+01
   1.07057E+01  1.07506E+01  1.07325E+01  1.06648E+01  1.05626E+01  1.04427E+01  1.03222E+01  1.02186E+01  1.01485E+01  1.01270E+01
   1.01670E+01  1.02800E+01  1.04849E+01  1.08516E+01  1.13284E+01  1.17436E+01  1.20136E+01  1.21482E+01  1.22376E+01  1.23943E+01
   1.26400E+01  1.30143E+01  1.36167E+01  1.43943E+01  1.52523E+01  1.60493E+01  1.66405E+01  1.69960E+01  1.71696E+01  1.72364E+01
   1.72652E+01  1.72665E+01  1.72484E+01  1.73129E+01  1.74277E+01  1.73910E+01  1.71000E+01  1.65665E+01  1.59031E+01  1.52591E+01
   1.46985E+01  1.43464E+01  1.43007E+01  1.44684E+01  1.47222E+01  1.49136E+01  1.49026E+01  1.46903E+01  1.43480E+01  1.39577E+01
   1.35743E+01  1.31820E+01  1.27823E+01  1.23869E+01  1.19814E+01  1.15597E+01  1.11212E+01  1.06679E+01  1.02035E+01  9.73292E+00
   9.26193E+00  8.79715E+00  8.34569E+00  7.91530E+00  7.51363E+00  7.14829E+00  6.82630E+00  6.55446E+00  6.33887E+00  6.18512E+00
   6.09761E+00  6.07975E+00  6.13350E+00  6.25985E+00  6.45826E+00  6.72688E+00  7.06187E+00  7.45778E+00  7.90717E+00  8.40112E+00
   8.92885E+00  9.47811E+00  1.00349E+01  1.05841E+01  1.11099E+01  1.15963E+01  1.20275E+01  1.23885E+01  1.26654E+01  1.28463E+01
   1.29217E+01  1.28851E+01  1.27331E+01  1.24654E+01  1.20848E+01  1.15974E+01  1.10121E+01  1.03404E+01  9.59511E+00  8.79079E+00
   7.94224E+00  7.06466E+00  6.17268E+00  5.28018E+00  4.39940E+00  3.54110E+00  2.71411E+00  1.92569E+00  1.18117E+00  4.84243E-01
  -1.63233E-01 -7.60626E-01 -1.30857E+00 -1.80834E+00 -2.26210E+00 -2.67245E+00 -3.04255E+00 -3.37555E+00 -3.67473E+00 -3.94304E+00
  -4.18356E+00 -4.39909E+00 -4.59244E+00 -4.76599E+00 -4.92195E+00 -5.06212E+00 -5.18834E+00 -5.30214E+00 -5.40507E+00 -5.49822E+00
  -5.58269E+00 -5.65924E+00 -5.72882E+00 -5.79215E+00 -5.85001E+00 -5.90280E+00 -5.95104E+00 -5.99505E+00 -6.03536E+00 -6.07229E+00
  -6.10626E+00 -6.13736E+00 -6.16585E+00 -6.19188E+00 -6.21581E+00 -6.23777E+00 -6.25798E+00 -6.27640E+00 -6.29323E+00 -6.30854E+00
  -6.32261E+00 -6.33546E+00 -6.34718E+00 -6.35770E+00 -6.36719E+00 -6.37570E+00 -6.38344E+00 -6.39036E+00 -6.39651E+00 -6.40180E+00
  -6.40643E+00 -6.41039E+00 -6.41385E+00 -6.41669E+00 -6.41895E+00 -6.42058E+00 -6.42176E+00 -6.42247E+00 -6.42284E+00 -6.42270E+00
  -6.42211E+00 -6.42103E+00 -6.41965E+00 -6.41791E+00 -6.41588E+00 -6.41338E+00 -6.41052E+00 -6.40726E+00 -6.40376E+00 -6.39995E+00
  -6.39583E+00 -6.39125E+00 -6.38634E+00 -6.38105E+00 -6.37553E+00 -6.36963E+00 -6.36334E+00 -6.35653E+00
 NY background values follow
    -8.225E+00   -8.220E+00   -8.216E+00   -8.211E+00   -8.207E+00   -8.202E+00   -8.198E+00   -8.193E+00   -8.189E+00   -8.184E+00
    -8.180E+00   -8.175E+00   -8.171E+00   -8.166E+00   -8.162E+00   -8.157E+00   -8.153E+00   -8.148E+00   -8.144E+00   -8.139E+00
    -8.135E+00   -8.130E+00   -8.126E+00   -8.121E+00   -8.116E+00   -8.112E+00   -8.107E+00   -8.103E+00   -8.098E+00   -8.094E+00
    -8.089E+00   -8.084E+00   -8.080E+00   -8.075E+00   -8.070E+00   -8.066E+00   -8.061E+00   -8.057E+00   -8.052E+00   -8.047E+00
    -8.043E+00   -8.038E+00   -8.033E+00   -8.029E+00   -8.024E+00   -8.019E+00   -8.015E+00   -8.010E+00   -8.005E+00   -8.001E+00
    -7.996E+00   -7.991E+00   -7.986E+00   -7.982E+00   -7.977E+00   -7.972E+00   -7.968E+00   -7.963E+00   -7.958E+00   -7.953E+00
    -7.949E+00   -7.944E+00   -7.939E+00   -7.934E+00   -7.929E+00   -7.925E+00   -7.920E+00   -7.915E+00   -7.910E+00   -7.906E+00
    -7.901E+00   -7.896E+00   -7.891E+00   -7.886E+00   -7.881E+00   -7.877E+00   -7.872E+00   -7.867E+00   -7.862E+00   -7.857E+00
    -7.852E+00   -7.848E+00   -7.843E+00   -7.838E+00   -7.833E+00   -7.828E+00   -7.823E+00   -7.818E+00   -7.813E+00   -7.809E+00
    -7.804E+00   -7.799E+00   -7.794E+00   -7.789E+00   -7.784E+00   -7.779E+00   -7.774E+00   -7.769E+00   -7.764E+00   -7.759E+00
    -7.754E+00   -7.750E+00   -7.745E+00   -7.740E+00   -7.735E+00   -7.730E+00   -7.725E+00   -7.720E+00   -7.715E+00   -7.710E+00
    -7.705E+00   -7.700E+00   -7.695E+00   -7.690E+00   -7.685E+00   -7.680E+00   -7.675E+00   -7.670E+00   -7.665E+00   -7.660E+00
    -7.655E+00   -7.650E+00   -7.645E+00   -7.640E+00   -7.634E+00   -7.629E+00   -7.624E+00   -7.619E+00   -7.614E+00   -7.609E+00
    -7.604E+00   -7.599E+00   -7.594E+00   -7.589E+00   -7.584E+00   -7.579E+00   -7.574E+00   -7.568E+00   -7.563E+00   -7.558E+00
    -7.553E+00   -7.548E+00   -7.543E+00   -7.538E+00   -7.533E+00   -7.527E+00   -7.522E+00   -7.517E+00   -7.512E+00   -7.507E+00
    -7.502E+00   -7.496E+00   -7.491E+00   -7.486E+00   -7.481E+00   -7.476E+00   -7.471E+00   -7.465E+00   -7.460E+00   -7.455E+00
    -7.450E+00   -7.445E+00   -7.439E+00   -7.434E+00   -7.429E+00   -7.424E+00   -7.418E+00   -7.413E+00   -7.408E+00   -7.403E+00
    -7.397E+00   -7.392E+00   -7.387E+00   -7.382E+00   -7.376E+00   -7.371E+00   -7.366E+00   -7.361E+00   -7.355E+00   -7.350E+00
    -7.345E+00   -7.340E+00   -7.334E+00   -7.329E+00   -7.324E+00   -7.318E+00   -7.313E+00   -7.308E+00   -7.302E+00   -7.297E+00
    -7.292E+00   -7.286E+00   -7.281E+00   -7.276E+00   -7.270E+00   -7.265E+00   -7.260E+00   -7.254E+00   -7.249E+00   -7.244E+00
    -7.238E+00   -7.233E+00   -7.228E+00   -7.222E+00   -7.217E+00   -7.211E+00   -7.206E+00   -7.201E+00   -7.195E+00   -7.190E+00
    -7.184E+00   -7.179E+00   -7.174E+00   -7.168E+00   -7.163E+00   -7.157E+00   -7.152E+00   -7.147E+00   -7.141E+00   -7.136E+00
    -7.130E+00   -7.125E+00   -7.119E+00   -7.114E+00   -7.108E+00   -7.103E+00   -7.098E+00   -7.092E+00   -7.087E+00   -7.081E+00
    -7.076E+00   -7.070E+00   -7.065E+00   -7.059E+00   -7.054E+00   -7.048E+00   -7.043E+00   -7.037E+00   -7.032E+00   -7.026E+00
    -7.021E+00   -7.015E+00   -7.010E+00   -7.004E+00   -6.999E+00   -6.993E+00   -6.988E+00   -6.982E+00   -6.977E+00   -6.971E+00
    -6.965E+00   -6.960E+00   -6.954E+00   -6.949E+00   -6.943E+00   -6.938E+00   -6.932E+00   -6.927E+00   -6.921E+00   -6.915E+00
    -6.910E+00   -6.904E+00   -6.899E+00   -6.893E+00   -6.888E+00   -6.882E+00   -6.876E+00   -6.871E+00   -6.865E+00   -6.860E+00
    -6.854E+00   -6.848E+00   -6.843E+00   -6.837E+00   -6.832E+00   -6.826E+00   -6.820E+00   -6.815E+00   -6.809E+00   -6.803E+00
    -6.798E+00   -6.792E+00   -6.786E+00   -6.781E+00   -6.775E+00   -6.769E+00   -6.764E+00   -6.758E+00   -6.753E+00   -6.747E+00
    -6.741E+00   -6.736E+00   -6.730E+00   -6.724E+00   -6.718E+00   -6.713E+00   -6.707E+00   -6.701E+00   -6.696E+00   -6.690E+00
    -6.684E+00   -6.679E+00   -6.673E+00   -6.667E+00   -6.662E+00   -6.656E+00   -6.650E+00   -6.644E+00   -6.639E+00   -6.633E+00
    -6.627E+00   -6.621E+00   -6.616E+00   -6.610E+00   -6.604E+00   -6.599E+00   -6.593E+00   -6.587E+00   -6.581E+00   -6.576E+00
    -6.570E+00   -6.564E+00   -6.558E+00   -6.553E+00   -6.547E+00   -6.541E+00   -6.535E+00   -6.529E+00   -6.524E+00   -6.518E+00
    -6.512E+00   -6.506E+00   -6.501E+00   -6.495E+00   -6.489E+00   -6.483E+00   -6.477E+00   -6.472E+00   -6.466E+00   -6.460E+00
    -6.454E+00   -6.448E+00   -6.443E+00   -6.437E+00   -6.431E+00   -6.425E+00   -6.419E+00   -6.413E+00   -6.408E+00   -6.402E+00
    -6.396E+00   -6.390E+00   -6.384E+00   -6.378E+00   -6.373E+00   -6.367E+00   -6.361E+00   -6.355E+00   -6.349E+00   -6.343E+00
    -6.337E+00   -6.332E+00   -6.326E+00   -6.320E+00   -6.314E+00   -6.308E+00   -6.302E+00   -6.296E+00   -6.291E+00   -6.285E+00
    -6.279E+00   -6.273E+00   -6.267E+00   -6.261E+00   -6.255E+00   -6.249E+00   -6.243E+00   -6.238E+00   -6.232E+00   -6.226E+00
    -6.220E+00   -6.214E+00   -6.208E+00   -6.202E+00   -6.196E+00   -6.190E+00   -6.184E+00   -6.178E+00   -6.172E+00   -6.167E+00
    -6.161E+00   -6.155E+00   -6.149E+00   -6.143E+00   -6.137E+00   -6.131E+00   -6.125E+00   -6.119E+00   -6.113E+00   -6.107E+00
    -6.101E+00   -6.095E+00   -6.089E+00   -6.083E+00   -6.077E+00   -6.071E+00   -6.066E+00   -6.060E+00   -6.054E+00   -6.048E+00
    -6.042E+00   -6.036E+00   -6.030E+00   -6.024E+00   -6.018E+00   -6.012E+00   -6.006E+00   -6.000E+00   -5.994E+00   -5.988E+00
    -5.982E+00   -5.976E+00   -5.970E+00   -5.964E+00   -5.958E+00   -5.952E+00   -5.946E+00   -5.940E+00   -5.934E+00   -5.928E+00
    -5.922E+00   -5.916E+00   -5.910E+00   -5.904E+00   -5.898E+00   -5.892E+00   -5.886E+00   -5.880E+00   -5.874E+00   -5.868E+00
    -5.862E+00   -5.856E+00   -5.850E+00   -5.844E+00   -5.838E+00   -5.832E+00   -5.826E+00   -5.819E+00   -5.813E+00   -5.807E+00
    -5.801E+00   -5.795E+00   -5.789E+00   -5.783E+00   -5.777E+00   -5.771E+00   -5.765E+00   -5.759E+00   -5.753E+00   -5.747E+00
    -5.741E+00   -5.735E+00   -5.729E+00   -5.723E+00   -5.717E+00   -5.711E+00   -5.704E+00   -5.698E+00   -5.692E+00   -5.686E+00
    -5.680E+00   -5.674E+00   -5.668E+00   -5.662E+00   -5.656E+00   -5.650E+00   -5.644E+00   -5.638E+00   -5.632E+00   -5.625E+00
    -5.619E+00   -5.613E+00   -5.607E+00   -5.601E+00   -5.595E+00   -5.589E+00   -5.583E+00   -5.577E+00   -5.571E+00   -5.564E+00
    -5.558E+00   -5.552E+00   -5.546E+00   -5.540E+00   -5.534E+00   -5.528E+00   -5.522E+00   -5.516E+00
 Ala      Conc. = 4.64E+01
