 LCModel (Version 6.3-1L) Copyright: S.W. Provencher.          Ref.: Magn. Reson. Med. 30:672-679 (1993).                
 Slice#3 Row#12 Col#8  PD_24_press_1_raw_act
 36 lines in following concentration table = NCONC+1
    Conc.  %SD /Cr+PCr  Metabolite                                         
  151.397  67%   0.115 Ala                                                 
   95.072 182% 7.2E-02 Asp                                                 
  296.029  68%   0.224 Cr                                                  
 1.03E+03  20%   0.776 PCr                                                 
    0.000 999%   0.000 GABA                                                
    0.000 999%   0.000 Glc                                                 
  323.531  69%   0.245 Gln                                                 
 1.15E+03  22%   0.868 Glu                                                 
  427.992   4%   0.324 GPC                                                 
    0.000 999%   0.000 PCh                                                 
  502.352  12%   0.380 GSH                                                 
 1.28E+03  16%   0.967 Ins                                                 
    0.000 999%   0.000 Lac                                                 
 1.42E+03   8%   1.072 NAA                                                 
  278.892  41%   0.211 NAAG                                                
   65.930  31% 5.0E-02 Scyllo                                              
    0.000 999%   0.000 Tau                                                 
    0.000 999%   0.000 -CrCH2                                              
  427.992   4%   0.324 GPC+PCh                                             
 1.70E+03   4%   1.282 NAA+NAAG                                            
 1.32E+03   3%   1.000 Cr+PCr                                              
 1.47E+03  27%   1.112 Glu+Gln                                             
  868.009  55%   0.656 Lip13a                                              
  164.422 173%   0.124 Lip13b                                              
  184.705  91%   0.140 Lip09                                               
  534.906  33%   0.405 MM09                                                
   90.229 138% 6.8E-02 Lip20                                               
 1.06E+03  24%   0.798 MM20                                                
  175.915  59%   0.133 MM12                                                
  307.548  69%   0.233 MM14                                                
  416.710  31%   0.315 MM17                                                
 1.03E+03  29%   0.781 Lip13a+Lip13b                                       
 1.52E+03  15%   1.146 MM14+Lip13a+Lip13b+MM12                             
  719.611  16%   0.544 MM09+Lip09                                          
 1.15E+03  22%   0.866 MM20+Lip20                                          
   6 lines in following misc. output table
  FWHM = 0.061 ppm    S/N =   9                                            
  Data shift = 0.031 ppm                                                   
  Ph:  -1 deg       0.8 deg/ppm                                            
  alphaB,S = 1.8E+00,   1.0E+02                                            
   14 spline knots.   Ns = 8(1)                                            
  (14) 4 infls.   (15) 1 extrs.                                            
  498 points on ppm-axis = NY
      4.000000     3.992357     3.984714     3.977070     3.969427     3.961784     3.954141     3.946497     3.938854     3.931211
      3.923568     3.915925     3.908281     3.900638     3.892995     3.885352     3.877708     3.870065     3.862422     3.854779
      3.847136     3.839492     3.831849     3.824206     3.816563     3.808919     3.801276     3.793633     3.785990     3.778347
      3.770703     3.763060     3.755417     3.747774     3.740130     3.732487     3.724844     3.717201     3.709558     3.701914
      3.694271     3.686628     3.678985     3.671341     3.663698     3.656055     3.648412     3.640769     3.633125     3.625482
      3.617839     3.610196     3.602552     3.594909     3.587266     3.579623     3.571980     3.564336     3.556693     3.549050
      3.541407     3.533763     3.526120     3.518477     3.510834     3.503191     3.495547     3.487904     3.480261     3.472618
      3.464974     3.457331     3.449688     3.442045     3.434402     3.426758     3.419115     3.411472     3.403829     3.396185
      3.388542     3.380899     3.373256     3.365613     3.357969     3.350326     3.342683     3.335040     3.327396     3.319753
      3.312110     3.304467     3.296824     3.289180     3.281537     3.273894     3.266251     3.258607     3.250964     3.243321
      3.235678     3.228034     3.220391     3.212748     3.205105     3.197462     3.189818     3.182175     3.174532     3.166889
      3.159245     3.151602     3.143959     3.136316     3.128673     3.121029     3.113386     3.105743     3.098100     3.090456
      3.082813     3.075170     3.067527     3.059884     3.052240     3.044597     3.036954     3.029311     3.021667     3.014024
      3.006381     2.998738     2.991095     2.983451     2.975808     2.968165     2.960522     2.952878     2.945235     2.937592
      2.929949     2.922306     2.914662     2.907019     2.899376     2.891733     2.884089     2.876446     2.868803     2.861160
      2.853517     2.845873     2.838230     2.830587     2.822944     2.815300     2.807657     2.800014     2.792371     2.784728
      2.777084     2.769441     2.761798     2.754155     2.746511     2.738868     2.731225     2.723582     2.715939     2.708295
      2.700652     2.693009     2.685366     2.677722     2.670079     2.662436     2.654793     2.647150     2.639506     2.631863
      2.624220     2.616577     2.608933     2.601290     2.593647     2.586004     2.578361     2.570717     2.563074     2.555431
      2.547788     2.540144     2.532501     2.524858     2.517215     2.509572     2.501928     2.494285     2.486642     2.478999
      2.471355     2.463712     2.456069     2.448426     2.440783     2.433139     2.425496     2.417853     2.410210     2.402566
      2.394923     2.387280     2.379637     2.371994     2.364350     2.356707     2.349064     2.341421     2.333777     2.326134
      2.318491     2.310848     2.303205     2.295561     2.287918     2.280275     2.272632     2.264988     2.257345     2.249702
      2.242059     2.234416     2.226772     2.219129     2.211486     2.203843     2.196199     2.188556     2.180913     2.173270
      2.165627     2.157983     2.150340     2.142697     2.135054     2.127410     2.119767     2.112124     2.104481     2.096838
      2.089194     2.081551     2.073908     2.066265     2.058621     2.050978     2.043335     2.035692     2.028049     2.020405
      2.012762     2.005119     1.997476     1.989833     1.982190     1.974546     1.966903     1.959260     1.951617     1.943974
      1.936331     1.928688     1.921045     1.913402     1.905759     1.898115     1.890472     1.882829     1.875186     1.867543
      1.859900     1.852257     1.844614     1.836971     1.829327     1.821684     1.814041     1.806398     1.798755     1.791112
      1.783469     1.775826     1.768183     1.760540     1.752896     1.745253     1.737610     1.729967     1.722324     1.714681
      1.707038     1.699395     1.691752     1.684108     1.676465     1.668822     1.661179     1.653536     1.645893     1.638250
      1.630607     1.622964     1.615321     1.607677     1.600034     1.592391     1.584748     1.577105     1.569462     1.561819
      1.554176     1.546533     1.538890     1.531246     1.523603     1.515960     1.508317     1.500674     1.493031     1.485388
      1.477745     1.470102     1.462458     1.454815     1.447172     1.439529     1.431886     1.424243     1.416600     1.408957
      1.401314     1.393671     1.386027     1.378384     1.370741     1.363098     1.355455     1.347812     1.340169     1.332526
      1.324883     1.317240     1.309596     1.301953     1.294310     1.286667     1.279024     1.271381     1.263738     1.256095
      1.248452     1.240808     1.233165     1.225522     1.217879     1.210236     1.202593     1.194950     1.187307     1.179664
      1.172021     1.164377     1.156734     1.149091     1.141448     1.133805     1.126162     1.118519     1.110876     1.103233
      1.095590     1.087946     1.080303     1.072660     1.065017     1.057374     1.049731     1.042088     1.034445     1.026802
      1.019158     1.011515     1.003872     0.996229     0.988586     0.980943     0.973300     0.965657     0.958014     0.950371
      0.942727     0.935084     0.927441     0.919798     0.912155     0.904512     0.896869     0.889226     0.881583     0.873940
      0.866296     0.858653     0.851010     0.843367     0.835724     0.828081     0.820438     0.812795     0.805152     0.797508
      0.789865     0.782222     0.774579     0.766936     0.759293     0.751650     0.744007     0.736364     0.728721     0.721077
      0.713434     0.705791     0.698148     0.690505     0.682862     0.675219     0.667576     0.659933     0.652290     0.644646
      0.637003     0.629360     0.621717     0.614074     0.606431     0.598788     0.591145     0.583502     0.575858     0.568215
      0.560572     0.552929     0.545286     0.537643     0.530000     0.522357     0.514714     0.507071     0.499427     0.491784
      0.484141     0.476498     0.468855     0.461212     0.453569     0.445925     0.438282     0.430639     0.422996     0.415353
      0.407710     0.400067     0.392424     0.384780     0.377137     0.369494     0.361851     0.354208     0.346565     0.338922
      0.331278     0.323635     0.315992     0.308349     0.300706     0.293063     0.285420     0.277777     0.270133     0.262490
      0.254847     0.247204     0.239561     0.231918     0.224275     0.216631     0.208988     0.201345
 NY phased data points follow
  -3.10126E+00  3.75077E-02 -3.27023E+00  1.74981E+00 -3.35396E-01  8.27007E+00  7.76919E+00  1.90207E+01  1.71598E+01  2.48553E+01
   2.68165E+01  2.79336E+01  2.34147E+01  2.66946E+01  1.79580E+01  2.00816E+01  1.35247E+01  1.11218E+01  4.64645E+00  7.29154E+00
   3.23489E+00  5.48809E+00  2.05420E+00  3.87109E+00  1.09779E+00  6.18482E+00  4.79817E+00  6.41042E+00  4.78294E+00  7.21956E+00
   5.37054E+00  1.06071E+01  6.83983E+00  7.72993E+00  3.79945E+00  9.16151E+00  6.67289E+00  9.15293E+00  1.84176E+00  4.66247E+00
   1.75467E-01  3.38005E+00  4.56363E+00  2.47448E+00  2.65621E+00  9.30593E+00  4.02441E+00  7.48493E+00  6.89245E+00  1.05371E+01
   3.76440E+00  4.40699E+00  4.78345E+00  5.42725E+00  1.53005E-01  5.94785E+00  1.82469E+00  3.56397E+00  1.61605E+00  2.14790E+00
   3.38147E-01  1.39497E+00 -5.20820E+00  7.57849E-02 -3.39936E+00 -3.86468E+00 -4.42454E+00 -3.49214E+00 -6.83960E+00 -2.70471E-01
  -7.49302E+00 -3.67526E+00 -4.40551E+00 -3.23819E+00 -4.97686E+00 -1.50534E-01 -4.26979E+00 -2.13590E+00 -3.08898E+00  4.22858E-01
  -4.49464E+00 -4.04447E+00 -1.97285E+00 -4.80796E+00 -4.31457E+00 -2.30802E+00 -1.76960E-01 -2.29211E+00 -1.67959E+00 -3.78940E+00
  -3.76687E+00 -6.63303E-01 -6.21883E+00 -3.33303E-01 -2.99273E+00 -1.93168E+00 -2.66854E+00  2.72595E+00  3.96930E-01  5.70567E+00
   1.29342E+01  2.15043E+01  2.55214E+01  2.69282E+01  2.58815E+01  2.81846E+01  1.99231E+01  1.98613E+01  1.44297E+01  1.01841E+01
   7.02902E+00  2.32088E+00 -7.83017E-02  1.25262E+00 -2.67961E+00 -3.76592E+00 -1.26625E+00 -3.35863E+00 -4.63699E+00 -9.22523E-01
  -5.14292E+00 -3.66965E+00  1.11048E+00  6.21346E+00  9.55831E+00  2.15057E+01  2.50579E+01  2.90706E+01  3.01944E+01  2.82165E+01
   2.59047E+01  2.43749E+01  1.50609E+01  1.71607E+01  1.22502E+01  8.41223E+00  2.63722E+00 -2.03756E+00  3.12877E+00  4.15755E-02
  -1.11240E+00 -5.81214E-01 -1.42105E+00 -3.31656E+00 -6.91601E+00 -5.18611E+00 -4.97836E+00 -4.83990E+00 -5.45379E+00 -7.14040E+00
  -3.79856E+00 -3.82544E+00 -8.02280E+00 -6.76640E+00 -1.01476E+01 -4.33295E+00 -9.31697E+00 -8.62962E+00 -8.07830E+00 -4.85964E+00
  -1.09904E+01 -7.92723E+00 -7.10651E+00 -8.70451E+00 -7.68833E+00 -9.61219E+00 -9.61009E+00 -7.34222E+00 -9.05703E+00 -9.61438E+00
  -1.01729E+01 -8.06970E+00 -1.00359E+01 -1.11935E+01 -1.16961E+01 -9.83370E+00 -1.29178E+01 -9.44601E+00 -1.14350E+01 -1.30296E+01
  -1.34385E+01 -1.16755E+01 -1.31678E+01 -1.44149E+01 -1.20464E+01 -1.37297E+01 -1.27742E+01 -7.67474E+00 -6.86659E+00 -5.13863E+00
  -6.28381E+00 -2.55723E+00  2.10297E-01  4.89423E+00 -4.00761E+00  2.80631E+00 -2.20270E+00 -3.42375E+00 -5.06304E+00 -2.79145E+00
  -1.26619E+00 -7.57311E+00 -5.81947E+00 -2.01580E+00 -4.79332E+00 -2.43191E+00 -5.76622E+00 -3.61906E+00 -8.65884E+00 -4.73301E+00
  -4.91240E+00 -4.47281E+00 -5.69016E+00 -1.25792E+00 -3.04642E+00 -1.20328E+00  1.76440E-01 -2.29523E+00 -3.68792E+00 -3.54891E+00
  -5.66917E+00 -7.15623E+00 -4.76707E+00 -4.32436E+00 -6.61271E+00 -2.11769E+00 -3.72212E-01 -2.26309E+00 -1.28481E+00  8.91748E-01
  -2.68281E+00  2.61326E-01  1.82667E-01  7.32118E-01  1.29428E+00  9.40067E-01  4.93238E-01 -2.87311E+00 -2.00283E+00 -1.36637E+00
  -5.42721E+00 -4.05593E+00 -3.83528E+00 -2.50655E+00 -2.58465E+00 -4.83902E+00 -8.19023E-01 -6.64001E-01  1.79440E+00 -4.06674E+00
   1.76935E-01  2.94724E+00  2.14372E+00  1.07079E+01  1.12719E+01  1.18864E+01  1.73154E+01  2.80391E+01  3.57495E+01  4.34953E+01
   4.18141E+01  4.40407E+01  3.45639E+01  3.17631E+01  2.84590E+01  2.02972E+01  1.31441E+01  9.76998E+00  8.50888E+00  3.10631E+00
   4.65601E+00  3.48398E+00  1.52575E+00  1.09418E+00 -2.41889E+00 -1.79347E+00 -1.90418E+00 -1.27602E+00 -4.58385E+00 -4.14640E+00
  -2.27978E+00 -2.19469E+00 -5.77539E+00 -3.67448E+00 -5.91189E+00 -5.05543E+00 -8.23669E+00 -4.08398E+00 -6.33774E+00 -1.45794E+00
  -3.72535E+00 -5.30521E+00 -3.22434E+00 -1.91071E+00 -6.20629E+00 -3.25735E+00 -4.63267E+00 -1.72803E+00 -4.87832E+00 -2.34746E+00
  -5.59873E-01 -3.46919E+00 -2.71529E+00 -1.04963E+00 -5.65417E+00  1.97825E-01 -6.41610E-01 -1.74926E+00 -3.50319E+00 -2.65790E-01
  -1.24807E+00 -1.44010E+00  1.08333E+00  1.39922E-01 -1.29037E+00  3.15876E-01 -4.69615E-01  7.77872E-01  2.72377E+00 -1.24460E+00
  -1.17838E+00 -1.19077E+00 -2.63368E+00  2.20953E+00  1.73671E+00 -1.45389E+00 -3.59655E+00 -5.94054E+00 -5.05352E+00  2.59101E+00
  -1.81391E+00 -1.92154E+00 -4.23371E+00 -3.04717E+00 -5.68405E-02 -3.27783E+00  2.78541E-01 -6.87371E-01  1.03344E+00 -4.11667E+00
  -8.57271E-01  1.81511E+00 -1.60906E+00  2.31745E+00 -3.90943E-02  5.92182E-01  1.92939E+00  6.84826E-01  3.70019E+00  8.07178E-01
   2.00204E+00  3.65124E+00  7.09555E+00  1.94901E+00  2.19541E+00  4.79246E+00  2.11404E+00  3.01834E+00  4.62767E+00  1.49176E+00
   1.85483E+00  2.41744E+00 -4.89090E-03  3.92195E+00  2.42905E+00  3.65635E-01  4.78401E-01  1.82345E+00  1.93657E+00 -6.42163E-01
   2.49496E+00  2.68709E+00  4.96033E-01 -1.33289E-01 -2.59227E+00  1.43846E-01 -2.69608E+00 -3.30638E+00 -1.40968E+00 -3.02568E+00
  -2.34401E+00 -6.29567E-01 -6.09449E-01 -1.23556E-01 -1.48107E+00 -1.56930E+00  1.80936E+00 -2.09117E-01 -2.04786E+00 -2.30115E-01
   4.94327E-01 -1.36582E+00 -3.07455E-01 -2.26331E+00 -4.97050E-01  3.79739E+00  1.82523E+00 -6.21391E-01  2.06647E+00 -1.67582E+00
   9.20119E-02  4.40162E-01  1.99545E+00  1.45238E-01  1.32000E+00  2.72126E+00  3.51755E+00  3.44998E+00 -2.31915E+00  1.98158E+00
  -4.68425E-01  4.89900E+00  2.77578E+00  1.47337E+00  1.07575E+00  2.57880E-01  7.46601E-01  1.53562E+00  1.21254E+00  1.46902E+00
   3.11055E+00 -1.30517E+00 -1.94792E+00  2.13941E+00 -2.90752E+00  1.16281E+00 -1.04335E-01 -4.58328E-01 -1.66366E+00  1.18303E-01
  -5.00930E+00 -9.24902E-01 -6.67533E-02 -1.61654E+00 -1.92738E+00  1.46174E-01 -2.36082E+00 -1.23959E+00 -1.98049E+00  5.26880E-01
  -6.06794E-01 -1.25428E+00 -3.82949E-01 -1.37402E+00 -1.19591E+00 -1.34668E+00  8.94839E-01 -8.86526E-01 -2.04801E+00 -1.98153E+00
  -4.37394E+00  7.46296E-01 -2.52116E+00 -8.45958E-01 -3.13613E-01  2.45211E+00  1.36477E+00 -1.21348E+00 -3.44098E+00 -2.52655E+00
  -3.16103E+00 -1.27063E+00 -2.37898E-01 -2.09645E+00 -1.42526E+00 -3.91951E+00 -1.47955E+00 -8.56418E-01 -1.70664E+00 -1.13932E+00
  -3.39671E+00 -4.22721E+00 -1.36417E+00  1.05218E+00  6.26347E-01 -2.37586E+00 -2.36481E+00 -4.66848E+00 -2.65254E+00 -3.03986E+00
  -5.45922E-01 -1.72757E+00 -8.13926E-01  5.46196E-01 -2.93212E+00 -3.10162E+00  3.04171E-01 -3.04392E-01 -2.60581E-01  2.12748E-01
  -2.21014E+00 -4.61209E+00 -3.34888E+00 -8.08451E-01 -2.73402E+00 -6.50583E-01  3.47691E-01  6.03960E-01
 NY points of the fit to the data follow
   1.46549E+00  1.01959E+00  1.05536E+00  1.82227E+00  3.09172E+00  5.18007E+00  8.74165E+00  1.36134E+01  1.85949E+01  2.23101E+01
   2.41169E+01  2.41361E+01  2.28179E+01  2.06859E+01  1.81704E+01  1.55167E+01  1.28662E+01  1.02804E+01  7.60405E+00  4.76438E+00
   2.56268E+00  1.55124E+00  1.24386E+00  1.11543E+00  1.02298E+00  1.33786E+00  2.49761E+00  4.39632E+00  6.45572E+00  8.18202E+00
   9.30915E+00  9.68675E+00  9.34432E+00  8.45754E+00  7.21871E+00  5.91661E+00  4.75756E+00  3.64674E+00  2.37995E+00  1.21362E+00
   7.59956E-01  8.36915E-01  1.30937E+00  2.42555E+00  4.08997E+00  5.69018E+00  6.63841E+00  6.82568E+00  6.35788E+00  5.40300E+00
   4.27609E+00  3.13578E+00  2.07444E+00  1.20476E+00  5.56918E-01 -4.04676E-03 -4.27536E-01 -4.40671E-01 -9.85914E-02  2.04358E-01
   2.17359E-01 -3.30325E-02 -4.50100E-01 -9.01426E-01 -1.27952E+00 -1.53022E+00 -1.63408E+00 -1.63796E+00 -1.59321E+00 -1.48110E+00
  -1.33438E+00 -1.20736E+00 -1.11571E+00 -1.10145E+00 -1.16592E+00 -1.30220E+00 -1.49832E+00 -1.70713E+00 -1.88560E+00 -2.00879E+00
  -2.13830E+00 -2.22076E+00 -2.12224E+00 -1.91866E+00 -1.82236E+00 -1.98243E+00 -2.35588E+00 -2.80395E+00 -3.20292E+00 -3.48085E+00
  -3.61749E+00 -3.63218E+00 -3.56949E+00 -3.49968E+00 -3.45037E+00 -3.09354E+00 -2.04336E+00 -3.83199E-01  2.33669E+00  7.13860E+00
   1.39551E+01  2.09186E+01  2.59005E+01  2.80777E+01  2.77707E+01  2.56259E+01  2.24114E+01  1.87691E+01  1.50273E+01  1.13872E+01
   7.87966E+00  4.19129E+00  1.46675E-01 -2.86850E+00 -3.83426E+00 -4.11283E+00 -4.22739E+00 -4.26152E+00 -4.17982E+00 -3.76409E+00
  -2.63727E+00 -8.35509E-01  1.76424E+00  6.05174E+00  1.25722E+01  2.02332E+01  2.68253E+01  3.07706E+01  3.19071E+01  3.08404E+01
   2.82295E+01  2.46439E+01  2.04738E+01  1.60094E+01  1.15282E+01  7.08366E+00  2.55401E+00 -1.39282E+00 -3.27893E+00 -3.56007E+00
  -3.48362E+00 -3.41427E+00 -3.42887E+00 -3.44825E+00 -3.39297E+00 -3.35916E+00 -3.42006E+00 -3.58680E+00 -3.87651E+00 -4.24834E+00
  -4.64197E+00 -5.01182E+00 -5.27661E+00 -5.46674E+00 -5.59270E+00 -5.67648E+00 -5.77815E+00 -5.95856E+00 -6.22278E+00 -6.47769E+00
  -6.62477E+00 -6.64136E+00 -6.59026E+00 -6.55951E+00 -6.61266E+00 -6.76450E+00 -6.97418E+00 -7.19854E+00 -7.39683E+00 -7.52729E+00
  -7.61608E+00 -7.79736E+00 -8.11947E+00 -8.51219E+00 -8.82462E+00 -8.92736E+00 -8.91276E+00 -8.92551E+00 -8.99744E+00 -9.08789E+00
  -9.14008E+00 -9.12758E+00 -9.07645E+00 -8.98173E+00 -8.75084E+00 -8.29965E+00 -7.64870E+00 -6.83112E+00 -5.87885E+00 -4.96615E+00
  -4.29874E+00 -3.99171E+00 -4.02204E+00 -4.31333E+00 -4.73708E+00 -5.12837E+00 -5.33413E+00 -5.34180E+00 -5.15419E+00 -4.76584E+00
  -4.20463E+00 -3.55387E+00 -2.97328E+00 -2.62602E+00 -2.62634E+00 -3.01567E+00 -3.72299E+00 -4.56955E+00 -5.36770E+00 -5.90511E+00
  -6.00225E+00 -5.52315E+00 -4.52751E+00 -3.38557E+00 -2.53734E+00 -2.21475E+00 -2.42325E+00 -3.19320E+00 -4.41774E+00 -5.80324E+00
  -7.01194E+00 -7.66061E+00 -7.65387E+00 -7.25517E+00 -6.66857E+00 -5.92734E+00 -4.97713E+00 -4.14777E+00 -3.59608E+00 -3.18418E+00
  -2.69978E+00 -2.14287E+00 -1.71804E+00 -1.42906E+00 -1.12971E+00 -9.13150E-01 -9.60990E-01 -1.26814E+00 -1.77581E+00 -2.37023E+00
  -2.85422E+00 -3.11982E+00 -3.14996E+00 -2.94044E+00 -2.56077E+00 -2.14036E+00 -1.83167E+00 -1.55320E+00 -1.06451E+00 -3.92842E-01
   4.51179E-01  1.81803E+00  4.24501E+00  7.54240E+00  1.09589E+01  1.49634E+01  2.08305E+01  2.84845E+01  3.58877E+01  4.07967E+01
   4.23938E+01  4.10752E+01  3.76107E+01  3.28543E+01  2.74754E+01  2.20136E+01  1.71399E+01  1.27477E+01  8.17174E+00  3.24256E+00
  -3.08911E-01 -1.47513E+00 -1.89182E+00 -2.13313E+00 -2.29025E+00 -2.43691E+00 -2.59569E+00 -2.74474E+00 -2.88210E+00 -2.99973E+00
  -3.09503E+00 -3.18068E+00 -3.27139E+00 -3.35968E+00 -3.42926E+00 -3.47767E+00 -3.51187E+00 -3.53872E+00 -3.54990E+00 -3.53563E+00
  -3.50137E+00 -3.45628E+00 -3.40024E+00 -3.32993E+00 -3.24526E+00 -3.15154E+00 -3.04697E+00 -2.92852E+00 -2.79511E+00 -2.64702E+00
  -2.48847E+00 -2.32543E+00 -2.15757E+00 -1.98755E+00 -1.82011E+00 -1.65987E+00 -1.51066E+00 -1.37520E+00 -1.25693E+00 -1.16145E+00
  -1.08959E+00 -1.04043E+00 -1.01305E+00 -1.00470E+00 -1.01203E+00 -1.03082E+00 -1.05524E+00 -1.07729E+00 -1.08358E+00 -1.05615E+00
  -1.00931E+00 -9.44762E-01 -8.29951E-01 -6.82315E-01 -6.10905E-01 -7.32017E-01 -1.06177E+00 -1.50267E+00 -1.95713E+00 -2.38637E+00
  -2.72289E+00 -2.85524E+00 -2.71515E+00 -2.35440E+00 -1.90406E+00 -1.47024E+00 -1.06220E+00 -6.24174E-01 -2.24658E-01  7.80327E-02
   3.14247E-01  5.14003E-01  6.94830E-01  8.36347E-01  8.99991E-01  9.71886E-01  1.14209E+00  1.37719E+00  1.65342E+00  1.95614E+00
   2.27103E+00  2.58185E+00  2.87042E+00  3.11782E+00  3.30632E+00  3.42161E+00  3.45468E+00  3.40312E+00  3.27126E+00  3.06939E+00
   2.81204E+00  2.51577E+00  2.19702E+00  1.87033E+00  1.54723E+00  1.23583E+00  9.41101E-01  6.65437E-01  4.09486E-01  1.72888E-01
  -4.51166E-02 -2.45284E-01 -4.28160E-01 -5.94023E-01 -7.42913E-01 -8.74701E-01 -9.89152E-01 -1.08598E+00 -1.16490E+00 -1.22561E+00
  -1.26783E+00 -1.29129E+00 -1.29572E+00 -1.28082E+00 -1.24628E+00 -1.19183E+00 -1.11723E+00 -1.02234E+00 -9.07150E-01 -7.71862E-01
  -6.16971E-01 -4.43343E-01 -2.52302E-01 -4.56796E-02  1.74119E-01  4.04092E-01  6.40632E-01  8.79574E-01  1.11626E+00  1.34568E+00
   1.56263E+00  1.76185E+00  1.93832E+00  2.08736E+00  2.20498E+00  2.28793E+00  2.33400E+00  2.34200E+00  2.31190E+00  2.24479E+00
   2.14282E+00  2.00910E+00  1.84751E+00  1.66254E+00  1.45902E+00  1.24195E+00  1.01629E+00  7.86740E-01  5.57631E-01  3.32763E-01
   1.15354E-01 -9.20037E-02 -2.87338E-01 -4.69278E-01 -6.37002E-01 -7.90176E-01 -9.28866E-01 -1.05346E+00 -1.16459E+00 -1.26306E+00
  -1.34979E+00 -1.42575E+00 -1.49192E+00 -1.54927E+00 -1.59873E+00 -1.64114E+00 -1.67730E+00 -1.70793E+00 -1.73367E+00 -1.75509E+00
  -1.77269E+00 -1.78691E+00 -1.79815E+00 -1.80675E+00 -1.81300E+00 -1.81716E+00 -1.81945E+00 -1.82007E+00 -1.81920E+00 -1.81698E+00
  -1.81355E+00 -1.80902E+00 -1.80349E+00 -1.79706E+00 -1.78980E+00 -1.78178E+00 -1.77307E+00 -1.76372E+00 -1.75378E+00 -1.74331E+00
  -1.73234E+00 -1.72092E+00 -1.70906E+00 -1.69680E+00 -1.68418E+00 -1.67121E+00 -1.65793E+00 -1.64435E+00 -1.63048E+00 -1.61635E+00
  -1.60197E+00 -1.58736E+00 -1.57253E+00 -1.55749E+00 -1.54225E+00 -1.52682E+00 -1.51121E+00 -1.49544E+00 -1.47951E+00 -1.46343E+00
  -1.44720E+00 -1.43083E+00 -1.41433E+00 -1.39770E+00 -1.38095E+00 -1.36408E+00 -1.34709E+00 -1.32999E+00 -1.31278E+00 -1.29547E+00
  -1.27805E+00 -1.26053E+00 -1.24289E+00 -1.22516E+00 -1.20733E+00 -1.18939E+00 -1.17134E+00 -1.15317E+00
 NY background values follow
    -3.081E+00   -3.105E+00   -3.129E+00   -3.153E+00   -3.177E+00   -3.201E+00   -3.225E+00   -3.249E+00   -3.274E+00   -3.298E+00
    -3.322E+00   -3.346E+00   -3.370E+00   -3.394E+00   -3.418E+00   -3.442E+00   -3.466E+00   -3.490E+00   -3.515E+00   -3.539E+00
    -3.563E+00   -3.587E+00   -3.611E+00   -3.635E+00   -3.659E+00   -3.683E+00   -3.707E+00   -3.731E+00   -3.755E+00   -3.779E+00
    -3.803E+00   -3.827E+00   -3.851E+00   -3.875E+00   -3.899E+00   -3.923E+00   -3.946E+00   -3.970E+00   -3.994E+00   -4.018E+00
    -4.041E+00   -4.065E+00   -4.089E+00   -4.112E+00   -4.136E+00   -4.160E+00   -4.183E+00   -4.207E+00   -4.230E+00   -4.253E+00
    -4.277E+00   -4.300E+00   -4.323E+00   -4.347E+00   -4.370E+00   -4.393E+00   -4.416E+00   -4.439E+00   -4.462E+00   -4.485E+00
    -4.507E+00   -4.530E+00   -4.553E+00   -4.575E+00   -4.598E+00   -4.620E+00   -4.642E+00   -4.664E+00   -4.686E+00   -4.708E+00
    -4.730E+00   -4.752E+00   -4.774E+00   -4.795E+00   -4.817E+00   -4.838E+00   -4.860E+00   -4.881E+00   -4.902E+00   -4.923E+00
    -4.943E+00   -4.964E+00   -4.985E+00   -5.005E+00   -5.025E+00   -5.045E+00   -5.065E+00   -5.085E+00   -5.105E+00   -5.125E+00
    -5.144E+00   -5.163E+00   -5.182E+00   -5.201E+00   -5.220E+00   -5.239E+00   -5.257E+00   -5.276E+00   -5.294E+00   -5.312E+00
    -5.330E+00   -5.347E+00   -5.365E+00   -5.382E+00   -5.399E+00   -5.416E+00   -5.433E+00   -5.450E+00   -5.466E+00   -5.482E+00
    -5.498E+00   -5.514E+00   -5.530E+00   -5.545E+00   -5.561E+00   -5.576E+00   -5.591E+00   -5.606E+00   -5.620E+00   -5.635E+00
    -5.649E+00   -5.663E+00   -5.677E+00   -5.690E+00   -5.704E+00   -5.717E+00   -5.730E+00   -5.743E+00   -5.755E+00   -5.767E+00
    -5.780E+00   -5.791E+00   -5.803E+00   -5.815E+00   -5.826E+00   -5.837E+00   -5.848E+00   -5.858E+00   -5.869E+00   -5.879E+00
    -5.889E+00   -5.899E+00   -5.908E+00   -5.917E+00   -5.926E+00   -5.935E+00   -5.944E+00   -5.952E+00   -5.960E+00   -5.968E+00
    -5.976E+00   -5.983E+00   -5.991E+00   -5.998E+00   -6.004E+00   -6.011E+00   -6.017E+00   -6.023E+00   -6.029E+00   -6.035E+00
    -6.040E+00   -6.045E+00   -6.050E+00   -6.055E+00   -6.060E+00   -6.064E+00   -6.068E+00   -6.072E+00   -6.075E+00   -6.079E+00
    -6.082E+00   -6.085E+00   -6.087E+00   -6.090E+00   -6.092E+00   -6.094E+00   -6.096E+00   -6.097E+00   -6.099E+00   -6.100E+00
    -6.101E+00   -6.101E+00   -6.102E+00   -6.102E+00   -6.102E+00   -6.101E+00   -6.101E+00   -6.100E+00   -6.099E+00   -6.098E+00
    -6.097E+00   -6.095E+00   -6.093E+00   -6.091E+00   -6.089E+00   -6.087E+00   -6.084E+00   -6.081E+00   -6.078E+00   -6.075E+00
    -6.072E+00   -6.068E+00   -6.065E+00   -6.061E+00   -6.057E+00   -6.053E+00   -6.048E+00   -6.044E+00   -6.039E+00   -6.034E+00
    -6.029E+00   -6.024E+00   -6.019E+00   -6.013E+00   -6.008E+00   -6.002E+00   -5.996E+00   -5.990E+00   -5.984E+00   -5.978E+00
    -5.972E+00   -5.965E+00   -5.958E+00   -5.952E+00   -5.945E+00   -5.938E+00   -5.931E+00   -5.924E+00   -5.916E+00   -5.909E+00
    -5.901E+00   -5.894E+00   -5.886E+00   -5.878E+00   -5.870E+00   -5.862E+00   -5.854E+00   -5.846E+00   -5.838E+00   -5.829E+00
    -5.821E+00   -5.812E+00   -5.803E+00   -5.794E+00   -5.785E+00   -5.776E+00   -5.767E+00   -5.758E+00   -5.748E+00   -5.739E+00
    -5.729E+00   -5.719E+00   -5.709E+00   -5.699E+00   -5.689E+00   -5.679E+00   -5.669E+00   -5.658E+00   -5.648E+00   -5.637E+00
    -5.627E+00   -5.616E+00   -5.605E+00   -5.594E+00   -5.583E+00   -5.572E+00   -5.560E+00   -5.549E+00   -5.537E+00   -5.526E+00
    -5.514E+00   -5.502E+00   -5.490E+00   -5.478E+00   -5.466E+00   -5.454E+00   -5.441E+00   -5.429E+00   -5.416E+00   -5.403E+00
    -5.391E+00   -5.378E+00   -5.365E+00   -5.352E+00   -5.339E+00   -5.325E+00   -5.312E+00   -5.298E+00   -5.285E+00   -5.271E+00
    -5.258E+00   -5.244E+00   -5.230E+00   -5.216E+00   -5.202E+00   -5.187E+00   -5.173E+00   -5.159E+00   -5.144E+00   -5.130E+00
    -5.115E+00   -5.100E+00   -5.086E+00   -5.071E+00   -5.056E+00   -5.041E+00   -5.025E+00   -5.010E+00   -4.995E+00   -4.979E+00
    -4.964E+00   -4.948E+00   -4.933E+00   -4.917E+00   -4.901E+00   -4.885E+00   -4.869E+00   -4.853E+00   -4.837E+00   -4.821E+00
    -4.805E+00   -4.788E+00   -4.772E+00   -4.755E+00   -4.739E+00   -4.722E+00   -4.706E+00   -4.689E+00   -4.672E+00   -4.655E+00
    -4.638E+00   -4.621E+00   -4.604E+00   -4.587E+00   -4.570E+00   -4.552E+00   -4.535E+00   -4.517E+00   -4.500E+00   -4.482E+00
    -4.465E+00   -4.447E+00   -4.429E+00   -4.412E+00   -4.394E+00   -4.376E+00   -4.358E+00   -4.340E+00   -4.322E+00   -4.304E+00
    -4.285E+00   -4.267E+00   -4.249E+00   -4.231E+00   -4.212E+00   -4.194E+00   -4.175E+00   -4.157E+00   -4.138E+00   -4.119E+00
    -4.101E+00   -4.082E+00   -4.063E+00   -4.044E+00   -4.025E+00   -4.007E+00   -3.988E+00   -3.969E+00   -3.950E+00   -3.930E+00
    -3.911E+00   -3.892E+00   -3.873E+00   -3.854E+00   -3.834E+00   -3.815E+00   -3.796E+00   -3.776E+00   -3.757E+00   -3.737E+00
    -3.718E+00   -3.698E+00   -3.679E+00   -3.659E+00   -3.639E+00   -3.620E+00   -3.600E+00   -3.580E+00   -3.560E+00   -3.540E+00
    -3.521E+00   -3.501E+00   -3.481E+00   -3.461E+00   -3.441E+00   -3.421E+00   -3.401E+00   -3.381E+00   -3.361E+00   -3.341E+00
    -3.320E+00   -3.300E+00   -3.280E+00   -3.260E+00   -3.240E+00   -3.219E+00   -3.199E+00   -3.179E+00   -3.159E+00   -3.138E+00
    -3.118E+00   -3.098E+00   -3.077E+00   -3.057E+00   -3.036E+00   -3.016E+00   -2.995E+00   -2.975E+00   -2.955E+00   -2.934E+00
    -2.914E+00   -2.893E+00   -2.873E+00   -2.852E+00   -2.831E+00   -2.811E+00   -2.790E+00   -2.770E+00   -2.749E+00   -2.729E+00
    -2.708E+00   -2.687E+00   -2.667E+00   -2.646E+00   -2.626E+00   -2.605E+00   -2.584E+00   -2.564E+00   -2.543E+00   -2.523E+00
    -2.502E+00   -2.481E+00   -2.461E+00   -2.440E+00   -2.420E+00   -2.399E+00   -2.378E+00   -2.358E+00   -2.337E+00   -2.317E+00
    -2.296E+00   -2.275E+00   -2.255E+00   -2.234E+00   -2.214E+00   -2.193E+00   -2.173E+00   -2.152E+00   -2.132E+00   -2.111E+00
    -2.091E+00   -2.070E+00   -2.050E+00   -2.029E+00   -2.009E+00   -1.988E+00   -1.968E+00   -1.947E+00   -1.927E+00   -1.906E+00
    -1.886E+00   -1.865E+00   -1.845E+00   -1.825E+00   -1.804E+00   -1.784E+00   -1.763E+00   -1.743E+00   -1.722E+00   -1.702E+00
    -1.681E+00   -1.661E+00   -1.641E+00   -1.620E+00   -1.600E+00   -1.579E+00   -1.559E+00   -1.538E+00   -1.518E+00   -1.498E+00
    -1.477E+00   -1.457E+00   -1.436E+00   -1.416E+00   -1.395E+00   -1.375E+00   -1.354E+00   -1.334E+00
 Ala      Conc. = 1.51E+02
