 LCModel (Version 6.3-1L) Copyright: S.W. Provencher.          Ref.: Magn. Reson. Med. 30:672-679 (1993).                
 Slice#1 Row#8 Col#7  PD_24_press_1_raw_act
 36 lines in following concentration table = NCONC+1
    Conc.  %SD /Cr+PCr  Metabolite                                         
    0.000 999%   0.000 Ala                                                 
   78.132 171%   0.135 Asp                                                 
    0.000 999%   0.000 Cr                                                  
  577.808  15%   1.000 PCr                                                 
   90.431  89%   0.157 GABA                                                
   77.463 105%   0.134 Glc                                                 
   84.785 402%   0.147 Gln                                                 
  812.274  47%   1.406 Glu                                                 
  202.353  15%   0.350 GPC                                                 
    0.000 999%   0.000 PCh                                                 
  142.904  78%   0.247 GSH                                                 
   70.828 475%   0.123 Ins                                                 
  609.526  31%   1.055 Lac                                                 
  935.346  15%   1.619 NAA                                                 
  275.047  53%   0.476 NAAG                                                
   35.508  67% 6.1E-02 Scyllo                                              
  120.104 108%   0.208 Tau                                                 
  217.159  58%   0.376 -CrCH2                                              
  202.353  15%   0.350 GPC+PCh                                             
 1.21E+03   8%   2.095 NAA+NAAG                                            
  577.808  15%   1.000 Cr+PCr                                              
  897.059  58%   1.553 Glu+Gln                                             
    0.000 999%   0.000 Lip13a                                              
    0.000 999%   0.000 Lip13b                                              
    0.000 999%   0.000 Lip09                                               
    1.029 999% 1.8E-03 MM09                                                
  117.901 106%   0.204 Lip20                                               
    4.695 999% 8.1E-03 MM20                                                
    0.301 999% 5.2E-04 MM12                                                
    0.000 999%   0.000 MM14                                                
    4.631 490% 8.0E-03 MM17                                                
    0.000 999%   0.000 Lip13a+Lip13b                                       
    0.301 999% 5.2E-04 MM14+Lip13a+Lip13b+MM12                             
    1.029 999% 1.8E-03 MM09+Lip09                                          
  122.596 111%   0.212 MM20+Lip20                                          
   6 lines in following misc. output table
  FWHM = 0.054 ppm    S/N =   3                                            
  Data shift = 0.015 ppm                                                   
  Ph: -73 deg     -14.0 deg/ppm                                            
  alphaB,S = 8.5E+01,   4.2E+01                                            
   14 spline knots.   Ns = 6(1)                                            
  (11) 2 infls.   ( 8) 1 extrs.                                            
  498 points on ppm-axis = NY
      4.000000     3.992357     3.984714     3.977070     3.969427     3.961784     3.954141     3.946497     3.938854     3.931211
      3.923568     3.915925     3.908281     3.900638     3.892995     3.885352     3.877708     3.870065     3.862422     3.854779
      3.847136     3.839492     3.831849     3.824206     3.816563     3.808919     3.801276     3.793633     3.785990     3.778347
      3.770703     3.763060     3.755417     3.747774     3.740130     3.732487     3.724844     3.717201     3.709558     3.701914
      3.694271     3.686628     3.678985     3.671341     3.663698     3.656055     3.648412     3.640769     3.633125     3.625482
      3.617839     3.610196     3.602552     3.594909     3.587266     3.579623     3.571980     3.564336     3.556693     3.549050
      3.541407     3.533763     3.526120     3.518477     3.510834     3.503191     3.495547     3.487904     3.480261     3.472618
      3.464974     3.457331     3.449688     3.442045     3.434402     3.426758     3.419115     3.411472     3.403829     3.396185
      3.388542     3.380899     3.373256     3.365613     3.357969     3.350326     3.342683     3.335040     3.327396     3.319753
      3.312110     3.304467     3.296824     3.289180     3.281537     3.273894     3.266251     3.258607     3.250964     3.243321
      3.235678     3.228034     3.220391     3.212748     3.205105     3.197462     3.189818     3.182175     3.174532     3.166889
      3.159245     3.151602     3.143959     3.136316     3.128673     3.121029     3.113386     3.105743     3.098100     3.090456
      3.082813     3.075170     3.067527     3.059884     3.052240     3.044597     3.036954     3.029311     3.021667     3.014024
      3.006381     2.998738     2.991095     2.983451     2.975808     2.968165     2.960522     2.952878     2.945235     2.937592
      2.929949     2.922306     2.914662     2.907019     2.899376     2.891733     2.884089     2.876446     2.868803     2.861160
      2.853517     2.845873     2.838230     2.830587     2.822944     2.815300     2.807657     2.800014     2.792371     2.784728
      2.777084     2.769441     2.761798     2.754155     2.746511     2.738868     2.731225     2.723582     2.715939     2.708295
      2.700652     2.693009     2.685366     2.677722     2.670079     2.662436     2.654793     2.647150     2.639506     2.631863
      2.624220     2.616577     2.608933     2.601290     2.593647     2.586004     2.578361     2.570717     2.563074     2.555431
      2.547788     2.540144     2.532501     2.524858     2.517215     2.509572     2.501928     2.494285     2.486642     2.478999
      2.471355     2.463712     2.456069     2.448426     2.440783     2.433139     2.425496     2.417853     2.410210     2.402566
      2.394923     2.387280     2.379637     2.371994     2.364350     2.356707     2.349064     2.341421     2.333777     2.326134
      2.318491     2.310848     2.303205     2.295561     2.287918     2.280275     2.272632     2.264988     2.257345     2.249702
      2.242059     2.234416     2.226772     2.219129     2.211486     2.203843     2.196199     2.188556     2.180913     2.173270
      2.165627     2.157983     2.150340     2.142697     2.135054     2.127410     2.119767     2.112124     2.104481     2.096838
      2.089194     2.081551     2.073908     2.066265     2.058621     2.050978     2.043335     2.035692     2.028049     2.020405
      2.012762     2.005119     1.997476     1.989833     1.982190     1.974546     1.966903     1.959260     1.951617     1.943974
      1.936331     1.928688     1.921045     1.913402     1.905759     1.898115     1.890472     1.882829     1.875186     1.867543
      1.859900     1.852257     1.844614     1.836971     1.829327     1.821684     1.814041     1.806398     1.798755     1.791112
      1.783469     1.775826     1.768183     1.760540     1.752896     1.745253     1.737610     1.729967     1.722324     1.714681
      1.707038     1.699395     1.691752     1.684108     1.676465     1.668822     1.661179     1.653536     1.645893     1.638250
      1.630607     1.622964     1.615321     1.607677     1.600034     1.592391     1.584748     1.577105     1.569462     1.561819
      1.554176     1.546533     1.538890     1.531246     1.523603     1.515960     1.508317     1.500674     1.493031     1.485388
      1.477745     1.470102     1.462458     1.454815     1.447172     1.439529     1.431886     1.424243     1.416600     1.408957
      1.401314     1.393671     1.386027     1.378384     1.370741     1.363098     1.355455     1.347812     1.340169     1.332526
      1.324883     1.317240     1.309596     1.301953     1.294310     1.286667     1.279024     1.271381     1.263738     1.256095
      1.248452     1.240808     1.233165     1.225522     1.217879     1.210236     1.202593     1.194950     1.187307     1.179664
      1.172021     1.164377     1.156734     1.149091     1.141448     1.133805     1.126162     1.118519     1.110876     1.103233
      1.095590     1.087946     1.080303     1.072660     1.065017     1.057374     1.049731     1.042088     1.034445     1.026802
      1.019158     1.011515     1.003872     0.996229     0.988586     0.980943     0.973300     0.965657     0.958014     0.950371
      0.942727     0.935084     0.927441     0.919798     0.912155     0.904512     0.896869     0.889226     0.881583     0.873940
      0.866296     0.858653     0.851010     0.843367     0.835724     0.828081     0.820438     0.812795     0.805152     0.797508
      0.789865     0.782222     0.774579     0.766936     0.759293     0.751650     0.744007     0.736364     0.728721     0.721077
      0.713434     0.705791     0.698148     0.690505     0.682862     0.675219     0.667576     0.659933     0.652290     0.644646
      0.637003     0.629360     0.621717     0.614074     0.606431     0.598788     0.591145     0.583502     0.575858     0.568215
      0.560572     0.552929     0.545286     0.537643     0.530000     0.522357     0.514714     0.507071     0.499427     0.491784
      0.484141     0.476498     0.468855     0.461212     0.453569     0.445925     0.438282     0.430639     0.422996     0.415353
      0.407710     0.400067     0.392424     0.384780     0.377137     0.369494     0.361851     0.354208     0.346565     0.338922
      0.331278     0.323635     0.315992     0.308349     0.300706     0.293063     0.285420     0.277777     0.270133     0.262490
      0.254847     0.247204     0.239561     0.231918     0.224275     0.216631     0.208988     0.201345
 NY phased data points follow
  -1.21334E+01 -4.87982E-01 -1.50236E+01 -5.71553E+00 -1.44478E+00  4.51868E-01 -2.70928E+00  4.37260E+00 -4.04695E-01  8.51875E+00
   2.33769E+00  3.10589E-01  1.27356E+01  5.54973E+00  1.43378E+00 -3.84594E+00 -9.03728E+00 -3.65575E+00 -5.55455E+00 -1.05570E+01
  -8.58763E+00 -3.17402E-01 -4.07722E+00 -4.81371E+00 -3.94101E+00 -3.09169E+00 -1.06067E+01 -5.66061E+00 -3.07087E+00 -2.97195E+00
  -3.25920E+00  2.89937E+00 -6.03459E+00  3.19566E+00 -2.25364E+00  1.87974E+00 -1.95448E+00 -3.70825E-01 -4.02928E+00 -6.16749E-01
   1.44004E+00 -2.79567E+00  5.46395E-01  5.09491E-01 -1.77570E-01  2.18474E-01 -2.34201E+00  4.20584E+00  3.67931E+00 -4.20565E+00
   7.41872E+00 -2.22032E+00 -3.00108E-01 -1.24937E+00 -7.36401E-01  3.56934E+00  3.52724E+00 -5.59988E+00  7.57087E+00 -1.25799E+00
  -1.66690E+00 -1.48655E+00 -7.14054E+00 -6.47103E+00 -5.38467E+00 -1.07697E+00 -8.48580E+00 -1.23229E+01 -4.72660E+00 -6.80835E+00
  -5.16409E+00 -1.85310E+00 -4.97791E+00 -1.37171E+00  2.54697E+00  3.65290E+00 -1.95932E-01 -4.75124E+00 -1.06753E+01  3.23878E+00
  -2.38817E+00  1.38897E+00 -4.86957E+00 -1.85067E+00  6.70628E-01 -4.73721E-01 -2.66038E+00  5.24074E+00  9.49858E-01 -6.21256E+00
   4.29497E+00 -2.55717E+00 -2.77145E+00 -2.59258E+00 -1.19821E+00 -3.75383E+00 -6.40134E+00 -2.80809E+00  2.28464E+00  7.66734E+00
   6.33416E+00  1.58891E+01  2.08275E+01  2.47934E+01  1.95296E+01  1.16017E+01  1.68271E+00  4.46184E+00  2.87055E+00 -4.21983E+00
   1.36923E+00  4.42131E+00 -6.44684E+00  2.28926E+00 -2.81594E+00  1.82463E+00 -7.79907E+00  9.17919E-01  1.57611E+00 -3.66700E+00
   7.18122E-01 -1.14793E+01 -3.55346E+00 -1.84107E+00 -5.50001E+00  6.77196E+00  1.98252E+01  1.90651E+01  1.87065E+01  1.21258E+01
   2.20947E+01  1.36351E+01  1.17921E+01  1.09302E+01  4.09945E+00 -1.23132E+01 -5.87146E+00 -5.12494E+00 -3.97356E+00 -1.63644E+00
  -1.27922E+00  3.89548E+00 -7.34721E+00  2.06278E-01 -5.73743E+00  1.09151E+00  2.50507E+00 -1.05084E+00 -3.78811E-01 -2.39660E+00
  -8.99832E+00 -4.66858E+00  9.96331E-01 -2.32157E+00  3.15084E+00 -1.19771E+01 -4.73191E-02  1.63945E+00 -5.47344E-01 -1.43213E+00
   3.07887E+00 -2.30804E+00  1.00082E+00 -5.70083E-01 -3.01939E+00  1.26679E+00 -4.56814E+00 -5.26541E-01 -3.83585E+00 -6.22137E+00
  -1.00268E+00 -8.28926E+00 -6.02652E+00 -2.53296E+00 -6.89359E+00 -6.00568E+00 -1.07371E+01 -4.35725E+00 -2.96264E+00 -7.60419E+00
  -2.20524E+00 -4.62204E+00  9.97034E-01 -8.38374E+00 -1.28049E+01 -6.61633E+00 -8.44544E+00 -1.63558E+00 -6.07132E+00  3.15456E+00
  -1.23227E+00 -1.50626E+00 -9.35099E-03  1.17762E+00 -2.27572E+00  1.59165E+00  6.87047E+00  3.20497E-01 -4.24909E+00 -7.87931E+00
   5.75400E+00 -1.02376E+00  3.01544E+00  2.19793E+00  6.42749E+00  3.80309E+00  1.41748E+00  2.44551E+00 -5.64929E+00  6.12018E-02
  -3.39134E+00  4.99590E+00 -7.16326E-01  8.44070E+00  3.30175E+00  7.88752E+00  8.05409E+00  1.93560E+00  9.86375E+00  3.14748E-01
  -1.77577E+00 -1.34973E+00 -2.91494E+00 -1.18569E+00  3.72946E+00  2.80123E-01 -2.47521E-01  3.13296E+00 -1.45491E+00  3.22205E+00
   4.56388E+00  1.78287E+00 -3.99589E+00 -7.69426E-01  2.67099E+00  2.53581E+00  1.27369E+00  9.01008E+00  1.68515E+00 -4.07502E+00
  -2.98335E+00 -2.93892E+00 -8.55816E-01 -3.00793E-01 -7.31211E+00 -9.23912E+00  3.31904E+00  4.06839E+00  2.31124E+00 -2.26605E+00
   7.62281E+00 -2.49408E+00  5.21560E+00  1.16225E+01  5.77683E+00  9.50753E+00  1.32793E+01  1.54601E+01  2.67899E+01  3.35734E+01
   3.25757E+01  3.64401E+01  3.22449E+01  2.42912E+01  2.11854E+01  1.48344E+01  1.04203E+01  4.79178E+00  3.90364E+00  6.27291E+00
   9.40893E-01  1.16850E+00  4.37291E+00  2.96275E+00  3.58430E+00  1.45446E+00  1.74088E+00  4.25539E+00  3.58190E+00  7.49256E+00
   6.88923E-01 -1.31505E-01  2.97784E+00  1.45975E+00 -1.11755E+00 -1.56289E+00  3.25404E-01 -1.21953E+00  6.56327E+00  2.70374E+00
   1.99483E+00 -8.16664E-01  6.45181E+00  5.10084E+00 -9.32216E-01  1.89210E-01  8.01764E+00  2.74657E+00  7.86238E+00  8.80373E+00
   6.49196E-01  4.04826E-01  2.66064E+00  7.48407E+00  7.21520E+00  4.51659E+00  5.83135E+00  2.80571E+00  2.75365E+00  5.35026E+00
   5.59765E+00  8.29849E+00  6.41100E+00  5.05496E+00  2.68277E+00  4.64475E+00 -4.22723E+00  2.22549E+00  2.42101E+00  6.12679E-01
  -1.40465E+00 -5.68089E+00 -1.12615E+01 -2.06885E+01 -5.27052E+00 -1.26967E+01 -1.74314E+01 -1.88706E+01 -1.68255E+01 -1.65650E+01
  -1.59392E+01 -1.25994E+01 -5.30344E+00 -4.26304E+00 -7.22515E+00 -2.42014E+00  1.68792E+00 -1.34273E+00  3.64287E+00  2.78778E+00
  -2.39071E+00 -2.90796E+00 -5.85161E+00 -5.87524E+00 -6.71496E+00 -1.10133E+01 -1.66159E+01 -2.10927E+01 -1.77226E+01 -2.49471E+01
  -2.58257E+01 -2.16185E+01 -2.45499E+01 -1.84059E+01 -8.68192E+00 -1.06698E+01 -1.26283E+01 -1.03127E+01 -2.05426E+00  7.68813E-02
   1.11667E+01  9.19592E+00  1.17147E+01  1.41754E+01  1.91234E+01  1.62088E+01  1.57703E+01  1.32285E+01  1.51377E+01  6.14666E+00
   2.82003E+00  1.07541E+01  1.62238E+00 -2.06837E+00  6.07881E+00  3.54894E+00  2.66025E+00  7.47115E+00  1.75872E+00 -4.31464E+00
  -9.23658E+00 -5.21896E+00 -9.71562E+00 -1.26231E+01 -9.78367E+00 -1.21702E+01 -1.11103E+01 -9.01531E+00 -6.44672E+00  1.00209E+00
   3.13748E+00  4.81828E+00  1.25919E+01 -4.72362E-01  1.55817E+00 -2.26848E-01 -7.09918E-01 -2.71216E+00  2.45583E+00 -7.75736E+00
  -3.67814E+00 -4.17973E+00 -7.17670E+00 -6.25454E+00  4.10503E+00 -8.79771E+00 -7.34025E+00 -6.57294E+00 -2.71859E+00  3.64211E-01
  -1.01378E+01 -1.02428E+01 -5.19099E+00 -5.39682E+00 -7.20455E+00 -8.22060E+00 -2.00240E+00 -5.54290E+00 -2.23985E+00 -6.21192E+00
  -1.29455E+01 -5.10560E+00 -1.27579E+00 -6.13941E-01  2.61544E+00 -2.09485E+00 -4.15787E+00 -4.26529E+00 -3.68165E+00 -3.31437E+00
  -1.34734E+00 -1.04004E+01  2.91703E-01 -4.06155E+00  2.51798E+00 -2.11947E+00 -1.77472E+00  5.11642E+00  4.37222E+00  1.10231E+00
   2.73684E+00  2.18157E+00 -4.27529E+00 -3.52240E+00 -8.76643E-01 -1.54249E+00  6.55861E+00  9.97967E-01 -9.01784E+00 -1.86230E+00
   1.07330E+00 -2.99813E+00  8.74476E+00 -2.60073E+00 -1.00455E+00 -1.61655E+00 -7.34020E-01  8.49432E-01  9.11798E-01 -4.77557E+00
  -1.17985E+00 -9.43713E+00  3.52713E+00  5.51574E+00  5.53093E+00 -7.88593E-01 -4.59196E-01 -2.14224E+00 -7.26347E+00 -6.82726E+00
  -4.64855E+00 -1.01194E-01  3.15716E+00  9.19805E+00  4.59201E-01 -2.28642E+00  1.90634E-01  4.18099E+00 -1.31208E+00  2.74129E+00
  -3.04441E+00  1.93947E+00  3.73551E+00 -4.82566E-01 -1.23849E+00  1.85971E+00 -4.57040E+00  3.23665E-01  4.41846E+00  5.61127E-01
  -2.46318E+00  4.90371E+00 -2.13719E+00  3.77349E+00 -2.54984E+00  7.72789E+00  3.76239E+00  3.70835E+00
 NY points of the fit to the data follow
  -4.45758E+00 -4.43624E+00 -4.30969E+00 -4.08774E+00 -3.69028E+00 -2.80733E+00 -1.24225E+00  9.45129E-01  3.27427E+00  5.06594E+00
   5.90131E+00  5.81377E+00  5.11658E+00  4.10818E+00  2.98360E+00  1.76352E+00  4.91858E-01 -5.41524E-01 -1.08324E+00 -1.36278E+00
  -1.51401E+00 -1.58818E+00 -1.61788E+00 -1.66820E+00 -1.80417E+00 -1.98170E+00 -2.03987E+00 -1.78270E+00 -1.10866E+00 -1.10852E-01
   9.74459E-01  1.87055E+00  2.35219E+00  2.31494E+00  1.79972E+00  9.30290E-01 -1.32364E-01 -1.08636E+00 -1.65962E+00 -1.86206E+00
  -1.83060E+00 -1.64192E+00 -1.37938E+00 -1.13087E+00 -9.53722E-01 -8.46102E-01 -7.97091E-01 -7.85990E-01 -8.03726E-01 -8.62129E-01
  -9.53479E-01 -1.07985E+00 -1.25023E+00 -1.43236E+00 -1.60905E+00 -1.79607E+00 -1.97382E+00 -2.10012E+00 -2.17220E+00 -2.21858E+00
  -2.26478E+00 -2.31960E+00 -2.37004E+00 -2.40624E+00 -2.42566E+00 -2.44297E+00 -2.47955E+00 -2.53665E+00 -2.60336E+00 -2.66544E+00
  -2.69443E+00 -2.65206E+00 -2.52637E+00 -2.34265E+00 -2.16474E+00 -2.07499E+00 -2.12121E+00 -2.27655E+00 -2.48618E+00 -2.68684E+00
  -2.81777E+00 -2.80626E+00 -2.58055E+00 -2.12426E+00 -1.54133E+00 -1.04535E+00 -8.02612E-01 -8.42689E-01 -1.09432E+00 -1.46937E+00
  -1.91187E+00 -2.41049E+00 -2.95675E+00 -3.46323E+00 -3.78862E+00 -3.90178E+00 -3.74106E+00 -2.71911E+00 -3.14794E-02  4.47356E+00
   1.00060E+01  1.49628E+01  1.78748E+01  1.82960E+01  1.67553E+01  1.40860E+01  1.09589E+01  7.72450E+00  4.49355E+00  1.67839E+00
  -3.98845E-02 -7.70653E-01 -1.17848E+00 -1.46980E+00 -1.70104E+00 -1.90372E+00 -2.09465E+00 -2.29160E+00 -2.50210E+00 -2.71815E+00
  -2.90882E+00 -2.92466E+00 -2.13712E+00  3.08474E-01  4.59739E+00  9.97143E+00  1.48740E+01  1.78556E+01  1.84437E+01  1.71459E+01
   1.47482E+01  1.18281E+01  8.66326E+00  5.34336E+00  2.28070E+00  2.29268E-01 -7.61308E-01 -1.25530E+00 -1.44000E+00 -1.41462E+00
  -1.27918E+00 -1.09977E+00 -9.26226E-01 -8.11296E-01 -7.72418E-01 -8.12931E-01 -9.23264E-01 -1.06750E+00 -1.21339E+00 -1.35388E+00
  -1.49274E+00 -1.64270E+00 -1.79020E+00 -1.89857E+00 -1.93242E+00 -1.90189E+00 -1.87391E+00 -1.93190E+00 -2.11779E+00 -2.39217E+00
  -2.63468E+00 -2.74184E+00 -2.71003E+00 -2.61380E+00 -2.55016E+00 -2.58378E+00 -2.70373E+00 -2.85223E+00 -2.99522E+00 -3.12768E+00
  -3.25715E+00 -3.41789E+00 -3.64725E+00 -3.91302E+00 -4.15334E+00 -4.29040E+00 -4.29699E+00 -4.25422E+00 -4.25976E+00 -4.31902E+00
  -4.35848E+00 -4.31186E+00 -4.19165E+00 -4.08344E+00 -4.02916E+00 -3.94483E+00 -3.67319E+00 -3.15190E+00 -2.46255E+00 -1.78422E+00
  -1.26458E+00 -9.52120E-01 -8.23565E-01 -8.54720E-01 -1.02950E+00 -1.31067E+00 -1.60595E+00 -1.80352E+00 -1.84661E+00 -1.69832E+00
  -1.36161E+00 -8.90805E-01 -3.97277E-01 -1.88639E-02  1.14969E-01 -1.05791E-01 -7.01576E-01 -1.55027E+00 -2.46907E+00 -3.26441E+00
  -3.71693E+00 -3.56406E+00 -2.69768E+00 -1.31392E+00  1.27758E-01  1.10285E+00  1.28473E+00  5.62520E-01 -9.70985E-01 -2.95368E+00
  -4.87244E+00 -6.23839E+00 -6.69907E+00 -6.18412E+00 -4.94230E+00 -3.47535E+00 -2.18479E+00 -1.26018E+00 -7.53484E-01 -6.44839E-01
  -8.42313E-01 -1.11087E+00 -1.19252E+00 -1.02500E+00 -7.16437E-01 -4.00703E-01 -2.21895E-01 -2.87507E-01 -6.65091E-01 -1.30667E+00
  -2.01566E+00 -2.54147E+00 -2.73006E+00 -2.56429E+00 -2.15822E+00 -1.67824E+00 -1.28487E+00 -1.09352E+00 -1.10221E+00 -1.17637E+00
  -1.04794E+00 -2.68339E-01  1.45320E+00  3.94949E+00  6.73513E+00  9.81241E+00  1.40903E+01  2.00577E+01  2.70517E+01  3.30928E+01
   3.60734E+01  3.51792E+01  3.11950E+01  2.57200E+01  2.00360E+01  1.45150E+01  9.16728E+00  4.45777E+00  1.39402E+00  1.43381E-01
  -3.55832E-01 -5.44714E-01 -5.41573E-01 -4.59502E-01 -3.81344E-01 -3.40553E-01 -3.60403E-01 -4.44481E-01 -5.77954E-01 -7.34287E-01
  -8.87554E-01 -1.00848E+00 -1.08014E+00 -1.10864E+00 -1.11109E+00 -1.10660E+00 -1.10705E+00 -1.11315E+00 -1.12190E+00 -1.12973E+00
  -1.13003E+00 -1.12278E+00 -1.11564E+00 -1.11404E+00 -1.11924E+00 -1.13402E+00 -1.15853E+00 -1.18837E+00 -1.21817E+00 -1.24168E+00
  -1.25297E+00 -1.25326E+00 -1.24743E+00 -1.23886E+00 -1.22925E+00 -1.21964E+00 -1.21217E+00 -1.20835E+00 -1.20643E+00 -1.20510E+00
  -1.20386E+00 -1.20211E+00 -1.19969E+00 -1.19663E+00 -1.19288E+00 -1.18829E+00 -1.18271E+00 -1.17590E+00 -1.16777E+00 -1.15817E+00
  -1.14696E+00 -1.13395E+00 -1.11899E+00 -1.10182E+00 -1.08218E+00 -1.05973E+00 -1.03407E+00 -1.00463E+00 -9.70798E-01 -9.31750E-01
  -8.86455E-01 -8.33489E-01 -7.71016E-01 -6.96590E-01 -6.06951E-01 -4.97407E-01 -3.60979E-01 -1.86849E-01  4.24441E-02  3.57957E-01
   8.24153E-01  1.58635E+00  2.81034E+00  4.25154E+00  5.28728E+00  5.20039E+00  3.61639E+00  7.89923E-01 -2.61875E+00 -5.87878E+00
  -8.20912E+00 -9.02228E+00 -8.12080E+00 -5.78922E+00 -2.67618E+00  3.27774E-01  2.39466E+00  3.43378E+00  3.71492E+00  3.47512E+00
   2.80846E+00  1.79760E+00  7.90527E-01  1.59254E-01 -2.04287E-01 -4.43713E-01 -6.14309E-01 -7.41401E-01 -8.38957E-01 -9.15625E-01
  -9.77152E-01 -1.02732E+00 -1.06864E+00 -1.10280E+00 -1.13121E+00 -1.15506E+00 -1.17534E+00 -1.19266E+00 -1.20737E+00 -1.21975E+00
  -1.23020E+00 -1.23910E+00 -1.24678E+00 -1.25332E+00 -1.25875E+00 -1.26314E+00 -1.26669E+00 -1.26961E+00 -1.27201E+00 -1.27384E+00
  -1.27506E+00 -1.27572E+00 -1.27600E+00 -1.27602E+00 -1.27579E+00 -1.27522E+00 -1.27430E+00 -1.27311E+00 -1.27181E+00 -1.27043E+00
  -1.26895E+00 -1.26728E+00 -1.26544E+00 -1.26352E+00 -1.26163E+00 -1.25976E+00 -1.25783E+00 -1.25576E+00 -1.25361E+00 -1.25146E+00
  -1.24936E+00 -1.24723E+00 -1.24501E+00 -1.24263E+00 -1.24019E+00 -1.23773E+00 -1.23528E+00 -1.23273E+00 -1.23003E+00 -1.22719E+00
  -1.22430E+00 -1.22141E+00 -1.21849E+00 -1.21545E+00 -1.21227E+00 -1.20900E+00 -1.20572E+00 -1.20245E+00 -1.19914E+00 -1.19571E+00
  -1.19218E+00 -1.18862E+00 -1.18508E+00 -1.18155E+00 -1.17796E+00 -1.17426E+00 -1.17050E+00 -1.16674E+00 -1.16303E+00 -1.15929E+00
  -1.15548E+00 -1.15158E+00 -1.14766E+00 -1.14376E+00 -1.13990E+00 -1.13598E+00 -1.13199E+00 -1.12793E+00 -1.12389E+00 -1.11989E+00
  -1.11589E+00 -1.11182E+00 -1.10768E+00 -1.10350E+00 -1.09936E+00 -1.09524E+00 -1.09109E+00 -1.08686E+00 -1.08257E+00 -1.07828E+00
  -1.07403E+00 -1.06978E+00 -1.06548E+00 -1.06110E+00 -1.05669E+00 -1.05228E+00 -1.04791E+00 -1.04352E+00 -1.03905E+00 -1.03451E+00
  -1.02996E+00 -1.02543E+00 -1.02091E+00 -1.01632E+00 -1.01166E+00 -1.00693E+00 -1.00220E+00 -9.97488E-01 -9.92752E-01 -9.87928E-01
  -9.83022E-01 -9.78066E-01 -9.73116E-01 -9.68147E-01 -9.63117E-01 -9.57971E-01 -9.52739E-01 -9.47457E-01 -9.42159E-01 -9.36794E-01
  -9.31316E-01 -9.25690E-01 -9.19960E-01 -9.14151E-01 -9.08266E-01 -9.02231E-01 -8.96002E-01 -8.89557E-01
 NY background values follow
    -2.976E+00   -2.973E+00   -2.970E+00   -2.966E+00   -2.963E+00   -2.959E+00   -2.956E+00   -2.953E+00   -2.949E+00   -2.946E+00
    -2.943E+00   -2.939E+00   -2.936E+00   -2.932E+00   -2.929E+00   -2.925E+00   -2.922E+00   -2.919E+00   -2.915E+00   -2.912E+00
    -2.908E+00   -2.905E+00   -2.901E+00   -2.898E+00   -2.894E+00   -2.891E+00   -2.887E+00   -2.884E+00   -2.880E+00   -2.877E+00
    -2.873E+00   -2.870E+00   -2.866E+00   -2.863E+00   -2.859E+00   -2.855E+00   -2.852E+00   -2.848E+00   -2.845E+00   -2.841E+00
    -2.837E+00   -2.834E+00   -2.830E+00   -2.827E+00   -2.823E+00   -2.819E+00   -2.816E+00   -2.812E+00   -2.808E+00   -2.805E+00
    -2.801E+00   -2.797E+00   -2.794E+00   -2.790E+00   -2.786E+00   -2.783E+00   -2.779E+00   -2.775E+00   -2.771E+00   -2.768E+00
    -2.764E+00   -2.760E+00   -2.757E+00   -2.753E+00   -2.749E+00   -2.745E+00   -2.742E+00   -2.738E+00   -2.734E+00   -2.730E+00
    -2.726E+00   -2.723E+00   -2.719E+00   -2.715E+00   -2.711E+00   -2.707E+00   -2.704E+00   -2.700E+00   -2.696E+00   -2.692E+00
    -2.688E+00   -2.684E+00   -2.680E+00   -2.677E+00   -2.673E+00   -2.669E+00   -2.665E+00   -2.661E+00   -2.657E+00   -2.653E+00
    -2.649E+00   -2.645E+00   -2.641E+00   -2.638E+00   -2.634E+00   -2.630E+00   -2.626E+00   -2.622E+00   -2.618E+00   -2.614E+00
    -2.610E+00   -2.606E+00   -2.602E+00   -2.598E+00   -2.594E+00   -2.590E+00   -2.586E+00   -2.582E+00   -2.578E+00   -2.574E+00
    -2.570E+00   -2.566E+00   -2.562E+00   -2.558E+00   -2.554E+00   -2.550E+00   -2.546E+00   -2.542E+00   -2.537E+00   -2.533E+00
    -2.529E+00   -2.525E+00   -2.521E+00   -2.517E+00   -2.513E+00   -2.509E+00   -2.505E+00   -2.501E+00   -2.497E+00   -2.492E+00
    -2.488E+00   -2.484E+00   -2.480E+00   -2.476E+00   -2.472E+00   -2.468E+00   -2.463E+00   -2.459E+00   -2.455E+00   -2.451E+00
    -2.447E+00   -2.443E+00   -2.438E+00   -2.434E+00   -2.430E+00   -2.426E+00   -2.422E+00   -2.417E+00   -2.413E+00   -2.409E+00
    -2.405E+00   -2.400E+00   -2.396E+00   -2.392E+00   -2.388E+00   -2.383E+00   -2.379E+00   -2.375E+00   -2.371E+00   -2.366E+00
    -2.362E+00   -2.358E+00   -2.354E+00   -2.349E+00   -2.345E+00   -2.341E+00   -2.336E+00   -2.332E+00   -2.328E+00   -2.323E+00
    -2.319E+00   -2.315E+00   -2.310E+00   -2.306E+00   -2.302E+00   -2.297E+00   -2.293E+00   -2.289E+00   -2.284E+00   -2.280E+00
    -2.276E+00   -2.271E+00   -2.267E+00   -2.263E+00   -2.258E+00   -2.254E+00   -2.249E+00   -2.245E+00   -2.241E+00   -2.236E+00
    -2.232E+00   -2.227E+00   -2.223E+00   -2.219E+00   -2.214E+00   -2.210E+00   -2.205E+00   -2.201E+00   -2.196E+00   -2.192E+00
    -2.188E+00   -2.183E+00   -2.179E+00   -2.174E+00   -2.170E+00   -2.165E+00   -2.161E+00   -2.156E+00   -2.152E+00   -2.147E+00
    -2.143E+00   -2.138E+00   -2.134E+00   -2.129E+00   -2.125E+00   -2.120E+00   -2.116E+00   -2.111E+00   -2.107E+00   -2.102E+00
    -2.098E+00   -2.093E+00   -2.089E+00   -2.084E+00   -2.080E+00   -2.075E+00   -2.071E+00   -2.066E+00   -2.062E+00   -2.057E+00
    -2.052E+00   -2.048E+00   -2.043E+00   -2.039E+00   -2.034E+00   -2.030E+00   -2.025E+00   -2.021E+00   -2.016E+00   -2.011E+00
    -2.007E+00   -2.002E+00   -1.998E+00   -1.993E+00   -1.988E+00   -1.984E+00   -1.979E+00   -1.975E+00   -1.970E+00   -1.965E+00
    -1.961E+00   -1.956E+00   -1.951E+00   -1.947E+00   -1.942E+00   -1.938E+00   -1.933E+00   -1.928E+00   -1.924E+00   -1.919E+00
    -1.914E+00   -1.910E+00   -1.905E+00   -1.900E+00   -1.896E+00   -1.891E+00   -1.886E+00   -1.882E+00   -1.877E+00   -1.872E+00
    -1.868E+00   -1.863E+00   -1.858E+00   -1.854E+00   -1.849E+00   -1.844E+00   -1.840E+00   -1.835E+00   -1.830E+00   -1.826E+00
    -1.821E+00   -1.816E+00   -1.811E+00   -1.807E+00   -1.802E+00   -1.797E+00   -1.793E+00   -1.788E+00   -1.783E+00   -1.778E+00
    -1.774E+00   -1.769E+00   -1.764E+00   -1.760E+00   -1.755E+00   -1.750E+00   -1.745E+00   -1.741E+00   -1.736E+00   -1.731E+00
    -1.726E+00   -1.722E+00   -1.717E+00   -1.712E+00   -1.707E+00   -1.703E+00   -1.698E+00   -1.693E+00   -1.688E+00   -1.684E+00
    -1.679E+00   -1.674E+00   -1.669E+00   -1.664E+00   -1.660E+00   -1.655E+00   -1.650E+00   -1.645E+00   -1.641E+00   -1.636E+00
    -1.631E+00   -1.626E+00   -1.621E+00   -1.617E+00   -1.612E+00   -1.607E+00   -1.602E+00   -1.597E+00   -1.593E+00   -1.588E+00
    -1.583E+00   -1.578E+00   -1.573E+00   -1.569E+00   -1.564E+00   -1.559E+00   -1.554E+00   -1.549E+00   -1.545E+00   -1.540E+00
    -1.535E+00   -1.530E+00   -1.525E+00   -1.520E+00   -1.516E+00   -1.511E+00   -1.506E+00   -1.501E+00   -1.496E+00   -1.491E+00
    -1.487E+00   -1.482E+00   -1.477E+00   -1.472E+00   -1.467E+00   -1.462E+00   -1.458E+00   -1.453E+00   -1.448E+00   -1.443E+00
    -1.438E+00   -1.433E+00   -1.428E+00   -1.424E+00   -1.419E+00   -1.414E+00   -1.409E+00   -1.404E+00   -1.399E+00   -1.395E+00
    -1.390E+00   -1.385E+00   -1.380E+00   -1.375E+00   -1.370E+00   -1.365E+00   -1.360E+00   -1.356E+00   -1.351E+00   -1.346E+00
    -1.341E+00   -1.336E+00   -1.331E+00   -1.326E+00   -1.322E+00   -1.317E+00   -1.312E+00   -1.307E+00   -1.302E+00   -1.297E+00
    -1.292E+00   -1.287E+00   -1.283E+00   -1.278E+00   -1.273E+00   -1.268E+00   -1.263E+00   -1.258E+00   -1.253E+00   -1.248E+00
    -1.244E+00   -1.239E+00   -1.234E+00   -1.229E+00   -1.224E+00   -1.219E+00   -1.214E+00   -1.209E+00   -1.205E+00   -1.200E+00
    -1.195E+00   -1.190E+00   -1.185E+00   -1.180E+00   -1.175E+00   -1.170E+00   -1.165E+00   -1.161E+00   -1.156E+00   -1.151E+00
    -1.146E+00   -1.141E+00   -1.136E+00   -1.131E+00   -1.126E+00   -1.122E+00   -1.117E+00   -1.112E+00   -1.107E+00   -1.102E+00
    -1.097E+00   -1.092E+00   -1.087E+00   -1.082E+00   -1.078E+00   -1.073E+00   -1.068E+00   -1.063E+00   -1.058E+00   -1.053E+00
    -1.048E+00   -1.043E+00   -1.038E+00   -1.034E+00   -1.029E+00   -1.024E+00   -1.019E+00   -1.014E+00   -1.009E+00   -1.004E+00
    -9.995E-01   -9.946E-01   -9.897E-01   -9.848E-01   -9.799E-01   -9.751E-01   -9.702E-01   -9.653E-01   -9.604E-01   -9.556E-01
    -9.507E-01   -9.458E-01   -9.410E-01   -9.361E-01   -9.312E-01   -9.263E-01   -9.215E-01   -9.166E-01   -9.117E-01   -9.069E-01
    -9.020E-01   -8.972E-01   -8.923E-01   -8.874E-01   -8.826E-01   -8.777E-01   -8.728E-01   -8.680E-01   -8.631E-01   -8.583E-01
    -8.534E-01   -8.486E-01   -8.437E-01   -8.388E-01   -8.340E-01   -8.291E-01   -8.243E-01   -8.194E-01   -8.146E-01   -8.098E-01
    -8.049E-01   -8.001E-01   -7.952E-01   -7.904E-01   -7.855E-01   -7.807E-01   -7.759E-01   -7.710E-01
 Asp      Conc. = 7.81E+01
