 LCModel (Version 6.3-1L) Copyright: S.W. Provencher.          Ref.: Magn. Reson. Med. 30:672-679 (1993).                
 Slice#1 Row#7 Col#4  PD_24_press_1_raw_act
 36 lines in following concentration table = NCONC+1
    Conc.  %SD /Cr+PCr  Metabolite                                         
  202.316  50%   0.195 Ala                                                 
    0.000 999%   0.000 Asp                                                 
  583.524  27%   0.562 Cr                                                  
  453.949  35%   0.438 PCr                                                 
   68.781 199% 6.6E-02 GABA                                                
    0.000 999%   0.000 Glc                                                 
  521.179  39%   0.502 Gln                                                 
 1.59E+03  16%   1.529 Glu                                                 
  482.374   5%   0.465 GPC                                                 
    0.000 999%   0.000 PCh                                                 
  399.928  17%   0.385 GSH                                                 
  994.584  23%   0.959 Ins                                                 
  121.024  89%   0.117 Lac                                                 
 1.99E+03   5%   1.923 NAA                                                 
  531.632  19%   0.512 NAAG                                                
   73.620  34% 7.1E-02 Scyllo                                              
    0.000 999%   0.000 Tau                                                 
    0.000 999%   0.000 -CrCH2                                              
  482.374   5%   0.465 GPC+PCh                                             
 2.53E+03   3%   2.435 NAA+NAAG                                            
 1.04E+03   5%   1.000 Cr+PCr                                              
 2.11E+03  16%   2.031 Glu+Gln                                             
  209.351 111%   0.202 Lip13a                                              
    0.000 999%   0.000 Lip13b                                              
    0.000 999%   0.000 Lip09                                               
 1.10E+03  14%   1.065 MM09                                                
   36.213 203% 3.5E-02 Lip20                                               
 2.37E+03  13%   2.285 MM20                                                
  361.362  28%   0.348 MM12                                                
  938.158  27%   0.904 MM14                                                
  776.828  23%   0.749 MM17                                                
  209.351 111%   0.202 Lip13a+Lip13b                                       
 1.51E+03  18%   1.454 MM14+Lip13a+Lip13b+MM12                             
 1.10E+03  14%   1.065 MM09+Lip09                                          
 2.41E+03  13%   2.320 MM20+Lip20                                          
   6 lines in following misc. output table
  FWHM = 0.046 ppm    S/N =  12                                            
  Data shift = 0.015 ppm                                                   
  Ph: -26 deg       3.2 deg/ppm                                            
  alphaB,S = 2.2E+00,   2.6E+01                                            
   14 spline knots.   Ns = 6(1)                                            
  (11) 4 infls.   (13) 1 extrs.                                            
  498 points on ppm-axis = NY
      4.000000     3.992357     3.984714     3.977070     3.969427     3.961784     3.954141     3.946497     3.938854     3.931211
      3.923568     3.915925     3.908281     3.900638     3.892995     3.885352     3.877708     3.870065     3.862422     3.854779
      3.847136     3.839492     3.831849     3.824206     3.816563     3.808919     3.801276     3.793633     3.785990     3.778347
      3.770703     3.763060     3.755417     3.747774     3.740130     3.732487     3.724844     3.717201     3.709558     3.701914
      3.694271     3.686628     3.678985     3.671341     3.663698     3.656055     3.648412     3.640769     3.633125     3.625482
      3.617839     3.610196     3.602552     3.594909     3.587266     3.579623     3.571980     3.564336     3.556693     3.549050
      3.541407     3.533763     3.526120     3.518477     3.510834     3.503191     3.495547     3.487904     3.480261     3.472618
      3.464974     3.457331     3.449688     3.442045     3.434402     3.426758     3.419115     3.411472     3.403829     3.396185
      3.388542     3.380899     3.373256     3.365613     3.357969     3.350326     3.342683     3.335040     3.327396     3.319753
      3.312110     3.304467     3.296824     3.289180     3.281537     3.273894     3.266251     3.258607     3.250964     3.243321
      3.235678     3.228034     3.220391     3.212748     3.205105     3.197462     3.189818     3.182175     3.174532     3.166889
      3.159245     3.151602     3.143959     3.136316     3.128673     3.121029     3.113386     3.105743     3.098100     3.090456
      3.082813     3.075170     3.067527     3.059884     3.052240     3.044597     3.036954     3.029311     3.021667     3.014024
      3.006381     2.998738     2.991095     2.983451     2.975808     2.968165     2.960522     2.952878     2.945235     2.937592
      2.929949     2.922306     2.914662     2.907019     2.899376     2.891733     2.884089     2.876446     2.868803     2.861160
      2.853517     2.845873     2.838230     2.830587     2.822944     2.815300     2.807657     2.800014     2.792371     2.784728
      2.777084     2.769441     2.761798     2.754155     2.746511     2.738868     2.731225     2.723582     2.715939     2.708295
      2.700652     2.693009     2.685366     2.677722     2.670079     2.662436     2.654793     2.647150     2.639506     2.631863
      2.624220     2.616577     2.608933     2.601290     2.593647     2.586004     2.578361     2.570717     2.563074     2.555431
      2.547788     2.540144     2.532501     2.524858     2.517215     2.509572     2.501928     2.494285     2.486642     2.478999
      2.471355     2.463712     2.456069     2.448426     2.440783     2.433139     2.425496     2.417853     2.410210     2.402566
      2.394923     2.387280     2.379637     2.371994     2.364350     2.356707     2.349064     2.341421     2.333777     2.326134
      2.318491     2.310848     2.303205     2.295561     2.287918     2.280275     2.272632     2.264988     2.257345     2.249702
      2.242059     2.234416     2.226772     2.219129     2.211486     2.203843     2.196199     2.188556     2.180913     2.173270
      2.165627     2.157983     2.150340     2.142697     2.135054     2.127410     2.119767     2.112124     2.104481     2.096838
      2.089194     2.081551     2.073908     2.066265     2.058621     2.050978     2.043335     2.035692     2.028049     2.020405
      2.012762     2.005119     1.997476     1.989833     1.982190     1.974546     1.966903     1.959260     1.951617     1.943974
      1.936331     1.928688     1.921045     1.913402     1.905759     1.898115     1.890472     1.882829     1.875186     1.867543
      1.859900     1.852257     1.844614     1.836971     1.829327     1.821684     1.814041     1.806398     1.798755     1.791112
      1.783469     1.775826     1.768183     1.760540     1.752896     1.745253     1.737610     1.729967     1.722324     1.714681
      1.707038     1.699395     1.691752     1.684108     1.676465     1.668822     1.661179     1.653536     1.645893     1.638250
      1.630607     1.622964     1.615321     1.607677     1.600034     1.592391     1.584748     1.577105     1.569462     1.561819
      1.554176     1.546533     1.538890     1.531246     1.523603     1.515960     1.508317     1.500674     1.493031     1.485388
      1.477745     1.470102     1.462458     1.454815     1.447172     1.439529     1.431886     1.424243     1.416600     1.408957
      1.401314     1.393671     1.386027     1.378384     1.370741     1.363098     1.355455     1.347812     1.340169     1.332526
      1.324883     1.317240     1.309596     1.301953     1.294310     1.286667     1.279024     1.271381     1.263738     1.256095
      1.248452     1.240808     1.233165     1.225522     1.217879     1.210236     1.202593     1.194950     1.187307     1.179664
      1.172021     1.164377     1.156734     1.149091     1.141448     1.133805     1.126162     1.118519     1.110876     1.103233
      1.095590     1.087946     1.080303     1.072660     1.065017     1.057374     1.049731     1.042088     1.034445     1.026802
      1.019158     1.011515     1.003872     0.996229     0.988586     0.980943     0.973300     0.965657     0.958014     0.950371
      0.942727     0.935084     0.927441     0.919798     0.912155     0.904512     0.896869     0.889226     0.881583     0.873940
      0.866296     0.858653     0.851010     0.843367     0.835724     0.828081     0.820438     0.812795     0.805152     0.797508
      0.789865     0.782222     0.774579     0.766936     0.759293     0.751650     0.744007     0.736364     0.728721     0.721077
      0.713434     0.705791     0.698148     0.690505     0.682862     0.675219     0.667576     0.659933     0.652290     0.644646
      0.637003     0.629360     0.621717     0.614074     0.606431     0.598788     0.591145     0.583502     0.575858     0.568215
      0.560572     0.552929     0.545286     0.537643     0.530000     0.522357     0.514714     0.507071     0.499427     0.491784
      0.484141     0.476498     0.468855     0.461212     0.453569     0.445925     0.438282     0.430639     0.422996     0.415353
      0.407710     0.400067     0.392424     0.384780     0.377137     0.369494     0.361851     0.354208     0.346565     0.338922
      0.331278     0.323635     0.315992     0.308349     0.300706     0.293063     0.285420     0.277777     0.270133     0.262490
      0.254847     0.247204     0.239561     0.231918     0.224275     0.216631     0.208988     0.201345
 NY phased data points follow
   1.46585E+01  1.21258E+01  1.34824E+01  1.60574E+01  1.79280E+01  2.20669E+01  2.15196E+01  2.43354E+01  3.11950E+01  3.04064E+01
   3.95636E+01  3.04528E+01  3.81406E+01  3.02540E+01  2.97158E+01  1.73428E+01  2.12775E+01  1.84774E+01  1.69520E+01  1.91735E+01
   1.94667E+01  1.29238E+01  1.76645E+01  1.39240E+01  1.56999E+01  1.70401E+01  1.54991E+01  1.21266E+01  1.40015E+01  1.99156E+01
   1.71783E+01  1.89682E+01  2.24906E+01  2.26192E+01  1.52861E+01  2.08584E+01  1.34232E+01  8.47685E+00  1.65724E+01  1.33569E+01
   1.26353E+01  1.21114E+01  1.66433E+01  9.37585E+00  2.04842E+01  1.63452E+01  1.95383E+01  2.40825E+01  1.93167E+01  1.50162E+01
   1.17334E+01  7.82922E+00  1.25925E+01  1.61109E+01  1.57974E+01  8.55765E+00  1.13619E+01  9.59921E+00  1.25749E+01  1.25689E+01
   1.14077E+01  1.24294E+01  1.13317E+01  8.96762E+00  4.67267E+00  8.18261E+00  9.62248E+00  1.45830E+00  5.74749E+00  1.89762E+00
   8.24770E+00  5.97749E+00  2.71278E+00  7.30552E+00  9.43857E+00  7.67094E+00  7.46842E+00  4.36826E+00  6.00557E+00  1.99982E+00
   7.84034E+00  3.61613E+00  7.70696E+00  7.31150E+00  1.07827E+01  6.04060E+00  9.43445E+00  6.74496E+00  9.37444E+00  9.46954E+00
   9.26530E+00  1.05962E+01  1.23592E+01  1.30863E+01  1.08126E+01  7.14041E+00  1.06533E+01  9.60974E+00  7.56484E+00  1.80847E+01
   2.73524E+01  4.66196E+01  4.99318E+01  5.58804E+01  5.07272E+01  4.38607E+01  2.97968E+01  3.08223E+01  2.09162E+01  1.94229E+01
   1.73030E+01  1.00399E+01  1.00209E+01  4.87770E+00  1.06389E+01  3.25579E+00  7.02946E+00  7.53484E+00  1.10043E+01  1.00047E+01
   1.06086E+01  6.02340E+00  6.92371E+00  1.13361E+01  2.28888E+01  3.02614E+01  3.55760E+01  4.68329E+01  4.47682E+01  3.59134E+01
   3.12714E+01  2.22170E+01  2.18062E+01  1.12088E+01  1.17619E+01  8.98608E+00  8.52801E+00  1.05839E+01  4.09663E+00  1.04310E+01
   1.30990E+01  1.23298E+01  8.10769E+00  5.22574E+00  5.34407E+00  5.19914E+00  6.10011E+00  6.87909E+00  5.13118E+00  6.89114E+00
   4.39454E+00  5.01234E+00  4.61888E+00  6.58773E-01  6.67458E+00  4.99197E+00  7.56443E-01  2.23742E+00  3.85745E+00  3.65789E+00
   6.25162E+00  1.10087E+00  1.60136E+00  5.28157E+00  1.23060E+00  2.72205E+00  3.41216E+00 -1.80164E+00  5.31580E-01 -5.17725E+00
  -4.72156E+00 -3.50893E+00 -1.02454E+00 -9.86397E+00 -1.20737E+01 -9.08407E+00 -1.23648E+01 -3.39693E+00 -6.24445E+00 -9.92190E+00
  -1.04788E+01 -1.07228E+01 -8.40265E+00 -1.00321E+01 -9.90294E-01  2.04042E+00 -2.16419E+00 -3.93889E+00 -1.25801E+00 -5.37306E+00
   6.65119E-01 -7.47587E+00  4.76303E-01  1.58627E+00 -7.10169E-01 -8.86207E-01 -6.13431E+00 -6.24721E+00 -4.28320E+00 -5.33426E+00
  -4.76003E+00 -2.10737E+00  2.08609E+00  7.67579E+00  9.21979E+00  2.03261E+00 -3.03917E+00  3.52089E+00 -1.16991E+00  4.68222E+00
   1.02572E+00 -1.30796E+00  4.52522E+00  7.30492E+00  9.52492E+00  1.80997E+01  1.51439E+01  1.12324E+01  9.56992E+00  7.08981E+00
   1.33001E+00  5.41238E-01 -3.94298E+00 -2.19621E+00 -1.37338E+00  3.85099E+00  9.53260E+00  1.23741E+00  7.24734E+00  4.39793E+00
   1.03879E+01  6.87743E+00  7.57085E+00  1.14284E+01  3.01675E+00  5.87283E+00  6.42197E+00  1.02289E+01  1.17387E+01  7.21036E+00
   1.23525E+00  2.66315E+00  2.94122E+00  1.48112E+00  8.19253E+00  1.18086E+01  1.53187E+01  8.54861E+00  1.54001E+01  1.90544E+01
   1.88885E+01  2.07854E+01  2.62852E+01  2.76396E+01  3.23302E+01  3.70281E+01  4.12037E+01  5.01867E+01  7.14773E+01  8.63206E+01
   9.22601E+01  9.18386E+01  6.99053E+01  6.01486E+01  3.83473E+01  2.72162E+01  1.93690E+01  1.94329E+01  1.00961E+01  9.75533E+00
   7.01488E+00  4.41287E+00  5.80404E+00  8.73623E+00  8.74554E+00  6.23705E+00  3.25140E+00  2.55873E+00  2.37042E+00  8.88282E+00
   8.47695E-01  3.86120E+00  4.58933E+00  2.28556E+00  1.95420E-01  4.02410E+00  3.49239E+00  3.47188E+00  5.90467E+00  2.18305E+00
   3.82152E+00  5.34422E+00  1.90107E+00  2.74235E+00  2.19281E+00 -1.20231E+00  1.02518E+00  4.85472E+00  5.80506E-01  3.16792E+00
   3.34536E+00  8.60933E+00  3.94414E+00  9.67556E+00  3.03659E+00  5.32253E+00  5.19992E+00  6.66324E+00  1.14080E+01  6.46683E+00
   7.89965E+00  6.43282E+00  1.22129E+01  6.16994E+00  1.01169E+01  9.40840E+00  6.61989E+00  9.38778E+00  4.68874E+00  5.15641E-01
   5.78644E+00  1.79459E+00  5.87824E+00  3.43980E+00  5.62238E+00  5.74460E+00  5.32524E+00  1.12536E+01  4.41935E+00  4.52226E-01
   1.44181E+00  4.47223E+00  3.50338E+00  6.12543E+00 -2.19497E+00  4.68526E+00  1.21007E+00  4.46276E+00  9.57522E+00  4.33652E+00
   6.98357E+00  6.77760E+00  9.57050E+00  5.95213E+00  9.47093E+00  8.26597E+00  8.59465E+00  5.95710E+00  1.07720E+01  2.91081E+00
   4.53561E+00  3.27462E+00  2.51709E+00  1.48481E+00  7.04789E-01  6.56217E+00  1.54931E+00  2.65304E+00 -1.16860E+00  8.56442E-01
   5.67730E+00  3.06192E+00  3.30505E+00  4.54035E+00  1.00535E+00  4.74054E+00  8.95079E+00  5.72232E+00  7.65760E+00  5.82306E+00
   3.11602E+00  2.32580E+00  6.72206E+00  6.00371E+00  1.71369E+00  2.96609E+00  5.75840E+00  2.88753E+00  3.27560E+00  4.81866E+00
   4.05952E+00  6.43965E-01  4.21489E+00  5.08377E+00  9.35504E-01 -2.52483E+00 -1.60426E+00  1.35465E+00  8.67756E-01 -1.67830E+00
   3.46312E+00  5.66259E+00  6.32345E+00  7.00153E+00  6.40057E+00  7.89613E+00  4.25956E+00  1.30167E+01  4.16640E+00  7.38292E+00
   4.31007E+00  9.34566E+00 -5.02766E-02  5.61005E+00  6.38250E+00  1.06305E+01  7.05594E+00  5.90159E+00  7.35750E+00  6.43252E+00
   9.17737E+00  5.01422E+00  9.40359E+00  4.83246E+00  8.40729E+00 -1.28032E+00  1.67345E+00  2.10973E+00 -2.85731E+00  3.41571E+00
   2.21757E-01  2.05975E+00  1.11535E+00 -2.18922E+00 -7.08054E+00 -3.48970E+00 -3.68341E+00 -1.03762E+00 -2.22534E+00 -2.99409E+00
   2.62448E+00  1.60323E+00  2.80683E-01 -2.36933E+00  2.89481E+00 -1.35963E+00 -2.35758E+00  2.63858E+00  1.39497E+00 -4.40063E-01
  -1.27201E+00  1.22054E+00  3.54505E+00  4.05556E-01 -9.79844E-01 -1.75687E+00  1.13204E+00 -1.42290E+00 -4.30992E+00  3.01989E+00
   3.55333E+00 -1.91870E+00 -1.53437E+00  3.29346E+00  3.90825E+00  4.69002E+00  9.70765E-01 -1.27795E+00  4.70854E+00 -1.81097E+00
   1.13977E+00  7.43058E-02  1.30966E+00 -1.24450E+00 -3.93036E+00  7.33017E-01  4.49595E+00 -4.59105E+00  4.52235E+00 -1.93744E+00
   9.37004E-01  4.46655E+00 -2.41807E+00  6.10363E+00  2.76800E+00 -1.62396E+00  9.66363E-01  2.76150E+00  2.18482E+00  1.19465E+00
   3.59361E+00 -1.41064E+00  2.44637E+00 -9.67715E-01 -2.75429E+00  8.39597E-01 -5.44776E-01  2.42447E-01  3.27406E+00 -3.64000E+00
   1.45219E+00  2.80414E-01 -1.53117E+00  2.52376E+00  3.59279E+00 -1.17240E+00  2.73214E+00  5.83028E+00
 NY points of the fit to the data follow
   1.20081E+01  1.18991E+01  1.21048E+01  1.27227E+01  1.38928E+01  1.60771E+01  1.98454E+01  2.41116E+01  2.82918E+01  3.23066E+01
   3.47284E+01  3.49940E+01  3.33789E+01  2.99494E+01  2.61671E+01  2.29749E+01  1.98246E+01  1.76074E+01  1.64791E+01  1.49327E+01
   1.37914E+01  1.34400E+01  1.31757E+01  1.28728E+01  1.26152E+01  1.22316E+01  1.24901E+01  1.41091E+01  1.65218E+01  1.90867E+01
   2.10990E+01  2.19156E+01  2.16799E+01  2.04620E+01  1.84122E+01  1.62694E+01  1.41818E+01  1.19647E+01  1.07674E+01  1.05206E+01
   1.09682E+01  1.16859E+01  1.24073E+01  1.37707E+01  1.57436E+01  1.78056E+01  1.93140E+01  1.93991E+01  1.80227E+01  1.59832E+01
   1.38716E+01  1.21109E+01  1.11004E+01  1.05562E+01  9.88982E+00  9.48981E+00  9.79177E+00  1.04484E+01  1.10825E+01  1.14646E+01
   1.13118E+01  1.06836E+01  9.73930E+00  8.76577E+00  8.14307E+00  7.96190E+00  8.01179E+00  8.19947E+00  8.50150E+00  8.86944E+00
   9.20533E+00  9.37979E+00  9.33885E+00  9.10072E+00  8.76689E+00  8.45481E+00  8.18702E+00  8.03049E+00  7.89362E+00  7.72284E+00
   7.68420E+00  7.79454E+00  8.02887E+00  8.61988E+00  9.39008E+00  9.78622E+00  9.57924E+00  8.81991E+00  7.78238E+00  7.03676E+00
   6.73734E+00  6.78297E+00  7.07279E+00  7.26908E+00  7.13885E+00  7.16026E+00  7.45293E+00  8.85976E+00  1.17072E+01  1.73631E+01
   2.85300E+01  4.23949E+01  5.31710E+01  5.72997E+01  5.32247E+01  4.37105E+01  3.39098E+01  2.56674E+01  2.00593E+01  1.68924E+01
   1.26132E+01  8.02617E+00  6.57768E+00  6.19384E+00  6.05575E+00  6.00778E+00  5.98548E+00  5.95757E+00  5.96835E+00  6.08746E+00
   6.50861E+00  7.78316E+00  1.02046E+01  1.44517E+01  2.21436E+01  3.21506E+01  4.06681E+01  4.48087E+01  4.32279E+01  3.72452E+01
   3.03887E+01  2.44078E+01  1.97279E+01  1.62417E+01  1.21423E+01  7.52483E+00  5.08476E+00  4.50530E+00  4.82996E+00  5.63508E+00
   6.30647E+00  6.58731E+00  6.65458E+00  6.45111E+00  6.11255E+00  5.80717E+00  5.48916E+00  5.16050E+00  4.81519E+00  4.39467E+00
   4.00357E+00  3.60176E+00  3.24721E+00  3.02789E+00  2.99134E+00  3.09501E+00  3.20483E+00  3.11128E+00  2.60419E+00  1.83552E+00
   1.13414E+00  8.79565E-01  1.22891E+00  1.74163E+00  1.92439E+00  1.64518E+00  8.91469E-01  3.62356E-02 -4.15575E-01 -5.61193E-01
  -6.46435E-01 -8.05561E-01 -1.33306E+00 -2.13075E+00 -2.78811E+00 -3.07688E+00 -2.86121E+00 -2.33048E+00 -2.01826E+00 -2.16319E+00
  -2.40495E+00 -2.50497E+00 -2.32219E+00 -1.91509E+00 -1.61081E+00 -1.46569E+00 -8.43210E-01  3.95174E-01  2.26293E+00  4.23794E+00
   5.35782E+00  5.52786E+00  4.95425E+00  3.97460E+00  3.08176E+00  2.37361E+00  1.85199E+00  1.89419E+00  2.47642E+00  3.44332E+00
   4.68567E+00  6.07497E+00  7.21835E+00  7.85365E+00  7.53916E+00  6.32288E+00  4.13255E+00  1.33025E+00 -1.13209E+00 -2.54687E+00
  -2.79842E+00 -1.83989E+00  2.66473E-01  3.63248E+00  7.49589E+00  1.03598E+01  1.10935E+01  9.76701E+00  6.47744E+00  2.25193E+00
  -1.88063E+00 -4.76742E+00 -5.54305E+00 -4.37111E+00 -1.87405E+00  1.54511E+00  4.37847E+00  6.15357E+00  6.74291E+00  6.62098E+00
   6.61528E+00  6.71004E+00  6.72549E+00  7.12111E+00  7.99573E+00  8.96182E+00  9.68028E+00  9.90098E+00  9.51800E+00  8.57452E+00
   7.21274E+00  5.96284E+00  5.62432E+00  6.44720E+00  7.83512E+00  9.31967E+00  1.06430E+01  1.14764E+01  1.19039E+01  1.24315E+01
   1.36304E+01  1.58287E+01  2.01353E+01  2.60887E+01  3.25965E+01  3.86633E+01  4.37275E+01  5.40814E+01  7.06357E+01  8.52515E+01
   9.20780E+01  8.79095E+01  7.30526E+01  5.58958E+01  4.17193E+01  3.15481E+01  2.59223E+01  2.00670E+01  1.13018E+01  7.71720E+00
   6.56062E+00  5.97247E+00  5.63242E+00  5.55232E+00  5.44204E+00  5.18799E+00  4.84664E+00  4.47902E+00  4.07109E+00  3.71855E+00
   3.45868E+00  3.22391E+00  3.02229E+00  2.89237E+00  2.79006E+00  2.69583E+00  2.59457E+00  2.49422E+00  2.45891E+00  2.49034E+00
   2.56305E+00  2.69883E+00  2.86381E+00  3.02960E+00  3.20360E+00  3.38200E+00  3.57207E+00  3.79896E+00  4.05671E+00  4.34064E+00
   4.65896E+00  4.99431E+00  5.32849E+00  5.64454E+00  5.92770E+00  6.17649E+00  6.38837E+00  6.54550E+00  6.65030E+00  6.70312E+00
   6.70387E+00  6.65480E+00  6.56274E+00  6.43546E+00  6.28223E+00  6.11312E+00  5.93927E+00  5.77334E+00  5.62947E+00  5.52419E+00
   5.48239E+00  5.54804E+00  5.71241E+00  5.98049E+00  6.41773E+00  6.68831E+00  6.41588E+00  5.59399E+00  4.38195E+00  3.15904E+00
   2.34405E+00  1.86468E+00  1.94461E+00  2.73354E+00  3.82628E+00  4.99697E+00  6.16452E+00  6.76455E+00  6.92327E+00  6.85010E+00
   6.70710E+00  6.70952E+00  6.77375E+00  6.63050E+00  6.62929E+00  6.59284E+00  6.24061E+00  5.55344E+00  4.62598E+00  3.72146E+00
   3.05225E+00  2.64672E+00  2.67410E+00  3.10288E+00  3.62470E+00  4.13011E+00  4.54824E+00  4.66037E+00  4.58109E+00  4.40628E+00
   4.23467E+00  4.14325E+00  3.97549E+00  3.72107E+00  3.54053E+00  3.40123E+00  3.27931E+00  3.16653E+00  3.05968E+00  2.95766E+00
   2.86033E+00  2.76825E+00  2.68263E+00  2.60525E+00  2.53819E+00  2.48355E+00  2.44338E+00  2.41983E+00  2.41531E+00  2.43234E+00
   2.47333E+00  2.54038E+00  2.63530E+00  2.75976E+00  2.91531E+00  3.10308E+00  3.32343E+00  3.57583E+00  3.85885E+00  4.17025E+00
   4.50687E+00  4.86431E+00  5.23679E+00  5.61726E+00  5.99773E+00  6.36962E+00  6.72382E+00  7.05091E+00  7.34144E+00  7.58650E+00
   7.77832E+00  7.91069E+00  7.97910E+00  7.98077E+00  7.91488E+00  7.78278E+00  7.58806E+00  7.33618E+00  7.03407E+00  6.68961E+00
   6.31143E+00  5.90860E+00  5.49033E+00  5.06542E+00  4.64178E+00  4.22621E+00  3.82448E+00  3.44130E+00  3.08033E+00  2.74402E+00
   2.43363E+00  2.14941E+00  1.89102E+00  1.65768E+00  1.44822E+00  1.26102E+00  1.09414E+00  9.45579E-01  8.13503E-01  6.96269E-01
   5.92289E-01  4.99949E-01  4.17687E-01  3.44168E-01  2.78370E-01  2.19466E-01  1.66635E-01  1.19023E-01  7.58566E-02  3.65891E-02
   8.88859E-04 -3.15378E-02 -6.10852E-02 -8.81974E-02 -1.13224E-01 -1.36323E-01 -1.57551E-01 -1.77034E-01 -1.95022E-01 -2.11785E-01
  -2.27462E-01 -2.42035E-01 -2.55475E-01 -2.67884E-01 -2.79466E-01 -2.90379E-01 -3.00635E-01 -3.10153E-01 -3.18918E-01 -3.27060E-01
  -3.34749E-01 -3.42056E-01 -3.48906E-01 -3.55206E-01 -3.60986E-01 -3.66395E-01 -3.71560E-01 -3.76473E-01 -3.81025E-01 -3.85155E-01
  -3.88941E-01 -3.92528E-01 -3.95978E-01 -3.99217E-01 -4.02131E-01 -4.04715E-01 -4.07092E-01 -4.09380E-01 -4.11578E-01 -4.13576E-01
  -4.15291E-01 -4.16774E-01 -4.18160E-01 -4.19518E-01 -4.20784E-01 -4.21837E-01 -4.22650E-01 -4.23321E-01 -4.23969E-01 -4.24603E-01
  -4.25116E-01 -4.25412E-01 -4.25519E-01 -4.25560E-01 -4.25611E-01 -4.25617E-01 -4.25454E-01 -4.25070E-01
 NY background values follow
     9.072E+00    9.027E+00    8.983E+00    8.938E+00    8.894E+00    8.849E+00    8.804E+00    8.760E+00    8.715E+00    8.670E+00
     8.626E+00    8.581E+00    8.537E+00    8.492E+00    8.447E+00    8.403E+00    8.358E+00    8.314E+00    8.269E+00    8.224E+00
     8.180E+00    8.135E+00    8.091E+00    8.046E+00    8.002E+00    7.957E+00    7.913E+00    7.868E+00    7.824E+00    7.780E+00
     7.735E+00    7.691E+00    7.646E+00    7.602E+00    7.558E+00    7.513E+00    7.469E+00    7.425E+00    7.381E+00    7.336E+00
     7.292E+00    7.248E+00    7.204E+00    7.160E+00    7.116E+00    7.072E+00    7.028E+00    6.984E+00    6.940E+00    6.896E+00
     6.852E+00    6.808E+00    6.765E+00    6.721E+00    6.677E+00    6.633E+00    6.590E+00    6.546E+00    6.503E+00    6.459E+00
     6.416E+00    6.372E+00    6.329E+00    6.286E+00    6.243E+00    6.199E+00    6.156E+00    6.113E+00    6.070E+00    6.027E+00
     5.984E+00    5.941E+00    5.899E+00    5.856E+00    5.813E+00    5.771E+00    5.728E+00    5.686E+00    5.643E+00    5.601E+00
     5.559E+00    5.516E+00    5.474E+00    5.432E+00    5.390E+00    5.348E+00    5.307E+00    5.265E+00    5.223E+00    5.181E+00
     5.140E+00    5.099E+00    5.057E+00    5.016E+00    4.975E+00    4.934E+00    4.893E+00    4.852E+00    4.811E+00    4.770E+00
     4.729E+00    4.689E+00    4.648E+00    4.608E+00    4.567E+00    4.527E+00    4.487E+00    4.447E+00    4.407E+00    4.367E+00
     4.328E+00    4.288E+00    4.248E+00    4.209E+00    4.170E+00    4.130E+00    4.091E+00    4.052E+00    4.013E+00    3.974E+00
     3.936E+00    3.897E+00    3.859E+00    3.820E+00    3.782E+00    3.744E+00    3.706E+00    3.668E+00    3.630E+00    3.592E+00
     3.555E+00    3.517E+00    3.480E+00    3.443E+00    3.405E+00    3.368E+00    3.332E+00    3.295E+00    3.258E+00    3.222E+00
     3.185E+00    3.149E+00    3.113E+00    3.077E+00    3.041E+00    3.005E+00    2.970E+00    2.935E+00    2.899E+00    2.864E+00
     2.829E+00    2.794E+00    2.760E+00    2.725E+00    2.691E+00    2.657E+00    2.623E+00    2.589E+00    2.555E+00    2.521E+00
     2.488E+00    2.455E+00    2.422E+00    2.389E+00    2.356E+00    2.324E+00    2.291E+00    2.259E+00    2.227E+00    2.196E+00
     2.164E+00    2.133E+00    2.101E+00    2.070E+00    2.040E+00    2.009E+00    1.979E+00    1.948E+00    1.918E+00    1.889E+00
     1.859E+00    1.830E+00    1.801E+00    1.772E+00    1.743E+00    1.714E+00    1.686E+00    1.658E+00    1.630E+00    1.602E+00
     1.575E+00    1.548E+00    1.520E+00    1.494E+00    1.467E+00    1.440E+00    1.414E+00    1.388E+00    1.362E+00    1.336E+00
     1.311E+00    1.286E+00    1.261E+00    1.236E+00    1.211E+00    1.186E+00    1.162E+00    1.138E+00    1.114E+00    1.090E+00
     1.066E+00    1.043E+00    1.020E+00    9.967E-01    9.739E-01    9.512E-01    9.286E-01    9.063E-01    8.842E-01    8.622E-01
     8.404E-01    8.187E-01    7.973E-01    7.760E-01    7.549E-01    7.340E-01    7.132E-01    6.926E-01    6.722E-01    6.519E-01
     6.318E-01    6.119E-01    5.921E-01    5.725E-01    5.531E-01    5.338E-01    5.147E-01    4.957E-01    4.769E-01    4.583E-01
     4.399E-01    4.216E-01    4.034E-01    3.854E-01    3.676E-01    3.499E-01    3.324E-01    3.150E-01    2.978E-01    2.807E-01
     2.638E-01    2.471E-01    2.305E-01    2.140E-01    1.977E-01    1.815E-01    1.655E-01    1.497E-01    1.340E-01    1.184E-01
     1.030E-01    8.769E-02    7.256E-02    5.756E-02    4.271E-02    2.800E-02    1.344E-02   -9.904E-04   -1.528E-02   -2.943E-02
    -4.344E-02   -5.731E-02   -7.105E-02   -8.465E-02   -9.812E-02   -1.115E-01   -1.246E-01   -1.377E-01   -1.506E-01   -1.634E-01
    -1.761E-01   -1.886E-01   -2.010E-01   -2.133E-01   -2.255E-01   -2.375E-01   -2.494E-01   -2.611E-01   -2.727E-01   -2.842E-01
    -2.956E-01   -3.069E-01   -3.180E-01   -3.290E-01   -3.399E-01   -3.506E-01   -3.612E-01   -3.717E-01   -3.821E-01   -3.924E-01
    -4.025E-01   -4.125E-01   -4.224E-01   -4.322E-01   -4.419E-01   -4.514E-01   -4.609E-01   -4.702E-01   -4.793E-01   -4.884E-01
    -4.974E-01   -5.062E-01   -5.150E-01   -5.236E-01   -5.321E-01   -5.405E-01   -5.487E-01   -5.569E-01   -5.649E-01   -5.729E-01
    -5.807E-01   -5.884E-01   -5.961E-01   -6.036E-01   -6.110E-01   -6.182E-01   -6.254E-01   -6.325E-01   -6.395E-01   -6.463E-01
    -6.531E-01   -6.597E-01   -6.663E-01   -6.727E-01   -6.791E-01   -6.853E-01   -6.914E-01   -6.975E-01   -7.034E-01   -7.092E-01
    -7.149E-01   -7.206E-01   -7.261E-01   -7.315E-01   -7.369E-01   -7.421E-01   -7.472E-01   -7.523E-01   -7.572E-01   -7.620E-01
    -7.668E-01   -7.714E-01   -7.760E-01   -7.805E-01   -7.848E-01   -7.891E-01   -7.933E-01   -7.974E-01   -8.014E-01   -8.053E-01
    -8.091E-01   -8.129E-01   -8.165E-01   -8.200E-01   -8.235E-01   -8.269E-01   -8.302E-01   -8.334E-01   -8.365E-01   -8.395E-01
    -8.424E-01   -8.453E-01   -8.480E-01   -8.507E-01   -8.533E-01   -8.557E-01   -8.581E-01   -8.605E-01   -8.627E-01   -8.648E-01
    -8.669E-01   -8.689E-01   -8.708E-01   -8.726E-01   -8.743E-01   -8.759E-01   -8.775E-01   -8.789E-01   -8.803E-01   -8.816E-01
    -8.828E-01   -8.839E-01   -8.850E-01   -8.859E-01   -8.868E-01   -8.876E-01   -8.883E-01   -8.889E-01   -8.895E-01   -8.899E-01
    -8.903E-01   -8.906E-01   -8.908E-01   -8.909E-01   -8.910E-01   -8.910E-01   -8.909E-01   -8.907E-01   -8.904E-01   -8.900E-01
    -8.896E-01   -8.891E-01   -8.885E-01   -8.879E-01   -8.871E-01   -8.863E-01   -8.855E-01   -8.845E-01   -8.835E-01   -8.824E-01
    -8.813E-01   -8.801E-01   -8.788E-01   -8.774E-01   -8.760E-01   -8.746E-01   -8.730E-01   -8.715E-01   -8.698E-01   -8.681E-01
    -8.664E-01   -8.645E-01   -8.627E-01   -8.608E-01   -8.588E-01   -8.568E-01   -8.547E-01   -8.526E-01   -8.505E-01   -8.483E-01
    -8.460E-01   -8.437E-01   -8.414E-01   -8.390E-01   -8.366E-01   -8.341E-01   -8.317E-01   -8.291E-01   -8.266E-01   -8.240E-01
    -8.213E-01   -8.187E-01   -8.160E-01   -8.133E-01   -8.105E-01   -8.077E-01   -8.049E-01   -8.021E-01   -7.992E-01   -7.964E-01
    -7.935E-01   -7.905E-01   -7.876E-01   -7.846E-01   -7.816E-01   -7.786E-01   -7.756E-01   -7.725E-01   -7.694E-01   -7.663E-01
    -7.632E-01   -7.601E-01   -7.570E-01   -7.538E-01   -7.507E-01   -7.475E-01   -7.443E-01   -7.411E-01   -7.379E-01   -7.347E-01
    -7.315E-01   -7.283E-01   -7.250E-01   -7.218E-01   -7.185E-01   -7.153E-01   -7.120E-01   -7.088E-01   -7.055E-01   -7.023E-01
    -6.990E-01   -6.957E-01   -6.925E-01   -6.892E-01   -6.860E-01   -6.827E-01   -6.795E-01   -6.763E-01
 Ala      Conc. = 2.02E+02
