 LCModel (Version 6.3-1L) Copyright: S.W. Provencher.          Ref.: Magn. Reson. Med. 30:672-679 (1993).                
 Slice#3 Row#9 Col#7  PD_24_press_1_raw_act
 36 lines in following concentration table = NCONC+1
    Conc.  %SD /Cr+PCr  Metabolite                                         
    0.000 999%   0.000 Ala                                                 
  139.477 182% 7.9E-02 Asp                                                 
  869.252  23%   0.492 Cr                                                  
  896.533  22%   0.508 PCr                                                 
   55.216 296% 3.1E-02 GABA                                                
   22.649 727% 1.3E-02 Glc                                                 
  911.438  28%   0.516 Gln                                                 
 1.87E+03  16%   1.061 Glu                                                 
  672.734   4%   0.381 GPC                                                 
    0.000 999%   0.000 PCh                                                 
  717.735  12%   0.406 GSH                                                 
 1.47E+03  20%   0.830 Ins                                                 
  313.753  44%   0.178 Lac                                                 
 2.08E+03   5%   1.175 NAA                                                 
   27.522 404% 1.6E-02 NAAG                                                
   74.240  41% 4.2E-02 Scyllo                                              
    0.000 999%   0.000 Tau                                                 
    0.000 999%   0.000 -CrCH2                                              
  672.734   4%   0.381 GPC+PCh                                             
 2.10E+03   4%   1.191 NAA+NAAG                                            
 1.77E+03   4%   1.000 Cr+PCr                                              
 2.78E+03  15%   1.577 Glu+Gln                                             
 3.09E+03  18%   1.748 Lip13a                                              
    0.000 999%   0.000 Lip13b                                              
  116.039 303% 6.6E-02 Lip09                                               
 1.65E+03  22%   0.933 MM09                                                
  295.102  92%   0.167 Lip20                                               
 2.79E+03  17%   1.577 MM20                                                
  661.248  34%   0.374 MM12                                                
 2.73E+03  14%   1.549 MM14                                                
 2.04E+03  13%   1.158 MM17                                                
 3.09E+03  18%   1.748 Lip13a+Lip13b                                       
 6.48E+03   7%   3.671 MM14+Lip13a+Lip13b+MM12                             
 1.76E+03  13%   0.999 MM09+Lip09                                          
 3.08E+03  15%   1.744 MM20+Lip20                                          
   6 lines in following misc. output table
  FWHM = 0.038 ppm    S/N =   9                                            
  Data shift = 0.015 ppm                                                   
  Ph:   4 deg       1.0 deg/ppm                                            
  alphaB,S = 1.7E+00,   5.8E+00                                            
   14 spline knots.   Ns = 6(1)                                            
  (10)11 infls.   (13) 9 extrs.                                            
  498 points on ppm-axis = NY
      4.000000     3.992357     3.984714     3.977070     3.969427     3.961784     3.954141     3.946497     3.938854     3.931211
      3.923568     3.915925     3.908281     3.900638     3.892995     3.885352     3.877708     3.870065     3.862422     3.854779
      3.847136     3.839492     3.831849     3.824206     3.816563     3.808919     3.801276     3.793633     3.785990     3.778347
      3.770703     3.763060     3.755417     3.747774     3.740130     3.732487     3.724844     3.717201     3.709558     3.701914
      3.694271     3.686628     3.678985     3.671341     3.663698     3.656055     3.648412     3.640769     3.633125     3.625482
      3.617839     3.610196     3.602552     3.594909     3.587266     3.579623     3.571980     3.564336     3.556693     3.549050
      3.541407     3.533763     3.526120     3.518477     3.510834     3.503191     3.495547     3.487904     3.480261     3.472618
      3.464974     3.457331     3.449688     3.442045     3.434402     3.426758     3.419115     3.411472     3.403829     3.396185
      3.388542     3.380899     3.373256     3.365613     3.357969     3.350326     3.342683     3.335040     3.327396     3.319753
      3.312110     3.304467     3.296824     3.289180     3.281537     3.273894     3.266251     3.258607     3.250964     3.243321
      3.235678     3.228034     3.220391     3.212748     3.205105     3.197462     3.189818     3.182175     3.174532     3.166889
      3.159245     3.151602     3.143959     3.136316     3.128673     3.121029     3.113386     3.105743     3.098100     3.090456
      3.082813     3.075170     3.067527     3.059884     3.052240     3.044597     3.036954     3.029311     3.021667     3.014024
      3.006381     2.998738     2.991095     2.983451     2.975808     2.968165     2.960522     2.952878     2.945235     2.937592
      2.929949     2.922306     2.914662     2.907019     2.899376     2.891733     2.884089     2.876446     2.868803     2.861160
      2.853517     2.845873     2.838230     2.830587     2.822944     2.815300     2.807657     2.800014     2.792371     2.784728
      2.777084     2.769441     2.761798     2.754155     2.746511     2.738868     2.731225     2.723582     2.715939     2.708295
      2.700652     2.693009     2.685366     2.677722     2.670079     2.662436     2.654793     2.647150     2.639506     2.631863
      2.624220     2.616577     2.608933     2.601290     2.593647     2.586004     2.578361     2.570717     2.563074     2.555431
      2.547788     2.540144     2.532501     2.524858     2.517215     2.509572     2.501928     2.494285     2.486642     2.478999
      2.471355     2.463712     2.456069     2.448426     2.440783     2.433139     2.425496     2.417853     2.410210     2.402566
      2.394923     2.387280     2.379637     2.371994     2.364350     2.356707     2.349064     2.341421     2.333777     2.326134
      2.318491     2.310848     2.303205     2.295561     2.287918     2.280275     2.272632     2.264988     2.257345     2.249702
      2.242059     2.234416     2.226772     2.219129     2.211486     2.203843     2.196199     2.188556     2.180913     2.173270
      2.165627     2.157983     2.150340     2.142697     2.135054     2.127410     2.119767     2.112124     2.104481     2.096838
      2.089194     2.081551     2.073908     2.066265     2.058621     2.050978     2.043335     2.035692     2.028049     2.020405
      2.012762     2.005119     1.997476     1.989833     1.982190     1.974546     1.966903     1.959260     1.951617     1.943974
      1.936331     1.928688     1.921045     1.913402     1.905759     1.898115     1.890472     1.882829     1.875186     1.867543
      1.859900     1.852257     1.844614     1.836971     1.829327     1.821684     1.814041     1.806398     1.798755     1.791112
      1.783469     1.775826     1.768183     1.760540     1.752896     1.745253     1.737610     1.729967     1.722324     1.714681
      1.707038     1.699395     1.691752     1.684108     1.676465     1.668822     1.661179     1.653536     1.645893     1.638250
      1.630607     1.622964     1.615321     1.607677     1.600034     1.592391     1.584748     1.577105     1.569462     1.561819
      1.554176     1.546533     1.538890     1.531246     1.523603     1.515960     1.508317     1.500674     1.493031     1.485388
      1.477745     1.470102     1.462458     1.454815     1.447172     1.439529     1.431886     1.424243     1.416600     1.408957
      1.401314     1.393671     1.386027     1.378384     1.370741     1.363098     1.355455     1.347812     1.340169     1.332526
      1.324883     1.317240     1.309596     1.301953     1.294310     1.286667     1.279024     1.271381     1.263738     1.256095
      1.248452     1.240808     1.233165     1.225522     1.217879     1.210236     1.202593     1.194950     1.187307     1.179664
      1.172021     1.164377     1.156734     1.149091     1.141448     1.133805     1.126162     1.118519     1.110876     1.103233
      1.095590     1.087946     1.080303     1.072660     1.065017     1.057374     1.049731     1.042088     1.034445     1.026802
      1.019158     1.011515     1.003872     0.996229     0.988586     0.980943     0.973300     0.965657     0.958014     0.950371
      0.942727     0.935084     0.927441     0.919798     0.912155     0.904512     0.896869     0.889226     0.881583     0.873940
      0.866296     0.858653     0.851010     0.843367     0.835724     0.828081     0.820438     0.812795     0.805152     0.797508
      0.789865     0.782222     0.774579     0.766936     0.759293     0.751650     0.744007     0.736364     0.728721     0.721077
      0.713434     0.705791     0.698148     0.690505     0.682862     0.675219     0.667576     0.659933     0.652290     0.644646
      0.637003     0.629360     0.621717     0.614074     0.606431     0.598788     0.591145     0.583502     0.575858     0.568215
      0.560572     0.552929     0.545286     0.537643     0.530000     0.522357     0.514714     0.507071     0.499427     0.491784
      0.484141     0.476498     0.468855     0.461212     0.453569     0.445925     0.438282     0.430639     0.422996     0.415353
      0.407710     0.400067     0.392424     0.384780     0.377137     0.369494     0.361851     0.354208     0.346565     0.338922
      0.331278     0.323635     0.315992     0.308349     0.300706     0.293063     0.285420     0.277777     0.270133     0.262490
      0.254847     0.247204     0.239561     0.231918     0.224275     0.216631     0.208988     0.201345
 NY phased data points follow
   2.28105E+01  1.67200E+01  2.17740E+01  1.97329E+01  2.83440E+01  2.68185E+01  4.40676E+01  4.02786E+01  6.07775E+01  5.06008E+01
   6.73930E+01  5.57713E+01  6.64135E+01  4.75557E+01  5.88056E+01  3.73845E+01  4.31667E+01  3.42203E+01  3.42930E+01  2.40588E+01
   2.76194E+01  2.29935E+01  2.14344E+01  2.28327E+01  2.61737E+01  2.45619E+01  3.25043E+01  2.55200E+01  3.48146E+01  3.21363E+01
   3.57469E+01  3.32586E+01  3.52410E+01  2.89481E+01  3.53499E+01  2.98673E+01  3.12393E+01  1.84239E+01  2.71639E+01  1.81929E+01
   3.11188E+01  1.97121E+01  2.22264E+01  2.06555E+01  2.90259E+01  2.25567E+01  3.27282E+01  2.52193E+01  2.82333E+01  2.69969E+01
   2.71380E+01  2.20825E+01  2.21740E+01  1.26712E+01  1.83629E+01  1.77614E+01  2.18690E+01  1.52727E+01  2.38890E+01  1.70830E+01
   2.39332E+01  1.14207E+01  9.48524E+00  6.99091E+00  1.20460E+01  5.75199E+00  8.16873E+00  6.96729E+00  6.57525E+00  5.89397E+00
   9.76756E+00  2.59539E+00  5.52762E+00  1.20052E+01  1.46567E+01  1.07260E+01  1.10628E+01  3.74389E+00  7.95189E+00  1.15519E+00
   1.07064E+01  1.51188E+00  9.42885E+00  4.15901E+00  9.49055E+00  6.94017E+00  1.59145E+01  8.58458E+00  1.01166E+01  6.56336E+00
   1.49685E+01  2.37190E+00  1.15768E+01  2.12315E+00  1.37741E+01  7.81501E-01  1.22276E+01  3.84120E+00  1.19495E+01  1.12051E+01
   2.88669E+01  5.14835E+01  7.30895E+01  7.29742E+01  7.14125E+01  6.01318E+01  4.96045E+01  3.39703E+01  2.95659E+01  1.39600E+01
   2.62944E+01  1.16669E+01  1.25611E+01  8.49568E+00  5.00910E+00  7.92519E-01  5.48549E+00  5.90535E+00  4.71241E+00  1.56707E+00
   5.78204E+00  1.17385E+00  1.08042E+01  1.08606E+01  2.46586E+01  4.31611E+01  6.31091E+01  6.04417E+01  6.48499E+01  5.88351E+01
   4.93303E+01  3.35474E+01  2.85404E+01  1.87331E+01  1.82573E+01  1.53033E+01  6.33660E+00  2.66769E+00  6.76710E+00  3.47767E+00
   3.68921E+00 -1.40889E+00  8.27953E+00 -4.71374E+00  3.41310E+00 -2.76063E+00  5.36671E+00 -4.56833E+00  1.53038E+00  4.25664E+00
  -2.53127E+00 -2.29625E-03  1.36901E+00 -4.44299E+00  2.65734E+00 -2.12126E+00 -2.49789E+00 -2.69744E+00 -8.92590E-01 -4.19958E+00
  -2.06897E+00 -7.14627E+00 -5.98869E+00 -8.48794E+00  2.26934E+00 -5.40691E-01  2.56667E+00 -4.13863E+00 -1.85497E+00 -5.02296E+00
  -6.12214E+00 -1.06335E+01 -1.05897E+01 -7.10578E+00 -9.17551E+00 -1.27307E+01 -8.56605E+00 -1.12222E+01 -1.16269E+01 -6.94134E+00
  -1.05038E+01 -1.14576E+01 -1.46613E+01 -6.33272E+00 -1.19565E+01 -1.17088E+01 -8.28911E+00 -7.99834E+00 -8.07118E+00 -6.44955E+00
   3.93226E+00 -1.05724E+00 -2.94873E-02  5.96517E+00  5.11199E+00  1.58466E+00  2.52513E+00 -8.07950E+00 -1.79116E-01 -6.32515E+00
   5.07454E+00 -3.49820E+00  1.00150E+00 -1.95500E+00  5.03629E+00 -8.67749E-01 -8.05080E-01 -2.39568E-02 -7.23323E+00 -9.28030E+00
  -5.96458E+00 -1.22229E+01  1.53915E+00 -3.11991E+00  9.08858E+00  7.45869E+00  1.81460E+01  8.09361E+00  1.24666E+01  2.62258E-01
  -2.49174E+00 -1.26053E+01 -3.56911E+00 -3.76082E+00  4.89230E+00 -2.46352E+00  9.65796E+00  3.88431E+00  6.15054E+00 -1.23581E+00
   3.47973E+00  1.92262E+00  6.76640E+00 -2.67180E+00  3.01963E+00  4.45217E+00  5.71509E+00  7.98655E+00  5.23110E+00  2.79332E+00
   4.24979E+00 -1.89718E+00  2.36264E+00 -5.84654E+00  8.81596E+00 -1.57361E+00  8.40633E+00  1.90655E+00  1.07066E+01  7.57329E+00
   9.89655E+00  1.31873E+01  1.38703E+01  9.95514E+00  1.87496E+01  1.32541E+01  2.29437E+01  3.47760E+01  6.08666E+01  8.05896E+01
   8.54609E+01  7.71687E+01  6.24826E+01  4.51346E+01  4.03735E+01  2.65136E+01  2.13654E+01  1.26043E+01  1.05293E+01  1.05697E+01
   9.73212E+00  1.12984E+01  4.65780E+00 -1.12506E+00  1.40529E+00  1.16919E+00  4.37261E+00  4.65092E+00  3.28220E+00 -4.13569E+00
   6.49302E+00 -1.34309E+00  4.15393E+00 -9.44929E-01  1.58977E+00 -2.36886E+00  5.41163E+00 -1.29769E+00  2.69828E+00 -1.88724E+00
   3.11522E+00  1.96201E+00  3.27097E+00  2.58442E+00  4.00564E+00  4.33817E+00  1.09661E+01  6.27455E+00  5.18718E+00  2.93680E+00
   7.96867E+00  6.28225E+00  8.07033E+00  1.23708E+00  6.64173E+00  8.12550E+00  1.44612E+01  1.07126E+01  9.93898E+00  1.41138E+01
   1.54539E+01  1.61423E+01  2.10133E+01  1.75059E+01  1.53182E+01  1.20680E+01  1.66135E+01  1.56271E+01  1.28832E+01  9.60700E+00
   1.21643E+01  1.13016E+01  1.07924E+01  5.83788E+00  1.44009E+01  9.76896E+00  1.34945E+01  1.11280E+01  1.44947E+01  1.21888E+01
   1.15925E+01  1.57751E+01  1.33854E+01  1.61619E+01  2.63096E+01  1.72970E+01  1.83836E+01  1.73369E+01  1.69048E+01  9.08479E+00
   1.24596E+01  1.72850E+01  1.60509E+01  1.46674E+01  1.88290E+01  1.53524E+01  1.72877E+01  1.60360E+01  1.53688E+01  6.82417E+00
   1.12383E+01  1.21496E+01  1.27882E+01  7.82689E+00  1.43237E+01  1.44901E+01  1.45135E+01  1.14727E+01  1.64207E+01  1.72505E+01
   1.96141E+01  1.63086E+01  1.33958E+01  1.32564E+01  1.77270E+01  1.27896E+01  1.40545E+01  1.08846E+01  1.57543E+01  1.12409E+01
   1.79081E+01  1.64390E+01  1.44916E+01  6.48127E+00  1.44764E+01  4.77932E+00  1.10935E+01  5.05240E+00  9.76795E+00 -3.93667E+00
   8.57375E+00  1.41000E+01  6.14438E+00  1.89947E+00  4.06051E+00  5.89222E+00  2.81149E+00 -3.98587E+00  6.54619E+00  1.97242E+00
   8.30391E+00 -1.34238E+00  8.96940E+00  2.84067E+00  8.27937E+00  6.61416E+00  8.94712E+00  9.88556E+00  7.81553E+00  9.19741E+00
   1.72329E+01  7.16456E+00  9.25444E+00  8.50647E+00  9.91208E+00  1.17378E+01  1.11403E+01  8.47802E+00  6.16091E+00  1.00414E+01
   9.28672E+00  1.08884E+01  7.72619E+00  3.62115E+00  9.21064E+00  6.09357E+00  6.20783E+00 -2.35570E-01  3.99475E+00  3.49101E+00
   4.40141E+00 -1.76640E+00  9.16759E+00  7.68339E+00  6.54078E+00 -2.23125E+00  6.51837E+00 -5.49327E-01  3.92152E+00 -4.02242E+00
  -1.77702E+00  1.55486E+00  1.68620E+00 -6.02527E+00  3.22125E+00 -7.14048E-01 -3.50101E+00 -3.19574E+00  3.08136E+00  1.26071E+00
  -3.14718E+00 -2.22163E+00 -1.47574E+00 -8.67095E-01  2.47575E-01 -4.83760E+00 -9.51240E-01  3.38645E-01  1.04222E+00 -5.31015E+00
  -4.36563E+00 -6.78983E+00 -6.01749E+00 -1.11775E+00  3.96810E+00 -3.26657E-01 -9.56566E-01  1.68822E+00 -3.62141E+00 -3.33504E+00
  -2.79965E+00 -2.37368E+00  6.81674E+00 -3.00351E+00  1.32167E+00 -1.99628E+00 -1.66257E+00  6.04445E-01  4.40803E+00 -2.12158E+00
  -2.82035E+00 -2.07646E+00 -8.75940E-01 -3.12912E+00 -5.34235E+00 -8.59261E-01  1.25611E+00 -1.40298E+00  3.77241E-02  3.57675E+00
  -3.95267E+00  3.31446E+00  6.64698E+00 -9.90780E-01 -2.30942E+00 -1.32550E+00 -2.26182E+00 -9.39073E-01 -6.90698E-01 -1.42276E+00
  -2.79222E+00 -3.25873E+00  3.95537E+00  3.36467E-01 -1.57335E+00 -5.69969E+00  5.35540E+00 -5.48163E+00
 NY points of the fit to the data follow
   2.33492E+01  2.26235E+01  2.30720E+01  2.40281E+01  2.54693E+01  2.72714E+01  3.34252E+01  3.95781E+01  5.02342E+01  5.57496E+01
   6.28553E+01  6.11795E+01  5.77532E+01  5.05655E+01  4.60685E+01  3.80412E+01  3.75379E+01  3.03431E+01  2.86865E+01  2.60890E+01
   2.32427E+01  2.22342E+01  2.14792E+01  2.17398E+01  2.15524E+01  2.02824E+01  2.17058E+01  2.53236E+01  3.13868E+01  3.43031E+01
   3.69774E+01  3.79096E+01  3.61756E+01  3.25092E+01  2.91761E+01  2.38477E+01  2.28662E+01  1.96032E+01  1.78521E+01  1.79945E+01
   1.78886E+01  1.89845E+01  1.93459E+01  2.01074E+01  2.30969E+01  2.62325E+01  2.87320E+01  2.87365E+01  2.67955E+01  2.44434E+01
   2.17513E+01  1.91907E+01  1.69022E+01  1.64377E+01  1.57913E+01  1.46976E+01  1.40715E+01  1.51575E+01  1.60523E+01  1.65185E+01
   1.65016E+01  1.55875E+01  1.43773E+01  1.30561E+01  1.18295E+01  1.14336E+01  1.15684E+01  1.14584E+01  1.18232E+01  1.20980E+01
   1.26323E+01  1.28179E+01  1.27082E+01  1.24861E+01  1.20565E+01  1.15381E+01  1.11955E+01  1.06504E+01  1.05681E+01  1.02192E+01
   1.00595E+01  9.77336E+00  9.88551E+00  1.04454E+01  1.11667E+01  1.09410E+01  9.76803E+00  8.49456E+00  7.39416E+00  6.51149E+00
   6.52811E+00  6.58775E+00  7.18635E+00  7.72115E+00  7.60469E+00  7.57179E+00  7.92864E+00  1.04994E+01  1.29656E+01  1.52343E+01
   3.04021E+01  4.99602E+01  7.26923E+01  7.40925E+01  7.35199E+01  6.17480E+01  4.98953E+01  3.60207E+01  3.05472E+01  1.90771E+01
   2.29859E+01  1.11247E+01  6.14092E+00  5.20939E+00  4.93702E+00  4.84404E+00  4.77075E+00  4.69515E+00  4.63831E+00  4.78949E+00
   5.35682E+00  7.94234E+00  1.12191E+01  1.35426E+01  2.63223E+01  4.29925E+01  6.37345E+01  6.68228E+01  6.71814E+01  5.80962E+01
   4.88901E+01  3.70016E+01  3.21074E+01  2.01812E+01  2.09474E+01  9.90718E+00  3.05222E+00  1.83217E+00  2.34466E+00  3.41561E+00
   4.83338E+00  4.88445E+00  4.84555E+00  4.87351E+00  4.38648E+00  4.04828E+00  3.74578E+00  3.10602E+00  2.69019E+00  1.87558E+00
   1.33155E+00  8.39588E-01  4.45049E-01  1.67856E-01 -4.24570E-02 -1.42240E-01 -1.65663E-01 -5.73652E-01 -1.13929E+00 -2.07720E+00
  -2.50830E+00 -2.45321E+00 -2.00153E+00 -1.41455E+00 -1.50482E+00 -1.82692E+00 -2.18363E+00 -2.88811E+00 -3.32858E+00 -3.34995E+00
  -3.93631E+00 -3.89253E+00 -4.68828E+00 -5.58517E+00 -6.27194E+00 -6.49755E+00 -6.02585E+00 -5.93451E+00 -5.89714E+00 -6.35745E+00
  -6.47431E+00 -6.63940E+00 -6.46439E+00 -6.95086E+00 -6.61807E+00 -6.96204E+00 -5.80430E+00 -4.53612E+00 -2.23850E+00 -1.92912E-01
   1.25262E+00  1.03150E+00  4.57902E-01 -7.96260E-01 -2.32931E+00 -3.75199E+00 -5.10207E+00 -4.88609E+00 -4.20935E+00 -2.50221E+00
  -3.31841E-01  2.11089E+00  4.01530E+00  5.34319E+00  4.65579E+00  3.97857E+00  1.57760E+00 -1.94559E+00 -5.94671E+00 -8.39694E+00
  -8.30678E+00 -8.04609E+00 -4.49323E+00  2.83291E-01  5.04491E+00  7.96012E+00  7.70164E+00  5.42700E+00  3.39259E+00 -1.90111E+00
  -6.45929E+00 -9.88674E+00 -9.64495E+00 -7.42561E+00 -5.62944E+00 -2.04614E+00  8.54184E-01  2.85578E+00  3.27898E+00  2.71689E+00
   2.28947E+00  3.39651E+00  3.21374E+00  3.49405E+00  4.27861E+00  5.47378E+00  6.52872E+00  6.15710E+00  5.92170E+00  5.35017E+00
   4.36144E+00  2.30737E+00  1.98959E+00  2.03093E+00  3.75345E+00  4.17891E+00  5.75392E+00  5.87176E+00  6.76554E+00  6.14251E+00
   6.50976E+00  7.50673E+00  8.86760E+00  1.07087E+01  1.54251E+01  1.65223E+01  2.35665E+01  3.90951E+01  6.35683E+01  7.85104E+01
   8.04994E+01  7.59470E+01  6.48815E+01  4.97054E+01  4.00806E+01  2.88425E+01  2.41485E+01  2.16299E+01  9.49547E+00  5.60203E+00
   3.98731E+00  3.42907E+00  2.77454E+00  2.78540E+00  2.67927E+00  2.53524E+00  2.26688E+00  1.97757E+00  1.58773E+00  1.16914E+00
   9.08938E-01  6.20069E-01  3.70551E-01  2.13509E-01  1.54230E-01  1.07250E-01  1.52832E-01  1.87008E-01  3.26151E-01  5.14757E-01
   7.48204E-01  1.04713E+00  1.41339E+00  1.84715E+00  2.34983E+00  2.91980E+00  3.56475E+00  4.27266E+00  5.02648E+00  5.83364E+00
   6.66824E+00  7.51939E+00  8.36941E+00  9.19401E+00  9.97820E+00  1.06998E+01  1.13458E+01  1.19034E+01  1.23622E+01  1.27171E+01
   1.29700E+01  1.31189E+01  1.31766E+01  1.31547E+01  1.30686E+01  1.29362E+01  1.27761E+01  1.26071E+01  1.24472E+01  1.23124E+01
   1.22157E+01  1.21667E+01  1.21712E+01  1.22311E+01  1.23451E+01  1.25084E+01  1.27135E+01  1.29507E+01  1.32092E+01  1.34779E+01
   1.37460E+01  1.40037E+01  1.42426E+01  1.44566E+01  1.46424E+01  1.47996E+01  1.49314E+01  1.50446E+01  1.51511E+01  1.52716E+01
   1.54500E+01  1.57679E+01  1.59923E+01  1.64006E+01  1.73820E+01  1.80492E+01  1.79513E+01  1.62945E+01  1.47899E+01  1.31466E+01
   1.17019E+01  1.06490E+01  1.07835E+01  1.18475E+01  1.41843E+01  1.48294E+01  1.60781E+01  1.68062E+01  1.68343E+01  1.66554E+01
   1.62578E+01  1.57283E+01  1.57535E+01  1.48256E+01  1.40389E+01  1.33779E+01  1.27473E+01  1.21200E+01  1.14887E+01  1.08541E+01
   1.02203E+01  9.59325E+00  8.97948E+00  8.38566E+00  7.81832E+00  7.28375E+00  6.78776E+00  6.33553E+00  5.93155E+00  5.57965E+00
   5.28314E+00  5.04486E+00  4.86710E+00  4.75160E+00  4.69952E+00  4.71144E+00  4.78738E+00  4.92664E+00  5.12761E+00  5.38763E+00
   5.70283E+00  6.06809E+00  6.47689E+00  6.92129E+00  7.39184E+00  7.87772E+00  8.36696E+00  8.84672E+00  9.30372E+00  9.72458E+00
   1.00964E+01  1.04072E+01  1.06464E+01  1.08057E+01  1.08788E+01  1.08622E+01  1.07551E+01  1.05594E+01  1.02797E+01  9.92296E+00
   9.49810E+00  9.01550E+00  8.48655E+00  7.92308E+00  7.33693E+00  6.73946E+00  6.14114E+00  5.55125E+00  4.97772E+00  4.42701E+00
   3.90410E+00  3.41258E+00  2.95467E+00  2.53140E+00  2.14284E+00  1.78826E+00  1.46631E+00  1.17519E+00  9.12808E-01  6.76906E-01
   4.65184E-01  2.75372E-01  1.05300E-01 -4.70896E-02 -1.83711E-01 -3.06298E-01 -4.16409E-01 -5.15431E-01 -6.04591E-01 -6.84987E-01
  -7.57582E-01 -8.23203E-01 -8.82609E-01 -9.36421E-01 -9.85206E-01 -1.02946E+00 -1.06963E+00 -1.10610E+00 -1.13920E+00 -1.16923E+00
  -1.19646E+00 -1.22111E+00 -1.24342E+00 -1.26355E+00 -1.28166E+00 -1.29790E+00 -1.31242E+00 -1.32534E+00 -1.33678E+00 -1.34686E+00
  -1.35564E+00 -1.36323E+00 -1.36968E+00 -1.37508E+00 -1.37948E+00 -1.38297E+00 -1.38557E+00 -1.38737E+00 -1.38839E+00 -1.38869E+00
  -1.38831E+00 -1.38728E+00 -1.38564E+00 -1.38341E+00 -1.38064E+00 -1.37734E+00 -1.37356E+00 -1.36932E+00 -1.36464E+00 -1.35955E+00
  -1.35407E+00 -1.34822E+00 -1.34202E+00 -1.33550E+00 -1.32866E+00 -1.32153E+00 -1.31413E+00 -1.30647E+00 -1.29857E+00 -1.29044E+00
  -1.28210E+00 -1.27357E+00 -1.26486E+00 -1.25598E+00 -1.24695E+00 -1.23779E+00 -1.22851E+00 -1.21913E+00
 NY background values follow
     1.791E+01    1.776E+01    1.762E+01    1.747E+01    1.732E+01    1.718E+01    1.703E+01    1.688E+01    1.673E+01    1.659E+01
     1.644E+01    1.629E+01    1.614E+01    1.600E+01    1.585E+01    1.570E+01    1.555E+01    1.541E+01    1.526E+01    1.511E+01
     1.496E+01    1.482E+01    1.467E+01    1.452E+01    1.437E+01    1.423E+01    1.408E+01    1.393E+01    1.379E+01    1.364E+01
     1.349E+01    1.335E+01    1.320E+01    1.305E+01    1.291E+01    1.276E+01    1.262E+01    1.247E+01    1.232E+01    1.218E+01
     1.203E+01    1.189E+01    1.174E+01    1.160E+01    1.145E+01    1.131E+01    1.117E+01    1.102E+01    1.088E+01    1.073E+01
     1.059E+01    1.045E+01    1.030E+01    1.016E+01    1.002E+01    9.876E+00    9.734E+00    9.593E+00    9.452E+00    9.311E+00
     9.170E+00    9.030E+00    8.890E+00    8.750E+00    8.611E+00    8.473E+00    8.334E+00    8.196E+00    8.059E+00    7.922E+00
     7.785E+00    7.649E+00    7.514E+00    7.379E+00    7.244E+00    7.110E+00    6.976E+00    6.843E+00    6.711E+00    6.579E+00
     6.447E+00    6.316E+00    6.186E+00    6.056E+00    5.927E+00    5.799E+00    5.671E+00    5.544E+00    5.417E+00    5.291E+00
     5.166E+00    5.042E+00    4.918E+00    4.795E+00    4.672E+00    4.550E+00    4.429E+00    4.309E+00    4.189E+00    4.071E+00
     3.952E+00    3.835E+00    3.718E+00    3.602E+00    3.487E+00    3.373E+00    3.259E+00    3.146E+00    3.034E+00    2.923E+00
     2.812E+00    2.702E+00    2.593E+00    2.485E+00    2.377E+00    2.270E+00    2.165E+00    2.059E+00    1.955E+00    1.852E+00
     1.749E+00    1.647E+00    1.546E+00    1.446E+00    1.347E+00    1.248E+00    1.150E+00    1.053E+00    9.575E-01    8.623E-01
     7.681E-01    6.747E-01    5.821E-01    4.905E-01    3.997E-01    3.098E-01    2.208E-01    1.326E-01    4.539E-02   -4.097E-02
    -1.264E-01   -2.110E-01   -2.947E-01   -3.775E-01   -4.594E-01   -5.405E-01   -6.207E-01   -6.999E-01   -7.783E-01   -8.559E-01
    -9.325E-01   -1.008E+00   -1.083E+00   -1.157E+00   -1.230E+00   -1.303E+00   -1.374E+00   -1.445E+00   -1.514E+00   -1.583E+00
    -1.651E+00   -1.718E+00   -1.784E+00   -1.849E+00   -1.914E+00   -1.977E+00   -2.040E+00   -2.102E+00   -2.163E+00   -2.223E+00
    -2.282E+00   -2.341E+00   -2.398E+00   -2.455E+00   -2.511E+00   -2.566E+00   -2.620E+00   -2.673E+00   -2.726E+00   -2.777E+00
    -2.828E+00   -2.878E+00   -2.927E+00   -2.975E+00   -3.022E+00   -3.069E+00   -3.114E+00   -3.159E+00   -3.203E+00   -3.247E+00
    -3.289E+00   -3.331E+00   -3.372E+00   -3.412E+00   -3.452E+00   -3.491E+00   -3.529E+00   -3.566E+00   -3.603E+00   -3.638E+00
    -3.674E+00   -3.708E+00   -3.742E+00   -3.775E+00   -3.808E+00   -3.840E+00   -3.871E+00   -3.902E+00   -3.932E+00   -3.961E+00
    -3.990E+00   -4.018E+00   -4.046E+00   -4.073E+00   -4.099E+00   -4.125E+00   -4.150E+00   -4.175E+00   -4.199E+00   -4.223E+00
    -4.246E+00   -4.269E+00   -4.291E+00   -4.313E+00   -4.334E+00   -4.355E+00   -4.375E+00   -4.395E+00   -4.414E+00   -4.433E+00
    -4.452E+00   -4.470E+00   -4.488E+00   -4.505E+00   -4.521E+00   -4.538E+00   -4.554E+00   -4.569E+00   -4.584E+00   -4.599E+00
    -4.613E+00   -4.627E+00   -4.641E+00   -4.654E+00   -4.666E+00   -4.679E+00   -4.691E+00   -4.702E+00   -4.714E+00   -4.724E+00
    -4.735E+00   -4.745E+00   -4.755E+00   -4.764E+00   -4.773E+00   -4.782E+00   -4.790E+00   -4.799E+00   -4.806E+00   -4.814E+00
    -4.821E+00   -4.828E+00   -4.834E+00   -4.840E+00   -4.846E+00   -4.852E+00   -4.857E+00   -4.862E+00   -4.867E+00   -4.871E+00
    -4.876E+00   -4.879E+00   -4.883E+00   -4.886E+00   -4.890E+00   -4.892E+00   -4.895E+00   -4.897E+00   -4.899E+00   -4.901E+00
    -4.903E+00   -4.904E+00   -4.905E+00   -4.906E+00   -4.907E+00   -4.907E+00   -4.907E+00   -4.907E+00   -4.907E+00   -4.907E+00
    -4.906E+00   -4.905E+00   -4.904E+00   -4.903E+00   -4.901E+00   -4.899E+00   -4.897E+00   -4.895E+00   -4.893E+00   -4.891E+00
    -4.888E+00   -4.885E+00   -4.882E+00   -4.879E+00   -4.875E+00   -4.872E+00   -4.868E+00   -4.864E+00   -4.860E+00   -4.856E+00
    -4.852E+00   -4.847E+00   -4.842E+00   -4.838E+00   -4.833E+00   -4.827E+00   -4.822E+00   -4.817E+00   -4.811E+00   -4.806E+00
    -4.800E+00   -4.794E+00   -4.788E+00   -4.782E+00   -4.775E+00   -4.769E+00   -4.762E+00   -4.756E+00   -4.749E+00   -4.742E+00
    -4.735E+00   -4.728E+00   -4.721E+00   -4.713E+00   -4.706E+00   -4.698E+00   -4.690E+00   -4.682E+00   -4.674E+00   -4.666E+00
    -4.658E+00   -4.650E+00   -4.641E+00   -4.632E+00   -4.624E+00   -4.615E+00   -4.606E+00   -4.597E+00   -4.588E+00   -4.579E+00
    -4.569E+00   -4.560E+00   -4.550E+00   -4.541E+00   -4.531E+00   -4.521E+00   -4.511E+00   -4.501E+00   -4.491E+00   -4.481E+00
    -4.471E+00   -4.460E+00   -4.450E+00   -4.439E+00   -4.428E+00   -4.417E+00   -4.407E+00   -4.396E+00   -4.385E+00   -4.373E+00
    -4.362E+00   -4.351E+00   -4.339E+00   -4.328E+00   -4.316E+00   -4.304E+00   -4.292E+00   -4.280E+00   -4.268E+00   -4.256E+00
    -4.244E+00   -4.231E+00   -4.219E+00   -4.206E+00   -4.194E+00   -4.181E+00   -4.168E+00   -4.155E+00   -4.142E+00   -4.129E+00
    -4.115E+00   -4.102E+00   -4.088E+00   -4.075E+00   -4.061E+00   -4.047E+00   -4.033E+00   -4.019E+00   -4.005E+00   -3.991E+00
    -3.976E+00   -3.962E+00   -3.947E+00   -3.933E+00   -3.918E+00   -3.903E+00   -3.888E+00   -3.873E+00   -3.857E+00   -3.842E+00
    -3.826E+00   -3.811E+00   -3.795E+00   -3.779E+00   -3.763E+00   -3.747E+00   -3.731E+00   -3.715E+00   -3.698E+00   -3.682E+00
    -3.665E+00   -3.649E+00   -3.632E+00   -3.615E+00   -3.598E+00   -3.581E+00   -3.564E+00   -3.547E+00   -3.530E+00   -3.512E+00
    -3.495E+00   -3.477E+00   -3.460E+00   -3.442E+00   -3.424E+00   -3.406E+00   -3.388E+00   -3.370E+00   -3.352E+00   -3.334E+00
    -3.316E+00   -3.298E+00   -3.279E+00   -3.261E+00   -3.242E+00   -3.224E+00   -3.205E+00   -3.186E+00   -3.168E+00   -3.149E+00
    -3.130E+00   -3.111E+00   -3.092E+00   -3.073E+00   -3.054E+00   -3.035E+00   -3.015E+00   -2.996E+00   -2.977E+00   -2.957E+00
    -2.938E+00   -2.919E+00   -2.899E+00   -2.880E+00   -2.860E+00   -2.840E+00   -2.821E+00   -2.801E+00   -2.781E+00   -2.762E+00
    -2.742E+00   -2.722E+00   -2.702E+00   -2.682E+00   -2.663E+00   -2.643E+00   -2.623E+00   -2.603E+00   -2.583E+00   -2.563E+00
    -2.543E+00   -2.523E+00   -2.503E+00   -2.483E+00   -2.463E+00   -2.443E+00   -2.423E+00   -2.403E+00   -2.383E+00   -2.363E+00
    -2.343E+00   -2.323E+00   -2.303E+00   -2.283E+00   -2.263E+00   -2.244E+00   -2.224E+00   -2.204E+00
 Asp      Conc. = 1.39E+02
