 LCModel (Version 6.3-1L) Copyright: S.W. Provencher.          Ref.: Magn. Reson. Med. 30:672-679 (1993).                
 Slice#2 Row#10 Col#12  PD_24_press_1_raw_act
 36 lines in following concentration table = NCONC+1
    Conc.  %SD /Cr+PCr  Metabolite                                         
  120.798  54%   0.539 Ala                                                 
   55.232 130%   0.246 Asp                                                 
   78.582 130%   0.351 Cr                                                  
  145.593  72%   0.649 PCr                                                 
   25.399 176%   0.113 GABA                                                
   59.240  74%   0.264 Glc                                                 
  219.118  61%   0.977 Gln                                                 
  439.416  35%   1.960 Glu                                                 
    0.000 999%   0.000 GPC                                                 
   68.362  15%   0.305 PCh                                                 
    4.003 933% 1.8E-02 GSH                                                 
  225.364  58%   1.005 Ins                                                 
   40.473 174%   0.181 Lac                                                 
  766.067  11%   3.417 NAA                                                 
  131.324  67%   0.586 NAAG                                                
   39.158  28%   0.175 Scyllo                                              
   94.730  72%   0.423 Tau                                                 
   86.257  51%   0.385 -CrCH2                                              
   68.362  15%   0.305 GPC+PCh                                             
  897.391   5%   4.003 NAA+NAAG                                            
  224.175  13%   1.000 Cr+PCr                                              
  658.534  35%   2.938 Glu+Gln                                             
 9.63E+03  10%  42.945 Lip13a                                              
    0.000 999%   0.000 Lip13b                                              
  819.785  52%   3.657 Lip09                                               
  139.312 207%   0.621 MM09                                                
 1.05E+03  31%   4.684 Lip20                                               
 1.11E+03  28%   4.961 MM20                                                
  137.323 132%   0.613 MM12                                                
 1.10E+03  35%   4.924 MM14                                                
 1.56E+03  19%   6.942 MM17                                                
 9.63E+03  10%  42.945 Lip13a+Lip13b                                       
 1.09E+04   7%  48.482 MM14+Lip13a+Lip13b+MM12                             
  959.097  25%   4.278 MM09+Lip09                                          
 2.16E+03  14%   9.645 MM20+Lip20                                          
   6 lines in following misc. output table
  FWHM = 0.054 ppm    S/N =  10                                            
  Data shift = 0.000 ppm                                                   
  Ph: -55 deg     -25.3 deg/ppm                                            
  alphaB,S = 1.0E+00,   9.6E+01                                            
   14 spline knots.   Ns = 8(1)                                            
  (15) 4 infls.   (13) 1 extrs.                                            
  498 points on ppm-axis = NY
      4.000000     3.992357     3.984714     3.977070     3.969427     3.961784     3.954141     3.946497     3.938854     3.931211
      3.923568     3.915925     3.908281     3.900638     3.892995     3.885352     3.877708     3.870065     3.862422     3.854779
      3.847136     3.839492     3.831849     3.824206     3.816563     3.808919     3.801276     3.793633     3.785990     3.778347
      3.770703     3.763060     3.755417     3.747774     3.740130     3.732487     3.724844     3.717201     3.709558     3.701914
      3.694271     3.686628     3.678985     3.671341     3.663698     3.656055     3.648412     3.640769     3.633125     3.625482
      3.617839     3.610196     3.602552     3.594909     3.587266     3.579623     3.571980     3.564336     3.556693     3.549050
      3.541407     3.533763     3.526120     3.518477     3.510834     3.503191     3.495547     3.487904     3.480261     3.472618
      3.464974     3.457331     3.449688     3.442045     3.434402     3.426758     3.419115     3.411472     3.403829     3.396185
      3.388542     3.380899     3.373256     3.365613     3.357969     3.350326     3.342683     3.335040     3.327396     3.319753
      3.312110     3.304467     3.296824     3.289180     3.281537     3.273894     3.266251     3.258607     3.250964     3.243321
      3.235678     3.228034     3.220391     3.212748     3.205105     3.197462     3.189818     3.182175     3.174532     3.166889
      3.159245     3.151602     3.143959     3.136316     3.128673     3.121029     3.113386     3.105743     3.098100     3.090456
      3.082813     3.075170     3.067527     3.059884     3.052240     3.044597     3.036954     3.029311     3.021667     3.014024
      3.006381     2.998738     2.991095     2.983451     2.975808     2.968165     2.960522     2.952878     2.945235     2.937592
      2.929949     2.922306     2.914662     2.907019     2.899376     2.891733     2.884089     2.876446     2.868803     2.861160
      2.853517     2.845873     2.838230     2.830587     2.822944     2.815300     2.807657     2.800014     2.792371     2.784728
      2.777084     2.769441     2.761798     2.754155     2.746511     2.738868     2.731225     2.723582     2.715939     2.708295
      2.700652     2.693009     2.685366     2.677722     2.670079     2.662436     2.654793     2.647150     2.639506     2.631863
      2.624220     2.616577     2.608933     2.601290     2.593647     2.586004     2.578361     2.570717     2.563074     2.555431
      2.547788     2.540144     2.532501     2.524858     2.517215     2.509572     2.501928     2.494285     2.486642     2.478999
      2.471355     2.463712     2.456069     2.448426     2.440783     2.433139     2.425496     2.417853     2.410210     2.402566
      2.394923     2.387280     2.379637     2.371994     2.364350     2.356707     2.349064     2.341421     2.333777     2.326134
      2.318491     2.310848     2.303205     2.295561     2.287918     2.280275     2.272632     2.264988     2.257345     2.249702
      2.242059     2.234416     2.226772     2.219129     2.211486     2.203843     2.196199     2.188556     2.180913     2.173270
      2.165627     2.157983     2.150340     2.142697     2.135054     2.127410     2.119767     2.112124     2.104481     2.096838
      2.089194     2.081551     2.073908     2.066265     2.058621     2.050978     2.043335     2.035692     2.028049     2.020405
      2.012762     2.005119     1.997476     1.989833     1.982190     1.974546     1.966903     1.959260     1.951617     1.943974
      1.936331     1.928688     1.921045     1.913402     1.905759     1.898115     1.890472     1.882829     1.875186     1.867543
      1.859900     1.852257     1.844614     1.836971     1.829327     1.821684     1.814041     1.806398     1.798755     1.791112
      1.783469     1.775826     1.768183     1.760540     1.752896     1.745253     1.737610     1.729967     1.722324     1.714681
      1.707038     1.699395     1.691752     1.684108     1.676465     1.668822     1.661179     1.653536     1.645893     1.638250
      1.630607     1.622964     1.615321     1.607677     1.600034     1.592391     1.584748     1.577105     1.569462     1.561819
      1.554176     1.546533     1.538890     1.531246     1.523603     1.515960     1.508317     1.500674     1.493031     1.485388
      1.477745     1.470102     1.462458     1.454815     1.447172     1.439529     1.431886     1.424243     1.416600     1.408957
      1.401314     1.393671     1.386027     1.378384     1.370741     1.363098     1.355455     1.347812     1.340169     1.332526
      1.324883     1.317240     1.309596     1.301953     1.294310     1.286667     1.279024     1.271381     1.263738     1.256095
      1.248452     1.240808     1.233165     1.225522     1.217879     1.210236     1.202593     1.194950     1.187307     1.179664
      1.172021     1.164377     1.156734     1.149091     1.141448     1.133805     1.126162     1.118519     1.110876     1.103233
      1.095590     1.087946     1.080303     1.072660     1.065017     1.057374     1.049731     1.042088     1.034445     1.026802
      1.019158     1.011515     1.003872     0.996229     0.988586     0.980943     0.973300     0.965657     0.958014     0.950371
      0.942727     0.935084     0.927441     0.919798     0.912155     0.904512     0.896869     0.889226     0.881583     0.873940
      0.866296     0.858653     0.851010     0.843367     0.835724     0.828081     0.820438     0.812795     0.805152     0.797508
      0.789865     0.782222     0.774579     0.766936     0.759293     0.751650     0.744007     0.736364     0.728721     0.721077
      0.713434     0.705791     0.698148     0.690505     0.682862     0.675219     0.667576     0.659933     0.652290     0.644646
      0.637003     0.629360     0.621717     0.614074     0.606431     0.598788     0.591145     0.583502     0.575858     0.568215
      0.560572     0.552929     0.545286     0.537643     0.530000     0.522357     0.514714     0.507071     0.499427     0.491784
      0.484141     0.476498     0.468855     0.461212     0.453569     0.445925     0.438282     0.430639     0.422996     0.415353
      0.407710     0.400067     0.392424     0.384780     0.377137     0.369494     0.361851     0.354208     0.346565     0.338922
      0.331278     0.323635     0.315992     0.308349     0.300706     0.293063     0.285420     0.277777     0.270133     0.262490
      0.254847     0.247204     0.239561     0.231918     0.224275     0.216631     0.208988     0.201345
 NY phased data points follow
   8.24539E+00  6.59016E+00  8.16213E+00  1.04959E+01  7.41519E+00  7.35859E+00  6.31441E+00  8.21812E+00  7.18023E+00  8.90679E+00
   1.00373E+01  8.48485E+00  7.75717E+00  8.92532E+00  8.27323E+00  7.22831E+00  7.39897E+00  8.61527E+00  8.02656E+00  6.83972E+00
   6.42986E+00  7.12755E+00  7.11817E+00  9.18679E+00  6.70640E+00  6.91233E+00  7.85999E+00  8.27025E+00  5.78684E+00  6.52000E+00
   6.21758E+00  8.09224E+00  7.90565E+00  6.90702E+00  5.13502E+00  7.49524E+00  7.28667E+00  6.94565E+00  6.86367E+00  7.90742E+00
   6.59945E+00  4.54931E+00  5.81715E+00  8.61555E+00  6.08581E+00  7.19053E+00  7.59494E+00  8.12179E+00  7.01852E+00  6.40981E+00
   8.33300E+00  3.77983E+00  4.98007E+00  7.78054E+00  7.53158E+00  8.27513E+00  6.88723E+00  7.82428E+00  5.77317E+00  6.27708E+00
   5.90581E+00  5.73775E+00  4.55951E+00  5.76303E+00  6.57301E+00  8.34175E+00  5.24826E+00  6.27144E+00  6.44931E+00  5.31904E+00
   4.95201E+00  6.00537E+00  5.55311E+00  7.49224E+00  6.60066E+00  7.00408E+00  6.97550E+00  5.81123E+00  5.74540E+00  6.76379E+00
   6.97713E+00  6.30729E+00  7.79225E+00  6.00655E+00  6.69634E+00  8.68996E+00  4.46010E+00  8.61798E+00  7.41593E+00  7.09408E+00
   7.26255E+00  8.92880E+00  1.07480E+01  7.07235E+00  5.26371E+00  6.50901E+00  4.91790E+00  3.48030E+00  6.93092E+00  7.27712E+00
   8.51268E+00  7.33434E+00  9.39980E+00  1.21987E+01  1.32422E+01  1.03195E+01  8.88435E+00  1.06448E+01  6.54210E+00  7.54249E+00
   6.22364E+00  5.76863E+00  4.55889E+00  5.83578E+00  3.60130E+00  6.46515E+00  6.24777E+00  6.96400E+00  6.75124E+00  5.83504E+00
   4.01314E+00  7.11135E+00  5.23677E+00  6.37787E+00  6.81748E+00  1.11937E+01  1.15145E+01  1.23401E+01  1.59522E+01  1.19689E+01
   1.20831E+01  9.04904E+00  8.49928E+00  8.79465E+00  6.29829E+00  5.15072E+00  6.37314E+00  5.34274E+00  6.20561E+00  6.92238E+00
   4.88332E+00  8.44947E+00  2.99734E+00  7.19270E+00  5.61893E+00  3.86402E+00  4.17420E+00  4.14069E+00  4.60077E+00  5.00162E+00
   5.52041E+00  3.60133E+00  6.51939E+00  8.10850E+00  5.34582E+00  6.17724E+00  6.75433E+00  5.96960E+00  6.88097E+00  6.50676E+00
   7.78541E+00  3.42921E+00  6.86460E+00  7.12662E+00  2.56487E+00  3.96287E+00  6.23690E+00  5.60332E+00  3.84307E+00  3.29666E+00
   6.19576E+00  1.27777E+00  2.10655E+00  3.71912E+00  1.84390E+00  2.14456E+00  2.66499E+00  4.16065E+00  3.85792E+00  1.71311E+00
   5.81061E+00  2.62556E+00  6.42619E+00  2.23962E+00  2.96194E+00  3.40617E+00  4.09558E+00  4.01787E+00  3.13001E+00  4.56294E+00
   2.82615E+00  5.77105E+00  5.01307E+00  4.59368E+00  4.21873E+00  6.97871E+00  7.28469E+00  3.06382E+00  5.55511E+00  2.53459E+00
   7.46493E+00  4.92031E+00  6.38479E+00  6.20465E+00  5.31671E+00  6.92413E+00  6.15743E+00  3.27955E+00  9.51540E+00  5.40161E+00
   9.19031E+00  7.68098E+00  8.64087E+00  8.78975E+00  1.03991E+01  1.01824E+01  1.05473E+01  1.03228E+01  9.20942E+00  1.07693E+01
   9.50025E+00  6.77431E+00  8.79803E+00  5.50657E+00  1.03932E+01  1.03212E+01  1.00379E+01  1.05869E+01  8.87305E+00  1.19113E+01
   1.10967E+01  9.93126E+00  1.07526E+01  9.73826E+00  1.07126E+01  1.20471E+01  1.10992E+01  1.05737E+01  1.10633E+01  9.55031E+00
   1.22869E+01  1.24048E+01  1.23356E+01  1.08746E+01  1.43369E+01  1.19903E+01  1.16465E+01  1.11320E+01  1.30297E+01  1.34473E+01
   1.44263E+01  1.70105E+01  1.76289E+01  2.01629E+01  1.82732E+01  2.33353E+01  2.62771E+01  3.00921E+01  3.19707E+01  3.67967E+01
   3.92599E+01  3.87863E+01  3.77892E+01  3.10949E+01  2.93218E+01  2.24794E+01  2.25571E+01  1.90947E+01  1.83639E+01  1.72657E+01
   1.38634E+01  1.27871E+01  1.17593E+01  1.40601E+01  1.39781E+01  1.30027E+01  1.32214E+01  1.19892E+01  1.17650E+01  1.34045E+01
   1.20904E+01  1.40534E+01  1.48915E+01  1.34720E+01  1.39830E+01  1.28946E+01  1.37608E+01  1.38955E+01  1.20414E+01  1.41940E+01
   1.55735E+01  1.45986E+01  1.46013E+01  1.41659E+01  1.37903E+01  1.24402E+01  1.38413E+01  1.65760E+01  1.66334E+01  1.71990E+01
   1.71772E+01  1.58806E+01  1.72208E+01  1.56656E+01  1.85674E+01  1.62158E+01  2.21938E+01  1.88005E+01  1.92856E+01  2.01642E+01
   1.94787E+01  2.12996E+01  2.00752E+01  1.76490E+01  1.95048E+01  1.73134E+01  1.77195E+01  1.72219E+01  1.84808E+01  2.14120E+01
   2.14360E+01  2.16749E+01  2.16217E+01  2.08152E+01  2.20126E+01  1.95203E+01  2.06054E+01  1.78813E+01  2.17872E+01  2.09665E+01
   2.17838E+01  2.22479E+01  2.54031E+01  2.23618E+01  2.49957E+01  2.52916E+01  2.44261E+01  2.60610E+01  2.87614E+01  2.82880E+01
   2.73776E+01  2.77747E+01  2.89753E+01  2.75816E+01  2.94553E+01  2.79506E+01  3.11133E+01  2.93162E+01  3.02413E+01  2.95077E+01
   3.08213E+01  2.67915E+01  2.93018E+01  3.08288E+01  2.88787E+01  2.71710E+01  3.11971E+01  3.03873E+01  3.06888E+01  2.84621E+01
   2.82626E+01  2.95292E+01  2.72282E+01  3.12556E+01  3.02242E+01  3.18486E+01  2.91341E+01  2.99293E+01  2.93855E+01  2.73584E+01
   3.02014E+01  2.79327E+01  2.83300E+01  2.65483E+01  2.51263E+01  2.27028E+01  2.49662E+01  2.09021E+01  2.48075E+01  2.16875E+01
   2.23283E+01  2.00062E+01  2.09140E+01  2.02544E+01  1.97721E+01  1.82311E+01  2.00441E+01  1.61607E+01  1.73621E+01  1.67516E+01
   1.82641E+01  1.66527E+01  1.47707E+01  1.71512E+01  1.60297E+01  1.52326E+01  1.80365E+01  1.63311E+01  1.62781E+01  1.63336E+01
   1.60209E+01  1.36312E+01  1.50789E+01  1.49919E+01  1.33865E+01  1.38258E+01  1.38205E+01  1.27368E+01  1.20203E+01  1.55900E+01
   1.35240E+01  1.27508E+01  1.40639E+01  1.45556E+01  1.36510E+01  1.27689E+01  1.08158E+01  1.02526E+01  9.43517E+00  1.12821E+01
   1.09268E+01  9.63273E+00  1.01047E+01  9.14773E+00  1.05382E+01  7.26745E+00  7.74486E+00  8.73044E+00  6.10146E+00  7.69428E+00
   8.75046E+00  7.98868E+00  7.20042E+00  8.67610E+00  6.92646E+00  5.50427E+00  6.85390E+00  7.08377E+00  6.56124E+00  5.98965E+00
   5.56560E+00  5.63432E+00  6.94753E+00  6.31525E+00  7.07963E+00  5.66045E+00  7.13287E+00  6.17817E+00  7.40856E+00  4.21543E+00
   7.17945E+00  2.77544E+00  8.50228E+00  3.12852E+00  2.48157E+00  3.08938E+00  2.09597E+00  6.01262E+00  5.10561E+00  3.01711E+00
   3.17735E+00  8.12095E+00  3.78470E+00  5.16919E+00  5.82024E+00  5.15658E+00  5.56429E+00  3.97977E+00  5.26887E+00  4.45725E+00
   5.10536E+00  3.89089E+00  2.82146E+00  5.25914E+00  3.15308E+00  2.82492E+00  1.63169E+00  4.58312E+00  5.68197E+00  3.75442E+00
   2.72365E+00  1.25540E+00  4.52181E+00  5.66273E+00  2.23670E+00  4.37822E+00  2.38441E+00  4.04958E+00  6.69326E+00  2.84753E+00
   3.79981E+00  5.76981E+00  3.82747E+00  4.03419E+00  2.06220E+00  3.32043E+00  2.75176E+00  2.01071E+00
 NY points of the fit to the data follow
   7.40920E+00  7.26752E+00  7.17465E+00  7.15261E+00  7.21320E+00  7.36471E+00  7.62762E+00  7.98689E+00  8.40522E+00  8.82239E+00
   9.14879E+00  9.28950E+00  9.19514E+00  8.89894E+00  8.49794E+00  8.10048E+00  7.76854E+00  7.51456E+00  7.31636E+00  7.18769E+00
   7.14653E+00  7.17037E+00  7.22248E+00  7.21254E+00  7.10331E+00  6.89923E+00  6.65244E+00  6.45166E+00  6.38709E+00  6.51616E+00
   6.82187E+00  7.21037E+00  7.54594E+00  7.69909E+00  7.62514E+00  7.37836E+00  7.05211E+00  6.75456E+00  6.53899E+00  6.42557E+00
   6.38576E+00  6.38658E+00  6.44732E+00  6.58754E+00  6.80528E+00  7.07151E+00  7.32465E+00  7.48585E+00  7.48208E+00  7.29840E+00
   7.00552E+00  6.70363E+00  6.46619E+00  6.31387E+00  6.22880E+00  6.17444E+00  6.13922E+00  6.15135E+00  6.22334E+00  6.31736E+00
   6.37984E+00  6.38348E+00  6.32892E+00  6.24116E+00  6.15469E+00  6.09435E+00  6.06833E+00  6.06761E+00  6.07532E+00  6.09334E+00
   6.13669E+00  6.20808E+00  6.29528E+00  6.37345E+00  6.42326E+00  6.42474E+00  6.36532E+00  6.25518E+00  6.12915E+00  6.04475E+00
   6.03530E+00  6.13707E+00  6.34515E+00  6.60905E+00  6.88127E+00  7.12598E+00  7.27982E+00  7.26019E+00  7.05087E+00  6.72091E+00
   6.37153E+00  6.07321E+00  5.84099E+00  5.64369E+00  5.45983E+00  5.34724E+00  5.42164E+00  5.74971E+00  6.32901E+00  7.11693E+00
   8.05912E+00  9.09890E+00  1.01133E+01  1.08547E+01  1.10729E+01  1.07013E+01  9.92307E+00  9.02561E+00  8.22969E+00  7.61148E+00
   7.07818E+00  6.53320E+00  5.98585E+00  5.60246E+00  5.45790E+00  5.39351E+00  5.35388E+00  5.32843E+00  5.33708E+00  5.44549E+00
   5.69396E+00  6.14675E+00  6.87883E+00  7.87021E+00  9.05545E+00  1.03370E+01  1.15098E+01  1.22658E+01  1.23656E+01  1.18181E+01
   1.08883E+01  9.89824E+00  9.05789E+00  8.39025E+00  7.78845E+00  7.17083E+00  6.59011E+00  6.25881E+00  6.16167E+00  6.13140E+00
   6.12368E+00  6.12845E+00  6.14163E+00  6.16257E+00  6.18985E+00  6.21742E+00  6.23820E+00  6.24595E+00  6.24099E+00  6.23087E+00
   6.22276E+00  6.21934E+00  6.21519E+00  6.20317E+00  6.18290E+00  6.15198E+00  6.10384E+00  6.03479E+00  5.93714E+00  5.81471E+00
   5.69020E+00  5.59646E+00  5.56133E+00  5.58258E+00  5.61313E+00  5.59227E+00  5.49039E+00  5.32268E+00  5.13623E+00  4.97209E+00
   4.83719E+00  4.69416E+00  4.52534E+00  4.34209E+00  4.16549E+00  4.03569E+00  3.97097E+00  3.97077E+00  4.01626E+00  4.05880E+00
   4.06680E+00  4.06123E+00  4.08629E+00  4.18143E+00  4.34199E+00  4.52555E+00  4.69799E+00  4.87560E+00  5.10589E+00  5.38042E+00
   5.63758E+00  5.81281E+00  5.89350E+00  5.92287E+00  5.95605E+00  6.02549E+00  6.12944E+00  6.24260E+00  6.37638E+00  6.56806E+00
   6.81944E+00  7.09388E+00  7.32646E+00  7.44655E+00  7.37572E+00  7.08673E+00  6.62676E+00  6.10558E+00  5.64624E+00  5.37253E+00
   5.40299E+00  5.76076E+00  6.35534E+00  7.05489E+00  7.73967E+00  8.26727E+00  8.50802E+00  8.40905E+00  8.04330E+00  7.55964E+00
   7.09788E+00  6.83976E+00  6.87815E+00  7.18964E+00  7.70955E+00  8.34049E+00  8.98586E+00  9.51763E+00  9.89471E+00  1.01662E+01
   1.03804E+01  1.05535E+01  1.06715E+01  1.07583E+01  1.08718E+01  1.10403E+01  1.12560E+01  1.15018E+01  1.17475E+01  1.19608E+01
   1.21152E+01  1.21984E+01  1.22580E+01  1.23658E+01  1.25545E+01  1.28008E+01  1.30605E+01  1.33421E+01  1.36864E+01  1.41300E+01
   1.47411E+01  1.55855E+01  1.67597E+01  1.83767E+01  2.04750E+01  2.32071E+01  2.64292E+01  2.98628E+01  3.33235E+01  3.64716E+01
   3.85292E+01  3.86427E+01  3.65395E+01  3.28420E+01  2.86560E+01  2.49115E+01  2.20312E+01  1.96668E+01  1.73629E+01  1.50907E+01
   1.34264E+01  1.27613E+01  1.24849E+01  1.23235E+01  1.22169E+01  1.21264E+01  1.20362E+01  1.19565E+01  1.18967E+01  1.18649E+01
   1.18647E+01  1.18976E+01  1.19622E+01  1.20595E+01  1.21921E+01  1.23577E+01  1.25532E+01  1.27767E+01  1.30288E+01  1.33102E+01
   1.36189E+01  1.39507E+01  1.43015E+01  1.46661E+01  1.50375E+01  1.54099E+01  1.57800E+01  1.61439E+01  1.64971E+01  1.68352E+01
   1.71534E+01  1.74467E+01  1.77120E+01  1.79457E+01  1.81448E+01  1.83086E+01  1.84385E+01  1.85373E+01  1.86086E+01  1.86566E+01
   1.86873E+01  1.87081E+01  1.87261E+01  1.87493E+01  1.87856E+01  1.88430E+01  1.89296E+01  1.90546E+01  1.92307E+01  1.94700E+01
   1.97666E+01  2.01219E+01  2.05129E+01  2.08994E+01  2.12443E+01  2.15049E+01  2.16354E+01  2.16370E+01  2.15667E+01  2.15453E+01
   2.16925E+01  2.20523E+01  2.26103E+01  2.33196E+01  2.41189E+01  2.49335E+01  2.56955E+01  2.63533E+01  2.68545E+01  2.72414E+01
   2.75876E+01  2.79260E+01  2.82462E+01  2.85119E+01  2.87139E+01  2.89077E+01  2.90914E+01  2.92343E+01  2.93338E+01  2.94168E+01
   2.95261E+01  2.96879E+01  2.99033E+01  3.01569E+01  3.04209E+01  3.06623E+01  3.08515E+01  3.09730E+01  3.10142E+01  3.09692E+01
   3.08577E+01  3.06931E+01  3.04737E+01  3.01916E+01  2.98457E+01  2.94569E+01  2.90385E+01  2.85857E+01  2.80987E+01  2.75803E+01
   2.70346E+01  2.64663E+01  2.58804E+01  2.52821E+01  2.46765E+01  2.40689E+01  2.34641E+01  2.28667E+01  2.22811E+01  2.17113E+01
   2.11607E+01  2.06324E+01  2.01293E+01  1.96534E+01  1.92065E+01  1.87900E+01  1.84046E+01  1.80509E+01  1.77286E+01  1.74372E+01
   1.71754E+01  1.69419E+01  1.67344E+01  1.65505E+01  1.63870E+01  1.62404E+01  1.61071E+01  1.59828E+01  1.58635E+01  1.57447E+01
   1.56223E+01  1.54922E+01  1.53508E+01  1.51948E+01  1.50218E+01  1.48297E+01  1.46174E+01  1.43842E+01  1.41305E+01  1.38573E+01
   1.35662E+01  1.32592E+01  1.29390E+01  1.26084E+01  1.22704E+01  1.19282E+01  1.15847E+01  1.12429E+01  1.09053E+01  1.05743E+01
   1.02519E+01  9.93983E+00  9.63930E+00  9.35128E+00  9.07639E+00  8.81499E+00  8.56717E+00  8.33279E+00  8.11153E+00  7.90295E+00
   7.70651E+00  7.52161E+00  7.34759E+00  7.18376E+00  7.02943E+00  6.88392E+00  6.74659E+00  6.61684E+00  6.49406E+00  6.37772E+00
   6.26726E+00  6.16226E+00  6.06226E+00  5.96690E+00  5.87578E+00  5.78858E+00  5.70497E+00  5.62472E+00  5.54756E+00  5.47329E+00
   5.40167E+00  5.33252E+00  5.26566E+00  5.20097E+00  5.13828E+00  5.07749E+00  5.01843E+00  4.96102E+00  4.90514E+00  4.85074E+00
   4.79770E+00  4.74597E+00  4.69543E+00  4.64604E+00  4.59773E+00  4.55048E+00  4.50420E+00  4.45885E+00  4.41436E+00  4.37072E+00
   4.32788E+00  4.28581E+00  4.24447E+00  4.20382E+00  4.16381E+00  4.12445E+00  4.08571E+00  4.04756E+00  4.00996E+00  3.97290E+00
   3.93634E+00  3.90029E+00  3.86473E+00  3.82965E+00  3.79499E+00  3.76077E+00  3.72696E+00  3.69358E+00  3.66060E+00  3.62801E+00
   3.59578E+00  3.56392E+00  3.53242E+00  3.50130E+00  3.47053E+00  3.44011E+00  3.41002E+00  3.38028E+00
 NY background values follow
     7.367E+00    7.342E+00    7.317E+00    7.292E+00    7.267E+00    7.243E+00    7.218E+00    7.193E+00    7.168E+00    7.143E+00
     7.119E+00    7.094E+00    7.069E+00    7.044E+00    7.019E+00    6.994E+00    6.970E+00    6.945E+00    6.920E+00    6.895E+00
     6.871E+00    6.846E+00    6.821E+00    6.796E+00    6.771E+00    6.747E+00    6.722E+00    6.697E+00    6.673E+00    6.648E+00
     6.623E+00    6.599E+00    6.574E+00    6.549E+00    6.525E+00    6.500E+00    6.476E+00    6.451E+00    6.427E+00    6.402E+00
     6.378E+00    6.354E+00    6.329E+00    6.305E+00    6.280E+00    6.256E+00    6.232E+00    6.208E+00    6.183E+00    6.159E+00
     6.135E+00    6.111E+00    6.087E+00    6.063E+00    6.039E+00    6.015E+00    5.991E+00    5.967E+00    5.944E+00    5.920E+00
     5.896E+00    5.873E+00    5.849E+00    5.826E+00    5.802E+00    5.779E+00    5.756E+00    5.732E+00    5.709E+00    5.686E+00
     5.663E+00    5.640E+00    5.617E+00    5.595E+00    5.572E+00    5.549E+00    5.527E+00    5.504E+00    5.482E+00    5.460E+00
     5.438E+00    5.415E+00    5.393E+00    5.372E+00    5.350E+00    5.328E+00    5.306E+00    5.285E+00    5.264E+00    5.242E+00
     5.221E+00    5.200E+00    5.179E+00    5.158E+00    5.138E+00    5.117E+00    5.097E+00    5.076E+00    5.056E+00    5.036E+00
     5.016E+00    4.997E+00    4.977E+00    4.958E+00    4.939E+00    4.920E+00    4.901E+00    4.883E+00    4.865E+00    4.847E+00
     4.829E+00    4.811E+00    4.794E+00    4.777E+00    4.760E+00    4.744E+00    4.728E+00    4.712E+00    4.696E+00    4.680E+00
     4.665E+00    4.651E+00    4.636E+00    4.622E+00    4.608E+00    4.595E+00    4.581E+00    4.569E+00    4.556E+00    4.544E+00
     4.532E+00    4.521E+00    4.510E+00    4.499E+00    4.489E+00    4.479E+00    4.470E+00    4.461E+00    4.452E+00    4.444E+00
     4.436E+00    4.429E+00    4.422E+00    4.415E+00    4.409E+00    4.403E+00    4.398E+00    4.393E+00    4.388E+00    4.384E+00
     4.381E+00    4.377E+00    4.375E+00    4.372E+00    4.370E+00    4.368E+00    4.367E+00    4.366E+00    4.366E+00    4.366E+00
     4.367E+00    4.368E+00    4.369E+00    4.371E+00    4.373E+00    4.375E+00    4.378E+00    4.382E+00    4.386E+00    4.390E+00
     4.395E+00    4.400E+00    4.405E+00    4.411E+00    4.418E+00    4.424E+00    4.432E+00    4.439E+00    4.448E+00    4.456E+00
     4.465E+00    4.475E+00    4.484E+00    4.495E+00    4.505E+00    4.516E+00    4.528E+00    4.540E+00    4.552E+00    4.564E+00
     4.577E+00    4.590E+00    4.604E+00    4.618E+00    4.632E+00    4.646E+00    4.661E+00    4.676E+00    4.691E+00    4.707E+00
     4.723E+00    4.739E+00    4.755E+00    4.771E+00    4.788E+00    4.804E+00    4.821E+00    4.838E+00    4.856E+00    4.873E+00
     4.891E+00    4.908E+00    4.926E+00    4.944E+00    4.962E+00    4.980E+00    4.998E+00    5.016E+00    5.034E+00    5.053E+00
     5.071E+00    5.089E+00    5.107E+00    5.126E+00    5.144E+00    5.162E+00    5.180E+00    5.198E+00    5.216E+00    5.234E+00
     5.252E+00    5.270E+00    5.288E+00    5.306E+00    5.324E+00    5.341E+00    5.359E+00    5.376E+00    5.393E+00    5.410E+00
     5.428E+00    5.445E+00    5.461E+00    5.478E+00    5.495E+00    5.511E+00    5.527E+00    5.544E+00    5.560E+00    5.576E+00
     5.591E+00    5.607E+00    5.622E+00    5.638E+00    5.653E+00    5.668E+00    5.682E+00    5.697E+00    5.711E+00    5.725E+00
     5.739E+00    5.753E+00    5.766E+00    5.780E+00    5.793E+00    5.806E+00    5.818E+00    5.831E+00    5.843E+00    5.855E+00
     5.866E+00    5.878E+00    5.889E+00    5.900E+00    5.910E+00    5.921E+00    5.931E+00    5.941E+00    5.950E+00    5.960E+00
     5.969E+00    5.978E+00    5.986E+00    5.994E+00    6.002E+00    6.010E+00    6.018E+00    6.025E+00    6.032E+00    6.039E+00
     6.045E+00    6.052E+00    6.057E+00    6.063E+00    6.069E+00    6.074E+00    6.079E+00    6.083E+00    6.088E+00    6.092E+00
     6.096E+00    6.099E+00    6.103E+00    6.106E+00    6.109E+00    6.111E+00    6.114E+00    6.116E+00    6.117E+00    6.119E+00
     6.120E+00    6.121E+00    6.122E+00    6.122E+00    6.122E+00    6.122E+00    6.122E+00    6.121E+00    6.121E+00    6.119E+00
     6.118E+00    6.116E+00    6.115E+00    6.112E+00    6.110E+00    6.107E+00    6.104E+00    6.101E+00    6.098E+00    6.094E+00
     6.090E+00    6.086E+00    6.082E+00    6.077E+00    6.072E+00    6.067E+00    6.062E+00    6.056E+00    6.050E+00    6.044E+00
     6.038E+00    6.032E+00    6.025E+00    6.018E+00    6.011E+00    6.003E+00    5.996E+00    5.988E+00    5.980E+00    5.972E+00
     5.963E+00    5.954E+00    5.946E+00    5.936E+00    5.927E+00    5.918E+00    5.908E+00    5.898E+00    5.888E+00    5.878E+00
     5.867E+00    5.856E+00    5.845E+00    5.834E+00    5.823E+00    5.811E+00    5.800E+00    5.788E+00    5.776E+00    5.764E+00
     5.751E+00    5.739E+00    5.726E+00    5.713E+00    5.700E+00    5.686E+00    5.673E+00    5.659E+00    5.646E+00    5.632E+00
     5.617E+00    5.603E+00    5.589E+00    5.574E+00    5.559E+00    5.544E+00    5.529E+00    5.514E+00    5.499E+00    5.483E+00
     5.468E+00    5.452E+00    5.436E+00    5.420E+00    5.404E+00    5.387E+00    5.371E+00    5.354E+00    5.337E+00    5.321E+00
     5.304E+00    5.286E+00    5.269E+00    5.252E+00    5.234E+00    5.217E+00    5.199E+00    5.181E+00    5.163E+00    5.145E+00
     5.127E+00    5.109E+00    5.090E+00    5.072E+00    5.053E+00    5.035E+00    5.016E+00    4.997E+00    4.978E+00    4.959E+00
     4.940E+00    4.921E+00    4.901E+00    4.882E+00    4.863E+00    4.843E+00    4.823E+00    4.804E+00    4.784E+00    4.764E+00
     4.744E+00    4.724E+00    4.704E+00    4.684E+00    4.664E+00    4.644E+00    4.623E+00    4.603E+00    4.583E+00    4.562E+00
     4.542E+00    4.521E+00    4.501E+00    4.480E+00    4.459E+00    4.439E+00    4.418E+00    4.397E+00    4.376E+00    4.355E+00
     4.334E+00    4.314E+00    4.293E+00    4.272E+00    4.251E+00    4.230E+00    4.209E+00    4.188E+00    4.166E+00    4.145E+00
     4.124E+00    4.103E+00    4.082E+00    4.061E+00    4.040E+00    4.018E+00    3.997E+00    3.976E+00    3.955E+00    3.933E+00
     3.912E+00    3.891E+00    3.869E+00    3.848E+00    3.827E+00    3.805E+00    3.784E+00    3.763E+00    3.741E+00    3.720E+00
     3.699E+00    3.677E+00    3.656E+00    3.634E+00    3.613E+00    3.592E+00    3.570E+00    3.549E+00    3.527E+00    3.506E+00
     3.485E+00    3.463E+00    3.442E+00    3.420E+00    3.399E+00    3.378E+00    3.356E+00    3.335E+00
 Ala      Conc. = 1.21E+02
