 LCModel (Version 6.3-1L) Copyright: S.W. Provencher.          Ref.: Magn. Reson. Med. 30:672-679 (1993).                
 Slice#2 Row#4 Col#13  PD_24_press_1_raw_act
 36 lines in following concentration table = NCONC+1
    Conc.  %SD /Cr+PCr  Metabolite                                         
    0.000 999%   0.000 Ala                                                 
   49.133  95%   1.282 Asp                                                 
    0.000 999%   0.000 Cr                                                  
   38.324 424%   1.000 PCr                                                 
   30.202  92%   0.788 GABA                                                
   33.923  83%   0.885 Glc                                                 
 2.40E+03  47%  62.602 Gln                                                 
  115.299 999%   3.009 Glu                                                 
    0.000 999%   0.000 GPC                                                 
  121.461  45%   3.169 PCh                                                 
    0.000 999%   0.000 GSH                                                 
  824.264  69%  21.508 Ins                                                 
 1.03E+04  24% 269.791 Lac                                                 
  606.171  37%  15.817 NAA                                                 
    0.000 999%   0.000 NAAG                                                
   13.648  69%   0.356 Scyllo                                              
   66.038  70%   1.723 Tau                                                 
   58.454 215%   1.525 -CrCH2                                              
  121.461  45%   3.169 GPC+PCh                                             
  606.171  37%  15.817 NAA+NAAG                                            
   38.324 424%   1.000 Cr+PCr                                              
 2.51E+03  85%  65.610 Glu+Gln                                             
 1.12E+05  10% 2.9E+03 Lip13a                                              
    0.000 999%   0.000 Lip13b                                              
 2.43E+04  14% 633.051 Lip09                                               
 1.09E+04  19% 283.439 MM09                                                
  248.531 440%   6.485-Lip20                                               
 2.67E+03  44%  69.635-MM20                                                
 3.78E+03  34%  98.679 MM12                                                
 5.56E+04   9% 1.4E+03+MM14                                                
 2.69E+04  12% 703.035+MM17                                                
 1.12E+05  10% 2.9E+03 Lip13a+Lip13b                                       
 1.71E+05   6% 4.5E+03 MM14+Lip13a+Lip13b+MM12                             
 3.51E+04  10% 916.491 MM09+Lip09                                          
 2.92E+03  29%  76.120 MM20+Lip20                                          
   6 lines in following misc. output table
  FWHM = 0.168 ppm    S/N =  45                                            
  Data shift = 0.268 ppm                                                   
  Ph: -59 deg     -37.6 deg/ppm                                            
  alphaB,S = 6.1E+01,   4.4E+02                                            
    6 spline knots.   Ns = 9(2)                                            
  ( 9) 2 infls.   ( 3) 1 extrs.                                            
  498 points on ppm-axis = NY
      4.000000     3.992357     3.984714     3.977070     3.969427     3.961784     3.954141     3.946497     3.938854     3.931211
      3.923568     3.915925     3.908281     3.900638     3.892995     3.885352     3.877708     3.870065     3.862422     3.854779
      3.847136     3.839492     3.831849     3.824206     3.816563     3.808919     3.801276     3.793633     3.785990     3.778347
      3.770703     3.763060     3.755417     3.747774     3.740130     3.732487     3.724844     3.717201     3.709558     3.701914
      3.694271     3.686628     3.678985     3.671341     3.663698     3.656055     3.648412     3.640769     3.633125     3.625482
      3.617839     3.610196     3.602552     3.594909     3.587266     3.579623     3.571980     3.564336     3.556693     3.549050
      3.541407     3.533763     3.526120     3.518477     3.510834     3.503191     3.495547     3.487904     3.480261     3.472618
      3.464974     3.457331     3.449688     3.442045     3.434402     3.426758     3.419115     3.411472     3.403829     3.396185
      3.388542     3.380899     3.373256     3.365613     3.357969     3.350326     3.342683     3.335040     3.327396     3.319753
      3.312110     3.304467     3.296824     3.289180     3.281537     3.273894     3.266251     3.258607     3.250964     3.243321
      3.235678     3.228034     3.220391     3.212748     3.205105     3.197462     3.189818     3.182175     3.174532     3.166889
      3.159245     3.151602     3.143959     3.136316     3.128673     3.121029     3.113386     3.105743     3.098100     3.090456
      3.082813     3.075170     3.067527     3.059884     3.052240     3.044597     3.036954     3.029311     3.021667     3.014024
      3.006381     2.998738     2.991095     2.983451     2.975808     2.968165     2.960522     2.952878     2.945235     2.937592
      2.929949     2.922306     2.914662     2.907019     2.899376     2.891733     2.884089     2.876446     2.868803     2.861160
      2.853517     2.845873     2.838230     2.830587     2.822944     2.815300     2.807657     2.800014     2.792371     2.784728
      2.777084     2.769441     2.761798     2.754155     2.746511     2.738868     2.731225     2.723582     2.715939     2.708295
      2.700652     2.693009     2.685366     2.677722     2.670079     2.662436     2.654793     2.647150     2.639506     2.631863
      2.624220     2.616577     2.608933     2.601290     2.593647     2.586004     2.578361     2.570717     2.563074     2.555431
      2.547788     2.540144     2.532501     2.524858     2.517215     2.509572     2.501928     2.494285     2.486642     2.478999
      2.471355     2.463712     2.456069     2.448426     2.440783     2.433139     2.425496     2.417853     2.410210     2.402566
      2.394923     2.387280     2.379637     2.371994     2.364350     2.356707     2.349064     2.341421     2.333777     2.326134
      2.318491     2.310848     2.303205     2.295561     2.287918     2.280275     2.272632     2.264988     2.257345     2.249702
      2.242059     2.234416     2.226772     2.219129     2.211486     2.203843     2.196199     2.188556     2.180913     2.173270
      2.165627     2.157983     2.150340     2.142697     2.135054     2.127410     2.119767     2.112124     2.104481     2.096838
      2.089194     2.081551     2.073908     2.066265     2.058621     2.050978     2.043335     2.035692     2.028049     2.020405
      2.012762     2.005119     1.997476     1.989833     1.982190     1.974546     1.966903     1.959260     1.951617     1.943974
      1.936331     1.928688     1.921045     1.913402     1.905759     1.898115     1.890472     1.882829     1.875186     1.867543
      1.859900     1.852257     1.844614     1.836971     1.829327     1.821684     1.814041     1.806398     1.798755     1.791112
      1.783469     1.775826     1.768183     1.760540     1.752896     1.745253     1.737610     1.729967     1.722324     1.714681
      1.707038     1.699395     1.691752     1.684108     1.676465     1.668822     1.661179     1.653536     1.645893     1.638250
      1.630607     1.622964     1.615321     1.607677     1.600034     1.592391     1.584748     1.577105     1.569462     1.561819
      1.554176     1.546533     1.538890     1.531246     1.523603     1.515960     1.508317     1.500674     1.493031     1.485388
      1.477745     1.470102     1.462458     1.454815     1.447172     1.439529     1.431886     1.424243     1.416600     1.408957
      1.401314     1.393671     1.386027     1.378384     1.370741     1.363098     1.355455     1.347812     1.340169     1.332526
      1.324883     1.317240     1.309596     1.301953     1.294310     1.286667     1.279024     1.271381     1.263738     1.256095
      1.248452     1.240808     1.233165     1.225522     1.217879     1.210236     1.202593     1.194950     1.187307     1.179664
      1.172021     1.164377     1.156734     1.149091     1.141448     1.133805     1.126162     1.118519     1.110876     1.103233
      1.095590     1.087946     1.080303     1.072660     1.065017     1.057374     1.049731     1.042088     1.034445     1.026802
      1.019158     1.011515     1.003872     0.996229     0.988586     0.980943     0.973300     0.965657     0.958014     0.950371
      0.942727     0.935084     0.927441     0.919798     0.912155     0.904512     0.896869     0.889226     0.881583     0.873940
      0.866296     0.858653     0.851010     0.843367     0.835724     0.828081     0.820438     0.812795     0.805152     0.797508
      0.789865     0.782222     0.774579     0.766936     0.759293     0.751650     0.744007     0.736364     0.728721     0.721077
      0.713434     0.705791     0.698148     0.690505     0.682862     0.675219     0.667576     0.659933     0.652290     0.644646
      0.637003     0.629360     0.621717     0.614074     0.606431     0.598788     0.591145     0.583502     0.575858     0.568215
      0.560572     0.552929     0.545286     0.537643     0.530000     0.522357     0.514714     0.507071     0.499427     0.491784
      0.484141     0.476498     0.468855     0.461212     0.453569     0.445925     0.438282     0.430639     0.422996     0.415353
      0.407710     0.400067     0.392424     0.384780     0.377137     0.369494     0.361851     0.354208     0.346565     0.338922
      0.331278     0.323635     0.315992     0.308349     0.300706     0.293063     0.285420     0.277777     0.270133     0.262490
      0.254847     0.247204     0.239561     0.231918     0.224275     0.216631     0.208988     0.201345
 NY phased data points follow
   4.85626E+01  4.62167E+01  4.80346E+01  5.09452E+01  4.77830E+01  4.81545E+01  4.72241E+01  5.02477E+01  4.67962E+01  4.71496E+01
   4.55434E+01  5.14848E+01  5.12755E+01  4.96442E+01  5.29329E+01  5.21127E+01  4.83925E+01  4.93789E+01  5.10421E+01  5.05490E+01
   5.01369E+01  5.18627E+01  5.11479E+01  5.26168E+01  5.02637E+01  5.15764E+01  5.26506E+01  4.82465E+01  5.03819E+01  5.28038E+01
   5.34358E+01  5.24590E+01  5.47610E+01  5.34249E+01  5.28035E+01  5.06331E+01  5.69167E+01  5.26163E+01  4.92811E+01  5.25489E+01
   5.32689E+01  5.33696E+01  5.48804E+01  5.35450E+01  5.19694E+01  5.51518E+01  5.05733E+01  5.64260E+01  5.50239E+01  5.68244E+01
   5.24582E+01  5.37659E+01  5.36978E+01  5.48352E+01  5.67283E+01  5.56083E+01  5.19259E+01  5.52133E+01  5.62696E+01  5.59863E+01
   5.51514E+01  5.44297E+01  5.55313E+01  5.74894E+01  5.50076E+01  5.74508E+01  5.72362E+01  5.65389E+01  5.82292E+01  6.06896E+01
   6.01245E+01  5.57379E+01  5.78410E+01  6.12169E+01  5.95475E+01  6.03861E+01  5.90778E+01  5.74392E+01  5.61529E+01  6.02370E+01
   5.97523E+01  5.80007E+01  5.88028E+01  6.04789E+01  5.92317E+01  5.58630E+01  5.44234E+01  6.00176E+01  5.77165E+01  5.78366E+01
   5.91158E+01  5.95443E+01  6.05277E+01  6.36809E+01  5.91688E+01  6.06147E+01  6.33481E+01  6.18114E+01  6.10098E+01  6.01422E+01
   6.16326E+01  6.03572E+01  5.87485E+01  6.07430E+01  6.16970E+01  5.87178E+01  5.90943E+01  6.23855E+01  6.20022E+01  6.33231E+01
   5.99522E+01  6.22908E+01  6.22177E+01  6.19526E+01  6.03335E+01  6.19342E+01  6.31715E+01  6.18892E+01  6.42059E+01  6.16181E+01
   5.99061E+01  6.31760E+01  6.06424E+01  6.30199E+01  6.12363E+01  6.45527E+01  6.09831E+01  6.17475E+01  6.37088E+01  6.37672E+01
   6.02300E+01  6.69122E+01  6.10099E+01  6.51297E+01  6.45887E+01  6.40414E+01  6.42756E+01  6.37185E+01  6.29832E+01  6.34334E+01
   6.34906E+01  6.09687E+01  6.09457E+01  6.51143E+01  6.53847E+01  6.29501E+01  6.40548E+01  6.54654E+01  6.55720E+01  6.57574E+01
   6.35159E+01  6.47300E+01  6.63656E+01  6.31226E+01  6.53381E+01  6.53390E+01  6.32786E+01  6.39898E+01  6.80735E+01  6.63027E+01
   6.67043E+01  6.53442E+01  6.09276E+01  6.57888E+01  6.62293E+01  6.94437E+01  6.46077E+01  6.65137E+01  6.61364E+01  6.42981E+01
   6.60785E+01  6.81439E+01  6.85078E+01  6.83555E+01  6.58671E+01  6.68028E+01  6.51643E+01  6.28738E+01  6.90331E+01  6.59799E+01
   6.80120E+01  6.82875E+01  6.67389E+01  6.74148E+01  6.80033E+01  6.90362E+01  6.88236E+01  6.56054E+01  6.81276E+01  6.90402E+01
   6.99549E+01  7.21137E+01  7.12421E+01  7.04701E+01  7.09468E+01  6.94585E+01  7.17231E+01  7.26515E+01  7.27825E+01  7.40671E+01
   7.32643E+01  7.48507E+01  7.37761E+01  7.38219E+01  7.25291E+01  7.57303E+01  7.89044E+01  7.65923E+01  7.80676E+01  8.23777E+01
   8.09713E+01  7.85593E+01  8.21737E+01  8.01306E+01  7.87710E+01  7.99896E+01  8.34001E+01  8.33442E+01  7.99564E+01  8.60609E+01
   8.53062E+01  8.53928E+01  8.64036E+01  8.71208E+01  8.70334E+01  9.01288E+01  9.40273E+01  9.24161E+01  9.22464E+01  9.22593E+01
   9.55602E+01  9.25175E+01  9.58333E+01  9.61457E+01  9.86033E+01  9.88636E+01  9.94808E+01  1.02964E+02  1.05770E+02  1.02377E+02
   1.02817E+02  1.07076E+02  1.04912E+02  1.12181E+02  1.07218E+02  1.09392E+02  1.12496E+02  1.14562E+02  1.14768E+02  1.16596E+02
   1.21108E+02  1.20364E+02  1.22331E+02  1.26845E+02  1.28028E+02  1.29109E+02  1.33493E+02  1.36666E+02  1.39822E+02  1.41532E+02
   1.43699E+02  1.46256E+02  1.48788E+02  1.52747E+02  1.57486E+02  1.59680E+02  1.65502E+02  1.69783E+02  1.70459E+02  1.78806E+02
   1.82743E+02  1.86319E+02  1.91142E+02  1.95335E+02  1.97302E+02  2.07158E+02  2.10916E+02  2.18813E+02  2.21252E+02  2.25735E+02
   2.29767E+02  2.38112E+02  2.46439E+02  2.50966E+02  2.53746E+02  2.61266E+02  2.65286E+02  2.73705E+02  2.80775E+02  2.85300E+02
   2.93073E+02  3.00144E+02  3.06380E+02  3.13630E+02  3.21303E+02  3.25435E+02  3.30843E+02  3.44284E+02  3.48974E+02  3.55514E+02
   3.62951E+02  3.67188E+02  3.78008E+02  3.82946E+02  3.89541E+02  3.97097E+02  4.01260E+02  4.11187E+02  4.16123E+02  4.21806E+02
   4.22522E+02  4.27197E+02  4.28563E+02  4.30145E+02  4.31869E+02  4.28462E+02  4.25553E+02  4.28310E+02  4.26803E+02  4.17384E+02
   4.18538E+02  4.13838E+02  4.06226E+02  4.04322E+02  3.96733E+02  3.94957E+02  3.90350E+02  3.86222E+02  3.84124E+02  3.84626E+02
   3.78548E+02  3.79197E+02  3.74168E+02  3.73257E+02  3.70840E+02  3.68299E+02  3.66896E+02  3.63434E+02  3.61047E+02  3.55939E+02
   3.54532E+02  3.48416E+02  3.47281E+02  3.46919E+02  3.42923E+02  3.43673E+02  3.38891E+02  3.36494E+02  3.36087E+02  3.28485E+02
   3.32410E+02  3.33849E+02  3.30117E+02  3.27422E+02  3.24984E+02  3.23928E+02  3.23914E+02  3.20537E+02  3.18670E+02  3.18324E+02
   3.15960E+02  3.12616E+02  3.14932E+02  3.07648E+02  3.09077E+02  3.05020E+02  3.04693E+02  3.02645E+02  3.00210E+02  2.95996E+02
   2.96543E+02  2.93999E+02  2.88259E+02  2.86776E+02  2.86629E+02  2.81141E+02  2.79325E+02  2.73221E+02  2.75094E+02  2.72153E+02
   2.70079E+02  2.65899E+02  2.66536E+02  2.60934E+02  2.62992E+02  2.53816E+02  2.51650E+02  2.52308E+02  2.48666E+02  2.47778E+02
   2.41930E+02  2.37174E+02  2.37779E+02  2.36337E+02  2.33708E+02  2.28192E+02  2.28753E+02  2.24486E+02  2.21355E+02  2.18209E+02
   2.18798E+02  2.12865E+02  2.13324E+02  2.07357E+02  2.07976E+02  2.04780E+02  1.99871E+02  1.97763E+02  1.93198E+02  1.95705E+02
   1.91629E+02  1.87686E+02  1.88497E+02  1.85047E+02  1.82500E+02  1.81341E+02  1.78489E+02  1.73337E+02  1.74435E+02  1.72724E+02
   1.67405E+02  1.65574E+02  1.64195E+02  1.65394E+02  1.63060E+02  1.60486E+02  1.56507E+02  1.56408E+02  1.55697E+02  1.54373E+02
   1.54959E+02  1.51015E+02  1.50675E+02  1.46471E+02  1.45955E+02  1.44947E+02  1.43543E+02  1.41991E+02  1.37705E+02  1.37503E+02
   1.36128E+02  1.36579E+02  1.37016E+02  1.34733E+02  1.34461E+02  1.29794E+02  1.31902E+02  1.31656E+02  1.27271E+02  1.26514E+02
   1.26366E+02  1.23123E+02  1.25000E+02  1.25087E+02  1.21735E+02  1.20227E+02  1.20518E+02  1.18350E+02  1.19302E+02  1.15006E+02
   1.18580E+02  1.16553E+02  1.15152E+02  1.14104E+02  1.11203E+02  1.12201E+02  1.12389E+02  1.07540E+02  1.08303E+02  1.07135E+02
   1.05269E+02  1.06914E+02  1.04200E+02  1.03873E+02  1.06488E+02  1.03102E+02  1.05726E+02  1.04468E+02  1.03028E+02  9.82521E+01
   9.96334E+01  9.97040E+01  9.81446E+01  9.96436E+01  9.74853E+01  9.76543E+01  9.64944E+01  9.41329E+01  9.48710E+01  9.55449E+01
   9.46392E+01  9.36243E+01  9.29222E+01  9.47135E+01  9.03866E+01  9.04437E+01  9.16420E+01  9.27961E+01
 NY points of the fit to the data follow
   4.76500E+01  4.94398E+01  4.80102E+01  4.95644E+01  4.86437E+01  5.00665E+01  4.92449E+01  5.01235E+01  4.94100E+01  4.98004E+01
   4.92103E+01  4.92439E+01  4.88643E+01  4.91981E+01  4.92977E+01  4.96726E+01  5.00092E+01  5.02944E+01  5.07517E+01  5.08255E+01
   5.11625E+01  5.12002E+01  5.15170E+01  5.15439E+01  5.18178E+01  5.18539E+01  5.20821E+01  5.21528E+01  5.23496E+01  5.25089E+01
   5.26813E+01  5.28945E+01  5.30201E+01  5.32757E+01  5.33654E+01  5.36685E+01  5.37456E+01  5.40609E+01  5.40840E+01  5.43757E+01
   5.43386E+01  5.46125E+01  5.45568E+01  5.48344E+01  5.47889E+01  5.50424E+01  5.49980E+01  5.52050E+01  5.51138E+01  5.52154E+01
   5.51333E+01  5.51836E+01  5.51608E+01  5.51994E+01  5.53403E+01  5.53459E+01  5.54973E+01  5.54381E+01  5.55885E+01  5.54686E+01
   5.56203E+01  5.55168E+01  5.56860E+01  5.55917E+01  5.57720E+01  5.56839E+01  5.58721E+01  5.57981E+01  5.60112E+01  5.59714E+01
   5.62091E+01  5.61479E+01  5.63469E+01  5.62432E+01  5.64152E+01  5.62803E+01  5.64367E+01  5.62832E+01  5.64373E+01  5.62846E+01
   5.64347E+01  5.63038E+01  5.64632E+01  5.63610E+01  5.65667E+01  5.66497E+01  5.68806E+01  5.71096E+01  5.73395E+01  5.77133E+01
   5.79319E+01  5.84345E+01  5.86151E+01  5.91929E+01  5.93275E+01  5.99313E+01  6.00033E+01  6.06047E+01  6.06155E+01  6.11858E+01
   6.11283E+01  6.16219E+01  6.15003E+01  6.19050E+01  6.17398E+01  6.20562E+01  6.18746E+01  6.21306E+01  6.19541E+01  6.21255E+01
   6.19435E+01  6.20420E+01  6.18813E+01  6.19429E+01  6.18189E+01  6.18661E+01  6.17824E+01  6.18274E+01  6.17838E+01  6.18351E+01
   6.18206E+01  6.18875E+01  6.19049E+01  6.20182E+01  6.20949E+01  6.23518E+01  6.24394E+01  6.26881E+01  6.27601E+01  6.29863E+01
   6.30443E+01  6.32448E+01  6.32884E+01  6.34593E+01  6.34924E+01  6.36345E+01  6.36616E+01  6.37780E+01  6.38032E+01  6.38986E+01
   6.39268E+01  6.40060E+01  6.40384E+01  6.40996E+01  6.41389E+01  6.41908E+01  6.42443E+01  6.43035E+01  6.43755E+01  6.44534E+01
   6.45306E+01  6.46176E+01  6.46984E+01  6.47949E+01  6.48779E+01  6.49814E+01  6.50652E+01  6.51722E+01  6.52528E+01  6.53617E+01
   6.54505E+01  6.55627E+01  6.56619E+01  6.57676E+01  6.58785E+01  6.59815E+01  6.61127E+01  6.62191E+01  6.63707E+01  6.64785E+01
   6.66530E+01  6.67722E+01  6.69712E+01  6.71087E+01  6.73326E+01  6.74854E+01  6.77015E+01  6.78695E+01  6.80397E+01  6.82098E+01
   6.83323E+01  6.85034E+01  6.85925E+01  6.88260E+01  6.89672E+01  6.93033E+01  6.95099E+01  6.99989E+01  7.02605E+01  7.08476E+01
   7.11019E+01  7.16583E+01  7.16892E+01  7.22515E+01  7.21822E+01  7.27543E+01  7.26092E+01  7.32107E+01  7.30302E+01  7.36805E+01
   7.35377E+01  7.42455E+01  7.41887E+01  7.49343E+01  7.49743E+01  7.57712E+01  7.59414E+01  7.67925E+01  7.71120E+01  7.80017E+01
   7.84568E+01  7.93635E+01  7.99277E+01  8.08183E+01  8.14394E+01  8.23243E+01  8.30142E+01  8.38388E+01  8.44498E+01  8.52375E+01
   8.58371E+01  8.66597E+01  8.73134E+01  8.83100E+01  8.90389E+01  9.00797E+01  9.08370E+01  9.18615E+01  9.26038E+01  9.34918E+01
   9.41742E+01  9.48433E+01  9.54266E+01  9.60725E+01  9.68833E+01  9.75638E+01  9.86139E+01  9.93643E+01  1.00650E+02  1.01445E+02
   1.02942E+02  1.03830E+02  1.05750E+02  1.06932E+02  1.09109E+02  1.10581E+02  1.12899E+02  1.14643E+02  1.16996E+02  1.19022E+02
   1.21285E+02  1.23570E+02  1.25671E+02  1.28186E+02  1.30124E+02  1.32873E+02  1.34678E+02  1.37641E+02  1.39273E+02  1.42508E+02
   1.44200E+02  1.47760E+02  1.49662E+02  1.53586E+02  1.55801E+02  1.59985E+02  1.62566E+02  1.67026E+02  1.70054E+02  1.74839E+02
   1.78428E+02  1.83572E+02  1.87771E+02  1.93299E+02  1.98091E+02  2.03922E+02  2.09214E+02  2.15247E+02  2.20913E+02  2.27031E+02
   2.32978E+02  2.39118E+02  2.45337E+02  2.51534E+02  2.57675E+02  2.63756E+02  2.69774E+02  2.75743E+02  2.81676E+02  2.87605E+02
   2.93556E+02  2.99568E+02  3.05674E+02  3.11914E+02  3.18315E+02  3.24908E+02  3.31701E+02  3.38703E+02  3.45897E+02  3.53261E+02
   3.60746E+02  3.68301E+02  3.75843E+02  3.83294E+02  3.90550E+02  3.97511E+02  4.04066E+02  4.10112E+02  4.15543E+02  4.20271E+02
   4.24212E+02  4.27307E+02  4.29508E+02  4.30796E+02  4.31167E+02  4.30646E+02  4.29273E+02  4.27113E+02  4.24246E+02  4.20769E+02
   4.16788E+02  4.12421E+02  4.07790E+02  4.03022E+02  3.98244E+02  3.93597E+02  3.89232E+02  3.85356E+02  3.82360E+02  3.80787E+02
   3.78367E+02  3.77236E+02  3.74994E+02  3.73591E+02  3.71091E+02  3.68416E+02  3.65069E+02  3.62541E+02  3.59331E+02  3.56707E+02
   3.53740E+02  3.51210E+02  3.48618E+02  3.46404E+02  3.44230E+02  3.41936E+02  3.40208E+02  3.37774E+02  3.36438E+02  3.34009E+02
   3.33121E+02  3.30995E+02  3.30300E+02  3.27704E+02  3.27042E+02  3.24067E+02  3.23396E+02  3.20213E+02  3.19492E+02  3.16586E+02
   3.15962E+02  3.13044E+02  3.12293E+02  3.09289E+02  3.08336E+02  3.05384E+02  3.04358E+02  3.01811E+02  3.00930E+02  2.99238E+02
   2.97335E+02  2.94166E+02  2.91487E+02  2.87438E+02  2.84242E+02  2.79826E+02  2.76488E+02  2.73796E+02  2.71432E+02  2.69267E+02
   2.67225E+02  2.65254E+02  2.63309E+02  2.61358E+02  2.59367E+02  2.57313E+02  2.55170E+02  2.52927E+02  2.50567E+02  2.48090E+02
   2.45491E+02  2.42780E+02  2.39962E+02  2.37056E+02  2.34075E+02  2.31041E+02  2.27972E+02  2.24893E+02  2.21821E+02  2.18778E+02
   2.15778E+02  2.12840E+02  2.09972E+02  2.07187E+02  2.04488E+02  2.01882E+02  1.99366E+02  1.96944E+02  1.94608E+02  1.92356E+02
   1.90180E+02  1.88077E+02  1.86035E+02  1.84050E+02  1.82113E+02  1.80218E+02  1.78357E+02  1.76526E+02  1.74716E+02  1.72927E+02
   1.71151E+02  1.69388E+02  1.67633E+02  1.65886E+02  1.64144E+02  1.62410E+02  1.60679E+02  1.58956E+02  1.57238E+02  1.55530E+02
   1.53830E+02  1.52143E+02  1.50466E+02  1.48806E+02  1.47160E+02  1.45534E+02  1.43927E+02  1.42342E+02  1.40779E+02  1.39243E+02
   1.37731E+02  1.36249E+02  1.34792E+02  1.33367E+02  1.31971E+02  1.30607E+02  1.29273E+02  1.27972E+02  1.26701E+02  1.25464E+02
   1.24257E+02  1.23084E+02  1.21941E+02  1.20832E+02  1.19751E+02  1.18703E+02  1.17683E+02  1.16695E+02  1.15734E+02  1.14803E+02
   1.13898E+02  1.13022E+02  1.12171E+02  1.11347E+02  1.10546E+02  1.09772E+02  1.09020E+02  1.08292E+02  1.07585E+02  1.06901E+02
   1.06236E+02  1.05593E+02  1.04969E+02  1.04365E+02  1.03777E+02  1.03209E+02  1.02657E+02  1.02122E+02  1.01602E+02  1.01100E+02
   1.00610E+02  1.00137E+02  9.96761E+01  9.92304E+01  9.87960E+01  9.83759E+01  9.79664E+01  9.75704E+01  9.71840E+01  9.68104E+01
   9.64458E+01  9.60932E+01  9.57489E+01  9.54160E+01  9.50908E+01  9.47765E+01  9.44694E+01  9.41727E+01
 NY background values follow
     4.359E+01    4.368E+01    4.376E+01    4.384E+01    4.393E+01    4.401E+01    4.409E+01    4.417E+01    4.426E+01    4.434E+01
     4.442E+01    4.450E+01    4.458E+01    4.467E+01    4.475E+01    4.483E+01    4.491E+01    4.499E+01    4.507E+01    4.515E+01
     4.523E+01    4.531E+01    4.539E+01    4.546E+01    4.554E+01    4.562E+01    4.570E+01    4.578E+01    4.586E+01    4.593E+01
     4.601E+01    4.609E+01    4.617E+01    4.624E+01    4.632E+01    4.640E+01    4.647E+01    4.655E+01    4.663E+01    4.670E+01
     4.678E+01    4.685E+01    4.693E+01    4.700E+01    4.708E+01    4.715E+01    4.723E+01    4.730E+01    4.738E+01    4.745E+01
     4.753E+01    4.760E+01    4.767E+01    4.775E+01    4.782E+01    4.790E+01    4.797E+01    4.804E+01    4.811E+01    4.819E+01
     4.826E+01    4.833E+01    4.840E+01    4.848E+01    4.855E+01    4.862E+01    4.869E+01    4.876E+01    4.884E+01    4.891E+01
     4.898E+01    4.905E+01    4.912E+01    4.919E+01    4.926E+01    4.933E+01    4.940E+01    4.947E+01    4.955E+01    4.962E+01
     4.969E+01    4.976E+01    4.983E+01    4.990E+01    4.997E+01    5.004E+01    5.010E+01    5.017E+01    5.024E+01    5.031E+01
     5.038E+01    5.045E+01    5.052E+01    5.059E+01    5.066E+01    5.073E+01    5.080E+01    5.086E+01    5.093E+01    5.100E+01
     5.107E+01    5.114E+01    5.121E+01    5.128E+01    5.134E+01    5.141E+01    5.148E+01    5.155E+01    5.162E+01    5.168E+01
     5.175E+01    5.182E+01    5.189E+01    5.195E+01    5.202E+01    5.209E+01    5.216E+01    5.222E+01    5.229E+01    5.236E+01
     5.243E+01    5.249E+01    5.256E+01    5.263E+01    5.270E+01    5.276E+01    5.283E+01    5.290E+01    5.297E+01    5.303E+01
     5.310E+01    5.317E+01    5.323E+01    5.330E+01    5.337E+01    5.344E+01    5.350E+01    5.357E+01    5.364E+01    5.370E+01
     5.377E+01    5.384E+01    5.390E+01    5.397E+01    5.404E+01    5.411E+01    5.417E+01    5.424E+01    5.431E+01    5.437E+01
     5.444E+01    5.451E+01    5.458E+01    5.464E+01    5.471E+01    5.478E+01    5.484E+01    5.491E+01    5.498E+01    5.505E+01
     5.511E+01    5.518E+01    5.525E+01    5.532E+01    5.538E+01    5.545E+01    5.552E+01    5.559E+01    5.565E+01    5.572E+01
     5.579E+01    5.586E+01    5.593E+01    5.599E+01    5.606E+01    5.613E+01    5.620E+01    5.627E+01    5.633E+01    5.640E+01
     5.647E+01    5.654E+01    5.661E+01    5.668E+01    5.674E+01    5.681E+01    5.688E+01    5.695E+01    5.702E+01    5.709E+01
     5.715E+01    5.722E+01    5.729E+01    5.736E+01    5.743E+01    5.750E+01    5.757E+01    5.763E+01    5.770E+01    5.777E+01
     5.784E+01    5.791E+01    5.798E+01    5.804E+01    5.811E+01    5.818E+01    5.825E+01    5.832E+01    5.839E+01    5.846E+01
     5.852E+01    5.859E+01    5.866E+01    5.873E+01    5.880E+01    5.887E+01    5.894E+01    5.900E+01    5.907E+01    5.914E+01
     5.921E+01    5.928E+01    5.935E+01    5.941E+01    5.948E+01    5.955E+01    5.962E+01    5.969E+01    5.976E+01    5.982E+01
     5.989E+01    5.996E+01    6.003E+01    6.010E+01    6.016E+01    6.023E+01    6.030E+01    6.037E+01    6.044E+01    6.050E+01
     6.057E+01    6.064E+01    6.071E+01    6.077E+01    6.084E+01    6.091E+01    6.098E+01    6.104E+01    6.111E+01    6.118E+01
     6.125E+01    6.131E+01    6.138E+01    6.145E+01    6.151E+01    6.158E+01    6.165E+01    6.171E+01    6.178E+01    6.185E+01
     6.191E+01    6.198E+01    6.205E+01    6.211E+01    6.218E+01    6.225E+01    6.231E+01    6.238E+01    6.245E+01    6.251E+01
     6.258E+01    6.264E+01    6.271E+01    6.277E+01    6.284E+01    6.291E+01    6.297E+01    6.304E+01    6.310E+01    6.317E+01
     6.323E+01    6.330E+01    6.336E+01    6.343E+01    6.349E+01    6.355E+01    6.362E+01    6.368E+01    6.375E+01    6.381E+01
     6.388E+01    6.394E+01    6.400E+01    6.407E+01    6.413E+01    6.419E+01    6.426E+01    6.432E+01    6.438E+01    6.445E+01
     6.451E+01    6.457E+01    6.464E+01    6.470E+01    6.476E+01    6.482E+01    6.489E+01    6.495E+01    6.501E+01    6.507E+01
     6.513E+01    6.519E+01    6.526E+01    6.532E+01    6.538E+01    6.544E+01    6.550E+01    6.556E+01    6.562E+01    6.568E+01
     6.574E+01    6.580E+01    6.586E+01    6.592E+01    6.598E+01    6.604E+01    6.610E+01    6.616E+01    6.622E+01    6.628E+01
     6.634E+01    6.640E+01    6.646E+01    6.651E+01    6.657E+01    6.663E+01    6.669E+01    6.675E+01    6.680E+01    6.686E+01
     6.692E+01    6.698E+01    6.703E+01    6.709E+01    6.715E+01    6.720E+01    6.726E+01    6.732E+01    6.737E+01    6.743E+01
     6.748E+01    6.754E+01    6.759E+01    6.765E+01    6.770E+01    6.776E+01    6.781E+01    6.787E+01    6.792E+01    6.798E+01
     6.803E+01    6.809E+01    6.814E+01    6.819E+01    6.825E+01    6.830E+01    6.835E+01    6.841E+01    6.846E+01    6.851E+01
     6.857E+01    6.862E+01    6.867E+01    6.872E+01    6.878E+01    6.883E+01    6.888E+01    6.893E+01    6.898E+01    6.903E+01
     6.909E+01    6.914E+01    6.919E+01    6.924E+01    6.929E+01    6.934E+01    6.939E+01    6.944E+01    6.949E+01    6.954E+01
     6.959E+01    6.964E+01    6.969E+01    6.974E+01    6.979E+01    6.983E+01    6.988E+01    6.993E+01    6.998E+01    7.003E+01
     7.008E+01    7.012E+01    7.017E+01    7.022E+01    7.027E+01    7.031E+01    7.036E+01    7.041E+01    7.046E+01    7.050E+01
     7.055E+01    7.060E+01    7.064E+01    7.069E+01    7.073E+01    7.078E+01    7.082E+01    7.087E+01    7.092E+01    7.096E+01
     7.101E+01    7.105E+01    7.110E+01    7.114E+01    7.118E+01    7.123E+01    7.127E+01    7.132E+01    7.136E+01    7.140E+01
     7.145E+01    7.149E+01    7.154E+01    7.158E+01    7.162E+01    7.166E+01    7.171E+01    7.175E+01    7.179E+01    7.183E+01
     7.188E+01    7.192E+01    7.196E+01    7.200E+01    7.204E+01    7.208E+01    7.212E+01    7.217E+01    7.221E+01    7.225E+01
     7.229E+01    7.233E+01    7.237E+01    7.241E+01    7.245E+01    7.249E+01    7.253E+01    7.257E+01    7.261E+01    7.265E+01
     7.269E+01    7.272E+01    7.276E+01    7.280E+01    7.284E+01    7.288E+01    7.292E+01    7.295E+01    7.299E+01    7.303E+01
     7.307E+01    7.310E+01    7.314E+01    7.318E+01    7.322E+01    7.325E+01    7.329E+01    7.333E+01    7.336E+01    7.340E+01
     7.343E+01    7.347E+01    7.351E+01    7.354E+01    7.358E+01    7.361E+01    7.365E+01    7.368E+01    7.372E+01    7.375E+01
     7.379E+01    7.382E+01    7.386E+01    7.389E+01    7.392E+01    7.396E+01    7.399E+01    7.402E+01
 Asp      Conc. = 4.91E+01
