 LCModel (Version 6.3-1L) Copyright: S.W. Provencher.          Ref.: Magn. Reson. Med. 30:672-679 (1993).                
 Slice#2 Row#3 Col#9  PD_24_press_1_raw_act
 36 lines in following concentration table = NCONC+1
    Conc.  %SD /Cr+PCr  Metabolite                                         
  184.151  88%   0.124 Ala                                                 
    9.653 999% 6.5E-03 Asp                                                 
  746.482  34%   0.505 Cr                                                  
  732.974  35%   0.495 PCr                                                 
   82.224 195% 5.6E-02 GABA                                                
    0.000 999%   0.000 Glc                                                 
 1.27E+03  25%   0.856 Gln                                                 
 1.74E+03  21%   1.174 Glu                                                 
  618.591   3%   0.418 GPC                                                 
    0.000 999%   0.000 PCh                                                 
  533.672  14%   0.361 GSH                                                 
 1.82E+03  13%   1.231 Ins                                                 
   51.306 342% 3.5E-02 Lac                                                 
 1.98E+03   4%   1.339 NAA                                                 
    0.000 999%   0.000 NAAG                                                
  117.628  21% 8.0E-02 Scyllo                                              
    0.000 999%   0.000 Tau                                                 
    0.000 999%   0.000 -CrCH2                                              
  618.591   3%   0.418 GPC+PCh                                             
 1.98E+03   4%   1.339 NAA+NAAG                                            
 1.48E+03   4%   1.000 Cr+PCr                                              
 3.00E+03  19%   2.030 Glu+Gln                                             
 6.50E+03  12%   4.390 Lip13a                                              
    0.000 999%   0.000 Lip13b                                              
    0.000 999%   0.000 Lip09                                               
 1.65E+03  11%   1.117 MM09                                                
  632.745  53%   0.428 Lip20                                               
 3.00E+03  12%   2.025 MM20                                                
  560.592  27%   0.379 MM12                                                
 2.59E+03  18%   1.753 MM14                                                
 1.17E+03  22%   0.792 MM17                                                
 6.50E+03  12%   4.390 Lip13a+Lip13b                                       
 9.65E+03   6%   6.522 MM14+Lip13a+Lip13b+MM12                             
 1.65E+03  11%   1.117 MM09+Lip09                                          
 3.63E+03   9%   2.452 MM20+Lip20                                          
   6 lines in following misc. output table
  FWHM = 0.076 ppm    S/N =  11                                            
  Data shift = 0.000 ppm                                                   
  Ph:  -7 deg      -4.0 deg/ppm                                            
  alphaB,S = 8.5E+01,   4.1E+02                                            
   14 spline knots.   Ns = 9(1)                                            
   2 inflections.     1 extrema                                            
  498 points on ppm-axis = NY
      4.000000     3.992357     3.984714     3.977070     3.969427     3.961784     3.954141     3.946497     3.938854     3.931211
      3.923568     3.915925     3.908281     3.900638     3.892995     3.885352     3.877708     3.870065     3.862422     3.854779
      3.847136     3.839492     3.831849     3.824206     3.816563     3.808919     3.801276     3.793633     3.785990     3.778347
      3.770703     3.763060     3.755417     3.747774     3.740130     3.732487     3.724844     3.717201     3.709558     3.701914
      3.694271     3.686628     3.678985     3.671341     3.663698     3.656055     3.648412     3.640769     3.633125     3.625482
      3.617839     3.610196     3.602552     3.594909     3.587266     3.579623     3.571980     3.564336     3.556693     3.549050
      3.541407     3.533763     3.526120     3.518477     3.510834     3.503191     3.495547     3.487904     3.480261     3.472618
      3.464974     3.457331     3.449688     3.442045     3.434402     3.426758     3.419115     3.411472     3.403829     3.396185
      3.388542     3.380899     3.373256     3.365613     3.357969     3.350326     3.342683     3.335040     3.327396     3.319753
      3.312110     3.304467     3.296824     3.289180     3.281537     3.273894     3.266251     3.258607     3.250964     3.243321
      3.235678     3.228034     3.220391     3.212748     3.205105     3.197462     3.189818     3.182175     3.174532     3.166889
      3.159245     3.151602     3.143959     3.136316     3.128673     3.121029     3.113386     3.105743     3.098100     3.090456
      3.082813     3.075170     3.067527     3.059884     3.052240     3.044597     3.036954     3.029311     3.021667     3.014024
      3.006381     2.998738     2.991095     2.983451     2.975808     2.968165     2.960522     2.952878     2.945235     2.937592
      2.929949     2.922306     2.914662     2.907019     2.899376     2.891733     2.884089     2.876446     2.868803     2.861160
      2.853517     2.845873     2.838230     2.830587     2.822944     2.815300     2.807657     2.800014     2.792371     2.784728
      2.777084     2.769441     2.761798     2.754155     2.746511     2.738868     2.731225     2.723582     2.715939     2.708295
      2.700652     2.693009     2.685366     2.677722     2.670079     2.662436     2.654793     2.647150     2.639506     2.631863
      2.624220     2.616577     2.608933     2.601290     2.593647     2.586004     2.578361     2.570717     2.563074     2.555431
      2.547788     2.540144     2.532501     2.524858     2.517215     2.509572     2.501928     2.494285     2.486642     2.478999
      2.471355     2.463712     2.456069     2.448426     2.440783     2.433139     2.425496     2.417853     2.410210     2.402566
      2.394923     2.387280     2.379637     2.371994     2.364350     2.356707     2.349064     2.341421     2.333777     2.326134
      2.318491     2.310848     2.303205     2.295561     2.287918     2.280275     2.272632     2.264988     2.257345     2.249702
      2.242059     2.234416     2.226772     2.219129     2.211486     2.203843     2.196199     2.188556     2.180913     2.173270
      2.165627     2.157983     2.150340     2.142697     2.135054     2.127410     2.119767     2.112124     2.104481     2.096838
      2.089194     2.081551     2.073908     2.066265     2.058621     2.050978     2.043335     2.035692     2.028049     2.020405
      2.012762     2.005119     1.997476     1.989833     1.982190     1.974546     1.966903     1.959260     1.951617     1.943974
      1.936331     1.928688     1.921045     1.913402     1.905759     1.898115     1.890472     1.882829     1.875186     1.867543
      1.859900     1.852257     1.844614     1.836971     1.829327     1.821684     1.814041     1.806398     1.798755     1.791112
      1.783469     1.775826     1.768183     1.760540     1.752896     1.745253     1.737610     1.729967     1.722324     1.714681
      1.707038     1.699395     1.691752     1.684108     1.676465     1.668822     1.661179     1.653536     1.645893     1.638250
      1.630607     1.622964     1.615321     1.607677     1.600034     1.592391     1.584748     1.577105     1.569462     1.561819
      1.554176     1.546533     1.538890     1.531246     1.523603     1.515960     1.508317     1.500674     1.493031     1.485388
      1.477745     1.470102     1.462458     1.454815     1.447172     1.439529     1.431886     1.424243     1.416600     1.408957
      1.401314     1.393671     1.386027     1.378384     1.370741     1.363098     1.355455     1.347812     1.340169     1.332526
      1.324883     1.317240     1.309596     1.301953     1.294310     1.286667     1.279024     1.271381     1.263738     1.256095
      1.248452     1.240808     1.233165     1.225522     1.217879     1.210236     1.202593     1.194950     1.187307     1.179664
      1.172021     1.164377     1.156734     1.149091     1.141448     1.133805     1.126162     1.118519     1.110876     1.103233
      1.095590     1.087946     1.080303     1.072660     1.065017     1.057374     1.049731     1.042088     1.034445     1.026802
      1.019158     1.011515     1.003872     0.996229     0.988586     0.980943     0.973300     0.965657     0.958014     0.950371
      0.942727     0.935084     0.927441     0.919798     0.912155     0.904512     0.896869     0.889226     0.881583     0.873940
      0.866296     0.858653     0.851010     0.843367     0.835724     0.828081     0.820438     0.812795     0.805152     0.797508
      0.789865     0.782222     0.774579     0.766936     0.759293     0.751650     0.744007     0.736364     0.728721     0.721077
      0.713434     0.705791     0.698148     0.690505     0.682862     0.675219     0.667576     0.659933     0.652290     0.644646
      0.637003     0.629360     0.621717     0.614074     0.606431     0.598788     0.591145     0.583502     0.575858     0.568215
      0.560572     0.552929     0.545286     0.537643     0.530000     0.522357     0.514714     0.507071     0.499427     0.491784
      0.484141     0.476498     0.468855     0.461212     0.453569     0.445925     0.438282     0.430639     0.422996     0.415353
      0.407710     0.400067     0.392424     0.384780     0.377137     0.369494     0.361851     0.354208     0.346565     0.338922
      0.331278     0.323635     0.315992     0.308349     0.300706     0.293063     0.285420     0.277777     0.270133     0.262490
      0.254847     0.247204     0.239561     0.231918     0.224275     0.216631     0.208988     0.201345
 NY phased data points follow
   3.23352E+00  2.51927E+00  1.80580E+00  5.04924E+00  3.57458E+00  7.25212E+00  1.78540E+01  1.43700E+01  2.74430E+01  2.70217E+01
   2.53484E+01  2.13400E+01  2.23215E+01  1.90296E+01  1.50816E+01  1.23101E+01  9.61169E+00  1.00877E+01  7.16980E+00  4.37524E+00
   6.43047E+00  4.60582E+00  3.35016E+00  6.69836E+00  2.77597E+00  5.32371E+00  3.79867E+00  8.29102E+00  1.02767E+01  9.63664E+00
   6.33025E+00  4.79934E+00  6.42129E+00  2.99115E+00  5.38885E+00  3.03904E+00  5.33386E+00  1.28628E+00  4.71644E+00  2.43531E+00
   5.25038E+00  5.33732E+00  3.35662E+00  7.89959E+00  7.30520E+00  8.31896E+00  1.02146E+01  9.43178E+00  9.18879E+00  6.09026E+00
   7.47798E+00  5.23338E+00  7.32032E+00  5.34138E+00  1.00232E+01  4.87438E+00  1.16121E-01  3.49923E+00  1.15197E+00  6.63765E-04
  -2.35681E-01 -1.44548E+00 -1.41975E+00  9.97542E-01 -7.10844E+00 -6.12908E+00 -3.55605E+00 -6.28121E+00 -1.59445E+00 -2.94817E+00
  -4.70075E+00 -3.25659E+00 -9.90111E-01 -2.18022E+00 -1.62250E+00 -4.75506E+00 -4.60744E+00 -5.05325E+00 -8.53261E+00 -5.29044E+00
  -8.40829E-01 -3.84965E+00 -5.29647E+00 -5.69379E+00 -3.14225E+00  3.63486E+00 -6.78986E-01 -4.95731E+00 -1.55948E+00 -2.08677E-02
   5.94834E-01 -3.22477E+00  3.72177E+00 -1.54461E+00 -2.24415E+00 -4.43565E-01  1.00579E+00  4.64545E+00  1.39038E+01  1.90886E+01
   2.64522E+01  3.40175E+01  3.78916E+01  3.81911E+01  2.92860E+01  3.29389E+01  2.73358E+01  2.44258E+01  2.04333E+01  1.71370E+01
   9.81223E+00  8.71883E+00  3.14712E+00  7.26218E+00  5.16131E+00  2.68108E+00  3.08132E-03 -5.72913E-01 -4.29090E+00 -4.40147E+00
   3.87088E+00  7.28039E+00  1.49157E+01  1.82357E+01  2.65833E+01  3.05126E+01  3.75509E+01  3.63497E+01  3.01508E+01  2.63987E+01
   2.55243E+01  1.72768E+01  1.77011E+01  9.81501E+00  7.34233E+00  4.19222E+00  1.03263E+00  4.91098E+00  7.09246E-01  1.37281E+00
  -3.08107E+00  5.20412E+00  7.77290E-01 -3.23899E-01 -6.32617E-01 -4.93836E+00 -4.15879E+00 -7.91788E+00 -4.75056E+00 -7.53450E+00
  -4.43154E+00 -5.43655E+00  4.44398E-01 -3.65326E+00 -2.70359E+00 -8.19062E+00 -6.51363E+00 -3.85171E+00 -6.34194E+00 -4.88051E+00
  -6.21205E+00 -6.02490E+00 -3.25564E+00 -6.43550E+00 -7.00926E+00 -6.95090E+00 -4.07516E+00 -1.23883E+01 -9.53065E+00 -6.28648E+00
  -8.69255E+00 -1.08719E+01 -1.20306E+01 -8.19285E+00 -9.94937E+00 -1.17092E+01 -1.15993E+01 -1.27431E+01 -1.10000E+01 -1.17041E+01
  -8.75249E+00 -1.51731E+01 -7.47218E+00 -1.52295E+01 -1.55953E+01 -1.03894E+01 -1.04046E+01 -5.76766E+00 -5.84197E+00 -6.70325E+00
  -4.68868E+00 -6.35366E+00 -4.47038E+00 -3.73512E+00 -5.20718E+00 -5.06619E+00 -2.56706E+00 -6.37350E+00 -8.34046E+00 -7.17939E+00
  -3.12199E+00 -4.08327E+00 -2.03737E+00 -4.33096E+00 -4.75128E+00 -7.74903E+00 -9.69001E+00 -6.86005E+00 -7.61980E+00 -3.31663E+00
  -3.36992E+00 -3.28762E+00  1.23456E+00 -5.37307E-01  2.88726E+00  3.48328E+00 -6.77809E-01  4.59030E+00 -6.63632E-01 -5.12627E+00
  -6.01837E+00 -2.61114E+00 -2.05656E+00 -3.04189E-01 -2.53961E+00  2.23024E-01 -2.76125E-01 -3.36626E-01  2.40310E+00  1.42613E+00
   2.58335E+00  1.29484E+00  2.86486E+00  1.22764E+00  4.12438E+00 -9.87133E-01  1.85477E+00  2.42369E+00  2.37130E+00  1.88187E+00
   7.00942E-01  5.96940E+00 -5.56708E-01  3.44695E+00  2.65359E+00  7.33997E+00  6.20960E+00  7.62139E+00  7.84083E+00  1.21093E+01
   1.14912E+01  7.99455E+00  1.21595E+01  1.61335E+01  2.22917E+01  2.97220E+01  4.51088E+01  4.98197E+01  5.33824E+01  5.59871E+01
   5.25467E+01  5.15726E+01  4.61672E+01  3.99010E+01  3.78797E+01  2.77309E+01  2.69589E+01  1.48161E+01  1.07452E+01  1.15480E+01
   2.96202E+00  7.37016E+00  3.01651E+00  5.83217E+00 -8.62889E-01  2.85108E+00  1.06895E+00  3.88128E+00  2.75382E-01 -1.64164E+00
   8.46114E-01 -1.18068E+00 -6.48417E+00 -3.64243E+00 -1.21248E+00 -4.56414E+00 -3.79684E-01 -4.29633E+00 -1.49380E+00 -1.29414E+00
  -7.62183E-01 -3.90155E+00 -3.03236E+00 -1.39350E+00 -4.26493E+00  1.39110E+00 -1.25135E+00  1.24957E+00 -4.34688E-01  4.10841E-01
  -1.69401E+00 -1.55521E+00  3.65867E+00  4.42201E+00  1.63196E+00  6.19051E+00  2.61568E+00  4.99789E+00  4.84338E+00  7.68076E+00
   4.59217E+00  8.63374E+00  9.82281E+00  8.57262E+00  7.00546E+00  4.97464E+00  6.92177E+00  7.11067E+00  8.58426E+00  6.33775E+00
   7.55550E+00  8.24318E+00  8.85857E+00  9.26671E+00  1.21674E+01  9.31541E+00  1.22641E+01  1.18810E+01  1.07184E+01  1.28352E+01
   1.11171E+01  1.72407E+01  1.60607E+01  1.59526E+01  1.52506E+01  1.55154E+01  1.71471E+01  1.78944E+01  1.90506E+01  2.23921E+01
   2.18105E+01  2.19537E+01  2.57338E+01  2.47736E+01  1.95200E+01  2.21798E+01  2.47170E+01  2.52307E+01  1.93703E+01  2.43451E+01
   2.49587E+01  2.38442E+01  2.30744E+01  2.27318E+01  1.92458E+01  2.25851E+01  2.38464E+01  1.83547E+01  2.26356E+01  1.82701E+01
   1.90914E+01  2.05655E+01  1.90341E+01  1.85441E+01  2.09814E+01  2.07440E+01  1.82021E+01  1.59206E+01  1.57866E+01  1.64326E+01
   1.32713E+01  9.46992E+00  1.34155E+01  1.07284E+01  5.17499E+00  9.86466E+00  5.78286E+00  3.90559E+00  6.35995E+00  4.52463E+00
   8.98811E+00  4.40782E+00  3.83650E+00  6.96026E+00  5.00617E+00  8.83225E-01  6.57145E+00  4.01220E+00  3.82954E+00  1.67032E+00
   3.21816E+00  4.15544E+00  2.53103E+00  7.24992E+00  2.08116E+00 -4.35123E-01  8.31884E+00  4.80372E+00  8.85380E+00  4.02005E+00
   3.82126E+00  8.58260E+00  6.46004E+00  7.60364E+00  9.40525E+00  6.78176E+00  7.59181E+00  7.43758E+00  7.33939E+00  4.58650E+00
   2.02517E-01  3.22539E+00  4.74644E+00  4.20978E+00  4.70784E-01  1.52967E-01 -4.13325E-01  8.89310E-01  2.56359E-01 -4.51690E+00
   1.31660E+00 -5.58409E+00 -2.78352E+00 -2.49406E+00 -2.87924E+00 -5.02856E+00 -6.28607E+00 -5.55387E+00 -8.04320E+00 -5.20999E+00
  -8.22438E+00 -8.73205E+00 -2.70802E+00 -9.55291E+00 -8.67269E+00 -8.87612E+00 -7.07511E+00 -3.88464E+00 -6.51243E+00 -5.89645E+00
  -3.60330E+00 -7.87862E+00 -8.12053E+00 -6.77447E+00 -8.92459E+00 -6.43692E+00 -9.57155E+00 -4.17431E+00 -8.23039E+00 -6.51526E+00
  -7.76293E+00 -7.38291E+00 -1.19080E+01 -5.29115E+00 -7.47570E+00 -4.04350E+00 -8.64132E+00 -4.65530E+00 -6.02903E+00 -5.14877E+00
  -8.71405E+00 -7.17858E+00 -5.29108E+00 -3.89010E+00 -4.86327E+00 -6.50516E+00 -7.55190E+00 -8.03299E+00 -4.21778E+00 -3.25022E+00
  -3.46025E+00 -3.99353E+00 -8.72613E+00 -7.43790E+00 -8.71709E+00 -2.68890E+00 -8.51083E+00 -4.86328E+00 -7.65056E+00 -6.98143E+00
  -1.07047E+01 -3.78583E+00 -9.34717E+00 -4.62028E+00 -6.64612E+00 -7.28504E+00 -1.06793E+01 -7.89932E+00 -9.57477E+00 -6.18605E+00
  -5.79762E+00 -5.59206E+00 -4.89118E+00 -5.81358E+00 -5.46050E+00 -1.14956E+01 -5.96083E+00 -8.95864E+00
 NY points of the fit to the data follow
   9.62580E-02  3.68581E-01  1.46803E+00  3.63433E+00  6.82218E+00  1.06524E+01  1.46525E+01  1.83075E+01  2.10892E+01  2.26652E+01
   2.29852E+01  2.22271E+01  2.06965E+01  1.87035E+01  1.64687E+01  1.41360E+01  1.18022E+01  9.50342E+00  7.25263E+00  5.07974E+00
   3.26311E+00  2.10309E+00  1.63073E+00  1.94180E+00  2.83840E+00  4.17150E+00  5.73347E+00  7.24725E+00  8.43533E+00  9.10157E+00
   9.15754E+00  8.65870E+00  7.75634E+00  6.60937E+00  5.36873E+00  4.19598E+00  3.18301E+00  2.34018E+00  1.78099E+00  1.66893E+00
   2.21771E+00  3.34921E+00  4.78712E+00  6.31482E+00  7.61662E+00  8.42713E+00  8.57353E+00  8.06107E+00  7.07298E+00  5.83560E+00
   4.54867E+00  3.40707E+00  2.50155E+00  1.82750E+00  1.37825E+00  1.10837E+00  8.82294E-01  6.22786E-01  4.13930E-01  2.47585E-01
  -1.50249E-02 -4.11257E-01 -8.23856E-01 -1.14307E+00 -1.32752E+00 -1.38473E+00 -1.34384E+00 -1.23975E+00 -1.13507E+00 -1.07697E+00
  -1.04954E+00 -1.04337E+00 -1.06470E+00 -1.11646E+00 -1.21876E+00 -1.37128E+00 -1.56438E+00 -1.76702E+00 -1.88338E+00 -1.87113E+00
  -1.75809E+00 -1.59806E+00 -1.43937E+00 -1.32727E+00 -1.33570E+00 -1.48897E+00 -1.75692E+00 -2.05780E+00 -2.31444E+00 -2.50527E+00
  -2.65322E+00 -2.79877E+00 -2.96662E+00 -3.11630E+00 -2.94317E+00 -1.59257E+00  1.50093E+00  6.41075E+00  1.28850E+01  2.01632E+01
   2.71568E+01  3.27763E+01  3.61926E+01  3.70834E+01  3.57293E+01  3.27948E+01  2.89483E+01  2.46879E+01  2.02926E+01  1.59091E+01
   1.16598E+01  7.65683E+00  3.94575E+00  5.87364E-01 -1.99938E+00 -3.16923E+00 -3.41711E+00 -3.25541E+00 -2.33366E+00 -8.62761E-03
   3.85512E+00  9.09025E+00  1.52520E+01  2.16202E+01  2.73089E+01  3.14768E+01  3.35828E+01  3.35626E+01  3.17870E+01  2.87863E+01
   2.50341E+01  2.08866E+01  1.66359E+01  1.25225E+01  8.74433E+00  5.41137E+00  2.50936E+00  1.21905E-01 -1.27864E+00 -1.64613E+00
  -1.74800E+00 -1.84063E+00 -1.95198E+00 -2.06017E+00 -2.14993E+00 -2.27433E+00 -2.47575E+00 -2.74124E+00 -3.05409E+00 -3.37996E+00
  -3.66549E+00 -3.89537E+00 -4.07328E+00 -4.25010E+00 -4.45800E+00 -4.69950E+00 -4.94384E+00 -5.15974E+00 -5.32737E+00 -5.43320E+00
  -5.48819E+00 -5.52919E+00 -5.60096E+00 -5.73469E+00 -5.93762E+00 -6.19694E+00 -6.49065E+00 -6.81511E+00 -7.18327E+00 -7.57586E+00
  -7.96311E+00 -8.32510E+00 -8.67506E+00 -8.99494E+00 -9.24145E+00 -9.40152E+00 -9.48390E+00 -9.54538E+00 -9.63943E+00 -9.75385E+00
  -9.82673E+00 -9.78849E+00 -9.57683E+00 -9.14861E+00 -8.50868E+00 -7.71895E+00 -6.89369E+00 -6.19963E+00 -5.75873E+00 -5.58434E+00
  -5.64837E+00 -5.87208E+00 -6.12973E+00 -6.26161E+00 -6.13123E+00 -5.67041E+00 -4.88089E+00 -3.85124E+00 -2.75459E+00 -1.75897E+00
  -1.05057E+00 -8.59477E-01 -1.25361E+00 -2.18901E+00 -3.54723E+00 -5.06984E+00 -6.40899E+00 -7.21291E+00 -7.26603E+00 -6.56699E+00
  -5.28246E+00 -3.68771E+00 -2.10217E+00 -9.09212E-01 -4.07062E-01 -6.19106E-01 -1.37488E+00 -2.42369E+00 -3.46686E+00 -4.24197E+00
  -4.63362E+00 -4.62784E+00 -4.19334E+00 -3.50294E+00 -2.77973E+00 -2.11130E+00 -1.49181E+00 -8.41892E-01 -1.67147E-01  5.03463E-01
   1.20574E+00  1.96381E+00  2.74006E+00  3.38161E+00  3.77728E+00  3.96550E+00  3.98581E+00  3.82561E+00  3.54841E+00  3.27335E+00
   3.11680E+00  3.13878E+00  3.32147E+00  3.64785E+00  4.11534E+00  4.68118E+00  5.27960E+00  5.92072E+00  6.68552E+00  7.52998E+00
   8.50062E+00  1.02051E+01  1.35408E+01  1.86472E+01  2.53168E+01  3.30907E+01  4.10927E+01  4.81094E+01  5.29996E+01  5.50805E+01
   5.43068E+01  5.12470E+01  4.66943E+01  4.13234E+01  3.56126E+01  2.98507E+01  2.42224E+01  1.88830E+01  1.39447E+01  9.40102E+00
   5.45311E+00  2.85979E+00  1.80297E+00  1.24296E+00  8.04238E-01  4.21984E-01  6.05158E-02 -2.99186E-01 -6.37196E-01 -9.48533E-01
  -1.23287E+00 -1.48970E+00 -1.71914E+00 -1.92405E+00 -2.09515E+00 -2.22079E+00 -2.30022E+00 -2.33531E+00 -2.32683E+00 -2.27619E+00
  -2.18369E+00 -2.05029E+00 -1.87720E+00 -1.66023E+00 -1.39664E+00 -1.08573E+00 -7.26959E-01 -3.20944E-01  1.28732E-01  6.15992E-01
   1.13394E+00  1.67451E+00  2.22735E+00  2.78147E+00  3.32612E+00  3.85016E+00  4.34358E+00  4.79796E+00  5.20690E+00  5.56665E+00
   5.87649E+00  6.13901E+00  6.36015E+00  6.54924E+00  6.71904E+00  6.88542E+00  7.06774E+00  7.29196E+00  7.59536E+00  7.99140E+00
   8.45412E+00  8.94909E+00  9.43553E+00  9.87170E+00  1.02255E+01  1.04857E+01  1.06901E+01  1.09294E+01  1.12863E+01  1.18149E+01
   1.25340E+01  1.34273E+01  1.44467E+01  1.55240E+01  1.65882E+01  1.75823E+01  1.84806E+01  1.92953E+01  2.00572E+01  2.07444E+01
   2.13155E+01  2.17754E+01  2.21299E+01  2.23803E+01  2.25220E+01  2.25581E+01  2.25462E+01  2.25570E+01  2.25962E+01  2.26640E+01
   2.27567E+01  2.28619E+01  2.29585E+01  2.30212E+01  2.30256E+01  2.29529E+01  2.27933E+01  2.25461E+01  2.22153E+01  2.17917E+01
   2.12651E+01  2.06411E+01  1.99280E+01  1.91341E+01  1.82674E+01  1.73400E+01  1.63768E+01  1.53938E+01  1.43966E+01  1.33940E+01
   1.23964E+01  1.14143E+01  1.04576E+01  9.53566E+00  8.65679E+00  7.82841E+00  7.05694E+00  6.34785E+00  5.70568E+00  5.13414E+00
   4.63615E+00  4.21395E+00  3.86913E+00  3.60262E+00  3.41467E+00  3.30482E+00  3.27173E+00  3.31314E+00  3.42564E+00  3.60454E+00
   3.84370E+00  4.13541E+00  4.47037E+00  4.83769E+00  5.22500E+00  5.61867E+00  6.00415E+00  6.36643E+00  6.69054E+00  6.96217E+00
   7.16823E+00  7.29746E+00  7.34096E+00  7.29262E+00  7.14937E+00  6.91137E+00  6.58191E+00  6.16718E+00  5.67595E+00  5.11909E+00
   4.50891E+00  3.85865E+00  3.18176E+00  2.49135E+00  1.79973E+00  1.11793E+00  4.55474E-01 -1.79848E-01 -7.82025E-01 -1.34679E+00
  -1.87151E+00 -2.35499E+00 -2.79727E+00 -3.19939E+00 -3.56316E+00 -3.89096E+00 -4.18547E+00 -4.44958E+00 -4.68620E+00 -4.89820E+00
  -5.08828E+00 -5.25899E+00 -5.41263E+00 -5.55127E+00 -5.67675E+00 -5.79071E+00 -5.89457E+00 -5.98957E+00 -6.07678E+00 -6.15710E+00
  -6.23134E+00 -6.30020E+00 -6.36427E+00 -6.42406E+00 -6.48001E+00 -6.53250E+00 -6.58189E+00 -6.62846E+00 -6.67247E+00 -6.71415E+00
  -6.75369E+00 -6.79127E+00 -6.82706E+00 -6.86120E+00 -6.89381E+00 -6.92500E+00 -6.95488E+00 -6.98353E+00 -7.01106E+00 -7.03752E+00
  -7.06300E+00 -7.08754E+00 -7.11121E+00 -7.13406E+00 -7.15615E+00 -7.17753E+00 -7.19822E+00 -7.21826E+00 -7.23769E+00 -7.25655E+00
  -7.27486E+00 -7.29265E+00 -7.30994E+00 -7.32676E+00 -7.34312E+00 -7.35906E+00 -7.37460E+00 -7.38974E+00 -7.40449E+00 -7.41889E+00
  -7.43294E+00 -7.44665E+00 -7.46005E+00 -7.47312E+00 -7.48589E+00 -7.49836E+00 -7.51055E+00 -7.52246E+00 -7.53409E+00 -7.54544E+00
  -7.55653E+00 -7.56734E+00 -7.57788E+00 -7.58816E+00 -7.59815E+00 -7.60786E+00 -7.61728E+00 -7.62639E+00
 NY background values follow
    -5.804E+00   -5.809E+00   -5.813E+00   -5.817E+00   -5.821E+00   -5.826E+00   -5.830E+00   -5.834E+00   -5.839E+00   -5.843E+00
    -5.847E+00   -5.852E+00   -5.856E+00   -5.860E+00   -5.864E+00   -5.869E+00   -5.873E+00   -5.877E+00   -5.882E+00   -5.886E+00
    -5.890E+00   -5.895E+00   -5.899E+00   -5.903E+00   -5.908E+00   -5.912E+00   -5.916E+00   -5.920E+00   -5.925E+00   -5.929E+00
    -5.933E+00   -5.938E+00   -5.942E+00   -5.946E+00   -5.951E+00   -5.955E+00   -5.959E+00   -5.963E+00   -5.968E+00   -5.972E+00
    -5.976E+00   -5.981E+00   -5.985E+00   -5.989E+00   -5.994E+00   -5.998E+00   -6.002E+00   -6.006E+00   -6.011E+00   -6.015E+00
    -6.019E+00   -6.024E+00   -6.028E+00   -6.032E+00   -6.037E+00   -6.041E+00   -6.045E+00   -6.049E+00   -6.054E+00   -6.058E+00
    -6.062E+00   -6.067E+00   -6.071E+00   -6.075E+00   -6.080E+00   -6.084E+00   -6.088E+00   -6.092E+00   -6.097E+00   -6.101E+00
    -6.105E+00   -6.110E+00   -6.114E+00   -6.118E+00   -6.123E+00   -6.127E+00   -6.131E+00   -6.135E+00   -6.140E+00   -6.144E+00
    -6.148E+00   -6.153E+00   -6.157E+00   -6.161E+00   -6.165E+00   -6.170E+00   -6.174E+00   -6.178E+00   -6.183E+00   -6.187E+00
    -6.191E+00   -6.196E+00   -6.200E+00   -6.204E+00   -6.208E+00   -6.213E+00   -6.217E+00   -6.221E+00   -6.226E+00   -6.230E+00
    -6.234E+00   -6.238E+00   -6.243E+00   -6.247E+00   -6.251E+00   -6.256E+00   -6.260E+00   -6.264E+00   -6.268E+00   -6.273E+00
    -6.277E+00   -6.281E+00   -6.286E+00   -6.290E+00   -6.294E+00   -6.298E+00   -6.303E+00   -6.307E+00   -6.311E+00   -6.316E+00
    -6.320E+00   -6.324E+00   -6.328E+00   -6.333E+00   -6.337E+00   -6.341E+00   -6.345E+00   -6.350E+00   -6.354E+00   -6.358E+00
    -6.363E+00   -6.367E+00   -6.371E+00   -6.375E+00   -6.380E+00   -6.384E+00   -6.388E+00   -6.392E+00   -6.397E+00   -6.401E+00
    -6.405E+00   -6.410E+00   -6.414E+00   -6.418E+00   -6.422E+00   -6.427E+00   -6.431E+00   -6.435E+00   -6.439E+00   -6.444E+00
    -6.448E+00   -6.452E+00   -6.457E+00   -6.461E+00   -6.465E+00   -6.469E+00   -6.474E+00   -6.478E+00   -6.482E+00   -6.486E+00
    -6.491E+00   -6.495E+00   -6.499E+00   -6.503E+00   -6.508E+00   -6.512E+00   -6.516E+00   -6.520E+00   -6.525E+00   -6.529E+00
    -6.533E+00   -6.538E+00   -6.542E+00   -6.546E+00   -6.550E+00   -6.555E+00   -6.559E+00   -6.563E+00   -6.567E+00   -6.572E+00
    -6.576E+00   -6.580E+00   -6.584E+00   -6.589E+00   -6.593E+00   -6.597E+00   -6.601E+00   -6.606E+00   -6.610E+00   -6.614E+00
    -6.618E+00   -6.623E+00   -6.627E+00   -6.631E+00   -6.635E+00   -6.640E+00   -6.644E+00   -6.648E+00   -6.652E+00   -6.657E+00
    -6.661E+00   -6.665E+00   -6.669E+00   -6.673E+00   -6.678E+00   -6.682E+00   -6.686E+00   -6.690E+00   -6.695E+00   -6.699E+00
    -6.703E+00   -6.707E+00   -6.712E+00   -6.716E+00   -6.720E+00   -6.724E+00   -6.729E+00   -6.733E+00   -6.737E+00   -6.741E+00
    -6.745E+00   -6.750E+00   -6.754E+00   -6.758E+00   -6.762E+00   -6.767E+00   -6.771E+00   -6.775E+00   -6.779E+00   -6.784E+00
    -6.788E+00   -6.792E+00   -6.796E+00   -6.800E+00   -6.805E+00   -6.809E+00   -6.813E+00   -6.817E+00   -6.822E+00   -6.826E+00
    -6.830E+00   -6.834E+00   -6.839E+00   -6.843E+00   -6.847E+00   -6.851E+00   -6.855E+00   -6.860E+00   -6.864E+00   -6.868E+00
    -6.872E+00   -6.877E+00   -6.881E+00   -6.885E+00   -6.889E+00   -6.893E+00   -6.898E+00   -6.902E+00   -6.906E+00   -6.910E+00
    -6.914E+00   -6.919E+00   -6.923E+00   -6.927E+00   -6.931E+00   -6.936E+00   -6.940E+00   -6.944E+00   -6.948E+00   -6.952E+00
    -6.957E+00   -6.961E+00   -6.965E+00   -6.969E+00   -6.973E+00   -6.978E+00   -6.982E+00   -6.986E+00   -6.990E+00   -6.995E+00
    -6.999E+00   -7.003E+00   -7.007E+00   -7.011E+00   -7.016E+00   -7.020E+00   -7.024E+00   -7.028E+00   -7.032E+00   -7.037E+00
    -7.041E+00   -7.045E+00   -7.049E+00   -7.053E+00   -7.058E+00   -7.062E+00   -7.066E+00   -7.070E+00   -7.074E+00   -7.079E+00
    -7.083E+00   -7.087E+00   -7.091E+00   -7.096E+00   -7.100E+00   -7.104E+00   -7.108E+00   -7.112E+00   -7.117E+00   -7.121E+00
    -7.125E+00   -7.129E+00   -7.133E+00   -7.138E+00   -7.142E+00   -7.146E+00   -7.150E+00   -7.154E+00   -7.159E+00   -7.163E+00
    -7.167E+00   -7.171E+00   -7.175E+00   -7.180E+00   -7.184E+00   -7.188E+00   -7.192E+00   -7.196E+00   -7.201E+00   -7.205E+00
    -7.209E+00   -7.213E+00   -7.217E+00   -7.221E+00   -7.226E+00   -7.230E+00   -7.234E+00   -7.238E+00   -7.242E+00   -7.247E+00
    -7.251E+00   -7.255E+00   -7.259E+00   -7.263E+00   -7.268E+00   -7.272E+00   -7.276E+00   -7.280E+00   -7.284E+00   -7.289E+00
    -7.293E+00   -7.297E+00   -7.301E+00   -7.305E+00   -7.310E+00   -7.314E+00   -7.318E+00   -7.322E+00   -7.326E+00   -7.330E+00
    -7.335E+00   -7.339E+00   -7.343E+00   -7.347E+00   -7.351E+00   -7.356E+00   -7.360E+00   -7.364E+00   -7.368E+00   -7.372E+00
    -7.376E+00   -7.381E+00   -7.385E+00   -7.389E+00   -7.393E+00   -7.397E+00   -7.402E+00   -7.406E+00   -7.410E+00   -7.414E+00
    -7.418E+00   -7.423E+00   -7.427E+00   -7.431E+00   -7.435E+00   -7.439E+00   -7.443E+00   -7.448E+00   -7.452E+00   -7.456E+00
    -7.460E+00   -7.464E+00   -7.468E+00   -7.473E+00   -7.477E+00   -7.481E+00   -7.485E+00   -7.489E+00   -7.494E+00   -7.498E+00
    -7.502E+00   -7.506E+00   -7.510E+00   -7.514E+00   -7.519E+00   -7.523E+00   -7.527E+00   -7.531E+00   -7.535E+00   -7.539E+00
    -7.544E+00   -7.548E+00   -7.552E+00   -7.556E+00   -7.560E+00   -7.565E+00   -7.569E+00   -7.573E+00   -7.577E+00   -7.581E+00
    -7.585E+00   -7.590E+00   -7.594E+00   -7.598E+00   -7.602E+00   -7.606E+00   -7.610E+00   -7.615E+00   -7.619E+00   -7.623E+00
    -7.627E+00   -7.631E+00   -7.635E+00   -7.640E+00   -7.644E+00   -7.648E+00   -7.652E+00   -7.656E+00   -7.660E+00   -7.665E+00
    -7.669E+00   -7.673E+00   -7.677E+00   -7.681E+00   -7.685E+00   -7.690E+00   -7.694E+00   -7.698E+00   -7.702E+00   -7.706E+00
    -7.710E+00   -7.715E+00   -7.719E+00   -7.723E+00   -7.727E+00   -7.731E+00   -7.735E+00   -7.739E+00   -7.744E+00   -7.748E+00
    -7.752E+00   -7.756E+00   -7.760E+00   -7.764E+00   -7.769E+00   -7.773E+00   -7.777E+00   -7.781E+00   -7.785E+00   -7.789E+00
    -7.794E+00   -7.798E+00   -7.802E+00   -7.806E+00   -7.810E+00   -7.814E+00   -7.818E+00   -7.823E+00   -7.827E+00   -7.831E+00
    -7.835E+00   -7.839E+00   -7.843E+00   -7.848E+00   -7.852E+00   -7.856E+00   -7.860E+00   -7.864E+00   -7.868E+00   -7.873E+00
    -7.877E+00   -7.881E+00   -7.885E+00   -7.889E+00   -7.893E+00   -7.897E+00   -7.902E+00   -7.906E+00
 Ala      Conc. = 1.84E+02
