 LCModel (Version 6.3-1L) Copyright: S.W. Provencher.          Ref.: Magn. Reson. Med. 30:672-679 (1993).                
 Slice#1 Row#3 Col#7  PD_24_press_1_raw_act
 36 lines in following concentration table = NCONC+1
    Conc.  %SD /Cr+PCr  Metabolite                                         
 1.06E+03  30%   0.833 Ala                                                 
  128.095 181%   0.101 Asp                                                 
  554.195  90%   0.437 Cr                                                  
  715.054  69%   0.563 PCr                                                 
  147.930 107%   0.117 GABA                                                
  143.585 107%   0.113 Glc                                                 
 2.91E+03  23%   2.294 Gln                                                 
 2.50E+03  31%   1.966 Glu                                                 
  521.116  59%   0.411 GPC                                                 
    1.179 999% 9.3E-04 PCh                                                 
  432.799  30%   0.341 GSH                                                 
 2.05E+03  22%   1.618 Ins                                                 
    0.000 999%   0.000 Lac                                                 
 1.97E+03   5%   1.552 NAA                                                 
    0.000 999%   0.000 NAAG                                                
  140.529  24%   0.111 Scyllo                                              
  158.832 147%   0.125 Tau                                                 
   52.450 361% 4.1E-02 -CrCH2                                              
  522.295   6%   0.411 GPC+PCh                                             
 1.97E+03   5%   1.552 NAA+NAAG                                            
 1.27E+03   6%   1.000 Cr+PCr                                              
 5.41E+03  24%   4.260 Glu+Gln                                             
 3.52E+03  24%   2.771 Lip13a                                              
    0.000 999%   0.000 Lip13b                                              
  756.715  45%   0.596 Lip09                                               
 1.20E+03  30%   0.949 MM09                                                
  629.330  36%   0.496 Lip20                                               
 1.73E+03  27%   1.360 MM20                                                
  431.505  54%   0.340 MM12                                                
 2.19E+03  22%   1.726 MM14                                                
 1.02E+03  26%   0.803 MM17                                                
 3.52E+03  24%   2.771 Lip13a+Lip13b                                       
 6.14E+03   8%   4.836 MM14+Lip13a+Lip13b+MM12                             
 1.96E+03  10%   1.545 MM09+Lip09                                          
 2.36E+03  17%   1.856 MM20+Lip20                                          
   6 lines in following misc. output table
  FWHM = 0.107 ppm    S/N =   7                                            
  Data shift = 0.000 ppm                                                   
  Ph: -39 deg     -12.0 deg/ppm                                            
  alphaB,S = 8.5E+01,   1.0E+02                                            
   14 spline knots.   Ns = 6(2)                                            
   2 inflections.     1 extrema                                            
  498 points on ppm-axis = NY
      4.000000     3.992357     3.984714     3.977070     3.969427     3.961784     3.954141     3.946497     3.938854     3.931211
      3.923568     3.915925     3.908281     3.900638     3.892995     3.885352     3.877708     3.870065     3.862422     3.854779
      3.847136     3.839492     3.831849     3.824206     3.816563     3.808919     3.801276     3.793633     3.785990     3.778347
      3.770703     3.763060     3.755417     3.747774     3.740130     3.732487     3.724844     3.717201     3.709558     3.701914
      3.694271     3.686628     3.678985     3.671341     3.663698     3.656055     3.648412     3.640769     3.633125     3.625482
      3.617839     3.610196     3.602552     3.594909     3.587266     3.579623     3.571980     3.564336     3.556693     3.549050
      3.541407     3.533763     3.526120     3.518477     3.510834     3.503191     3.495547     3.487904     3.480261     3.472618
      3.464974     3.457331     3.449688     3.442045     3.434402     3.426758     3.419115     3.411472     3.403829     3.396185
      3.388542     3.380899     3.373256     3.365613     3.357969     3.350326     3.342683     3.335040     3.327396     3.319753
      3.312110     3.304467     3.296824     3.289180     3.281537     3.273894     3.266251     3.258607     3.250964     3.243321
      3.235678     3.228034     3.220391     3.212748     3.205105     3.197462     3.189818     3.182175     3.174532     3.166889
      3.159245     3.151602     3.143959     3.136316     3.128673     3.121029     3.113386     3.105743     3.098100     3.090456
      3.082813     3.075170     3.067527     3.059884     3.052240     3.044597     3.036954     3.029311     3.021667     3.014024
      3.006381     2.998738     2.991095     2.983451     2.975808     2.968165     2.960522     2.952878     2.945235     2.937592
      2.929949     2.922306     2.914662     2.907019     2.899376     2.891733     2.884089     2.876446     2.868803     2.861160
      2.853517     2.845873     2.838230     2.830587     2.822944     2.815300     2.807657     2.800014     2.792371     2.784728
      2.777084     2.769441     2.761798     2.754155     2.746511     2.738868     2.731225     2.723582     2.715939     2.708295
      2.700652     2.693009     2.685366     2.677722     2.670079     2.662436     2.654793     2.647150     2.639506     2.631863
      2.624220     2.616577     2.608933     2.601290     2.593647     2.586004     2.578361     2.570717     2.563074     2.555431
      2.547788     2.540144     2.532501     2.524858     2.517215     2.509572     2.501928     2.494285     2.486642     2.478999
      2.471355     2.463712     2.456069     2.448426     2.440783     2.433139     2.425496     2.417853     2.410210     2.402566
      2.394923     2.387280     2.379637     2.371994     2.364350     2.356707     2.349064     2.341421     2.333777     2.326134
      2.318491     2.310848     2.303205     2.295561     2.287918     2.280275     2.272632     2.264988     2.257345     2.249702
      2.242059     2.234416     2.226772     2.219129     2.211486     2.203843     2.196199     2.188556     2.180913     2.173270
      2.165627     2.157983     2.150340     2.142697     2.135054     2.127410     2.119767     2.112124     2.104481     2.096838
      2.089194     2.081551     2.073908     2.066265     2.058621     2.050978     2.043335     2.035692     2.028049     2.020405
      2.012762     2.005119     1.997476     1.989833     1.982190     1.974546     1.966903     1.959260     1.951617     1.943974
      1.936331     1.928688     1.921045     1.913402     1.905759     1.898115     1.890472     1.882829     1.875186     1.867543
      1.859900     1.852257     1.844614     1.836971     1.829327     1.821684     1.814041     1.806398     1.798755     1.791112
      1.783469     1.775826     1.768183     1.760540     1.752896     1.745253     1.737610     1.729967     1.722324     1.714681
      1.707038     1.699395     1.691752     1.684108     1.676465     1.668822     1.661179     1.653536     1.645893     1.638250
      1.630607     1.622964     1.615321     1.607677     1.600034     1.592391     1.584748     1.577105     1.569462     1.561819
      1.554176     1.546533     1.538890     1.531246     1.523603     1.515960     1.508317     1.500674     1.493031     1.485388
      1.477745     1.470102     1.462458     1.454815     1.447172     1.439529     1.431886     1.424243     1.416600     1.408957
      1.401314     1.393671     1.386027     1.378384     1.370741     1.363098     1.355455     1.347812     1.340169     1.332526
      1.324883     1.317240     1.309596     1.301953     1.294310     1.286667     1.279024     1.271381     1.263738     1.256095
      1.248452     1.240808     1.233165     1.225522     1.217879     1.210236     1.202593     1.194950     1.187307     1.179664
      1.172021     1.164377     1.156734     1.149091     1.141448     1.133805     1.126162     1.118519     1.110876     1.103233
      1.095590     1.087946     1.080303     1.072660     1.065017     1.057374     1.049731     1.042088     1.034445     1.026802
      1.019158     1.011515     1.003872     0.996229     0.988586     0.980943     0.973300     0.965657     0.958014     0.950371
      0.942727     0.935084     0.927441     0.919798     0.912155     0.904512     0.896869     0.889226     0.881583     0.873940
      0.866296     0.858653     0.851010     0.843367     0.835724     0.828081     0.820438     0.812795     0.805152     0.797508
      0.789865     0.782222     0.774579     0.766936     0.759293     0.751650     0.744007     0.736364     0.728721     0.721077
      0.713434     0.705791     0.698148     0.690505     0.682862     0.675219     0.667576     0.659933     0.652290     0.644646
      0.637003     0.629360     0.621717     0.614074     0.606431     0.598788     0.591145     0.583502     0.575858     0.568215
      0.560572     0.552929     0.545286     0.537643     0.530000     0.522357     0.514714     0.507071     0.499427     0.491784
      0.484141     0.476498     0.468855     0.461212     0.453569     0.445925     0.438282     0.430639     0.422996     0.415353
      0.407710     0.400067     0.392424     0.384780     0.377137     0.369494     0.361851     0.354208     0.346565     0.338922
      0.331278     0.323635     0.315992     0.308349     0.300706     0.293063     0.285420     0.277777     0.270133     0.262490
      0.254847     0.247204     0.239561     0.231918     0.224275     0.216631     0.208988     0.201345
 NY phased data points follow
   6.23276E+00  1.47712E+01  1.25214E+01  1.33221E+01  1.40475E+01  1.82924E+01  1.84898E+01  2.34465E+01  1.83726E+01  1.61670E+01
   1.22963E+01  1.65164E+01  1.82757E+01  2.07399E+01  1.56154E+01  1.69147E+01  1.24756E+01  1.33920E+01  9.12269E+00  1.17402E+01
   6.26186E+00  6.07401E+00  6.57869E+00  1.13979E+01  5.55156E+00  1.04319E+01  1.02555E+01  1.41816E+01  1.03403E+01  1.08616E+01
   9.56207E+00  1.57588E+01  1.06246E+01  1.21117E+01  1.09364E+01  1.21464E+01  2.59364E+00  9.35737E+00  1.32872E+01  1.21141E+01
   8.51437E+00  1.18666E+01  1.19310E+01  1.22964E+01  1.24631E+01  1.30173E+01  1.13478E+01  1.40543E+01  1.03133E+01  9.03521E+00
   1.34894E+01  1.08715E+01  8.65076E+00  1.18328E+01  2.23099E+00  8.83774E+00  7.88423E+00  7.67884E+00  4.51743E+00  6.79883E+00
   2.04742E+00  2.79502E+00  7.26391E-01  3.60807E+00  2.91496E+00  1.03860E+00  6.27928E+00  5.90472E+00  3.84972E+00  5.75017E+00
   3.92590E+00  7.69189E+00  3.00920E+00  5.22201E+00  4.50342E+00  5.90545E+00  6.20205E+00  7.74681E+00 -7.72077E-01  4.33106E+00
   8.01672E+00  5.45415E+00  3.47353E-01  6.12073E+00  9.01358E+00  5.06273E+00  2.64264E+00  4.62733E+00  7.05206E+00  8.88782E+00
   3.85598E+00  5.38817E+00  6.92540E+00  3.77511E-01  5.02368E+00  1.06775E+01  1.38191E+01  2.66456E+01  2.61699E+01  2.68817E+01
   2.92266E+01  2.76272E+01  2.13960E+01  2.55642E+01  2.07101E+01  2.21409E+01  1.86683E+01  1.62625E+01  1.55466E+01  1.55320E+01
   1.70319E+01  1.06681E+01  3.09077E+00  5.05996E+00  4.43232E+00  4.93929E+00 -2.12625E+00  6.07245E+00  1.18263E+00  1.07537E+01
   1.29349E+01  2.01739E+01  2.56016E+01  2.77518E+01  2.10589E+01  1.66462E+01  2.26636E+01  1.89647E+01  2.26054E+01  2.01382E+01
   2.18794E+01  1.84932E+01  1.09463E+01  1.46145E+01  8.82664E+00  9.44210E+00  6.99630E+00  1.02201E+01 -2.14458E+00 -3.19396E+00
   2.87013E+00  3.09934E+00 -4.11908E+00  1.81505E+00  3.48525E+00 -8.00462E-01  2.67664E+00 -1.79830E+00 -3.97699E+00 -1.60719E+00
   7.92886E-01  3.83736E+00  1.98780E+00  5.80140E+00 -3.02808E+00 -3.60892E+00 -2.50656E+00 -2.32968E+00  2.76724E-01  5.86684E+00
   1.22150E+00  1.27773E+00 -5.37984E+00  3.66853E+00 -5.66357E+00  3.14096E+00 -5.93784E+00 -2.66679E+00 -5.40005E+00 -4.95211E+00
  -1.03361E+00 -5.43134E+00 -1.00430E+00 -7.11322E+00 -4.20178E+00 -7.50639E+00 -5.95773E+00 -5.30602E+00 -3.38887E+00 -5.59379E+00
   2.03309E+00 -5.92163E+00 -3.49078E+00 -5.53815E+00 -5.20987E+00  4.50462E-01 -4.20927E+00 -4.05335E-01 -8.21030E-01 -5.16680E+00
  -2.53777E+00 -4.04612E+00 -4.50941E+00 -3.41469E+00 -5.01182E+00 -5.02077E+00 -1.12798E+01 -5.87999E+00 -3.19128E+00 -1.24534E+00
   6.92987E-01 -7.14365E+00 -3.10615E+00  3.24985E+00 -5.58734E+00 -1.70503E+00 -3.70865E+00  2.28252E+00 -1.09805E+00 -2.78070E-01
   8.99445E-02  4.15079E+00  3.44720E+00  6.67515E+00  6.13340E-01  1.50611E+00 -6.01791E-01  8.54554E-01 -3.69680E+00  7.51018E+00
   2.00470E+00  4.27547E+00 -2.99227E-02  8.59551E+00 -2.12735E+00  7.28740E+00  4.62133E+00  4.90656E+00  2.48655E+00  9.26786E+00
   7.12966E+00  6.66557E+00  5.10294E+00  6.55730E+00  1.16481E+01  6.30465E+00  1.67320E+00  6.75896E+00  2.54614E+00  7.03487E+00
   6.03008E+00  6.42698E+00  1.73348E-01  9.74150E+00  3.91337E+00  7.19108E+00  8.39562E+00  3.38672E+00  4.26681E+00  1.17977E+01
   9.35791E+00  1.62701E+01  1.82237E+01  2.54809E+01  3.02313E+01  3.42853E+01  4.43902E+01  4.96516E+01  4.35611E+01  4.16881E+01
   4.05277E+01  4.28740E+01  4.03139E+01  4.00439E+01  3.42685E+01  3.25155E+01  2.22907E+01  1.86800E+01  1.99514E+01  1.31695E+01
   1.67180E+01  8.22159E+00  9.69961E+00  7.43376E+00  5.18140E+00  1.50731E+00  8.12748E+00  2.34675E+00  2.65786E+00  9.93450E+00
   4.56016E+00 -2.03659E-01  3.40310E+00  2.39614E+00  2.69946E+00  7.97901E+00  3.91982E+00  1.25278E+00  3.75796E+00  3.93788E+00
   5.02853E+00  7.21685E+00  4.93264E+00  9.11536E+00  3.45058E+00 -2.81536E+00  3.11247E+00  4.03906E+00  3.54581E+00  6.72243E+00
   5.59196E+00  8.17723E+00  1.40876E+01  5.50972E+00  5.69269E+00  1.06206E+01  9.10370E+00  7.71083E+00  1.09323E+01  1.06976E+01
   4.31277E+00  9.96048E+00  8.17164E+00  1.08524E+01  1.37302E+01  9.70628E+00  4.57222E+00  1.12934E+01  9.88142E+00  1.31094E+01
   9.19314E+00  8.60592E+00  1.53850E+01  1.20430E+01  7.92586E+00  1.28299E+01  7.82054E+00  1.01073E+01  9.35268E+00  1.38558E+01
   9.87506E+00  1.08490E+01  1.69148E+01  1.44700E+01  1.63506E+01  1.58284E+01  2.25752E+01  2.23682E+01  1.68227E+01  2.35865E+01
   2.50141E+01  2.16425E+01  2.28416E+01  2.04916E+01  2.16816E+01  2.36854E+01  2.20050E+01  2.17577E+01  2.14817E+01  2.12276E+01
   2.26124E+01  1.45059E+01  1.30959E+01  1.94186E+01  1.38277E+01  1.66296E+01  5.49233E+00  9.84151E+00  1.59353E+01  1.37997E+01
   1.23798E+01  1.87703E+01  1.13839E+01  1.14715E+01  1.30540E+01  9.55710E+00  1.19850E+01  1.46267E+01  8.97315E+00  1.32710E+01
   9.75514E+00  1.54146E+01  1.14603E+01  8.79565E+00  6.79703E+00  8.81945E+00  1.48844E+01  6.06532E+00  7.51566E+00  9.32710E+00
   1.12724E+01  7.02278E+00  5.63252E+00  6.24733E+00  1.02952E+01  4.99787E+00  1.14610E+01  9.27224E+00  7.41273E+00  1.06671E+01
   9.09362E+00  1.13656E+01  1.36072E+01  1.47909E+01  9.84589E+00  7.88075E+00  1.15205E+01  7.98981E+00  9.48158E+00  1.19318E+01
   9.26876E+00  5.87703E+00  1.48189E+01  1.17412E+01  1.45496E+01  1.15046E+01  9.30066E+00  9.07569E+00  7.27056E+00  1.50801E+01
   1.04513E+01  7.74924E+00  9.30848E+00  1.40906E+01  4.69288E+00  7.05581E+00  6.25303E+00  4.39024E+00  1.04606E+01  7.86033E+00
   6.97986E+00  6.77556E+00  2.11594E+00 -3.53020E+00  1.10716E+00 -2.13750E+00  2.20372E+00  3.17073E+00 -6.64871E+00  6.58968E-01
   4.57645E+00  2.00392E+00 -1.33292E+00 -1.40286E+00 -4.52580E+00 -2.38414E+00 -4.44528E-01 -3.26062E+00 -8.76496E-01  1.94607E+00
   1.79169E+00 -5.19595E+00 -7.59578E+00 -6.03666E+00 -2.03408E+00  3.25344E+00 -9.54504E-01  1.32412E+00 -3.75166E+00  1.10444E+00
  -3.55016E+00 -2.13269E+00 -3.00062E+00 -2.00837E+00 -4.77055E+00 -2.93926E-01  6.44114E+00  3.49864E+00 -2.96356E+00  2.54592E+00
   2.89816E+00 -7.17916E+00 -5.08902E+00 -6.59301E-01  9.70344E-01 -4.58059E+00  2.85742E+00 -4.75130E+00 -4.40973E+00  1.93236E+00
  -1.13317E+00  1.95673E+00 -1.47401E+00 -5.38109E+00  1.33274E+00 -3.51884E+00 -2.84361E+00  1.24450E+00 -6.62633E+00 -2.37856E+00
  -9.76113E+00  9.27038E-01 -5.11662E+00  1.86977E+00 -5.04093E+00  1.03918E+00  3.31631E+00  2.38807E+00 -1.56660E+00  7.40876E-01
  -1.09994E+00 -2.14535E+00 -6.71339E+00 -1.51271E+00 -3.11468E+00 -2.39648E+00 -2.16278E+00  5.07859E+00
 NY points of the fit to the data follow
   9.19031E+00  1.07276E+01  1.17584E+01  1.41488E+01  1.50668E+01  1.74636E+01  1.74958E+01  1.91204E+01  1.81037E+01  1.92548E+01
   1.77283E+01  1.86433E+01  1.68772E+01  1.74069E+01  1.53076E+01  1.55079E+01  1.32020E+01  1.32652E+01  1.06737E+01  1.08855E+01
   8.00704E+00  8.65547E+00  6.28829E+00  8.05320E+00  7.03093E+00  9.88460E+00  9.64502E+00  1.24228E+01  1.15376E+01  1.31513E+01
   1.16634E+01  1.24549E+01  1.10485E+01  1.15136E+01  1.05294E+01  1.09435E+01  1.02558E+01  1.06134E+01  1.03796E+01  1.09941E+01
   1.12709E+01  1.19348E+01  1.21422E+01  1.23603E+01  1.20780E+01  1.16472E+01  1.11514E+01  1.07543E+01  1.04006E+01  1.00794E+01
   9.70213E+00  9.31476E+00  8.77180E+00  8.31915E+00  7.75685E+00  7.29464E+00  6.74760E+00  6.17113E+00  5.59681E+00  5.11673E+00
   4.67228E+00  4.57880E+00  4.39047E+00  4.66689E+00  4.64489E+00  4.86455E+00  4.87305E+00  4.95957E+00  5.00796E+00  4.98176E+00
   4.99826E+00  4.88361E+00  4.89029E+00  4.71452E+00  4.83688E+00  4.71479E+00  4.94407E+00  4.87591E+00  5.19626E+00  5.14344E+00
   5.26135E+00  5.17406E+00  4.86934E+00  4.76740E+00  4.12323E+00  4.08689E+00  3.56587E+00  3.61783E+00  3.25136E+00  3.29122E+00
   3.22753E+00  4.12953E+00  4.52366E+00  6.98646E+00  8.04771E+00  1.32322E+01  1.41989E+01  2.10073E+01  2.05915E+01  2.65681E+01
   2.41999E+01  2.76440E+01  2.43753E+01  2.66712E+01  2.30014E+01  2.43251E+01  2.03343E+01  2.01193E+01  1.61937E+01  1.48066E+01
   1.15086E+01  9.78571E+00  7.31849E+00  5.67667E+00  4.43392E+00  3.72247E+00  3.92698E+00  5.12897E+00  6.95356E+00  1.09595E+01
   1.29173E+01  1.80778E+01  1.85884E+01  2.31329E+01  2.15301E+01  2.43476E+01  2.18250E+01  2.37198E+01  2.06832E+01  2.16486E+01
   1.80021E+01  1.77027E+01  1.39960E+01  1.28597E+01  9.90986E+00  8.52865E+00  6.45044E+00  4.98160E+00  3.59784E+00  2.20151E+00
   1.58180E+00  6.66906E-01  7.82256E-01  4.67016E-01  6.54424E-01  3.93375E-01  4.99517E-01  2.72476E-01  2.91504E-01  8.10489E-02
   2.81541E-02 -2.08813E-01 -3.52220E-01 -6.45037E-01 -8.21791E-01 -1.11679E+00 -1.22913E+00 -1.40007E+00 -1.48269E+00 -1.51047E+00
  -1.68019E+00 -1.70798E+00 -1.98053E+00 -2.07350E+00 -2.38240E+00 -2.46655E+00 -2.79464E+00 -2.89372E+00 -3.27156E+00 -3.44888E+00
  -3.74992E+00 -3.98575E+00 -4.09114E+00 -4.39820E+00 -4.32493E+00 -4.73112E+00 -4.57399E+00 -4.99177E+00 -4.72009E+00 -4.99445E+00
  -4.55733E+00 -4.66263E+00 -4.11244E+00 -4.01522E+00 -3.49521E+00 -3.24067E+00 -3.13623E+00 -2.85229E+00 -3.35614E+00 -2.83830E+00
  -3.77093E+00 -2.68903E+00 -3.48573E+00 -1.61810E+00 -1.90012E+00  4.59270E-01  4.03603E-01  2.56901E+00  1.85905E+00  3.34190E+00
   1.39058E+00  2.07549E+00 -1.17096E+00 -3.56260E-01 -3.84391E+00 -1.86817E+00 -4.55778E+00 -1.28481E+00 -2.82252E+00  7.62342E-01
  -8.02174E-01  2.59617E+00  2.99620E-01  3.18847E+00  2.79237E-01  2.43709E+00 -2.35160E-02  1.93319E+00  3.20680E-01  2.41731E+00
   1.50557E+00  3.51798E+00  2.76937E+00  3.87863E+00  2.98881E+00  3.55872E+00  2.65372E+00  3.36901E+00  2.73668E+00  3.95640E+00
   3.65762E+00  5.48542E+00  5.31851E+00  7.46785E+00  6.75074E+00  8.17052E+00  6.60619E+00  7.09066E+00  5.28591E+00  5.41716E+00
   4.33876E+00  4.72624E+00  4.36705E+00  4.80667E+00  4.90323E+00  5.37421E+00  5.89525E+00  6.70428E+00  8.54581E+00  1.01501E+01
   1.34789E+01  1.61995E+01  2.18231E+01  2.60546E+01  3.22276E+01  3.69005E+01  4.03672E+01  4.38860E+01  4.27115E+01  4.45292E+01
   4.13653E+01  4.22980E+01  3.79585E+01  3.80634E+01  3.22924E+01  3.14661E+01  2.51522E+01  2.38520E+01  1.82716E+01  1.69481E+01
   1.24486E+01  1.11915E+01  7.76801E+00  6.70123E+00  4.76560E+00  4.16129E+00  3.76931E+00  3.57992E+00  3.41319E+00  3.27323E+00
   3.21049E+00  3.10489E+00  3.08601E+00  3.02568E+00  3.05548E+00  3.04982E+00  3.12250E+00  3.19091E+00  3.31892E+00  3.47310E+00
   3.67812E+00  3.91730E+00  4.18644E+00  4.49066E+00  4.80262E+00  5.14381E+00  5.47758E+00  5.82535E+00  6.15846E+00  6.48995E+00
   6.79683E+00  7.08619E+00  7.34245E+00  7.56819E+00  7.75654E+00  7.90913E+00  8.02859E+00  8.11599E+00  8.18270E+00  8.23433E+00
   8.28773E+00  8.35753E+00  8.46872E+00  8.65610E+00  8.99007E+00  9.50658E+00  9.94724E+00  1.08343E+01  1.12179E+01  1.24677E+01
   1.21186E+01  1.32101E+01  1.17010E+01  1.24377E+01  1.02343E+01  1.08403E+01  8.97567E+00  1.04572E+01  9.37747E+00  1.16653E+01
   1.13962E+01  1.37230E+01  1.41141E+01  1.58027E+01  1.64370E+01  1.77932E+01  1.86154E+01  1.96847E+01  2.06004E+01  2.11447E+01
   2.19213E+01  2.19737E+01  2.23956E+01  2.21268E+01  2.20460E+01  2.14255E+01  2.10364E+01  2.02286E+01  1.96454E+01  1.88824E+01
   1.82826E+01  1.77841E+01  1.73341E+01  1.69164E+01  1.65177E+01  1.61343E+01  1.57576E+01  1.53860E+01  1.50125E+01  1.46367E+01
   1.42526E+01  1.38613E+01  1.34584E+01  1.30466E+01  1.26234E+01  1.21931E+01  1.17548E+01  1.13144E+01  1.08723E+01  1.04354E+01
   1.00050E+01  9.58872E+00  9.18815E+00  8.81100E+00  8.45883E+00  8.13913E+00  7.85311E+00  7.60775E+00  7.40365E+00  7.24707E+00
   7.13782E+00  7.08127E+00  7.07616E+00  7.12667E+00  7.23014E+00  7.38910E+00  7.59908E+00  7.86053E+00  8.16665E+00  8.51537E+00
   8.89722E+00  9.30747E+00  9.73404E+00  1.01698E+01  1.06007E+01  1.10179E+01  1.14065E+01  1.17578E+01  1.20573E+01  1.22979E+01
   1.24676E+01  1.25626E+01  1.25747E+01  1.25044E+01  1.23482E+01  1.21113E+01  1.17949E+01  1.14081E+01  1.09559E+01  1.04504E+01
   9.89877E+00  9.31439E+00  8.70485E+00  8.08338E+00  7.45654E+00  6.83607E+00  6.22657E+00  5.63748E+00  5.07099E+00  4.53409E+00
   4.02659E+00  3.55324E+00  3.11186E+00  2.70543E+00  2.33031E+00  1.98832E+00  1.67492E+00  1.39127E+00  1.13240E+00  8.99227E-01
   6.86690E-01  4.95771E-01  3.21539E-01  1.65186E-01  2.20145E-02 -1.06510E-01 -2.24807E-01 -3.31112E-01 -4.29578E-01 -5.18189E-01
  -6.00870E-01 -6.75393E-01 -7.45475E-01 -8.08709E-01 -8.68657E-01 -9.22783E-01 -9.74531E-01 -1.02126E+00 -1.06631E+00 -1.10695E+00
  -1.14646E+00 -1.18206E+00 -1.21698E+00 -1.24838E+00 -1.27943E+00 -1.30726E+00 -1.33503E+00 -1.35985E+00 -1.38482E+00 -1.40704E+00
  -1.42960E+00 -1.44957E+00 -1.47004E+00 -1.48807E+00 -1.50672E+00 -1.52305E+00 -1.54009E+00 -1.55491E+00 -1.57054E+00 -1.58404E+00
  -1.59841E+00 -1.61072E+00 -1.62396E+00 -1.63519E+00 -1.64742E+00 -1.65770E+00 -1.66901E+00 -1.67840E+00 -1.68886E+00 -1.69745E+00
  -1.70713E+00 -1.71497E+00 -1.72393E+00 -1.73105E+00 -1.73931E+00 -1.74576E+00 -1.75337E+00 -1.75917E+00 -1.76613E+00 -1.77128E+00
  -1.77758E+00 -1.78208E+00 -1.78772E+00 -1.79152E+00 -1.79643E+00 -1.79947E+00 -1.80358E+00 -1.80577E+00
 NY background values follow
    -1.581E+00   -1.582E+00   -1.582E+00   -1.583E+00   -1.584E+00   -1.585E+00   -1.585E+00   -1.586E+00   -1.587E+00   -1.588E+00
    -1.589E+00   -1.589E+00   -1.590E+00   -1.591E+00   -1.592E+00   -1.592E+00   -1.593E+00   -1.594E+00   -1.595E+00   -1.596E+00
    -1.596E+00   -1.597E+00   -1.598E+00   -1.599E+00   -1.600E+00   -1.600E+00   -1.601E+00   -1.602E+00   -1.603E+00   -1.603E+00
    -1.604E+00   -1.605E+00   -1.606E+00   -1.607E+00   -1.607E+00   -1.608E+00   -1.609E+00   -1.610E+00   -1.610E+00   -1.611E+00
    -1.612E+00   -1.613E+00   -1.614E+00   -1.614E+00   -1.615E+00   -1.616E+00   -1.617E+00   -1.618E+00   -1.618E+00   -1.619E+00
    -1.620E+00   -1.621E+00   -1.621E+00   -1.622E+00   -1.623E+00   -1.624E+00   -1.625E+00   -1.625E+00   -1.626E+00   -1.627E+00
    -1.628E+00   -1.628E+00   -1.629E+00   -1.630E+00   -1.631E+00   -1.632E+00   -1.632E+00   -1.633E+00   -1.634E+00   -1.635E+00
    -1.635E+00   -1.636E+00   -1.637E+00   -1.638E+00   -1.639E+00   -1.639E+00   -1.640E+00   -1.641E+00   -1.642E+00   -1.643E+00
    -1.643E+00   -1.644E+00   -1.645E+00   -1.646E+00   -1.646E+00   -1.647E+00   -1.648E+00   -1.649E+00   -1.650E+00   -1.650E+00
    -1.651E+00   -1.652E+00   -1.653E+00   -1.653E+00   -1.654E+00   -1.655E+00   -1.656E+00   -1.657E+00   -1.657E+00   -1.658E+00
    -1.659E+00   -1.660E+00   -1.660E+00   -1.661E+00   -1.662E+00   -1.663E+00   -1.664E+00   -1.664E+00   -1.665E+00   -1.666E+00
    -1.667E+00   -1.668E+00   -1.668E+00   -1.669E+00   -1.670E+00   -1.671E+00   -1.671E+00   -1.672E+00   -1.673E+00   -1.674E+00
    -1.675E+00   -1.675E+00   -1.676E+00   -1.677E+00   -1.678E+00   -1.678E+00   -1.679E+00   -1.680E+00   -1.681E+00   -1.682E+00
    -1.682E+00   -1.683E+00   -1.684E+00   -1.685E+00   -1.685E+00   -1.686E+00   -1.687E+00   -1.688E+00   -1.689E+00   -1.689E+00
    -1.690E+00   -1.691E+00   -1.692E+00   -1.693E+00   -1.693E+00   -1.694E+00   -1.695E+00   -1.696E+00   -1.696E+00   -1.697E+00
    -1.698E+00   -1.699E+00   -1.700E+00   -1.700E+00   -1.701E+00   -1.702E+00   -1.703E+00   -1.703E+00   -1.704E+00   -1.705E+00
    -1.706E+00   -1.707E+00   -1.707E+00   -1.708E+00   -1.709E+00   -1.710E+00   -1.710E+00   -1.711E+00   -1.712E+00   -1.713E+00
    -1.714E+00   -1.714E+00   -1.715E+00   -1.716E+00   -1.717E+00   -1.717E+00   -1.718E+00   -1.719E+00   -1.720E+00   -1.721E+00
    -1.721E+00   -1.722E+00   -1.723E+00   -1.724E+00   -1.724E+00   -1.725E+00   -1.726E+00   -1.727E+00   -1.728E+00   -1.728E+00
    -1.729E+00   -1.730E+00   -1.731E+00   -1.731E+00   -1.732E+00   -1.733E+00   -1.734E+00   -1.735E+00   -1.735E+00   -1.736E+00
    -1.737E+00   -1.738E+00   -1.739E+00   -1.739E+00   -1.740E+00   -1.741E+00   -1.742E+00   -1.742E+00   -1.743E+00   -1.744E+00
    -1.745E+00   -1.746E+00   -1.746E+00   -1.747E+00   -1.748E+00   -1.749E+00   -1.749E+00   -1.750E+00   -1.751E+00   -1.752E+00
    -1.753E+00   -1.753E+00   -1.754E+00   -1.755E+00   -1.756E+00   -1.756E+00   -1.757E+00   -1.758E+00   -1.759E+00   -1.760E+00
    -1.760E+00   -1.761E+00   -1.762E+00   -1.763E+00   -1.763E+00   -1.764E+00   -1.765E+00   -1.766E+00   -1.767E+00   -1.767E+00
    -1.768E+00   -1.769E+00   -1.770E+00   -1.770E+00   -1.771E+00   -1.772E+00   -1.773E+00   -1.774E+00   -1.774E+00   -1.775E+00
    -1.776E+00   -1.777E+00   -1.777E+00   -1.778E+00   -1.779E+00   -1.780E+00   -1.781E+00   -1.781E+00   -1.782E+00   -1.783E+00
    -1.784E+00   -1.784E+00   -1.785E+00   -1.786E+00   -1.787E+00   -1.788E+00   -1.788E+00   -1.789E+00   -1.790E+00   -1.791E+00
    -1.791E+00   -1.792E+00   -1.793E+00   -1.794E+00   -1.795E+00   -1.795E+00   -1.796E+00   -1.797E+00   -1.798E+00   -1.798E+00
    -1.799E+00   -1.800E+00   -1.801E+00   -1.802E+00   -1.802E+00   -1.803E+00   -1.804E+00   -1.805E+00   -1.805E+00   -1.806E+00
    -1.807E+00   -1.808E+00   -1.809E+00   -1.809E+00   -1.810E+00   -1.811E+00   -1.812E+00   -1.812E+00   -1.813E+00   -1.814E+00
    -1.815E+00   -1.816E+00   -1.816E+00   -1.817E+00   -1.818E+00   -1.819E+00   -1.819E+00   -1.820E+00   -1.821E+00   -1.822E+00
    -1.823E+00   -1.823E+00   -1.824E+00   -1.825E+00   -1.826E+00   -1.826E+00   -1.827E+00   -1.828E+00   -1.829E+00   -1.830E+00
    -1.830E+00   -1.831E+00   -1.832E+00   -1.833E+00   -1.833E+00   -1.834E+00   -1.835E+00   -1.836E+00   -1.837E+00   -1.837E+00
    -1.838E+00   -1.839E+00   -1.840E+00   -1.840E+00   -1.841E+00   -1.842E+00   -1.843E+00   -1.843E+00   -1.844E+00   -1.845E+00
    -1.846E+00   -1.847E+00   -1.847E+00   -1.848E+00   -1.849E+00   -1.850E+00   -1.850E+00   -1.851E+00   -1.852E+00   -1.853E+00
    -1.854E+00   -1.854E+00   -1.855E+00   -1.856E+00   -1.857E+00   -1.857E+00   -1.858E+00   -1.859E+00   -1.860E+00   -1.861E+00
    -1.861E+00   -1.862E+00   -1.863E+00   -1.864E+00   -1.864E+00   -1.865E+00   -1.866E+00   -1.867E+00   -1.868E+00   -1.868E+00
    -1.869E+00   -1.870E+00   -1.871E+00   -1.871E+00   -1.872E+00   -1.873E+00   -1.874E+00   -1.875E+00   -1.875E+00   -1.876E+00
    -1.877E+00   -1.878E+00   -1.878E+00   -1.879E+00   -1.880E+00   -1.881E+00   -1.882E+00   -1.882E+00   -1.883E+00   -1.884E+00
    -1.885E+00   -1.885E+00   -1.886E+00   -1.887E+00   -1.888E+00   -1.889E+00   -1.889E+00   -1.890E+00   -1.891E+00   -1.892E+00
    -1.892E+00   -1.893E+00   -1.894E+00   -1.895E+00   -1.895E+00   -1.896E+00   -1.897E+00   -1.898E+00   -1.899E+00   -1.899E+00
    -1.900E+00   -1.901E+00   -1.902E+00   -1.902E+00   -1.903E+00   -1.904E+00   -1.905E+00   -1.906E+00   -1.906E+00   -1.907E+00
    -1.908E+00   -1.909E+00   -1.909E+00   -1.910E+00   -1.911E+00   -1.912E+00   -1.913E+00   -1.913E+00   -1.914E+00   -1.915E+00
    -1.916E+00   -1.916E+00   -1.917E+00   -1.918E+00   -1.919E+00   -1.920E+00   -1.920E+00   -1.921E+00   -1.922E+00   -1.923E+00
    -1.923E+00   -1.924E+00   -1.925E+00   -1.926E+00   -1.926E+00   -1.927E+00   -1.928E+00   -1.929E+00   -1.930E+00   -1.930E+00
    -1.931E+00   -1.932E+00   -1.933E+00   -1.933E+00   -1.934E+00   -1.935E+00   -1.936E+00   -1.937E+00   -1.937E+00   -1.938E+00
    -1.939E+00   -1.940E+00   -1.940E+00   -1.941E+00   -1.942E+00   -1.943E+00   -1.944E+00   -1.944E+00   -1.945E+00   -1.946E+00
    -1.947E+00   -1.947E+00   -1.948E+00   -1.949E+00   -1.950E+00   -1.950E+00   -1.951E+00   -1.952E+00   -1.953E+00   -1.954E+00
    -1.954E+00   -1.955E+00   -1.956E+00   -1.957E+00   -1.957E+00   -1.958E+00   -1.959E+00   -1.960E+00   -1.961E+00   -1.961E+00
    -1.962E+00   -1.963E+00   -1.964E+00   -1.964E+00   -1.965E+00   -1.966E+00   -1.967E+00   -1.967E+00
 Ala      Conc. = 1.06E+03
