 LCModel (Version 6.3-1L) Copyright: S.W. Provencher.          Ref.: Magn. Reson. Med. 30:672-679 (1993).                
 Slice#2 Row#11 Col#4  PD_24_press_1_raw_act
 36 lines in following concentration table = NCONC+1
    Conc.  %SD /Cr+PCr  Metabolite                                         
  260.342  63%   0.245 Ala                                                 
    0.000 999%   0.000 Asp                                                 
 1.06E+03   6%   1.000 Cr                                                  
    0.000 999%   0.000 PCr                                                 
  166.990  96%   0.157 GABA                                                
   63.784 231% 6.0E-02 Glc                                                 
  739.979  52%   0.696 Gln                                                 
 1.10E+03  40%   1.035 Glu                                                 
  556.247   5%   0.523 GPC                                                 
    0.000 999%   0.000 PCh                                                 
  848.971  11%   0.799 GSH                                                 
 2.90E+03  13%   2.733 Ins                                                 
  922.375  24%   0.868 Lac                                                 
 2.09E+03   3%   1.964 NAA                                                 
    0.000 999%   0.000 NAAG                                                
  244.607  13%   0.230 Scyllo                                              
  505.460  45%   0.476 Tau                                                 
  119.793 104%   0.113 -CrCH2                                              
  556.247   5%   0.523 GPC+PCh                                             
 2.09E+03   3%   1.964 NAA+NAAG                                            
 1.06E+03   6%   1.000 Cr+PCr                                              
 1.84E+03  40%   1.732 Glu+Gln                                             
    0.000 999%   0.000 Lip13a                                              
  954.028  10%   0.898 Lip13b                                              
  246.518  21%   0.232 Lip09                                               
  696.955  21%   0.656 MM09                                                
  142.014  25%   0.134 Lip20                                               
  856.913  34%   0.806 MM20                                                
  179.375  56%   0.169 MM12                                                
 1.61E+03  13%   1.517 MM14                                                
  685.529  24%   0.645 MM17                                                
  954.028  10%   0.898 Lip13a+Lip13b                                       
 2.75E+03   9%   2.584 MM14+Lip13a+Lip13b+MM12                             
  943.473  15%   0.888 MM09+Lip09                                          
  998.927  29%   0.940 MM20+Lip20                                          
   6 lines in following misc. output table
  FWHM = 0.076 ppm    S/N =   9                                            
  Data shift = 0.008 ppm                                                   
  Ph: -58 deg     -17.2 deg/ppm                                            
  alphaB,S = 6.9E-01,   2.1E+01                                            
   14 spline knots.   Ns =10(1)                                            
  (19)11 infls.   (21) 1 extrs.                                            
  498 points on ppm-axis = NY
      4.000000     3.992357     3.984714     3.977070     3.969427     3.961784     3.954141     3.946497     3.938854     3.931211
      3.923568     3.915925     3.908281     3.900638     3.892995     3.885352     3.877708     3.870065     3.862422     3.854779
      3.847136     3.839492     3.831849     3.824206     3.816563     3.808919     3.801276     3.793633     3.785990     3.778347
      3.770703     3.763060     3.755417     3.747774     3.740130     3.732487     3.724844     3.717201     3.709558     3.701914
      3.694271     3.686628     3.678985     3.671341     3.663698     3.656055     3.648412     3.640769     3.633125     3.625482
      3.617839     3.610196     3.602552     3.594909     3.587266     3.579623     3.571980     3.564336     3.556693     3.549050
      3.541407     3.533763     3.526120     3.518477     3.510834     3.503191     3.495547     3.487904     3.480261     3.472618
      3.464974     3.457331     3.449688     3.442045     3.434402     3.426758     3.419115     3.411472     3.403829     3.396185
      3.388542     3.380899     3.373256     3.365613     3.357969     3.350326     3.342683     3.335040     3.327396     3.319753
      3.312110     3.304467     3.296824     3.289180     3.281537     3.273894     3.266251     3.258607     3.250964     3.243321
      3.235678     3.228034     3.220391     3.212748     3.205105     3.197462     3.189818     3.182175     3.174532     3.166889
      3.159245     3.151602     3.143959     3.136316     3.128673     3.121029     3.113386     3.105743     3.098100     3.090456
      3.082813     3.075170     3.067527     3.059884     3.052240     3.044597     3.036954     3.029311     3.021667     3.014024
      3.006381     2.998738     2.991095     2.983451     2.975808     2.968165     2.960522     2.952878     2.945235     2.937592
      2.929949     2.922306     2.914662     2.907019     2.899376     2.891733     2.884089     2.876446     2.868803     2.861160
      2.853517     2.845873     2.838230     2.830587     2.822944     2.815300     2.807657     2.800014     2.792371     2.784728
      2.777084     2.769441     2.761798     2.754155     2.746511     2.738868     2.731225     2.723582     2.715939     2.708295
      2.700652     2.693009     2.685366     2.677722     2.670079     2.662436     2.654793     2.647150     2.639506     2.631863
      2.624220     2.616577     2.608933     2.601290     2.593647     2.586004     2.578361     2.570717     2.563074     2.555431
      2.547788     2.540144     2.532501     2.524858     2.517215     2.509572     2.501928     2.494285     2.486642     2.478999
      2.471355     2.463712     2.456069     2.448426     2.440783     2.433139     2.425496     2.417853     2.410210     2.402566
      2.394923     2.387280     2.379637     2.371994     2.364350     2.356707     2.349064     2.341421     2.333777     2.326134
      2.318491     2.310848     2.303205     2.295561     2.287918     2.280275     2.272632     2.264988     2.257345     2.249702
      2.242059     2.234416     2.226772     2.219129     2.211486     2.203843     2.196199     2.188556     2.180913     2.173270
      2.165627     2.157983     2.150340     2.142697     2.135054     2.127410     2.119767     2.112124     2.104481     2.096838
      2.089194     2.081551     2.073908     2.066265     2.058621     2.050978     2.043335     2.035692     2.028049     2.020405
      2.012762     2.005119     1.997476     1.989833     1.982190     1.974546     1.966903     1.959260     1.951617     1.943974
      1.936331     1.928688     1.921045     1.913402     1.905759     1.898115     1.890472     1.882829     1.875186     1.867543
      1.859900     1.852257     1.844614     1.836971     1.829327     1.821684     1.814041     1.806398     1.798755     1.791112
      1.783469     1.775826     1.768183     1.760540     1.752896     1.745253     1.737610     1.729967     1.722324     1.714681
      1.707038     1.699395     1.691752     1.684108     1.676465     1.668822     1.661179     1.653536     1.645893     1.638250
      1.630607     1.622964     1.615321     1.607677     1.600034     1.592391     1.584748     1.577105     1.569462     1.561819
      1.554176     1.546533     1.538890     1.531246     1.523603     1.515960     1.508317     1.500674     1.493031     1.485388
      1.477745     1.470102     1.462458     1.454815     1.447172     1.439529     1.431886     1.424243     1.416600     1.408957
      1.401314     1.393671     1.386027     1.378384     1.370741     1.363098     1.355455     1.347812     1.340169     1.332526
      1.324883     1.317240     1.309596     1.301953     1.294310     1.286667     1.279024     1.271381     1.263738     1.256095
      1.248452     1.240808     1.233165     1.225522     1.217879     1.210236     1.202593     1.194950     1.187307     1.179664
      1.172021     1.164377     1.156734     1.149091     1.141448     1.133805     1.126162     1.118519     1.110876     1.103233
      1.095590     1.087946     1.080303     1.072660     1.065017     1.057374     1.049731     1.042088     1.034445     1.026802
      1.019158     1.011515     1.003872     0.996229     0.988586     0.980943     0.973300     0.965657     0.958014     0.950371
      0.942727     0.935084     0.927441     0.919798     0.912155     0.904512     0.896869     0.889226     0.881583     0.873940
      0.866296     0.858653     0.851010     0.843367     0.835724     0.828081     0.820438     0.812795     0.805152     0.797508
      0.789865     0.782222     0.774579     0.766936     0.759293     0.751650     0.744007     0.736364     0.728721     0.721077
      0.713434     0.705791     0.698148     0.690505     0.682862     0.675219     0.667576     0.659933     0.652290     0.644646
      0.637003     0.629360     0.621717     0.614074     0.606431     0.598788     0.591145     0.583502     0.575858     0.568215
      0.560572     0.552929     0.545286     0.537643     0.530000     0.522357     0.514714     0.507071     0.499427     0.491784
      0.484141     0.476498     0.468855     0.461212     0.453569     0.445925     0.438282     0.430639     0.422996     0.415353
      0.407710     0.400067     0.392424     0.384780     0.377137     0.369494     0.361851     0.354208     0.346565     0.338922
      0.331278     0.323635     0.315992     0.308349     0.300706     0.293063     0.285420     0.277777     0.270133     0.262490
      0.254847     0.247204     0.239561     0.231918     0.224275     0.216631     0.208988     0.201345
 NY phased data points follow
  -1.80025E+02 -1.78768E+02 -1.73281E+02 -1.69135E+02 -1.67267E+02 -1.61388E+02 -1.60114E+02 -1.47653E+02 -1.46076E+02 -1.43966E+02
  -1.45132E+02 -1.40809E+02 -1.43010E+02 -1.35104E+02 -1.43374E+02 -1.42599E+02 -1.49122E+02 -1.44685E+02 -1.44490E+02 -1.40685E+02
  -1.46859E+02 -1.41685E+02 -1.41320E+02 -1.38171E+02 -1.40586E+02 -1.33488E+02 -1.28662E+02 -1.27451E+02 -1.25784E+02 -1.21642E+02
  -1.18381E+02 -1.14403E+02 -1.20448E+02 -1.18706E+02 -1.14394E+02 -1.16828E+02 -1.19768E+02 -1.11797E+02 -1.14733E+02 -1.11901E+02
  -1.11650E+02 -1.09698E+02 -1.09141E+02 -1.07158E+02 -1.08237E+02 -1.02255E+02 -1.05252E+02 -1.03303E+02 -1.01839E+02 -1.01944E+02
  -9.82364E+01 -9.96943E+01 -1.04907E+02 -1.00171E+02 -1.05657E+02 -9.90455E+01 -1.00054E+02 -9.46622E+01 -9.67148E+01 -9.50112E+01
  -9.74897E+01 -9.29294E+01 -9.76304E+01 -9.41015E+01 -9.33501E+01 -9.26922E+01 -9.52653E+01 -9.19726E+01 -9.15896E+01 -9.18225E+01
  -8.78296E+01 -8.70358E+01 -8.61799E+01 -8.61815E+01 -8.73881E+01 -7.91956E+01 -8.47984E+01 -8.09978E+01 -8.03492E+01 -7.72752E+01
  -7.97833E+01 -7.66972E+01 -7.76471E+01 -7.41206E+01 -7.58686E+01 -7.37445E+01 -7.33701E+01 -6.77784E+01 -7.62264E+01 -7.23038E+01
  -6.87525E+01 -6.60504E+01 -6.14861E+01 -6.62569E+01 -6.01273E+01 -5.97194E+01 -5.62906E+01 -4.72216E+01 -4.84530E+01 -4.29138E+01
  -3.77958E+01 -4.19193E+01 -3.84220E+01 -3.32277E+01 -3.83491E+01 -4.24414E+01 -4.29664E+01 -5.09130E+01 -5.31056E+01 -5.24630E+01
  -5.93308E+01 -5.88223E+01 -6.25769E+01 -5.54916E+01 -6.08352E+01 -5.78551E+01 -5.82633E+01 -5.58962E+01 -6.14940E+01 -5.46002E+01
  -5.52654E+01 -5.22395E+01 -5.07283E+01 -3.95853E+01 -3.77559E+01 -3.49680E+01 -3.25794E+01 -2.95552E+01 -2.99602E+01 -2.92799E+01
  -3.64851E+01 -3.79335E+01 -4.01138E+01 -4.52905E+01 -5.13590E+01 -5.13209E+01 -5.39450E+01 -5.58250E+01 -5.34715E+01 -5.12994E+01
  -5.34601E+01 -4.87609E+01 -4.92322E+01 -4.75096E+01 -5.02693E+01 -4.91254E+01 -5.04047E+01 -4.67400E+01 -4.80778E+01 -5.07756E+01
  -4.86193E+01 -4.49895E+01 -4.51459E+01 -4.67857E+01 -4.53322E+01 -4.44405E+01 -4.59197E+01 -4.40485E+01 -4.64877E+01 -4.70499E+01
  -4.31367E+01 -4.69656E+01 -4.35094E+01 -4.65459E+01 -4.39670E+01 -4.29542E+01 -4.05270E+01 -4.04321E+01 -3.92309E+01 -4.14094E+01
  -4.44643E+01 -4.50689E+01 -4.58275E+01 -4.42419E+01 -4.82842E+01 -4.16813E+01 -4.69503E+01 -4.31102E+01 -4.35536E+01 -3.86442E+01
  -4.45778E+01 -4.19855E+01 -4.42719E+01 -4.28081E+01 -4.28095E+01 -3.95240E+01 -4.07187E+01 -3.53375E+01 -3.73594E+01 -3.36325E+01
  -3.28534E+01 -3.47298E+01 -3.07038E+01 -2.94982E+01 -2.89110E+01 -2.95936E+01 -3.60050E+01 -3.08066E+01 -2.93659E+01 -2.77733E+01
  -2.88183E+01 -2.97388E+01 -3.22661E+01 -2.77256E+01 -2.59008E+01 -2.70740E+01 -3.01662E+01 -2.77260E+01 -2.61143E+01 -2.65624E+01
  -2.78252E+01 -2.74536E+01 -2.68132E+01 -2.33313E+01 -2.30007E+01 -2.26903E+01 -2.35272E+01 -1.92932E+01 -2.31434E+01 -2.21898E+01
  -2.48930E+01 -2.53918E+01 -2.25022E+01 -1.89142E+01 -2.53475E+01 -2.01601E+01 -1.98778E+01 -2.19141E+01 -1.82208E+01 -1.85621E+01
  -1.91678E+01 -1.68184E+01 -1.89018E+01 -2.03906E+01 -1.77698E+01 -1.59337E+01 -1.75710E+01 -1.85014E+01 -1.67423E+01 -1.50861E+01
  -2.12768E+01 -1.60900E+01 -1.48484E+01 -1.63244E+01 -1.45283E+01 -1.15743E+01 -1.42759E+01 -1.22359E+01 -1.07101E+01 -7.74274E+00
  -4.88636E+00 -3.41750E+00  2.90304E+00  9.32001E+00  1.62761E+01  1.89603E+01  2.41325E+01  2.85629E+01  2.82914E+01  3.76979E+01
   4.02089E+01  3.82199E+01  3.41751E+01  2.53802E+01  1.68601E+01  1.25787E+01  7.32058E+00  1.15017E+00 -2.35429E+00 -6.99869E+00
  -7.71106E+00 -7.17964E+00 -5.75847E+00 -3.27198E+00 -7.59793E+00 -8.28654E+00 -7.72620E+00 -7.76330E+00 -7.53866E+00 -6.56803E+00
  -5.05376E+00 -4.81420E+00 -1.11424E+01 -5.29289E+00 -5.98470E+00 -5.46422E+00 -7.51740E+00 -9.31119E+00 -8.92077E+00 -7.82789E+00
  -8.76227E+00 -6.94700E+00 -5.56136E+00 -1.02692E+01 -7.59607E+00 -1.01380E+01 -4.86299E+00 -8.58010E+00 -8.20924E+00 -2.89166E+00
  -3.97327E+00 -1.31378E+00  7.54366E-01  1.36603E-01 -1.69592E+00 -1.44186E+00 -2.93595E+00  1.55317E+00  5.33747E-01  1.75629E+00
   7.09683E-01 -3.76281E+00 -2.13192E+00  2.04207E-01  2.71122E-01  6.36055E+00  2.75821E+00  1.44517E+00  1.00552E+00 -1.09458E+00
   3.62838E+00  4.22960E+00  3.84899E+00  2.15222E+00  5.01047E+00  4.47949E+00  3.45543E-01  3.20982E+00  2.39051E+00  3.55801E+00
   2.58006E+00  4.16402E+00  5.57741E+00  3.91106E+00  8.62624E+00  7.27507E+00  4.38374E+00  2.59209E+00  9.65190E+00  7.89428E+00
   8.84382E+00  1.14026E+01  9.11462E+00  1.01208E+01  5.52604E+00  1.16313E+01  9.59364E+00  9.60264E+00  7.74390E+00  9.07927E+00
   5.26083E+00  8.14249E+00  5.55849E+00  4.54748E+00  2.97382E+00  2.66453E+00  5.31301E+00 -1.19759E+00 -2.79567E+00  2.41016E+00
   1.60453E+00 -2.50670E+00 -1.89985E+00 -4.05154E+00 -4.97849E+00 -6.98116E+00 -3.26584E+00 -7.68626E+00 -8.75383E+00 -6.30568E+00
  -3.75917E+00 -8.37038E+00 -7.00393E+00 -6.52367E+00 -5.97360E+00 -7.82248E+00 -7.94523E+00 -5.42532E+00 -9.21791E+00 -8.73592E+00
  -1.42910E+01 -1.04586E+01 -7.83590E+00 -8.27205E+00 -1.10776E+01 -8.00640E+00 -8.68023E+00 -4.62356E+00 -8.13082E+00 -4.19249E+00
  -7.90932E+00 -7.90702E+00 -6.70152E+00 -6.77815E+00 -4.06117E+00 -5.36036E+00 -6.16695E+00 -3.48318E+00 -6.01408E+00 -1.78099E+00
  -5.78016E-01 -1.33341E+00 -2.48001E+00 -5.56831E-01 -1.21616E+00 -3.29214E+00 -5.50783E-01 -1.39488E+00  9.28615E-01 -3.82370E+00
  -3.72816E-01 -5.00762E+00 -3.54991E+00 -1.29307E+00 -1.60526E+00 -1.19540E+00 -5.45797E+00 -3.96171E+00 -4.23607E+00 -4.08796E+00
  -5.02644E+00 -4.93689E+00 -4.99671E+00 -3.26542E+00 -5.61640E+00 -1.06470E+01 -7.28188E+00 -5.23855E+00 -7.38830E+00 -4.94274E+00
  -9.43374E+00 -7.21749E+00 -5.65708E+00 -3.90583E+00 -6.35149E+00 -6.38858E+00 -5.37170E+00 -5.99532E+00 -8.41808E+00 -5.13264E+00
  -5.11326E+00 -8.11832E+00 -7.07687E+00 -7.06321E+00 -5.45385E+00 -6.12992E+00 -2.39128E+00 -8.14841E+00 -7.88508E+00 -5.18038E+00
  -7.05830E+00 -7.30277E+00 -1.00574E+01 -3.15414E+00 -6.11134E+00 -3.17349E+00 -4.83366E+00 -4.90682E+00 -8.43773E+00 -3.35032E+00
  -4.36037E+00 -4.74043E+00 -6.84582E+00 -4.37555E+00 -2.97325E+00 -1.49601E+00 -6.00854E+00 -6.22114E+00 -5.29371E+00 -6.49864E+00
  -2.93560E+00 -1.55957E+00 -8.16405E+00 -4.72335E+00 -1.17189E+00 -3.34145E+00 -2.42264E+00 -5.25321E+00 -6.25449E+00 -3.86279E+00
  -3.53241E+00 -3.38990E+00 -6.30837E+00 -6.96556E+00 -2.68631E+00 -2.19706E+00 -1.15561E+00  4.91577E-01 -2.59812E+00 -6.26913E+00
  -5.67075E+00 -2.63584E+00 -3.59410E+00 -2.87194E+00 -3.49208E+00 -4.00756E+00 -5.76396E+00 -8.20727E-01
 NY points of the fit to the data follow
  -1.71405E+02 -1.70111E+02 -1.67537E+02 -1.65913E+02 -1.63144E+02 -1.60336E+02 -1.57004E+02 -1.53255E+02 -1.50423E+02 -1.48050E+02
  -1.45525E+02 -1.42756E+02 -1.40707E+02 -1.40482E+02 -1.41299E+02 -1.41536E+02 -1.42314E+02 -1.43369E+02 -1.43670E+02 -1.44023E+02
  -1.44328E+02 -1.42759E+02 -1.40402E+02 -1.38485E+02 -1.36346E+02 -1.33503E+02 -1.30111E+02 -1.27176E+02 -1.24709E+02 -1.22064E+02
  -1.19257E+02 -1.17044E+02 -1.16241E+02 -1.16683E+02 -1.17100E+02 -1.17724E+02 -1.18134E+02 -1.17674E+02 -1.17068E+02 -1.16785E+02
  -1.15139E+02 -1.12111E+02 -1.09795E+02 -1.07652E+02 -1.05816E+02 -1.04039E+02 -1.02324E+02 -1.01308E+02 -1.01710E+02 -1.02696E+02
  -1.03320E+02 -1.03900E+02 -1.04284E+02 -1.03877E+02 -1.03447E+02 -1.02969E+02 -1.01568E+02 -9.99206E+01 -9.85947E+01 -9.74182E+01
  -9.64626E+01 -9.55916E+01 -9.49223E+01 -9.43955E+01 -9.37973E+01 -9.27414E+01 -9.15507E+01 -9.04518E+01 -8.91144E+01 -8.79169E+01
  -8.67261E+01 -8.55370E+01 -8.47128E+01 -8.41258E+01 -8.36184E+01 -8.31885E+01 -8.25239E+01 -8.15604E+01 -8.11781E+01 -8.02085E+01
  -7.94773E+01 -7.85081E+01 -7.69449E+01 -7.56760E+01 -7.49231E+01 -7.39242E+01 -7.28111E+01 -7.19168E+01 -7.15179E+01 -7.18744E+01
  -7.18127E+01 -7.10179E+01 -6.87229E+01 -6.63335E+01 -6.30999E+01 -5.96671E+01 -5.64502E+01 -5.09963E+01 -4.62932E+01 -4.28872E+01
  -4.00374E+01 -3.73164E+01 -3.46460E+01 -3.41078E+01 -3.75228E+01 -4.15472E+01 -4.48663E+01 -4.94784E+01 -5.36132E+01 -5.58733E+01
  -5.89931E+01 -6.22693E+01 -6.20187E+01 -6.17603E+01 -6.27288E+01 -6.26369E+01 -6.20166E+01 -5.99144E+01 -5.75550E+01 -5.52562E+01
  -5.19111E+01 -4.90991E+01 -4.52320E+01 -4.10725E+01 -3.80321E+01 -3.55789E+01 -3.31641E+01 -3.09333E+01 -3.01702E+01 -3.21702E+01
  -3.53384E+01 -3.79149E+01 -4.10466E+01 -4.43486E+01 -4.61778E+01 -4.82600E+01 -5.12030E+01 -5.13783E+01 -5.05617E+01 -5.11226E+01
  -5.06454E+01 -4.97263E+01 -4.90155E+01 -4.84207E+01 -4.78048E+01 -4.74892E+01 -4.73963E+01 -4.72900E+01 -4.73147E+01 -4.72921E+01
  -4.71990E+01 -4.73084E+01 -4.71421E+01 -4.70099E+01 -4.68774E+01 -4.66236E+01 -4.64540E+01 -4.61961E+01 -4.59203E+01 -4.56604E+01
  -4.53745E+01 -4.52044E+01 -4.50429E+01 -4.47303E+01 -4.44086E+01 -4.42185E+01 -4.41728E+01 -4.42040E+01 -4.41844E+01 -4.41065E+01
  -4.40119E+01 -4.41188E+01 -4.40473E+01 -4.39147E+01 -4.37425E+01 -4.34707E+01 -4.34224E+01 -4.32906E+01 -4.28617E+01 -4.24227E+01
  -4.20446E+01 -4.15321E+01 -4.08848E+01 -4.00179E+01 -3.90278E+01 -3.79729E+01 -3.70759E+01 -3.61173E+01 -3.51368E+01 -3.41206E+01
  -3.32638E+01 -3.26823E+01 -3.21030E+01 -3.18565E+01 -3.17161E+01 -3.14010E+01 -3.10206E+01 -3.07464E+01 -3.03001E+01 -2.96516E+01
  -2.89341E+01 -2.80722E+01 -2.75921E+01 -2.72460E+01 -2.70210E+01 -2.72819E+01 -2.73257E+01 -2.73225E+01 -2.76227E+01 -2.77288E+01
  -2.75062E+01 -2.69066E+01 -2.61305E+01 -2.55587E+01 -2.49309E+01 -2.40407E+01 -2.34272E+01 -2.33448E+01 -2.34644E+01 -2.34315E+01
  -2.36301E+01 -2.37104E+01 -2.36204E+01 -2.33070E+01 -2.26268E+01 -2.18052E+01 -2.08658E+01 -2.00810E+01 -1.93233E+01 -1.86405E+01
  -1.80784E+01 -1.75518E+01 -1.72954E+01 -1.70307E+01 -1.63787E+01 -1.60429E+01 -1.58316E+01 -1.54675E+01 -1.51638E+01 -1.52292E+01
  -1.54390E+01 -1.54798E+01 -1.55995E+01 -1.56179E+01 -1.51832E+01 -1.43428E+01 -1.36119E+01 -1.26410E+01 -1.12862E+01 -9.48865E+00
  -5.53346E+00 -1.30358E+00  2.95230E+00  8.48564E+00  1.31287E+01  1.93100E+01  2.56446E+01  2.96469E+01  3.25332E+01  3.53255E+01
   3.77979E+01  3.76758E+01  3.24545E+01  2.55118E+01  2.00083E+01  1.32676E+01  6.62599E+00  2.61080E+00 -1.73435E+00 -6.88571E+00
  -7.44857E+00 -6.85424E+00 -8.61486E+00 -9.06057E+00 -8.95282E+00 -8.80801E+00 -8.72938E+00 -8.60275E+00 -8.50423E+00 -8.45461E+00
  -8.40949E+00 -8.34149E+00 -8.28829E+00 -8.19674E+00 -8.06413E+00 -7.91863E+00 -7.74046E+00 -7.53977E+00 -7.34328E+00 -7.12829E+00
  -6.89556E+00 -6.66907E+00 -6.42288E+00 -6.15586E+00 -5.88016E+00 -5.58473E+00 -5.25701E+00 -4.91051E+00 -4.55058E+00 -4.16940E+00
  -3.77097E+00 -3.36890E+00 -2.96387E+00 -2.55835E+00 -2.16540E+00 -1.78642E+00 -1.42768E+00 -1.09328E+00 -7.86123E-01 -5.06780E-01
  -2.53845E-01 -2.46965E-02  1.86351E-01  3.88575E-01  5.93935E-01  8.21409E-01  1.10898E+00  1.48648E+00  1.75529E+00  2.05493E+00
   2.34527E+00  2.55924E+00  2.81471E+00  2.91287E+00  2.84565E+00  2.90250E+00  3.00520E+00  3.02782E+00  2.99501E+00  2.79647E+00
   2.90111E+00  3.28419E+00  3.60698E+00  4.03344E+00  4.63863E+00  5.30089E+00  6.14421E+00  7.23046E+00  8.02603E+00  8.22834E+00
   8.79704E+00  8.85808E+00  9.07724E+00  9.31246E+00  8.70714E+00  8.41543E+00  8.78141E+00  8.71315E+00  8.63744E+00  7.55156E+00
   6.28521E+00  6.08724E+00  5.57105E+00  4.60035E+00  4.06917E+00  3.82709E+00  3.40765E+00  3.09245E+00  2.41530E+00  9.66687E-01
  -2.69310E-01 -1.64967E+00 -2.70972E+00 -3.51164E+00 -4.84360E+00 -5.82115E+00 -5.85776E+00 -6.31425E+00 -6.69600E+00 -6.92568E+00
  -7.08670E+00 -7.20887E+00 -7.30519E+00 -7.38243E+00 -7.44417E+00 -7.49217E+00 -7.52697E+00 -7.54859E+00 -7.55676E+00 -7.55102E+00
  -7.53059E+00 -7.49433E+00 -7.44084E+00 -7.36871E+00 -7.27654E+00 -7.16296E+00 -7.02640E+00 -6.86526E+00 -6.67809E+00 -6.46387E+00
  -6.22207E+00 -5.95274E+00 -5.65652E+00 -5.33485E+00 -4.99026E+00 -4.62656E+00 -4.24881E+00 -3.86315E+00 -3.47673E+00 -3.09760E+00
  -2.73459E+00 -2.39701E+00 -2.09410E+00 -1.83454E+00 -1.62601E+00 -1.47488E+00 -1.38591E+00 -1.36195E+00 -1.40367E+00 -1.50943E+00
  -1.67541E+00 -1.89596E+00 -2.16386E+00 -2.47067E+00 -2.80710E+00 -3.16342E+00 -3.53001E+00 -3.89791E+00 -4.25903E+00 -4.60640E+00
  -4.93418E+00 -5.23782E+00 -5.51416E+00 -5.76135E+00 -5.97872E+00 -6.16642E+00 -6.32534E+00 -6.45690E+00 -6.56301E+00 -6.64592E+00
  -6.70796E+00 -6.75137E+00 -6.77829E+00 -6.79072E+00 -6.79063E+00 -6.77980E+00 -6.75978E+00 -6.73186E+00 -6.69713E+00 -6.65657E+00
  -6.61113E+00 -6.56160E+00 -6.50861E+00 -6.45262E+00 -6.39404E+00 -6.33330E+00 -6.27082E+00 -6.20694E+00 -6.14188E+00 -6.07580E+00
  -6.00888E+00 -5.94136E+00 -5.87349E+00 -5.80538E+00 -5.73707E+00 -5.66854E+00 -5.59987E+00 -5.53116E+00 -5.46252E+00 -5.39391E+00
  -5.32532E+00 -5.25673E+00 -5.18820E+00 -5.11982E+00 -5.05162E+00 -4.98353E+00 -4.91553E+00 -4.84759E+00 -4.77982E+00 -4.71224E+00
  -4.64484E+00 -4.57755E+00 -4.51033E+00 -4.44322E+00 -4.37627E+00 -4.30950E+00 -4.24286E+00 -4.17626E+00 -4.10971E+00 -4.04325E+00
  -3.97692E+00 -3.91068E+00 -3.84449E+00 -3.77825E+00 -3.71200E+00 -3.64578E+00 -3.57959E+00 -3.51338E+00 -3.44705E+00 -3.38057E+00
  -3.31396E+00 -3.24723E+00 -3.18037E+00 -3.11325E+00 -3.04579E+00 -2.97793E+00 -2.90970E+00 -2.84103E+00
 NY background values follow
    -1.773E+02   -1.760E+02   -1.747E+02   -1.734E+02   -1.721E+02   -1.708E+02   -1.695E+02   -1.682E+02   -1.669E+02   -1.657E+02
    -1.644E+02   -1.631E+02   -1.618E+02   -1.605E+02   -1.592E+02   -1.580E+02   -1.567E+02   -1.554E+02   -1.542E+02   -1.529E+02
    -1.516E+02   -1.504E+02   -1.491E+02   -1.479E+02   -1.466E+02   -1.454E+02   -1.441E+02   -1.429E+02   -1.417E+02   -1.405E+02
    -1.392E+02   -1.380E+02   -1.368E+02   -1.356E+02   -1.344E+02   -1.332E+02   -1.321E+02   -1.309E+02   -1.297E+02   -1.285E+02
    -1.274E+02   -1.262E+02   -1.251E+02   -1.240E+02   -1.228E+02   -1.217E+02   -1.206E+02   -1.195E+02   -1.184E+02   -1.173E+02
    -1.163E+02   -1.152E+02   -1.141E+02   -1.131E+02   -1.120E+02   -1.110E+02   -1.100E+02   -1.089E+02   -1.079E+02   -1.069E+02
    -1.059E+02   -1.050E+02   -1.040E+02   -1.030E+02   -1.021E+02   -1.011E+02   -1.002E+02   -9.924E+01   -9.831E+01   -9.740E+01
    -9.649E+01   -9.559E+01   -9.470E+01   -9.382E+01   -9.295E+01   -9.209E+01   -9.124E+01   -9.039E+01   -8.956E+01   -8.873E+01
    -8.791E+01   -8.710E+01   -8.630E+01   -8.551E+01   -8.473E+01   -8.396E+01   -8.319E+01   -8.244E+01   -8.170E+01   -8.096E+01
    -8.023E+01   -7.952E+01   -7.881E+01   -7.811E+01   -7.742E+01   -7.674E+01   -7.606E+01   -7.540E+01   -7.474E+01   -7.409E+01
    -7.345E+01   -7.282E+01   -7.220E+01   -7.158E+01   -7.097E+01   -7.037E+01   -6.978E+01   -6.919E+01   -6.861E+01   -6.804E+01
    -6.747E+01   -6.692E+01   -6.636E+01   -6.582E+01   -6.528E+01   -6.474E+01   -6.422E+01   -6.369E+01   -6.318E+01   -6.267E+01
    -6.216E+01   -6.166E+01   -6.117E+01   -6.068E+01   -6.020E+01   -5.972E+01   -5.924E+01   -5.877E+01   -5.831E+01   -5.785E+01
    -5.739E+01   -5.694E+01   -5.649E+01   -5.605E+01   -5.561E+01   -5.517E+01   -5.473E+01   -5.430E+01   -5.388E+01   -5.345E+01
    -5.303E+01   -5.261E+01   -5.220E+01   -5.178E+01   -5.138E+01   -5.097E+01   -5.057E+01   -5.017E+01   -4.977E+01   -4.937E+01
    -4.898E+01   -4.859E+01   -4.820E+01   -4.782E+01   -4.743E+01   -4.705E+01   -4.667E+01   -4.630E+01   -4.592E+01   -4.555E+01
    -4.518E+01   -4.481E+01   -4.444E+01   -4.408E+01   -4.372E+01   -4.335E+01   -4.299E+01   -4.264E+01   -4.228E+01   -4.192E+01
    -4.157E+01   -4.122E+01   -4.086E+01   -4.051E+01   -4.016E+01   -3.982E+01   -3.947E+01   -3.912E+01   -3.878E+01   -3.843E+01
    -3.809E+01   -3.775E+01   -3.740E+01   -3.706E+01   -3.672E+01   -3.638E+01   -3.604E+01   -3.570E+01   -3.536E+01   -3.503E+01
    -3.469E+01   -3.435E+01   -3.402E+01   -3.368E+01   -3.335E+01   -3.302E+01   -3.268E+01   -3.235E+01   -3.202E+01   -3.169E+01
    -3.136E+01   -3.104E+01   -3.071E+01   -3.038E+01   -3.006E+01   -2.973E+01   -2.941E+01   -2.909E+01   -2.877E+01   -2.845E+01
    -2.813E+01   -2.781E+01   -2.749E+01   -2.717E+01   -2.686E+01   -2.654E+01   -2.623E+01   -2.591E+01   -2.560E+01   -2.529E+01
    -2.498E+01   -2.467E+01   -2.437E+01   -2.406E+01   -2.375E+01   -2.345E+01   -2.315E+01   -2.284E+01   -2.254E+01   -2.224E+01
    -2.194E+01   -2.165E+01   -2.135E+01   -2.106E+01   -2.076E+01   -2.047E+01   -2.018E+01   -1.990E+01   -1.961E+01   -1.933E+01
    -1.904E+01   -1.876E+01   -1.849E+01   -1.821E+01   -1.794E+01   -1.766E+01   -1.739E+01   -1.713E+01   -1.686E+01   -1.660E+01
    -1.634E+01   -1.608E+01   -1.583E+01   -1.558E+01   -1.533E+01   -1.508E+01   -1.484E+01   -1.460E+01   -1.436E+01   -1.413E+01
    -1.390E+01   -1.367E+01   -1.344E+01   -1.322E+01   -1.300E+01   -1.279E+01   -1.258E+01   -1.237E+01   -1.217E+01   -1.197E+01
    -1.177E+01   -1.158E+01   -1.139E+01   -1.120E+01   -1.102E+01   -1.085E+01   -1.067E+01   -1.050E+01   -1.034E+01   -1.018E+01
    -1.002E+01   -9.863E+00   -9.712E+00   -9.566E+00   -9.423E+00   -9.284E+00   -9.149E+00   -9.018E+00   -8.890E+00   -8.767E+00
    -8.647E+00   -8.531E+00   -8.419E+00   -8.310E+00   -8.205E+00   -8.105E+00   -8.007E+00   -7.914E+00   -7.825E+00   -7.739E+00
    -7.657E+00   -7.578E+00   -7.504E+00   -7.433E+00   -7.366E+00   -7.303E+00   -7.244E+00   -7.188E+00   -7.136E+00   -7.088E+00
    -7.043E+00   -7.002E+00   -6.965E+00   -6.932E+00   -6.902E+00   -6.876E+00   -6.854E+00   -6.836E+00   -6.821E+00   -6.809E+00
    -6.801E+00   -6.797E+00   -6.795E+00   -6.797E+00   -6.802E+00   -6.809E+00   -6.819E+00   -6.832E+00   -6.848E+00   -6.866E+00
    -6.886E+00   -6.909E+00   -6.933E+00   -6.960E+00   -6.988E+00   -7.019E+00   -7.051E+00   -7.084E+00   -7.119E+00   -7.156E+00
    -7.194E+00   -7.233E+00   -7.272E+00   -7.313E+00   -7.355E+00   -7.397E+00   -7.440E+00   -7.484E+00   -7.528E+00   -7.572E+00
    -7.617E+00   -7.661E+00   -7.706E+00   -7.750E+00   -7.794E+00   -7.838E+00   -7.881E+00   -7.924E+00   -7.966E+00   -8.007E+00
    -8.048E+00   -8.087E+00   -8.126E+00   -8.163E+00   -8.199E+00   -8.234E+00   -8.267E+00   -8.299E+00   -8.330E+00   -8.360E+00
    -8.389E+00   -8.416E+00   -8.442E+00   -8.466E+00   -8.489E+00   -8.510E+00   -8.530E+00   -8.549E+00   -8.566E+00   -8.582E+00
    -8.596E+00   -8.608E+00   -8.619E+00   -8.628E+00   -8.636E+00   -8.642E+00   -8.646E+00   -8.648E+00   -8.649E+00   -8.648E+00
    -8.646E+00   -8.641E+00   -8.635E+00   -8.627E+00   -8.616E+00   -8.605E+00   -8.591E+00   -8.575E+00   -8.557E+00   -8.537E+00
    -8.516E+00   -8.492E+00   -8.466E+00   -8.438E+00   -8.408E+00   -8.376E+00   -8.342E+00   -8.306E+00   -8.267E+00   -8.226E+00
    -8.184E+00   -8.139E+00   -8.093E+00   -8.044E+00   -7.994E+00   -7.942E+00   -7.888E+00   -7.833E+00   -7.776E+00   -7.718E+00
    -7.658E+00   -7.597E+00   -7.535E+00   -7.471E+00   -7.406E+00   -7.340E+00   -7.273E+00   -7.205E+00   -7.136E+00   -7.066E+00
    -6.995E+00   -6.923E+00   -6.851E+00   -6.778E+00   -6.704E+00   -6.630E+00   -6.555E+00   -6.480E+00   -6.404E+00   -6.328E+00
    -6.252E+00   -6.176E+00   -6.099E+00   -6.023E+00   -5.946E+00   -5.869E+00   -5.793E+00   -5.717E+00   -5.641E+00   -5.565E+00
    -5.489E+00   -5.414E+00   -5.340E+00   -5.265E+00   -5.192E+00   -5.119E+00   -5.046E+00   -4.974E+00   -4.902E+00   -4.830E+00
    -4.759E+00   -4.689E+00   -4.619E+00   -4.549E+00   -4.479E+00   -4.410E+00   -4.342E+00   -4.274E+00   -4.206E+00   -4.138E+00
    -4.071E+00   -4.004E+00   -3.937E+00   -3.871E+00   -3.805E+00   -3.739E+00   -3.674E+00   -3.608E+00   -3.543E+00   -3.479E+00
    -3.414E+00   -3.350E+00   -3.286E+00   -3.222E+00   -3.158E+00   -3.095E+00   -3.031E+00   -2.968E+00   -2.905E+00   -2.842E+00
    -2.780E+00   -2.717E+00   -2.654E+00   -2.592E+00   -2.530E+00   -2.467E+00   -2.405E+00   -2.343E+00
 Ala      Conc. = 2.60E+02
