 LCModel (Version 6.3-1L) Copyright: S.W. Provencher.          Ref.: Magn. Reson. Med. 30:672-679 (1993).                
 Slice#3 Row#12 Col#10  PD_24_press_1_raw_act
 36 lines in following concentration table = NCONC+1
    Conc.  %SD /Cr+PCr  Metabolite                                         
  120.062  62%   0.144 Ala                                                 
    0.000 999%   0.000 Asp                                                 
    0.000 999%   0.000 Cr                                                  
  836.364   4%   1.000 PCr                                                 
    0.000 999%   0.000 GABA                                                
    3.791 999% 4.5E-03 Glc                                                 
  547.416  28%   0.655 Gln                                                 
  801.302  21%   0.958 Glu                                                 
  261.759   5%   0.313 GPC                                                 
    0.000 999%   0.000 PCh                                                 
  213.777  21%   0.256 GSH                                                 
  333.480  45%   0.399 Ins                                                 
   35.581 230% 4.3E-02 Lac                                                 
 1.18E+03   3%   1.415 NAA                                                 
    0.000 999%   0.000 NAAG                                                
   26.106  56% 3.1E-02 Scyllo                                              
    0.000 999%   0.000 Tau                                                 
    0.000 999%   0.000 -CrCH2                                              
  261.759   5%   0.313 GPC+PCh                                             
 1.18E+03   3%   1.415 NAA+NAAG                                            
  836.364   4%   1.000 Cr+PCr                                              
 1.35E+03  19%   1.613 Glu+Gln                                             
  718.301  39%   0.859 Lip13a                                              
    0.000 999%   0.000 Lip13b                                              
  129.391  96%   0.155 Lip09                                               
  630.310  23%   0.754 MM09                                                
  143.454  58%   0.172 Lip20                                               
 1.08E+03  19%   1.289 MM20                                                
  258.686  41%   0.309 MM12                                                
  923.077  20%   1.104 MM14                                                
  364.177  22%   0.435 MM17                                                
  718.301  39%   0.859 Lip13a+Lip13b                                       
 1.90E+03  12%   2.272 MM14+Lip13a+Lip13b+MM12                             
  759.701  14%   0.908 MM09+Lip09                                          
 1.22E+03  17%   1.460 MM20+Lip20                                          
   6 lines in following misc. output table
  FWHM = 0.069 ppm    S/N =   9                                            
  Data shift = 0.023 ppm                                                   
  Ph: -17 deg      -3.9 deg/ppm                                            
  alphaB,S = 7.9E-01,   2.0E+02                                            
   14 spline knots.   Ns = 8(1)                                            
  ( 8) 2 infls.   ( 4) 1 extrs.                                            
  498 points on ppm-axis = NY
      4.000000     3.992357     3.984714     3.977070     3.969427     3.961784     3.954141     3.946497     3.938854     3.931211
      3.923568     3.915925     3.908281     3.900638     3.892995     3.885352     3.877708     3.870065     3.862422     3.854779
      3.847136     3.839492     3.831849     3.824206     3.816563     3.808919     3.801276     3.793633     3.785990     3.778347
      3.770703     3.763060     3.755417     3.747774     3.740130     3.732487     3.724844     3.717201     3.709558     3.701914
      3.694271     3.686628     3.678985     3.671341     3.663698     3.656055     3.648412     3.640769     3.633125     3.625482
      3.617839     3.610196     3.602552     3.594909     3.587266     3.579623     3.571980     3.564336     3.556693     3.549050
      3.541407     3.533763     3.526120     3.518477     3.510834     3.503191     3.495547     3.487904     3.480261     3.472618
      3.464974     3.457331     3.449688     3.442045     3.434402     3.426758     3.419115     3.411472     3.403829     3.396185
      3.388542     3.380899     3.373256     3.365613     3.357969     3.350326     3.342683     3.335040     3.327396     3.319753
      3.312110     3.304467     3.296824     3.289180     3.281537     3.273894     3.266251     3.258607     3.250964     3.243321
      3.235678     3.228034     3.220391     3.212748     3.205105     3.197462     3.189818     3.182175     3.174532     3.166889
      3.159245     3.151602     3.143959     3.136316     3.128673     3.121029     3.113386     3.105743     3.098100     3.090456
      3.082813     3.075170     3.067527     3.059884     3.052240     3.044597     3.036954     3.029311     3.021667     3.014024
      3.006381     2.998738     2.991095     2.983451     2.975808     2.968165     2.960522     2.952878     2.945235     2.937592
      2.929949     2.922306     2.914662     2.907019     2.899376     2.891733     2.884089     2.876446     2.868803     2.861160
      2.853517     2.845873     2.838230     2.830587     2.822944     2.815300     2.807657     2.800014     2.792371     2.784728
      2.777084     2.769441     2.761798     2.754155     2.746511     2.738868     2.731225     2.723582     2.715939     2.708295
      2.700652     2.693009     2.685366     2.677722     2.670079     2.662436     2.654793     2.647150     2.639506     2.631863
      2.624220     2.616577     2.608933     2.601290     2.593647     2.586004     2.578361     2.570717     2.563074     2.555431
      2.547788     2.540144     2.532501     2.524858     2.517215     2.509572     2.501928     2.494285     2.486642     2.478999
      2.471355     2.463712     2.456069     2.448426     2.440783     2.433139     2.425496     2.417853     2.410210     2.402566
      2.394923     2.387280     2.379637     2.371994     2.364350     2.356707     2.349064     2.341421     2.333777     2.326134
      2.318491     2.310848     2.303205     2.295561     2.287918     2.280275     2.272632     2.264988     2.257345     2.249702
      2.242059     2.234416     2.226772     2.219129     2.211486     2.203843     2.196199     2.188556     2.180913     2.173270
      2.165627     2.157983     2.150340     2.142697     2.135054     2.127410     2.119767     2.112124     2.104481     2.096838
      2.089194     2.081551     2.073908     2.066265     2.058621     2.050978     2.043335     2.035692     2.028049     2.020405
      2.012762     2.005119     1.997476     1.989833     1.982190     1.974546     1.966903     1.959260     1.951617     1.943974
      1.936331     1.928688     1.921045     1.913402     1.905759     1.898115     1.890472     1.882829     1.875186     1.867543
      1.859900     1.852257     1.844614     1.836971     1.829327     1.821684     1.814041     1.806398     1.798755     1.791112
      1.783469     1.775826     1.768183     1.760540     1.752896     1.745253     1.737610     1.729967     1.722324     1.714681
      1.707038     1.699395     1.691752     1.684108     1.676465     1.668822     1.661179     1.653536     1.645893     1.638250
      1.630607     1.622964     1.615321     1.607677     1.600034     1.592391     1.584748     1.577105     1.569462     1.561819
      1.554176     1.546533     1.538890     1.531246     1.523603     1.515960     1.508317     1.500674     1.493031     1.485388
      1.477745     1.470102     1.462458     1.454815     1.447172     1.439529     1.431886     1.424243     1.416600     1.408957
      1.401314     1.393671     1.386027     1.378384     1.370741     1.363098     1.355455     1.347812     1.340169     1.332526
      1.324883     1.317240     1.309596     1.301953     1.294310     1.286667     1.279024     1.271381     1.263738     1.256095
      1.248452     1.240808     1.233165     1.225522     1.217879     1.210236     1.202593     1.194950     1.187307     1.179664
      1.172021     1.164377     1.156734     1.149091     1.141448     1.133805     1.126162     1.118519     1.110876     1.103233
      1.095590     1.087946     1.080303     1.072660     1.065017     1.057374     1.049731     1.042088     1.034445     1.026802
      1.019158     1.011515     1.003872     0.996229     0.988586     0.980943     0.973300     0.965657     0.958014     0.950371
      0.942727     0.935084     0.927441     0.919798     0.912155     0.904512     0.896869     0.889226     0.881583     0.873940
      0.866296     0.858653     0.851010     0.843367     0.835724     0.828081     0.820438     0.812795     0.805152     0.797508
      0.789865     0.782222     0.774579     0.766936     0.759293     0.751650     0.744007     0.736364     0.728721     0.721077
      0.713434     0.705791     0.698148     0.690505     0.682862     0.675219     0.667576     0.659933     0.652290     0.644646
      0.637003     0.629360     0.621717     0.614074     0.606431     0.598788     0.591145     0.583502     0.575858     0.568215
      0.560572     0.552929     0.545286     0.537643     0.530000     0.522357     0.514714     0.507071     0.499427     0.491784
      0.484141     0.476498     0.468855     0.461212     0.453569     0.445925     0.438282     0.430639     0.422996     0.415353
      0.407710     0.400067     0.392424     0.384780     0.377137     0.369494     0.361851     0.354208     0.346565     0.338922
      0.331278     0.323635     0.315992     0.308349     0.300706     0.293063     0.285420     0.277777     0.270133     0.262490
      0.254847     0.247204     0.239561     0.231918     0.224275     0.216631     0.208988     0.201345
 NY phased data points follow
   1.28945E+01  1.45023E+01  1.69722E+01  1.29204E+01  1.77742E+01  1.92971E+01  1.91963E+01  2.63422E+01  2.85444E+01  2.84834E+01
   3.00162E+01  3.00651E+01  3.00847E+01  2.79304E+01  2.79492E+01  2.28718E+01  2.40360E+01  1.96480E+01  1.87722E+01  1.70032E+01
   1.82776E+01  1.62955E+01  1.51632E+01  1.74994E+01  1.54337E+01  1.46961E+01  1.67214E+01  1.70986E+01  1.65049E+01  1.74607E+01
   1.61626E+01  1.49830E+01  1.50029E+01  1.16859E+01  1.92456E+01  1.47714E+01  1.45847E+01  1.15243E+01  1.49009E+01  1.24581E+01
   1.34267E+01  1.34325E+01  1.48282E+01  1.27362E+01  1.52954E+01  1.11009E+01  1.40513E+01  1.45436E+01  1.47003E+01  1.63861E+01
   1.49644E+01  1.18464E+01  1.33910E+01  1.26556E+01  1.16463E+01  1.40064E+01  1.24672E+01  1.11294E+01  1.28799E+01  9.39059E+00
   8.00334E+00  7.38910E+00  9.61092E+00  8.68707E+00  6.50106E+00  8.24009E+00  7.14659E+00  7.42659E+00  5.18248E+00  4.62029E+00
   5.83137E+00  7.43717E+00  6.57609E+00  8.29031E+00  5.46932E+00  6.65992E+00  7.29199E+00  6.22285E+00  7.15226E+00  6.33968E+00
   6.75717E+00  5.99900E+00  7.36093E+00  8.38431E+00  5.22448E+00  6.23906E+00  7.14846E+00  8.93105E+00  6.16846E+00  7.12510E+00
   6.53010E+00  3.88573E+00  8.01492E+00  5.96553E+00  5.18662E+00 -4.49418E-01  2.41223E+00  3.04941E+00  6.09170E+00  1.49713E+01
   1.91794E+01  2.19256E+01  2.53533E+01  2.69282E+01  2.23753E+01  2.55004E+01  2.27710E+01  2.16570E+01  1.50623E+01  1.38350E+01
   1.35668E+01  8.02056E+00  9.53407E+00  4.91105E+00  5.71111E+00  5.04347E+00  5.05171E+00  3.51698E+00  3.31237E+00  2.45894E+00
   3.40676E+00  2.29914E+00  3.77381E+00  7.25951E+00  1.67636E+01  2.09379E+01  2.39765E+01  2.93144E+01  2.56554E+01  2.81542E+01
   2.45444E+01  2.37015E+01  1.93548E+01  1.46106E+01  1.55127E+01  9.80495E+00  9.41409E+00  7.89541E+00  6.68623E+00  7.96434E+00
   6.27736E+00  4.39019E+00  2.53967E+00  2.72129E+00  2.91141E+00  3.38648E+00  3.35814E+00  3.30344E+00  5.22740E+00  4.54319E+00
   2.93939E+00  7.36071E+00  3.36627E+00  4.00157E+00  3.42232E+00  2.16299E+00  2.85289E+00  2.91457E+00  1.16074E+00  3.72453E+00
   1.61557E+00  1.80674E+00  2.35137E+00  2.62443E+00  3.50035E+00  1.45555E-01  2.51070E+00 -5.44285E-02  6.63558E-01 -1.80328E+00
  -6.70662E-01  7.05024E-01 -3.14583E+00 -3.35422E+00 -3.40093E+00 -2.07256E+00 -2.42836E+00 -3.24125E+00 -2.00695E+00 -4.05269E+00
  -3.90737E+00 -2.89238E+00 -3.18566E+00 -1.51745E+00 -2.00064E+00 -2.12748E+00 -1.91258E+00 -6.39017E-01 -3.78559E+00  1.51385E+00
   4.20271E-01  4.22564E+00  8.32381E-01  7.45562E-01  1.96610E+00  2.60863E+00  3.26954E+00  2.16197E+00  9.66628E-01  5.77762E-01
   1.78343E-01  2.23180E+00  5.21344E+00  1.09026E+00  1.99225E+00  2.78804E+00  3.19970E+00 -1.38858E-01  2.72834E-01  8.94916E-01
  -2.32707E+00  1.09414E+00 -1.30781E+00  4.03737E+00  3.73311E+00  5.51142E+00  3.28750E+00  7.37856E+00  3.17324E+00  5.11957E+00
   2.44319E+00  6.73263E-01 -2.26432E+00  7.17376E-01  1.32423E+00  1.63674E+00  2.30080E+00  4.18240E+00  6.89572E+00  5.31415E+00
   6.52844E+00  4.31526E+00  5.32760E+00  2.25079E+00  3.72220E+00  3.16775E+00  3.41093E-01  4.75959E+00  3.99329E+00  2.18241E+00
   7.73791E-01  8.71790E-01  6.85667E-01  4.54097E+00  1.89614E+00  2.34835E+00  2.20015E+00  4.44310E+00  2.35835E+00  3.63573E+00
   1.86494E+00  8.26800E-01  4.61243E-01  4.45521E+00  2.91162E+00  8.59348E+00  1.70363E+01  2.07018E+01  3.03551E+01  3.47585E+01
   3.50476E+01  3.44476E+01  3.43870E+01  2.89953E+01  2.79892E+01  2.25509E+01  1.82785E+01  1.44726E+01  8.83930E+00  1.03175E+01
   5.13094E+00  5.93141E+00  1.83476E+00  9.36025E-01  2.05827E+00  8.89561E-01  2.03185E+00  2.11835E+00 -7.01533E-01  2.44233E+00
  -1.83623E+00 -1.43070E+00 -2.34237E-01 -2.15432E+00 -2.57530E+00 -2.27315E+00 -6.97426E-01 -2.67186E-01 -1.52329E+00 -1.51289E+00
  -8.22399E-01 -3.01666E+00  1.66006E-01  2.19215E-01 -1.01596E+00  1.32783E+00  1.19348E+00  9.05823E-01  1.71917E+00  2.37850E+00
   1.28665E+00  1.88256E+00  3.60138E+00  1.62296E+00  5.51891E+00  2.75691E+00 -4.42996E-01  3.65326E+00  5.30791E+00  5.36960E-01
   1.94559E+00  2.47868E+00  2.02662E+00  4.43763E+00  5.98468E-01  7.72836E-01  2.29399E+00  2.14006E+00 -9.25028E-01  1.41952E+00
   1.50214E+00  3.38568E+00  1.10601E+00  5.61555E+00  2.30013E+00  4.02330E+00  2.76115E+00  5.51308E+00  2.23842E+00  3.52430E+00
   4.27914E+00  6.34022E+00  3.82859E+00  5.26471E+00  5.81948E+00  6.48031E+00  7.79323E+00  7.98059E+00  7.78817E+00  8.48388E+00
   9.27963E+00  6.72971E+00  6.68020E+00  8.53602E+00  5.21470E+00  2.53083E+00  4.31999E+00  5.37953E+00  4.07664E+00  2.53058E+00
  -5.47142E-01  4.20783E+00  5.67209E+00  4.72474E+00  7.51720E-01  6.14726E+00  4.98756E+00  1.41063E+00  3.14591E+00  2.39939E+00
   4.87267E+00  1.45885E+00  2.03082E+00  2.34339E+00  2.60838E+00  5.70467E+00  4.88117E+00  3.36904E+00  4.60672E+00  4.17265E+00
   3.49540E+00  4.09340E+00  2.82081E+00  5.15667E+00  4.39523E+00  7.70885E-01  1.61022E-01  1.86148E+00 -5.90920E-01  2.27864E+00
   9.72240E-01  1.61834E+00  2.26630E+00  7.43840E-01  3.28715E-01  1.94922E+00 -8.81161E-01 -8.74183E-01  1.13523E+00  1.18681E+00
   3.82506E-01  4.93847E+00  1.41664E+00  2.64704E+00  1.40051E+00  2.04355E+00  4.15451E+00  2.32081E+00  2.36415E+00  4.75277E+00
   4.03190E+00  1.52339E+00  2.35083E+00  3.35994E+00  4.91619E+00  3.24060E+00  6.34612E+00  1.48616E+00  5.56851E+00  6.71341E+00
   3.39528E+00  5.75457E+00  7.59531E+00  4.22947E+00  4.74602E+00  3.77713E+00  2.16952E+00  3.86404E+00  2.73123E+00  1.79103E+00
   4.70210E+00  2.83748E+00  1.36071E+00  2.64170E+00  2.23080E+00 -1.43445E+00  3.03400E+00  1.53792E+00  2.80284E+00 -1.70819E+00
   6.59465E-01 -4.49985E-02  1.39310E+00 -6.57478E-01  6.36387E-01  9.70786E-01 -2.79158E-01  2.46158E+00  6.41879E-01  2.07115E+00
  -1.33621E+00  1.13508E+00  9.30270E-01  3.53639E+00 -2.44298E-01 -1.29473E+00 -2.96126E-01 -2.96978E+00 -9.73972E-01  2.47180E+00
   2.33991E+00 -1.39495E+00 -8.87573E-01  6.56930E-01  4.62341E-01  1.35705E+00 -1.65509E-02  4.83165E-01 -8.94742E-01  1.91090E+00
   2.12515E+00  4.19419E-01 -6.26261E-01 -9.50715E-01 -7.97529E-01 -4.20154E-01 -5.35869E-01 -2.18499E+00  1.51372E+00  1.45138E+00
  -2.51075E-01  1.83543E+00  2.18318E+00  2.32005E+00  2.04661E+00  2.01689E-01  2.47773E+00  2.21391E+00  1.48518E+00 -1.95381E+00
  -2.25773E+00  5.80106E-01 -3.16062E-01  2.89499E-01 -1.84830E+00  3.15051E+00  4.10863E-01 -1.03037E-01  3.57198E-01  9.76600E-01
  -5.21175E-01  9.20766E-01  3.41802E-01 -5.93809E-01 -1.14787E-01 -2.27334E+00  1.02857E+00  1.30796E+00
 NY points of the fit to the data follow
   1.42724E+01  1.40274E+01  1.37587E+01  1.39223E+01  1.51674E+01  1.76587E+01  2.10098E+01  2.44752E+01  2.73283E+01  2.91316E+01
   2.98328E+01  2.96451E+01  2.87897E+01  2.74120E+01  2.56568E+01  2.37226E+01  2.17736E+01  1.98456E+01  1.79907E+01  1.64119E+01
   1.55104E+01  1.50445E+01  1.46193E+01  1.42976E+01  1.41401E+01  1.41902E+01  1.44961E+01  1.50537E+01  1.57672E+01  1.64723E+01
   1.70140E+01  1.72399E+01  1.70490E+01  1.64973E+01  1.57560E+01  1.49903E+01  1.42588E+01  1.35888E+01  1.29858E+01  1.25367E+01
   1.22727E+01  1.21631E+01  1.22850E+01  1.26303E+01  1.30772E+01  1.34894E+01  1.37407E+01  1.37715E+01  1.35797E+01  1.32344E+01
   1.28203E+01  1.23460E+01  1.18390E+01  1.13705E+01  1.09703E+01  1.06254E+01  1.03620E+01  1.02070E+01  1.01132E+01  9.99888E+00
   9.83241E+00  9.62146E+00  9.38175E+00  9.13558E+00  8.89531E+00  8.68466E+00  8.52159E+00  8.40360E+00  8.31491E+00  8.24688E+00
   8.19464E+00  8.14192E+00  8.08001E+00  7.99900E+00  7.89570E+00  7.77056E+00  7.62570E+00  7.46793E+00  7.29980E+00  7.16202E+00
   7.11354E+00  7.16034E+00  7.25798E+00  7.32772E+00  7.30778E+00  7.18050E+00  6.96877E+00  6.71866E+00  6.46597E+00  6.22886E+00
   6.01954E+00  5.84065E+00  5.67973E+00  5.50865E+00  5.28247E+00  4.87199E+00  4.76466E+00  6.03048E+00  9.09109E+00  1.35142E+01
   1.82907E+01  2.23625E+01  2.50265E+01  2.61129E+01  2.58905E+01  2.47067E+01  2.27886E+01  2.03378E+01  1.76141E+01  1.48751E+01
   1.21983E+01  9.59355E+00  7.26403E+00  5.82928E+00  5.31970E+00  5.05721E+00  4.86252E+00  4.70530E+00  4.57763E+00  4.41739E+00
   4.15663E+00  4.60742E+00  6.72545E+00  1.06546E+01  1.56786E+01  2.06727E+01  2.46615E+01  2.71149E+01  2.79969E+01  2.75785E+01
   2.61019E+01  2.37435E+01  2.07614E+01  1.75280E+01  1.43632E+01  1.13665E+01  8.61299E+00  6.42915E+00  5.40395E+00  5.09121E+00
   4.93455E+00  4.81354E+00  4.71776E+00  4.64946E+00  4.57133E+00  4.44963E+00  4.28350E+00  4.07590E+00  3.83918E+00  3.60688E+00
   3.39714E+00  3.23538E+00  3.11669E+00  3.03972E+00  2.97443E+00  2.86297E+00  2.67131E+00  2.40962E+00  2.15314E+00  1.98227E+00
   1.91469E+00  1.91181E+00  1.90950E+00  1.85949E+00  1.74755E+00  1.59019E+00  1.41260E+00  1.22559E+00  1.03434E+00  8.26097E-01
   5.52753E-01  1.92220E-01 -1.99688E-01 -5.21894E-01 -7.27943E-01 -8.33433E-01 -8.96996E-01 -9.65768E-01 -1.03491E+00 -1.08389E+00
  -1.13259E+00 -1.22398E+00 -1.33942E+00 -1.39499E+00 -1.29448E+00 -9.97592E-01 -5.49207E-01 -4.21015E-02  4.66365E-01  8.92751E-01
   1.16131E+00  1.22958E+00  1.12469E+00  9.24410E-01  6.96298E-01  5.16976E-01  4.50001E-01  5.32964E-01  8.22915E-01  1.36156E+00
   2.07174E+00  2.80381E+00  3.41009E+00  3.66192E+00  3.37716E+00  2.59730E+00  1.48700E+00  2.67365E-01 -8.28282E-01 -1.52832E+00
  -1.62388E+00 -1.11200E+00 -1.63328E-01  9.58610E-01  2.00693E+00  2.74297E+00  2.95845E+00  2.60032E+00  1.82622E+00  8.73319E-01
  -7.07690E-02 -7.44870E-01 -9.96555E-01 -9.10270E-01 -6.02098E-01 -1.41068E-01  4.52975E-01  1.08004E+00  1.63472E+00  2.07655E+00
   2.40873E+00  2.63819E+00  2.73262E+00  2.70996E+00  2.69473E+00  2.80384E+00  2.94576E+00  3.00407E+00  2.94742E+00  2.81185E+00
   2.63591E+00  2.44777E+00  2.30019E+00  2.22748E+00  2.20739E+00  2.19791E+00  2.17853E+00  2.21932E+00  2.35274E+00  2.57362E+00
   2.87865E+00  3.20689E+00  3.29985E+00  3.39350E+00  5.05248E+00  9.24738E+00  1.56099E+01  2.27709E+01  2.91601E+01  3.35913E+01
   3.56194E+01  3.55264E+01  3.38523E+01  3.09877E+01  2.72502E+01  2.30172E+01  1.86935E+01  1.44603E+01  1.03327E+01  6.55479E+00
   3.93571E+00  2.88526E+00  2.41496E+00  2.11341E+00  1.89361E+00  1.71160E+00  1.53351E+00  1.36282E+00  1.19830E+00  1.04025E+00
   8.90788E-01  7.49554E-01  6.12907E-01  4.87415E-01  3.83919E-01  3.05004E-01  2.48649E-01  2.14609E-01  2.04229E-01  2.18346E-01
   2.56005E-01  3.15642E-01  3.99651E-01  5.09137E-01  6.43275E-01  7.99882E-01  9.75718E-01  1.16657E+00  1.36680E+00  1.56981E+00
   1.76883E+00  1.95634E+00  2.12476E+00  2.26763E+00  2.37959E+00  2.45668E+00  2.49677E+00  2.49983E+00  2.46811E+00  2.40610E+00
   2.32018E+00  2.21836E+00  2.10988E+00  2.00499E+00  1.91435E+00  1.84839E+00  1.81719E+00  1.83004E+00  1.89477E+00  2.02405E+00
   2.26758E+00  2.64333E+00  3.09274E+00  3.52361E+00  3.85961E+00  4.06893E+00  4.16023E+00  4.14559E+00  4.06919E+00  4.02511E+00
   4.09941E+00  4.33523E+00  4.71921E+00  5.18956E+00  5.66513E+00  6.09081E+00  6.45787E+00  6.77367E+00  6.98445E+00  7.05788E+00
   7.02820E+00  6.93241E+00  6.77339E+00  6.53067E+00  6.19447E+00  5.81703E+00  5.44292E+00  5.06261E+00  4.69193E+00  4.36319E+00
   4.10202E+00  3.91866E+00  3.80693E+00  3.74801E+00  3.71809E+00  3.70097E+00  3.69311E+00  3.69484E+00  3.68816E+00  3.65593E+00
   3.59989E+00  3.52372E+00  3.42743E+00  3.30917E+00  3.17222E+00  3.03461E+00  2.90099E+00  2.76575E+00  2.62727E+00  2.48592E+00
   2.34289E+00  2.19980E+00  2.05847E+00  1.92076E+00  1.78854E+00  1.66366E+00  1.54789E+00  1.44285E+00  1.35000E+00  1.27065E+00
   1.20603E+00  1.15727E+00  1.12542E+00  1.11143E+00  1.11619E+00  1.14049E+00  1.18513E+00  1.25080E+00  1.33808E+00  1.44735E+00
   1.57870E+00  1.73194E+00  1.90648E+00  2.10123E+00  2.31453E+00  2.54400E+00  2.78658E+00  3.03854E+00  3.29546E+00  3.55232E+00
   3.80359E+00  4.04339E+00  4.26573E+00  4.46478E+00  4.63506E+00  4.77172E+00  4.87072E+00  4.92908E+00  4.94502E+00  4.91809E+00
   4.84914E+00  4.74024E+00  4.59459E+00  4.41635E+00  4.21045E+00  3.98234E+00  3.73768E+00  3.48214E+00  3.22111E+00  2.95962E+00
   2.70214E+00  2.45249E+00  2.21374E+00  1.98823E+00  1.77759E+00  1.58283E+00  1.40443E+00  1.24235E+00  1.09616E+00  9.65141E-01
   8.48356E-01  7.44773E-01  6.53297E-01  5.72803E-01  5.02167E-01  4.40319E-01  3.86280E-01  3.39170E-01  2.98194E-01  2.62619E-01
   2.31784E-01  2.05114E-01  1.82123E-01  1.62402E-01  1.45582E-01  1.31324E-01  1.19323E-01  1.09332E-01  1.01153E-01  9.46149E-02
   8.95529E-02  8.58047E-02  8.32325E-02  8.17334E-02  8.12293E-02  8.16433E-02  8.28869E-02  8.48729E-02  8.75354E-02  9.08348E-02
   9.47397E-02  9.92068E-02  1.04179E-01  1.09606E-01  1.15457E-01  1.21721E-01  1.28381E-01  1.35403E-01  1.42748E-01  1.50386E-01
   1.58311E-01  1.66522E-01  1.75007E-01  1.83736E-01  1.92680E-01  2.01826E-01  2.11179E-01  2.20742E-01  2.30499E-01  2.40422E-01
   2.50492E-01  2.60709E-01  2.71085E-01  2.81618E-01  2.92290E-01  3.03078E-01  3.13974E-01  3.24986E-01  3.36127E-01  3.47390E-01
   3.58755E-01  3.70205E-01  3.81742E-01  3.93383E-01  4.05134E-01  4.16987E-01  4.28922E-01  4.40934E-01
 NY background values follow
     1.383E+01    1.374E+01    1.364E+01    1.355E+01    1.346E+01    1.337E+01    1.327E+01    1.318E+01    1.309E+01    1.300E+01
     1.290E+01    1.281E+01    1.272E+01    1.262E+01    1.253E+01    1.244E+01    1.235E+01    1.225E+01    1.216E+01    1.207E+01
     1.198E+01    1.188E+01    1.179E+01    1.170E+01    1.161E+01    1.151E+01    1.142E+01    1.133E+01    1.124E+01    1.115E+01
     1.105E+01    1.096E+01    1.087E+01    1.078E+01    1.069E+01    1.059E+01    1.050E+01    1.041E+01    1.032E+01    1.023E+01
     1.014E+01    1.005E+01    9.957E+00    9.867E+00    9.776E+00    9.686E+00    9.596E+00    9.506E+00    9.416E+00    9.326E+00
     9.237E+00    9.147E+00    9.058E+00    8.969E+00    8.881E+00    8.792E+00    8.704E+00    8.616E+00    8.528E+00    8.440E+00
     8.353E+00    8.266E+00    8.179E+00    8.093E+00    8.006E+00    7.920E+00    7.835E+00    7.749E+00    7.664E+00    7.579E+00
     7.495E+00    7.411E+00    7.327E+00    7.243E+00    7.160E+00    7.077E+00    6.995E+00    6.913E+00    6.831E+00    6.750E+00
     6.669E+00    6.589E+00    6.509E+00    6.429E+00    6.350E+00    6.271E+00    6.192E+00    6.114E+00    6.037E+00    5.960E+00
     5.883E+00    5.807E+00    5.732E+00    5.656E+00    5.582E+00    5.508E+00    5.434E+00    5.361E+00    5.288E+00    5.215E+00
     5.144E+00    5.072E+00    5.001E+00    4.931E+00    4.861E+00    4.792E+00    4.723E+00    4.654E+00    4.586E+00    4.519E+00
     4.452E+00    4.385E+00    4.319E+00    4.254E+00    4.188E+00    4.124E+00    4.060E+00    3.996E+00    3.933E+00    3.870E+00
     3.808E+00    3.746E+00    3.685E+00    3.625E+00    3.564E+00    3.505E+00    3.445E+00    3.387E+00    3.328E+00    3.271E+00
     3.213E+00    3.157E+00    3.100E+00    3.045E+00    2.989E+00    2.934E+00    2.880E+00    2.826E+00    2.773E+00    2.720E+00
     2.668E+00    2.616E+00    2.565E+00    2.514E+00    2.463E+00    2.414E+00    2.364E+00    2.315E+00    2.267E+00    2.219E+00
     2.171E+00    2.124E+00    2.077E+00    2.031E+00    1.985E+00    1.940E+00    1.895E+00    1.851E+00    1.807E+00    1.763E+00
     1.720E+00    1.677E+00    1.635E+00    1.593E+00    1.552E+00    1.511E+00    1.471E+00    1.431E+00    1.391E+00    1.352E+00
     1.313E+00    1.274E+00    1.236E+00    1.199E+00    1.162E+00    1.125E+00    1.088E+00    1.052E+00    1.017E+00    9.816E-01
     9.468E-01    9.124E-01    8.783E-01    8.447E-01    8.114E-01    7.784E-01    7.459E-01    7.136E-01    6.818E-01    6.502E-01
     6.190E-01    5.881E-01    5.576E-01    5.273E-01    4.974E-01    4.678E-01    4.384E-01    4.094E-01    3.806E-01    3.521E-01
     3.239E-01    2.959E-01    2.682E-01    2.407E-01    2.135E-01    1.865E-01    1.598E-01    1.333E-01    1.070E-01    8.086E-02
     5.497E-02    2.928E-02    3.783E-03   -2.153E-02   -4.666E-02   -7.162E-02   -9.641E-02   -1.210E-01   -1.455E-01   -1.699E-01
    -1.940E-01   -2.181E-01   -2.420E-01   -2.658E-01   -2.895E-01   -3.131E-01   -3.366E-01   -3.600E-01   -3.832E-01   -4.064E-01
    -4.295E-01   -4.524E-01   -4.753E-01   -4.980E-01   -5.206E-01   -5.430E-01   -5.653E-01   -5.875E-01   -6.095E-01   -6.314E-01
    -6.532E-01   -6.748E-01   -6.962E-01   -7.174E-01   -7.385E-01   -7.595E-01   -7.802E-01   -8.008E-01   -8.212E-01   -8.414E-01
    -8.614E-01   -8.812E-01   -9.008E-01   -9.202E-01   -9.394E-01   -9.584E-01   -9.772E-01   -9.957E-01   -1.014E+00   -1.032E+00
    -1.050E+00   -1.068E+00   -1.085E+00   -1.102E+00   -1.119E+00   -1.136E+00   -1.152E+00   -1.168E+00   -1.184E+00   -1.200E+00
    -1.215E+00   -1.230E+00   -1.245E+00   -1.259E+00   -1.273E+00   -1.287E+00   -1.301E+00   -1.314E+00   -1.327E+00   -1.340E+00
    -1.352E+00   -1.365E+00   -1.377E+00   -1.388E+00   -1.400E+00   -1.411E+00   -1.421E+00   -1.432E+00   -1.442E+00   -1.452E+00
    -1.462E+00   -1.471E+00   -1.481E+00   -1.489E+00   -1.498E+00   -1.506E+00   -1.515E+00   -1.522E+00   -1.530E+00   -1.537E+00
    -1.544E+00   -1.551E+00   -1.557E+00   -1.564E+00   -1.569E+00   -1.575E+00   -1.580E+00   -1.586E+00   -1.590E+00   -1.595E+00
    -1.599E+00   -1.603E+00   -1.607E+00   -1.611E+00   -1.614E+00   -1.617E+00   -1.620E+00   -1.622E+00   -1.624E+00   -1.626E+00
    -1.628E+00   -1.629E+00   -1.631E+00   -1.632E+00   -1.632E+00   -1.633E+00   -1.633E+00   -1.633E+00   -1.633E+00   -1.632E+00
    -1.631E+00   -1.630E+00   -1.629E+00   -1.628E+00   -1.626E+00   -1.624E+00   -1.622E+00   -1.620E+00   -1.617E+00   -1.615E+00
    -1.612E+00   -1.609E+00   -1.605E+00   -1.602E+00   -1.598E+00   -1.594E+00   -1.590E+00   -1.586E+00   -1.581E+00   -1.576E+00
    -1.571E+00   -1.566E+00   -1.561E+00   -1.556E+00   -1.550E+00   -1.544E+00   -1.538E+00   -1.532E+00   -1.526E+00   -1.520E+00
    -1.513E+00   -1.506E+00   -1.499E+00   -1.492E+00   -1.485E+00   -1.478E+00   -1.470E+00   -1.462E+00   -1.455E+00   -1.447E+00
    -1.438E+00   -1.430E+00   -1.422E+00   -1.413E+00   -1.405E+00   -1.396E+00   -1.387E+00   -1.378E+00   -1.368E+00   -1.359E+00
    -1.349E+00   -1.340E+00   -1.330E+00   -1.320E+00   -1.310E+00   -1.300E+00   -1.290E+00   -1.279E+00   -1.269E+00   -1.258E+00
    -1.247E+00   -1.236E+00   -1.225E+00   -1.214E+00   -1.203E+00   -1.192E+00   -1.180E+00   -1.169E+00   -1.157E+00   -1.145E+00
    -1.133E+00   -1.121E+00   -1.109E+00   -1.097E+00   -1.084E+00   -1.072E+00   -1.059E+00   -1.047E+00   -1.034E+00   -1.021E+00
    -1.008E+00   -9.952E-01   -9.821E-01   -9.688E-01   -9.555E-01   -9.422E-01   -9.287E-01   -9.151E-01   -9.015E-01   -8.878E-01
    -8.740E-01   -8.602E-01   -8.463E-01   -8.323E-01   -8.183E-01   -8.041E-01   -7.900E-01   -7.757E-01   -7.615E-01   -7.471E-01
    -7.327E-01   -7.183E-01   -7.038E-01   -6.892E-01   -6.746E-01   -6.600E-01   -6.453E-01   -6.306E-01   -6.159E-01   -6.011E-01
    -5.863E-01   -5.715E-01   -5.566E-01   -5.417E-01   -5.268E-01   -5.118E-01   -4.969E-01   -4.819E-01   -4.669E-01   -4.519E-01
    -4.369E-01   -4.219E-01   -4.068E-01   -3.918E-01   -3.767E-01   -3.617E-01   -3.466E-01   -3.316E-01   -3.165E-01   -3.015E-01
    -2.864E-01   -2.713E-01   -2.562E-01   -2.412E-01   -2.261E-01   -2.110E-01   -1.959E-01   -1.809E-01   -1.658E-01   -1.507E-01
    -1.356E-01   -1.205E-01   -1.055E-01   -9.039E-02   -7.531E-02   -6.023E-02   -4.516E-02   -3.009E-02   -1.502E-02    4.856E-05
     1.511E-02    3.017E-02    4.523E-02    6.028E-02    7.533E-02    9.037E-02    1.054E-01    1.204E-01    1.355E-01    1.505E-01
     1.655E-01    1.805E-01    1.955E-01    2.105E-01    2.255E-01    2.405E-01    2.554E-01    2.704E-01
 Ala      Conc. = 1.20E+02
