 LCModel (Version 6.3-1L) Copyright: S.W. Provencher.          Ref.: Magn. Reson. Med. 30:672-679 (1993).                
 Slice#1 Row#4 Col#3  PD_24_press_1_raw_act
 36 lines in following concentration table = NCONC+1
    Conc.  %SD /Cr+PCr  Metabolite                                         
  117.114  56%   0.737 Ala                                                 
   29.017 115%   0.183 Asp                                                 
  158.981  19%   1.000 Cr                                                  
    0.000 999%   0.000 PCr                                                 
   19.506 103%   0.123 GABA                                                
   23.881  84%   0.150 Glc                                                 
  200.474  68%   1.261 Gln                                                 
  256.179  60%   1.611 Glu                                                 
   61.998  20%   0.390 GPC                                                 
    0.000 999%   0.000 PCh                                                 
  157.355  29%   0.990 GSH                                                 
  334.279  46%   2.103 Ins                                                 
    0.000 999%   0.000 Lac                                                 
  336.947  11%   2.119 NAA                                                 
    0.000 999%   0.000 NAAG                                                
    9.828  65% 6.2E-02 Scyllo                                              
   50.319  65%   0.317 Tau                                                 
   52.170  73%   0.328 -CrCH2                                              
   61.998  20%   0.390 GPC+PCh                                             
  336.947  11%   2.119 NAA+NAAG                                            
  158.981  19%   1.000 Cr+PCr                                              
  456.653  48%   2.872 Glu+Gln                                             
    0.000 999%   0.000 Lip13a                                              
   17.441 366%   0.110 Lip13b                                              
    4.299 431% 2.7E-02 Lip09                                               
 2.13E-03 999% 1.3E-05 MM09                                                
    2.740 396% 1.7E-02 Lip20                                               
 1.89E-02 999% 1.2E-04 MM20                                                
    0.000 999%   0.000 MM12                                                
 1.52E-02 999% 9.6E-05 MM14                                                
    0.000 999%   0.000 MM17                                                
   17.441 366%   0.110 Lip13a+Lip13b                                       
   17.456 366%   0.110 MM14+Lip13a+Lip13b+MM12                             
    4.301 432% 2.7E-02 MM09+Lip09                                          
    2.759 402% 1.7E-02 MM20+Lip20                                          
   6 lines in following misc. output table
  FWHM = 0.069 ppm    S/N =   2                                            
  Data shift = 0.046 ppm                                                   
  Ph: -53 deg     -10.2 deg/ppm                                            
  alphaB,S = 6.7E-01,   2.1E+01                                            
   14 spline knots.   Ns = 7(1)                                            
  (14) 4 infls.   (14) 2 extrs.                                            
  498 points on ppm-axis = NY
      4.000000     3.992357     3.984714     3.977070     3.969427     3.961784     3.954141     3.946497     3.938854     3.931211
      3.923568     3.915925     3.908281     3.900638     3.892995     3.885352     3.877708     3.870065     3.862422     3.854779
      3.847136     3.839492     3.831849     3.824206     3.816563     3.808919     3.801276     3.793633     3.785990     3.778347
      3.770703     3.763060     3.755417     3.747774     3.740130     3.732487     3.724844     3.717201     3.709558     3.701914
      3.694271     3.686628     3.678985     3.671341     3.663698     3.656055     3.648412     3.640769     3.633125     3.625482
      3.617839     3.610196     3.602552     3.594909     3.587266     3.579623     3.571980     3.564336     3.556693     3.549050
      3.541407     3.533763     3.526120     3.518477     3.510834     3.503191     3.495547     3.487904     3.480261     3.472618
      3.464974     3.457331     3.449688     3.442045     3.434402     3.426758     3.419115     3.411472     3.403829     3.396185
      3.388542     3.380899     3.373256     3.365613     3.357969     3.350326     3.342683     3.335040     3.327396     3.319753
      3.312110     3.304467     3.296824     3.289180     3.281537     3.273894     3.266251     3.258607     3.250964     3.243321
      3.235678     3.228034     3.220391     3.212748     3.205105     3.197462     3.189818     3.182175     3.174532     3.166889
      3.159245     3.151602     3.143959     3.136316     3.128673     3.121029     3.113386     3.105743     3.098100     3.090456
      3.082813     3.075170     3.067527     3.059884     3.052240     3.044597     3.036954     3.029311     3.021667     3.014024
      3.006381     2.998738     2.991095     2.983451     2.975808     2.968165     2.960522     2.952878     2.945235     2.937592
      2.929949     2.922306     2.914662     2.907019     2.899376     2.891733     2.884089     2.876446     2.868803     2.861160
      2.853517     2.845873     2.838230     2.830587     2.822944     2.815300     2.807657     2.800014     2.792371     2.784728
      2.777084     2.769441     2.761798     2.754155     2.746511     2.738868     2.731225     2.723582     2.715939     2.708295
      2.700652     2.693009     2.685366     2.677722     2.670079     2.662436     2.654793     2.647150     2.639506     2.631863
      2.624220     2.616577     2.608933     2.601290     2.593647     2.586004     2.578361     2.570717     2.563074     2.555431
      2.547788     2.540144     2.532501     2.524858     2.517215     2.509572     2.501928     2.494285     2.486642     2.478999
      2.471355     2.463712     2.456069     2.448426     2.440783     2.433139     2.425496     2.417853     2.410210     2.402566
      2.394923     2.387280     2.379637     2.371994     2.364350     2.356707     2.349064     2.341421     2.333777     2.326134
      2.318491     2.310848     2.303205     2.295561     2.287918     2.280275     2.272632     2.264988     2.257345     2.249702
      2.242059     2.234416     2.226772     2.219129     2.211486     2.203843     2.196199     2.188556     2.180913     2.173270
      2.165627     2.157983     2.150340     2.142697     2.135054     2.127410     2.119767     2.112124     2.104481     2.096838
      2.089194     2.081551     2.073908     2.066265     2.058621     2.050978     2.043335     2.035692     2.028049     2.020405
      2.012762     2.005119     1.997476     1.989833     1.982190     1.974546     1.966903     1.959260     1.951617     1.943974
      1.936331     1.928688     1.921045     1.913402     1.905759     1.898115     1.890472     1.882829     1.875186     1.867543
      1.859900     1.852257     1.844614     1.836971     1.829327     1.821684     1.814041     1.806398     1.798755     1.791112
      1.783469     1.775826     1.768183     1.760540     1.752896     1.745253     1.737610     1.729967     1.722324     1.714681
      1.707038     1.699395     1.691752     1.684108     1.676465     1.668822     1.661179     1.653536     1.645893     1.638250
      1.630607     1.622964     1.615321     1.607677     1.600034     1.592391     1.584748     1.577105     1.569462     1.561819
      1.554176     1.546533     1.538890     1.531246     1.523603     1.515960     1.508317     1.500674     1.493031     1.485388
      1.477745     1.470102     1.462458     1.454815     1.447172     1.439529     1.431886     1.424243     1.416600     1.408957
      1.401314     1.393671     1.386027     1.378384     1.370741     1.363098     1.355455     1.347812     1.340169     1.332526
      1.324883     1.317240     1.309596     1.301953     1.294310     1.286667     1.279024     1.271381     1.263738     1.256095
      1.248452     1.240808     1.233165     1.225522     1.217879     1.210236     1.202593     1.194950     1.187307     1.179664
      1.172021     1.164377     1.156734     1.149091     1.141448     1.133805     1.126162     1.118519     1.110876     1.103233
      1.095590     1.087946     1.080303     1.072660     1.065017     1.057374     1.049731     1.042088     1.034445     1.026802
      1.019158     1.011515     1.003872     0.996229     0.988586     0.980943     0.973300     0.965657     0.958014     0.950371
      0.942727     0.935084     0.927441     0.919798     0.912155     0.904512     0.896869     0.889226     0.881583     0.873940
      0.866296     0.858653     0.851010     0.843367     0.835724     0.828081     0.820438     0.812795     0.805152     0.797508
      0.789865     0.782222     0.774579     0.766936     0.759293     0.751650     0.744007     0.736364     0.728721     0.721077
      0.713434     0.705791     0.698148     0.690505     0.682862     0.675219     0.667576     0.659933     0.652290     0.644646
      0.637003     0.629360     0.621717     0.614074     0.606431     0.598788     0.591145     0.583502     0.575858     0.568215
      0.560572     0.552929     0.545286     0.537643     0.530000     0.522357     0.514714     0.507071     0.499427     0.491784
      0.484141     0.476498     0.468855     0.461212     0.453569     0.445925     0.438282     0.430639     0.422996     0.415353
      0.407710     0.400067     0.392424     0.384780     0.377137     0.369494     0.361851     0.354208     0.346565     0.338922
      0.331278     0.323635     0.315992     0.308349     0.300706     0.293063     0.285420     0.277777     0.270133     0.262490
      0.254847     0.247204     0.239561     0.231918     0.224275     0.216631     0.208988     0.201345
 NY phased data points follow
  -3.06600E+01 -3.65137E+01 -3.61159E+01 -3.65693E+01 -3.60664E+01 -3.54256E+01 -3.38095E+01 -3.03711E+01 -3.20356E+01 -2.87239E+01
  -2.83075E+01 -2.69084E+01 -2.61480E+01 -3.01838E+01 -2.42350E+01 -2.68403E+01 -2.79971E+01 -2.94346E+01 -2.91431E+01 -2.75533E+01
  -2.58633E+01 -2.89470E+01 -2.80927E+01 -2.81745E+01 -2.54456E+01 -2.72327E+01 -2.14700E+01 -2.74040E+01 -2.33493E+01 -2.55614E+01
  -2.06516E+01 -2.55608E+01 -2.33032E+01 -2.30097E+01 -1.93434E+01 -2.17170E+01 -2.20387E+01 -2.36456E+01 -2.11513E+01 -2.35289E+01
  -2.32912E+01 -2.32019E+01 -2.15426E+01 -2.32984E+01 -1.88607E+01 -2.09390E+01 -1.84438E+01 -2.33944E+01 -2.37562E+01 -2.09195E+01
  -2.13145E+01 -1.91892E+01 -1.55731E+01 -2.26471E+01 -1.60118E+01 -2.04963E+01 -1.68120E+01 -2.23892E+01 -2.02929E+01 -2.12750E+01
  -1.38786E+01 -1.98008E+01 -2.01774E+01 -1.99548E+01 -2.00524E+01 -2.18069E+01 -1.87980E+01 -2.02737E+01 -1.90982E+01 -1.92395E+01
  -1.54575E+01 -2.06944E+01 -1.86180E+01 -1.32699E+01 -1.89998E+01 -1.58582E+01 -1.62955E+01 -1.91411E+01 -1.63959E+01 -1.69469E+01
  -1.61976E+01 -2.02549E+01 -1.47045E+01 -1.84722E+01 -1.62393E+01 -1.75227E+01 -1.70943E+01 -1.97733E+01 -1.81352E+01 -1.23879E+01
  -1.54538E+01 -1.54978E+01 -1.15711E+01 -1.78812E+01 -1.58040E+01 -1.85475E+01 -2.01418E+01 -1.78084E+01 -1.43415E+01 -1.65279E+01
  -1.44745E+01 -1.19859E+01 -8.86509E+00 -9.33461E+00 -6.96896E+00 -1.08096E+01 -1.03686E+01 -1.21588E+01 -1.25982E+01 -1.53345E+01
  -1.41655E+01 -1.01108E+01 -1.05943E+01 -1.20807E+01 -1.22038E+01 -1.06379E+01 -1.07852E+01 -1.15814E+01 -1.35669E+01 -1.48369E+01
  -1.22766E+01 -1.83448E+01 -1.03714E+01 -1.28353E+01 -1.15100E+01 -1.18106E+01 -5.55671E+00 -7.46197E+00 -7.20964E+00 -6.18662E+00
  -6.33069E+00 -7.90698E+00 -7.15742E+00 -9.97682E+00 -1.17427E+01 -9.63316E+00 -1.41258E+01 -1.39574E+01 -1.08899E+01 -8.90386E+00
  -1.10835E+01 -8.44998E+00 -1.11974E+01 -1.04467E+01 -1.37524E+01 -9.96235E+00 -1.21447E+01 -9.15827E+00 -1.23431E+01 -1.27080E+01
  -1.40779E+01 -1.27153E+01 -1.36460E+01 -8.88272E+00 -1.38266E+01 -9.60133E+00 -9.51708E+00 -9.84142E+00 -5.89671E+00 -1.20685E+01
  -1.19988E+01 -9.32073E+00 -1.22295E+01 -6.85041E+00 -7.54614E+00 -8.22476E+00 -1.10189E+01 -7.80476E+00 -8.85147E+00 -1.01232E+01
  -1.16558E+01 -9.36326E+00 -9.62982E+00 -1.06350E+01 -8.39380E+00 -1.13336E+01 -7.99502E+00 -1.13168E+01 -1.14183E+01 -1.25224E+01
  -8.97124E+00 -8.64484E+00 -1.00212E+01 -1.06010E+01 -1.00267E+01 -1.03494E+01 -9.90791E+00 -1.09102E+01 -7.28516E+00 -7.89806E+00
  -5.77617E+00 -6.69309E+00 -5.75183E+00 -6.51058E+00 -9.07348E+00 -9.14311E+00 -7.54435E+00 -6.27323E+00 -7.27134E+00 -1.06885E+01
  -7.04665E+00 -3.96270E+00 -3.33557E+00 -4.71994E+00 -2.10834E+00 -4.93157E+00 -8.44063E+00 -4.99797E+00 -6.37667E+00 -7.56321E+00
  -6.12223E+00 -6.09236E+00 -6.98468E+00 -1.97134E+00 -5.87343E+00 -5.01644E+00  1.22807E+00 -2.94852E+00 -3.54942E+00 -4.88365E+00
  -4.00720E+00 -1.89894E+00 -2.34931E+00 -4.85262E+00 -6.26642E+00 -5.67038E+00 -6.87194E+00 -3.44035E+00 -5.54703E+00 -5.66493E+00
  -5.55375E+00 -5.29282E+00 -4.80798E+00 -5.54127E+00 -4.39529E+00 -7.79002E+00 -2.44353E+00 -2.68525E+00 -6.07958E+00 -4.17239E+00
  -6.66661E+00 -3.47785E+00 -4.77637E+00 -7.14908E+00 -5.27527E+00 -7.30889E+00 -4.97476E+00 -6.13420E+00 -1.50176E+00 -1.68281E+00
  -3.06146E+00 -4.01471E+00 -6.15500E+00 -9.45426E+00 -1.13550E+01 -6.72129E+00 -3.73567E+00 -3.26504E-01  2.20309E-01  2.84435E+00
   2.30885E+00  3.14184E+00  3.56700E+00  5.15716E+00  4.18571E+00  5.75608E+00  1.10175E+00  1.00287E+00 -1.34272E+00  1.39778E+00
  -2.22790E+00 -5.87867E+00 -1.63053E+00 -5.65705E+00 -7.42172E+00 -8.35982E+00 -6.34376E+00 -5.99271E+00 -2.15624E+00 -7.78531E+00
  -4.06695E+00 -6.43048E+00 -6.47559E+00 -5.10746E+00 -7.53918E+00 -5.67388E+00 -3.03417E+00 -4.79745E+00 -5.13224E+00 -9.19728E+00
  -5.87339E+00 -2.29612E+00 -8.21871E+00 -7.52643E+00 -5.39534E+00 -5.88437E-01 -1.04753E+01 -5.50390E+00 -5.99552E+00 -4.84178E+00
  -5.63885E+00 -5.13424E+00 -6.58168E+00 -1.09334E+01 -1.00928E+01 -3.58026E+00 -3.19060E+00 -3.55642E+00 -5.39971E+00 -5.87621E+00
  -5.06930E+00 -3.81583E+00 -4.70720E+00 -5.36640E+00 -5.21431E+00  2.62633E-01 -2.69213E+00 -4.25437E+00 -2.66832E+00 -1.85179E+00
  -1.26029E+00 -5.06981E-02 -3.54079E+00 -2.29734E+00 -1.29470E+00 -6.61919E+00 -2.19412E+00 -3.21568E+00 -3.20997E+00 -5.37720E+00
  -1.97328E+00 -4.98705E+00 -5.65868E+00 -5.70805E+00 -4.82465E+00 -7.85017E+00 -1.01000E+01 -1.14584E+00 -2.84001E+00 -5.40733E+00
  -4.59842E+00 -7.64575E+00 -5.03798E+00 -3.77890E+00 -4.35432E+00 -2.89447E+00 -1.94920E-01 -7.14527E+00 -6.99187E+00 -6.22973E+00
  -3.44806E+00 -4.44585E+00 -1.87482E+00 -4.79555E+00 -3.11122E+00 -3.82324E+00 -6.55896E+00 -3.70410E+00 -5.36071E+00 -1.38294E+00
  -5.98500E+00 -2.08348E+00 -5.35609E+00 -6.16947E+00 -7.87843E+00 -5.31666E+00 -3.25976E+00 -3.99536E+00 -6.64734E+00 -4.15096E+00
  -6.97418E+00 -3.31784E+00 -6.69884E+00 -5.36274E+00 -3.91447E+00 -2.35692E+00 -5.72991E+00 -6.97763E+00 -5.76604E+00 -4.59872E+00
  -1.91023E+00 -6.58524E+00 -5.20179E+00 -6.91030E+00 -7.93376E+00 -9.89652E+00 -7.19323E+00 -7.69704E+00 -7.20944E+00 -5.15497E+00
  -7.31111E+00 -8.71255E+00 -8.15840E+00 -7.02489E+00 -8.15041E+00 -7.24948E+00 -4.35029E+00 -4.76661E+00 -3.04536E+00 -4.74417E+00
  -3.18625E+00 -1.80305E+00 -3.53076E+00 -3.52455E+00 -1.28981E+00 -4.97010E+00 -2.42177E+00 -2.92978E+00 -2.48301E+00 -3.94604E-01
  -4.73102E+00 -2.45974E+00 -2.60193E+00 -3.31856E+00 -1.66994E+00 -6.11275E-01 -3.36294E+00 -2.98309E+00 -4.96522E+00 -2.83622E+00
  -1.27980E+00 -6.61964E+00 -3.27018E+00 -2.78533E+00 -5.63963E-01  3.16574E-01 -2.96013E+00  5.11275E-01 -3.07967E+00 -1.72166E+00
  -3.92881E-01 -4.32193E-01 -3.45686E+00 -1.54241E+00 -5.03760E-01 -2.45770E+00 -1.62577E+00 -1.59579E-01 -3.45182E+00 -1.70845E+00
  -9.84241E-01  2.94269E+00  2.28626E-01 -1.42279E+00 -4.13215E+00  3.18632E-01 -3.58566E+00 -4.30256E+00 -6.18249E-02 -1.42296E+00
  -3.62667E+00 -2.15020E+00 -3.47878E+00 -3.48249E-01 -1.77173E+00 -2.11615E+00  6.26856E-01  1.15159E+00 -1.32922E+00 -5.09063E-01
  -2.27688E+00  1.12758E+00 -2.12655E+00 -1.46496E+00 -4.25718E+00 -9.61851E-01 -3.77710E+00 -2.51172E-01 -4.64856E+00 -2.22431E+00
   6.08669E-01 -1.23686E+00  2.78826E-01  9.18762E-01 -1.75421E+00  3.20935E+00 -4.06391E+00 -1.54643E+00 -8.22399E-01 -1.47042E-01
  -1.99986E+00  2.61432E+00 -1.14607E-01  4.90714E-01  5.42069E-01  1.33321E+00 -2.75060E-01  9.52442E-01  1.35336E+00  2.09347E+00
   2.46942E+00 -2.73852E+00  3.96584E-01  2.54805E+00 -9.27924E-01  6.89141E-02  2.74453E-01 -6.89011E-01
 NY points of the fit to the data follow
  -3.07203E+01 -3.07446E+01 -3.05491E+01 -3.05995E+01 -3.12579E+01 -3.16174E+01 -3.10263E+01 -3.00490E+01 -2.92156E+01 -2.84997E+01
  -2.78325E+01 -2.72929E+01 -2.69192E+01 -2.66355E+01 -2.63938E+01 -2.63130E+01 -2.64185E+01 -2.65397E+01 -2.67817E+01 -2.71041E+01
  -2.71383E+01 -2.69328E+01 -2.70589E+01 -2.76293E+01 -2.75482E+01 -2.67856E+01 -2.59242E+01 -2.51416E+01 -2.42471E+01 -2.33307E+01
  -2.26968E+01 -2.22769E+01 -2.19045E+01 -2.16723E+01 -2.16753E+01 -2.19717E+01 -2.23847E+01 -2.29138E+01 -2.35407E+01 -2.39462E+01
  -2.43572E+01 -2.45236E+01 -2.41209E+01 -2.32891E+01 -2.24087E+01 -2.17132E+01 -2.11728E+01 -2.07969E+01 -2.06168E+01 -2.05536E+01
  -2.05456E+01 -2.06324E+01 -2.09133E+01 -2.12847E+01 -2.15669E+01 -2.16945E+01 -2.15844E+01 -2.12494E+01 -2.08424E+01 -2.05021E+01
  -2.02866E+01 -2.01318E+01 -2.00158E+01 -1.98997E+01 -1.98230E+01 -1.98101E+01 -1.97667E+01 -1.96684E+01 -1.95435E+01 -1.94024E+01
  -1.91543E+01 -1.88090E+01 -1.84876E+01 -1.82246E+01 -1.80262E+01 -1.79110E+01 -1.78446E+01 -1.78065E+01 -1.77557E+01 -1.77355E+01
  -1.76659E+01 -1.74549E+01 -1.72510E+01 -1.71901E+01 -1.72193E+01 -1.72406E+01 -1.72421E+01 -1.72191E+01 -1.71545E+01 -1.70956E+01
  -1.70241E+01 -1.69281E+01 -1.68317E+01 -1.67005E+01 -1.65828E+01 -1.67652E+01 -1.74492E+01 -1.71619E+01 -1.56682E+01 -1.40359E+01
  -1.27749E+01 -1.17243E+01 -1.08725E+01 -1.03493E+01 -1.00986E+01 -9.96374E+00 -9.97835E+00 -1.03457E+01 -1.10744E+01 -1.18657E+01
  -1.26977E+01 -1.36056E+01 -1.39465E+01 -1.39420E+01 -1.38889E+01 -1.38351E+01 -1.37859E+01 -1.37421E+01 -1.37345E+01 -1.39145E+01
  -1.45917E+01 -1.45976E+01 -1.33772E+01 -1.18270E+01 -1.05900E+01 -9.58130E+00 -8.78205E+00 -8.18676E+00 -7.60318E+00 -7.11815E+00
  -6.92161E+00 -7.15661E+00 -7.94392E+00 -8.96731E+00 -1.00179E+01 -1.10891E+01 -1.15776E+01 -1.16063E+01 -1.15671E+01 -1.15048E+01
  -1.13800E+01 -1.12259E+01 -1.10127E+01 -1.07060E+01 -1.04307E+01 -1.02418E+01 -1.01490E+01 -1.01591E+01 -1.02017E+01 -1.02819E+01
  -1.03473E+01 -1.03492E+01 -1.03158E+01 -1.02569E+01 -1.01545E+01 -1.00559E+01 -1.00329E+01 -1.00605E+01 -1.00926E+01 -1.00609E+01
  -9.95293E+00 -9.83698E+00 -9.74416E+00 -9.66631E+00 -9.60533E+00 -9.55099E+00 -9.48459E+00 -9.39750E+00 -9.29342E+00 -9.17286E+00
  -9.10429E+00 -9.17341E+00 -9.27820E+00 -9.32389E+00 -9.26307E+00 -9.17848E+00 -9.16380E+00 -9.17042E+00 -9.12340E+00 -9.05371E+00
  -8.98152E+00 -8.94532E+00 -9.00777E+00 -9.10693E+00 -9.12072E+00 -8.99110E+00 -8.71153E+00 -8.30902E+00 -7.91848E+00 -7.54993E+00
  -7.22625E+00 -7.03763E+00 -7.07331E+00 -7.21680E+00 -7.39310E+00 -7.55219E+00 -7.66980E+00 -7.74372E+00 -7.71129E+00 -7.49765E+00
  -7.09128E+00 -6.56290E+00 -6.00856E+00 -5.44963E+00 -5.26758E+00 -5.52487E+00 -5.87435E+00 -6.26166E+00 -6.75410E+00 -7.32799E+00
  -7.62239E+00 -7.44754E+00 -7.07525E+00 -6.67683E+00 -6.18277E+00 -5.56258E+00 -5.08685E+00 -5.01902E+00 -5.23708E+00 -5.57905E+00
  -5.92421E+00 -6.24128E+00 -6.49338E+00 -6.59658E+00 -6.54084E+00 -6.37306E+00 -6.23090E+00 -6.10499E+00 -5.87049E+00 -5.59369E+00
  -5.52208E+00 -5.54737E+00 -5.45887E+00 -5.32947E+00 -5.26002E+00 -5.15640E+00 -4.88924E+00 -4.73733E+00 -4.88342E+00 -5.11482E+00
  -5.26241E+00 -5.43040E+00 -5.63870E+00 -5.78461E+00 -5.84195E+00 -5.93307E+00 -6.01721E+00 -5.99251E+00 -5.86922E+00 -5.69586E+00
  -5.50491E+00 -5.30324E+00 -5.32702E+00 -6.36185E+00 -7.80932E+00 -6.78117E+00 -3.85044E+00 -1.06170E+00  1.05719E+00  2.88553E+00
   4.19600E+00  4.79761E+00  4.97664E+00  4.94619E+00  4.53152E+00  3.37475E+00  1.63134E+00 -1.50752E-01 -2.11210E+00 -3.90668E+00
  -4.54843E+00 -4.73139E+00 -4.80975E+00 -4.83540E+00 -4.81780E+00 -4.80252E+00 -4.78827E+00 -4.76996E+00 -4.75620E+00 -4.75894E+00
  -4.77035E+00 -4.78970E+00 -4.81762E+00 -4.84462E+00 -4.86407E+00 -4.87429E+00 -4.87577E+00 -4.87173E+00 -4.86410E+00 -4.85334E+00
  -4.84598E+00 -4.84218E+00 -4.83999E+00 -4.83974E+00 -4.84119E+00 -4.84263E+00 -4.84328E+00 -4.84372E+00 -4.84397E+00 -4.84275E+00
  -4.84039E+00 -4.83781E+00 -4.83446E+00 -4.83074E+00 -4.82679E+00 -4.82256E+00 -4.81798E+00 -4.81305E+00 -4.80779E+00 -4.80212E+00
  -4.79591E+00 -4.78913E+00 -4.78166E+00 -4.77330E+00 -4.76404E+00 -4.75394E+00 -4.74353E+00 -4.73448E+00 -4.73228E+00 -4.75797E+00
  -4.83190E+00 -4.64821E+00 -4.11116E+00 -3.67479E+00 -3.54124E+00 -3.57774E+00 -3.69271E+00 -3.91159E+00 -4.41262E+00 -5.18669E+00
  -5.73437E+00 -5.94879E+00 -6.03974E+00 -6.03417E+00 -5.86992E+00 -5.63423E+00 -5.27968E+00 -4.83073E+00 -4.42667E+00 -4.08136E+00
  -3.86633E+00 -3.80333E+00 -3.81912E+00 -3.96404E+00 -4.20461E+00 -4.34332E+00 -4.41263E+00 -4.44768E+00 -4.46142E+00 -4.46010E+00
  -4.44788E+00 -4.42831E+00 -4.40493E+00 -4.38128E+00 -4.36074E+00 -4.34611E+00 -4.33930E+00 -4.34105E+00 -4.35082E+00 -4.36696E+00
  -4.38705E+00 -4.40840E+00 -4.42848E+00 -4.44528E+00 -4.45749E+00 -4.46449E+00 -4.46632E+00 -4.46342E+00 -4.45653E+00 -4.44642E+00
  -4.43381E+00 -4.41930E+00 -4.40334E+00 -4.38626E+00 -4.36830E+00 -4.34959E+00 -4.33022E+00 -4.31021E+00 -4.28961E+00 -4.26843E+00
  -4.24669E+00 -4.22439E+00 -4.20154E+00 -4.17810E+00 -4.15410E+00 -4.12954E+00 -4.10443E+00 -4.07876E+00 -4.05252E+00 -4.02571E+00
  -3.99834E+00 -3.97042E+00 -3.94196E+00 -3.91295E+00 -3.88342E+00 -3.85337E+00 -3.82284E+00 -3.79185E+00 -3.76042E+00 -3.72858E+00
  -3.69636E+00 -3.66377E+00 -3.63088E+00 -3.59770E+00 -3.56427E+00 -3.53057E+00 -3.49665E+00 -3.46252E+00 -3.42818E+00 -3.39365E+00
  -3.35891E+00 -3.32396E+00 -3.28880E+00 -3.25340E+00 -3.21776E+00 -3.18185E+00 -3.14566E+00 -3.10915E+00 -3.07232E+00 -3.03515E+00
  -2.99765E+00 -2.95978E+00 -2.92154E+00 -2.88294E+00 -2.84398E+00 -2.80467E+00 -2.76502E+00 -2.72502E+00 -2.68470E+00 -2.64406E+00
  -2.60313E+00 -2.56191E+00 -2.52043E+00 -2.47869E+00 -2.43670E+00 -2.39448E+00 -2.35206E+00 -2.30944E+00 -2.26663E+00 -2.22364E+00
  -2.18049E+00 -2.13718E+00 -2.09374E+00 -2.05017E+00 -2.00648E+00 -1.96268E+00 -1.91878E+00 -1.87479E+00 -1.83074E+00 -1.78661E+00
  -1.74243E+00 -1.69820E+00 -1.65393E+00 -1.60963E+00 -1.56531E+00 -1.52095E+00 -1.47656E+00 -1.43214E+00 -1.38770E+00 -1.34323E+00
  -1.29874E+00 -1.25421E+00 -1.20966E+00 -1.16507E+00 -1.12047E+00 -1.07585E+00 -1.03121E+00 -9.86527E-01 -9.41827E-01 -8.97100E-01
  -8.52360E-01 -8.07593E-01 -7.62807E-01 -7.17987E-01 -6.73148E-01 -6.28285E-01 -5.83409E-01 -5.38506E-01 -4.93581E-01 -4.48624E-01
  -4.03651E-01 -3.58656E-01 -3.13647E-01 -2.68611E-01 -2.23553E-01 -1.78464E-01 -1.33360E-01 -8.82337E-02 -4.30930E-02  2.07902E-03
   4.72748E-02  9.25013E-02  1.37742E-01  1.83007E-01  2.28291E-01  2.73612E-01  3.18961E-01  3.64344E-01
 NY background values follow
    -3.193E+01   -3.175E+01   -3.157E+01   -3.139E+01   -3.121E+01   -3.103E+01   -3.085E+01   -3.067E+01   -3.049E+01   -3.031E+01
    -3.013E+01   -2.995E+01   -2.977E+01   -2.959E+01   -2.942E+01   -2.924E+01   -2.906E+01   -2.888E+01   -2.870E+01   -2.852E+01
    -2.834E+01   -2.817E+01   -2.799E+01   -2.781E+01   -2.763E+01   -2.746E+01   -2.728E+01   -2.710E+01   -2.693E+01   -2.675E+01
    -2.658E+01   -2.640E+01   -2.623E+01   -2.606E+01   -2.588E+01   -2.571E+01   -2.554E+01   -2.536E+01   -2.519E+01   -2.502E+01
    -2.485E+01   -2.468E+01   -2.451E+01   -2.434E+01   -2.417E+01   -2.401E+01   -2.384E+01   -2.367E+01   -2.351E+01   -2.334E+01
    -2.318E+01   -2.301E+01   -2.285E+01   -2.269E+01   -2.253E+01   -2.236E+01   -2.220E+01   -2.204E+01   -2.189E+01   -2.173E+01
    -2.157E+01   -2.141E+01   -2.126E+01   -2.110E+01   -2.095E+01   -2.079E+01   -2.064E+01   -2.048E+01   -2.033E+01   -2.018E+01
    -2.003E+01   -1.988E+01   -1.973E+01   -1.958E+01   -1.944E+01   -1.929E+01   -1.914E+01   -1.900E+01   -1.886E+01   -1.871E+01
    -1.857E+01   -1.843E+01   -1.829E+01   -1.815E+01   -1.801E+01   -1.787E+01   -1.773E+01   -1.760E+01   -1.746E+01   -1.732E+01
    -1.719E+01   -1.706E+01   -1.692E+01   -1.679E+01   -1.666E+01   -1.653E+01   -1.640E+01   -1.628E+01   -1.615E+01   -1.602E+01
    -1.590E+01   -1.577E+01   -1.565E+01   -1.553E+01   -1.540E+01   -1.528E+01   -1.516E+01   -1.504E+01   -1.492E+01   -1.481E+01
    -1.469E+01   -1.457E+01   -1.446E+01   -1.434E+01   -1.423E+01   -1.412E+01   -1.400E+01   -1.389E+01   -1.378E+01   -1.367E+01
    -1.356E+01   -1.345E+01   -1.334E+01   -1.324E+01   -1.313E+01   -1.303E+01   -1.292E+01   -1.282E+01   -1.271E+01   -1.261E+01
    -1.251E+01   -1.241E+01   -1.231E+01   -1.221E+01   -1.211E+01   -1.201E+01   -1.191E+01   -1.181E+01   -1.172E+01   -1.162E+01
    -1.153E+01   -1.143E+01   -1.134E+01   -1.125E+01   -1.115E+01   -1.106E+01   -1.097E+01   -1.088E+01   -1.079E+01   -1.070E+01
    -1.062E+01   -1.053E+01   -1.044E+01   -1.035E+01   -1.027E+01   -1.018E+01   -1.010E+01   -1.002E+01   -9.935E+00   -9.853E+00
    -9.771E+00   -9.691E+00   -9.611E+00   -9.531E+00   -9.453E+00   -9.375E+00   -9.297E+00   -9.221E+00   -9.145E+00   -9.069E+00
    -8.995E+00   -8.921E+00   -8.847E+00   -8.775E+00   -8.703E+00   -8.631E+00   -8.561E+00   -8.491E+00   -8.421E+00   -8.352E+00
    -8.284E+00   -8.217E+00   -8.150E+00   -8.084E+00   -8.019E+00   -7.954E+00   -7.890E+00   -7.826E+00   -7.764E+00   -7.702E+00
    -7.640E+00   -7.580E+00   -7.520E+00   -7.461E+00   -7.402E+00   -7.344E+00   -7.287E+00   -7.231E+00   -7.175E+00   -7.120E+00
    -7.066E+00   -7.013E+00   -6.960E+00   -6.908E+00   -6.857E+00   -6.807E+00   -6.757E+00   -6.708E+00   -6.660E+00   -6.613E+00
    -6.567E+00   -6.521E+00   -6.476E+00   -6.432E+00   -6.389E+00   -6.346E+00   -6.305E+00   -6.264E+00   -6.224E+00   -6.185E+00
    -6.146E+00   -6.109E+00   -6.072E+00   -6.036E+00   -6.001E+00   -5.967E+00   -5.934E+00   -5.902E+00   -5.870E+00   -5.840E+00
    -5.810E+00   -5.781E+00   -5.753E+00   -5.725E+00   -5.699E+00   -5.673E+00   -5.648E+00   -5.623E+00   -5.599E+00   -5.576E+00
    -5.554E+00   -5.532E+00   -5.511E+00   -5.491E+00   -5.471E+00   -5.452E+00   -5.434E+00   -5.416E+00   -5.398E+00   -5.382E+00
    -5.366E+00   -5.350E+00   -5.335E+00   -5.320E+00   -5.306E+00   -5.292E+00   -5.279E+00   -5.266E+00   -5.254E+00   -5.242E+00
    -5.230E+00   -5.219E+00   -5.209E+00   -5.198E+00   -5.188E+00   -5.179E+00   -5.169E+00   -5.160E+00   -5.152E+00   -5.143E+00
    -5.135E+00   -5.127E+00   -5.119E+00   -5.112E+00   -5.105E+00   -5.098E+00   -5.091E+00   -5.084E+00   -5.078E+00   -5.072E+00
    -5.066E+00   -5.060E+00   -5.055E+00   -5.049E+00   -5.044E+00   -5.039E+00   -5.034E+00   -5.030E+00   -5.025E+00   -5.021E+00
    -5.016E+00   -5.012E+00   -5.008E+00   -5.004E+00   -5.001E+00   -4.997E+00   -4.993E+00   -4.990E+00   -4.987E+00   -4.983E+00
    -4.980E+00   -4.977E+00   -4.974E+00   -4.971E+00   -4.968E+00   -4.966E+00   -4.963E+00   -4.960E+00   -4.957E+00   -4.955E+00
    -4.952E+00   -4.950E+00   -4.947E+00   -4.944E+00   -4.942E+00   -4.939E+00   -4.937E+00   -4.934E+00   -4.932E+00   -4.929E+00
    -4.927E+00   -4.924E+00   -4.921E+00   -4.918E+00   -4.915E+00   -4.912E+00   -4.909E+00   -4.906E+00   -4.903E+00   -4.899E+00
    -4.896E+00   -4.892E+00   -4.888E+00   -4.884E+00   -4.880E+00   -4.875E+00   -4.870E+00   -4.865E+00   -4.860E+00   -4.855E+00
    -4.849E+00   -4.843E+00   -4.837E+00   -4.830E+00   -4.824E+00   -4.817E+00   -4.809E+00   -4.801E+00   -4.793E+00   -4.785E+00
    -4.776E+00   -4.767E+00   -4.757E+00   -4.748E+00   -4.737E+00   -4.726E+00   -4.715E+00   -4.704E+00   -4.692E+00   -4.679E+00
    -4.666E+00   -4.653E+00   -4.639E+00   -4.624E+00   -4.609E+00   -4.594E+00   -4.578E+00   -4.562E+00   -4.545E+00   -4.528E+00
    -4.510E+00   -4.491E+00   -4.473E+00   -4.453E+00   -4.434E+00   -4.413E+00   -4.393E+00   -4.372E+00   -4.350E+00   -4.328E+00
    -4.305E+00   -4.282E+00   -4.259E+00   -4.235E+00   -4.211E+00   -4.186E+00   -4.160E+00   -4.135E+00   -4.108E+00   -4.082E+00
    -4.055E+00   -4.027E+00   -3.999E+00   -3.971E+00   -3.942E+00   -3.912E+00   -3.883E+00   -3.852E+00   -3.822E+00   -3.791E+00
    -3.759E+00   -3.727E+00   -3.695E+00   -3.662E+00   -3.629E+00   -3.595E+00   -3.561E+00   -3.527E+00   -3.492E+00   -3.456E+00
    -3.421E+00   -3.384E+00   -3.348E+00   -3.311E+00   -3.274E+00   -3.236E+00   -3.198E+00   -3.160E+00   -3.121E+00   -3.082E+00
    -3.043E+00   -3.003E+00   -2.964E+00   -2.923E+00   -2.883E+00   -2.842E+00   -2.801E+00   -2.760E+00   -2.719E+00   -2.677E+00
    -2.635E+00   -2.593E+00   -2.551E+00   -2.508E+00   -2.466E+00   -2.423E+00   -2.380E+00   -2.336E+00   -2.293E+00   -2.250E+00
    -2.206E+00   -2.162E+00   -2.118E+00   -2.074E+00   -2.030E+00   -1.986E+00   -1.942E+00   -1.897E+00   -1.853E+00   -1.808E+00
    -1.764E+00   -1.719E+00   -1.675E+00   -1.630E+00   -1.585E+00   -1.541E+00   -1.496E+00   -1.451E+00   -1.407E+00   -1.362E+00
    -1.317E+00   -1.272E+00   -1.228E+00   -1.183E+00   -1.138E+00   -1.093E+00   -1.048E+00   -1.003E+00   -9.584E-01   -9.134E-01
    -8.685E-01   -8.235E-01   -7.785E-01   -7.335E-01   -6.885E-01   -6.434E-01   -5.983E-01   -5.532E-01   -5.081E-01   -4.630E-01
    -4.179E-01   -3.727E-01   -3.275E-01   -2.823E-01   -2.371E-01   -1.919E-01   -1.466E-01   -1.014E-01   -5.610E-02   -1.081E-02
     3.450E-02    7.982E-02    1.252E-01    1.705E-01    2.159E-01    2.613E-01    3.067E-01    3.521E-01
 Ala      Conc. = 1.17E+02
