 LCModel (Version 6.3-1L) Copyright: S.W. Provencher.          Ref.: Magn. Reson. Med. 30:672-679 (1993).                
 Slice#1 Row#14 Col#11  PD_24_press_1_raw_act
 36 lines in following concentration table = NCONC+1
    Conc.  %SD /Cr+PCr  Metabolite                                         
   28.141  93%  21.763 Ala                                                 
    2.256  65%   1.745 Asp                                                 
    1.293 961%   1.000 Cr                                                  
    0.000 999%   0.000 PCr                                                 
    1.355  65%   1.048 GABA                                                
    1.352  65%   1.046 Glc                                                 
  104.714  52%  80.981 Gln                                                 
    0.000 999%   0.000 Glu                                                 
    6.970 488%   5.390 GPC                                                 
    2.520 999%   1.949 PCh                                                 
   33.096  57%  25.595 GSH                                                 
   96.948  59%  74.975 Ins                                                 
   61.826  48%  47.814 Lac                                                 
   15.282  90%  11.818 NAA                                                 
    0.000 999%   0.000 NAAG                                                
    0.451  65%   0.349 Scyllo                                              
    2.243  65%   1.735 Tau                                                 
 9.53E-02 999% 7.4E-02 -CrCH2                                              
    9.490  51%   7.339 GPC+PCh                                             
   15.282  90%  11.818 NAA+NAAG                                            
    1.293 961%   1.000 Cr+PCr                                              
  104.714  52%  80.981 Glu+Gln                                             
    0.400 999%   0.309 Lip13a                                              
    0.000 999%   0.000 Lip13b                                              
    0.000 999%   0.000 Lip09                                               
    0.000 999%   0.000 MM09                                                
 8.04E-02 999% 6.2E-02 Lip20                                               
 2.73E-05 999% 2.1E-05 MM20                                                
    0.000 999%   0.000 MM12                                                
 2.81E-03 999% 2.2E-03 MM14                                                
 6.27E-04 999% 4.8E-04 MM17                                                
    0.400 999%   0.309 Lip13a+Lip13b                                       
    0.403 999%   0.311 MM14+Lip13a+Lip13b+MM12                             
    0.000 999%   0.000 MM09+Lip09                                          
 8.04E-02 999% 6.2E-02 MM20+Lip20                                          
   6 lines in following misc. output table
  FWHM = 0.038 ppm    S/N =   1                                            
  Data shift =-0.008 ppm                                                   
  Ph:-153 deg      -6.4 deg/ppm                                            
  alphaB,S = 8.5E+01,   2.6E+01                                            
   14 spline knots.   Ns = 5(1)                                            
   2 inflections.     1 extrema                                            
  498 points on ppm-axis = NY
      4.000000     3.992357     3.984714     3.977070     3.969427     3.961784     3.954141     3.946497     3.938854     3.931211
      3.923568     3.915925     3.908281     3.900638     3.892995     3.885352     3.877708     3.870065     3.862422     3.854779
      3.847136     3.839492     3.831849     3.824206     3.816563     3.808919     3.801276     3.793633     3.785990     3.778347
      3.770703     3.763060     3.755417     3.747774     3.740130     3.732487     3.724844     3.717201     3.709558     3.701914
      3.694271     3.686628     3.678985     3.671341     3.663698     3.656055     3.648412     3.640769     3.633125     3.625482
      3.617839     3.610196     3.602552     3.594909     3.587266     3.579623     3.571980     3.564336     3.556693     3.549050
      3.541407     3.533763     3.526120     3.518477     3.510834     3.503191     3.495547     3.487904     3.480261     3.472618
      3.464974     3.457331     3.449688     3.442045     3.434402     3.426758     3.419115     3.411472     3.403829     3.396185
      3.388542     3.380899     3.373256     3.365613     3.357969     3.350326     3.342683     3.335040     3.327396     3.319753
      3.312110     3.304467     3.296824     3.289180     3.281537     3.273894     3.266251     3.258607     3.250964     3.243321
      3.235678     3.228034     3.220391     3.212748     3.205105     3.197462     3.189818     3.182175     3.174532     3.166889
      3.159245     3.151602     3.143959     3.136316     3.128673     3.121029     3.113386     3.105743     3.098100     3.090456
      3.082813     3.075170     3.067527     3.059884     3.052240     3.044597     3.036954     3.029311     3.021667     3.014024
      3.006381     2.998738     2.991095     2.983451     2.975808     2.968165     2.960522     2.952878     2.945235     2.937592
      2.929949     2.922306     2.914662     2.907019     2.899376     2.891733     2.884089     2.876446     2.868803     2.861160
      2.853517     2.845873     2.838230     2.830587     2.822944     2.815300     2.807657     2.800014     2.792371     2.784728
      2.777084     2.769441     2.761798     2.754155     2.746511     2.738868     2.731225     2.723582     2.715939     2.708295
      2.700652     2.693009     2.685366     2.677722     2.670079     2.662436     2.654793     2.647150     2.639506     2.631863
      2.624220     2.616577     2.608933     2.601290     2.593647     2.586004     2.578361     2.570717     2.563074     2.555431
      2.547788     2.540144     2.532501     2.524858     2.517215     2.509572     2.501928     2.494285     2.486642     2.478999
      2.471355     2.463712     2.456069     2.448426     2.440783     2.433139     2.425496     2.417853     2.410210     2.402566
      2.394923     2.387280     2.379637     2.371994     2.364350     2.356707     2.349064     2.341421     2.333777     2.326134
      2.318491     2.310848     2.303205     2.295561     2.287918     2.280275     2.272632     2.264988     2.257345     2.249702
      2.242059     2.234416     2.226772     2.219129     2.211486     2.203843     2.196199     2.188556     2.180913     2.173270
      2.165627     2.157983     2.150340     2.142697     2.135054     2.127410     2.119767     2.112124     2.104481     2.096838
      2.089194     2.081551     2.073908     2.066265     2.058621     2.050978     2.043335     2.035692     2.028049     2.020405
      2.012762     2.005119     1.997476     1.989833     1.982190     1.974546     1.966903     1.959260     1.951617     1.943974
      1.936331     1.928688     1.921045     1.913402     1.905759     1.898115     1.890472     1.882829     1.875186     1.867543
      1.859900     1.852257     1.844614     1.836971     1.829327     1.821684     1.814041     1.806398     1.798755     1.791112
      1.783469     1.775826     1.768183     1.760540     1.752896     1.745253     1.737610     1.729967     1.722324     1.714681
      1.707038     1.699395     1.691752     1.684108     1.676465     1.668822     1.661179     1.653536     1.645893     1.638250
      1.630607     1.622964     1.615321     1.607677     1.600034     1.592391     1.584748     1.577105     1.569462     1.561819
      1.554176     1.546533     1.538890     1.531246     1.523603     1.515960     1.508317     1.500674     1.493031     1.485388
      1.477745     1.470102     1.462458     1.454815     1.447172     1.439529     1.431886     1.424243     1.416600     1.408957
      1.401314     1.393671     1.386027     1.378384     1.370741     1.363098     1.355455     1.347812     1.340169     1.332526
      1.324883     1.317240     1.309596     1.301953     1.294310     1.286667     1.279024     1.271381     1.263738     1.256095
      1.248452     1.240808     1.233165     1.225522     1.217879     1.210236     1.202593     1.194950     1.187307     1.179664
      1.172021     1.164377     1.156734     1.149091     1.141448     1.133805     1.126162     1.118519     1.110876     1.103233
      1.095590     1.087946     1.080303     1.072660     1.065017     1.057374     1.049731     1.042088     1.034445     1.026802
      1.019158     1.011515     1.003872     0.996229     0.988586     0.980943     0.973300     0.965657     0.958014     0.950371
      0.942727     0.935084     0.927441     0.919798     0.912155     0.904512     0.896869     0.889226     0.881583     0.873940
      0.866296     0.858653     0.851010     0.843367     0.835724     0.828081     0.820438     0.812795     0.805152     0.797508
      0.789865     0.782222     0.774579     0.766936     0.759293     0.751650     0.744007     0.736364     0.728721     0.721077
      0.713434     0.705791     0.698148     0.690505     0.682862     0.675219     0.667576     0.659933     0.652290     0.644646
      0.637003     0.629360     0.621717     0.614074     0.606431     0.598788     0.591145     0.583502     0.575858     0.568215
      0.560572     0.552929     0.545286     0.537643     0.530000     0.522357     0.514714     0.507071     0.499427     0.491784
      0.484141     0.476498     0.468855     0.461212     0.453569     0.445925     0.438282     0.430639     0.422996     0.415353
      0.407710     0.400067     0.392424     0.384780     0.377137     0.369494     0.361851     0.354208     0.346565     0.338922
      0.331278     0.323635     0.315992     0.308349     0.300706     0.293063     0.285420     0.277777     0.270133     0.262490
      0.254847     0.247204     0.239561     0.231918     0.224275     0.216631     0.208988     0.201345
 NY phased data points follow
  -1.53256E-01  1.91328E+00  1.35597E+00  1.22565E+00  2.16951E+00  4.23720E-01 -1.13152E+00  1.52459E+00  6.25782E-01  1.54602E+00
   1.32382E+00  1.07300E+00 -2.42361E-01  2.29014E+00  6.75189E-01  1.93362E+00 -6.03094E-01 -4.99124E-01  5.00341E-01  4.62053E-01
  -3.78917E-01  8.63500E-01  1.62388E+00  8.05718E-01  1.29684E+00  2.11643E-01 -7.82843E-01  2.37998E+00  1.22084E+00  4.15876E-01
   1.00908E+00  4.32391E+00  5.48485E-01  1.30053E+00  3.31491E-02  3.13224E-01  1.32625E+00  2.51409E-01  1.73531E-01  1.26572E+00
   1.45372E-01  1.10355E+00  1.58819E+00  1.33426E+00  1.43012E-01  1.84478E+00 -1.86986E-01  1.48242E+00  1.87096E+00  1.37695E+00
  -1.00676E-01  5.44543E-01  1.86734E+00  1.73644E+00  9.07896E-02 -6.77759E-01  1.71389E-01  8.86684E-01 -4.15862E-01  2.72785E+00
   1.56462E+00  1.76525E+00  4.29110E-01  5.64681E-01  5.09708E-01  4.72326E-01  2.09982E+00  1.14578E+00  1.34221E+00  1.29315E+00
   3.43718E-01  1.33145E+00 -4.59464E-01  1.19593E+00  1.38443E-01  8.05540E-01 -9.28432E-02  8.53798E-01 -2.79689E-01  1.13903E+00
   4.35065E-01 -1.10886E+00  6.74909E-01  5.73599E-01 -2.76256E-01  1.49443E+00 -4.76992E-01 -1.07156E-01  1.60004E-01  9.19906E-01
   6.24206E-01  4.83880E-01  1.74648E-01 -2.53912E-02  6.29158E-01  4.28850E-01 -1.06700E-01  4.18226E-01 -1.54736E+00  3.06463E-01
  -6.71868E-01 -9.11477E-01  6.46026E-01  1.69892E+00  6.14028E-01  3.21965E+00  1.53286E+00  5.15206E-01  1.60873E-01 -7.77453E-01
   7.75900E-01  2.67392E-01 -7.70927E-01  1.21010E-01  6.98540E-01  7.94784E-01 -3.11499E-02  2.13555E+00  1.67892E-01  1.63434E+00
   4.99703E-01  7.92263E-01 -1.16928E+00  1.41581E-01 -9.18578E-01 -3.77586E+00  4.30284E-01 -1.21864E+00  2.45518E-01  5.08044E-01
   2.35760E+00  2.12191E+00  8.12804E-01 -1.03439E+00  5.10907E-01  9.61180E-01 -1.22117E+00  1.39048E-01  5.10453E-01  6.03551E-01
  -8.89806E-01 -1.02987E-01  1.75037E+00  2.63351E+00  1.96101E-01  1.13657E+00  1.45912E+00 -1.59599E-01  4.54444E-01  2.49830E+00
   2.36738E-01  1.03417E+00  1.20978E+00  2.63853E-01  1.66219E+00 -2.10077E-01  1.26438E-01  1.05460E+00 -4.44556E-01  1.87659E+00
  -1.73452E+00  7.69093E-01 -8.28505E-01 -1.19036E-01 -1.52015E+00  5.75814E-01 -4.19078E-01 -2.00252E-01 -4.94920E-01 -2.66201E-01
  -4.96068E-03  6.53455E-01  5.47200E-02  3.47731E-02  8.66179E-01  1.47174E+00 -4.41987E-02  1.55731E+00 -2.64904E-01  1.29605E+00
  -5.40954E-01 -5.99281E-01  6.66586E-01  1.66655E+00 -3.10676E-01  7.55492E-01  4.23415E-01 -2.05713E+00  4.60014E-01  3.21102E-01
  -1.50267E+00 -1.87240E-01 -6.58994E-01  1.13557E+00 -1.03697E+00 -3.35078E-01 -9.58791E-01 -7.31490E-01  8.25562E-01  1.63846E+00
  -9.07530E-01  2.07179E-01 -7.54839E-02  3.04065E-01  8.44255E-01  1.02123E-01  6.82802E-01 -1.80092E+00  5.28442E-01  1.15255E+00
  -2.15011E-01 -6.45853E-01 -1.68606E+00 -1.58397E+00  4.64748E-02  1.69920E+00 -5.71425E-01 -2.11153E-01  4.66493E-01  1.39524E+00
   2.91790E-01  2.81548E+00 -2.20892E-01 -8.27986E-01 -1.72916E+00  1.08842E+00  3.27672E-01  4.80236E-01  1.13537E+00 -1.19579E+00
  -8.39425E-01  2.21025E-02  2.84688E-01  4.59724E-01  7.60037E-01  2.44559E-01 -1.48444E+00  1.66902E+00 -8.98729E-01  1.95971E-01
  -1.43566E+00  5.81700E-01  1.66093E+00  1.52062E+00  4.53192E-01 -5.63230E-01 -9.07990E-01 -1.90292E+00 -1.16629E-01  1.25837E+00
  -4.31459E-01  4.99011E-01  9.08235E-01  2.51816E-03  5.26436E-01 -1.12949E+00  1.11285E+00  7.45375E-01  3.90884E-01 -2.33795E+00
  -1.18834E+00  2.98519E+00  2.77144E+00  2.76929E-02 -7.40454E-01 -1.52752E-01  2.52673E-01  4.70883E-02 -1.71856E+00 -5.93964E-01
   1.23222E+00 -3.42666E-01  1.75985E+00  8.82367E-01 -4.74303E-01  1.91661E+00 -7.54070E-01  1.11508E+00  1.10537E+00  1.44212E+00
   1.56944E+00  6.42771E-01 -9.50819E-01 -3.83700E-01  2.60882E-02  1.98178E+00 -5.65861E-01  1.90523E+00 -4.62633E-01 -7.85806E-01
  -6.70471E-01 -6.46347E-01 -5.05437E-02 -5.10464E-01 -4.73948E-02  1.25986E+00  7.59266E-01  1.29413E+00  5.57981E-01 -1.34475E+00
  -8.68358E-01 -2.79359E-01  1.37285E+00  1.21601E+00  7.10411E-01  7.04642E-02  5.12955E-01  5.06740E-01  7.02194E-01 -1.32137E-01
  -2.58615E-01  1.06656E+00 -1.60060E-01  1.31990E+00  8.35844E-01  3.90904E-01 -5.66876E-01  9.90560E-01 -3.81651E-01  1.37252E+00
   1.06796E+00 -4.77159E-01 -1.24724E+00  1.53650E+00  1.02364E+00  9.62254E-01 -2.58774E-04  9.10831E-01  6.18094E-01  1.71515E+00
  -7.36632E-01 -2.48948E-02  1.22255E+00  9.32542E-01  1.21554E+00  2.04116E+00  1.46248E-01  2.19520E+00  2.11328E+00  4.42893E-01
   1.13054E+00  1.06039E-01  2.10333E+00  5.87594E-01  1.13029E+00  2.57131E+00  2.24495E+00  1.67035E+00  1.63208E+00  8.67533E-01
   1.78531E+00 -5.98550E-01 -6.90597E-01  4.63684E-01 -5.12132E-01 -2.13651E+00  7.02770E-01 -8.95407E-01 -3.28701E-01  1.65842E+00
  -1.55986E+00 -1.25617E+00 -3.94830E-01 -1.55218E+00 -2.16102E-01 -8.32305E-01 -2.34251E+00  3.19639E-01 -8.17284E-01 -1.58324E+00
  -7.62140E-01 -1.71122E+00 -2.15686E+00 -9.43031E-01 -1.66117E+00  7.73801E-01 -4.62409E-02 -3.55392E-01 -1.44030E+00  7.51967E-01
   5.56592E-01 -8.56465E-01 -1.35636E+00 -1.36899E+00  1.09809E-01 -1.64744E+00 -1.11043E+00 -1.60206E+00  1.92854E+00  1.87698E+00
  -1.12065E+00  4.76187E-01 -1.30095E+00  6.00223E-02 -2.45403E+00  1.16137E-01 -1.11988E+00  8.47516E-02  1.03381E+00 -9.39978E-01
  -7.74580E-01 -8.53601E-01  6.39423E-01 -1.40288E+00 -1.82124E+00 -1.66948E+00 -2.06935E+00 -9.90591E-01 -1.95081E+00 -1.13719E+00
  -7.77838E-01 -8.76172E-01 -9.48585E-01 -2.51386E+00 -8.93593E-01 -1.50475E+00 -3.09216E-02  3.72669E-02 -1.82832E+00 -4.62840E-01
   3.83518E-01 -1.00636E+00 -1.64016E+00  1.78393E+00 -5.72835E-01 -6.33006E-01  1.71764E+00  1.30403E-01  7.43698E-01  6.26858E-01
   5.11334E-01 -1.48469E-01 -1.71418E-01 -8.10963E-01  1.48466E-02 -1.33853E+00 -1.24851E+00 -1.63875E-01  1.41771E+00 -4.23752E-01
  -2.06490E+00 -1.55903E+00  1.62564E-01  7.78941E-01  9.48583E-01 -1.20679E-01 -1.08926E+00 -1.01268E+00  1.43628E+00  1.73820E+00
  -1.10295E+00 -2.50761E-01  3.24523E+00 -8.60826E-01 -9.61556E-01  5.81713E-01  3.20576E-01 -8.28549E-01 -9.19135E-01 -8.62424E-01
  -7.05255E-01  8.88563E-01  6.00225E-02  1.26247E+00 -1.33957E+00  1.24700E+00  1.11193E+00  1.47118E+00  8.88755E-01 -2.06235E+00
  -8.46644E-01  1.21191E+00 -1.07030E+00 -1.06789E+00  1.82582E+00 -1.52451E+00 -6.37635E-02 -2.67247E-01 -1.39595E+00 -5.80557E-02
  -1.40281E+00 -1.26478E+00  5.67721E-02 -1.23664E+00  5.86058E-01  1.07299E+00  1.14151E-01  1.81998E+00 -7.54125E-01 -2.33276E-01
  -9.01202E-01  8.70012E-01  1.35893E+00 -9.43521E-01 -6.22520E-01 -1.59477E-01 -2.73275E-01  1.00369E+00
 NY points of the fit to the data follow
   6.76597E-01  6.11822E-01  5.84544E-01  5.87545E-01  5.99452E-01  6.07227E-01  6.12819E-01  6.19595E-01  6.27314E-01  6.34303E-01
   6.39799E-01  6.44714E-01  6.49330E-01  6.51354E-01  6.48130E-01  6.40821E-01  6.33914E-01  6.31831E-01  6.38544E-01  6.55560E-01
   6.83097E-01  7.17576E-01  7.43335E-01  7.42718E-01  7.17451E-01  6.92378E-01  6.95194E-01  7.40088E-01  8.52320E-01  1.06162E+00
   1.34230E+00  1.59949E+00  1.72909E+00  1.66583E+00  1.43169E+00  1.11911E+00  8.28334E-01  6.32826E-01  5.26911E-01  5.01209E-01
   5.22198E-01  5.48385E-01  5.78502E-01  6.38884E-01  7.49687E-01  8.99772E-01  1.06755E+00  1.22639E+00  1.33588E+00  1.34125E+00
   1.20699E+00  9.59237E-01  6.81777E-01  4.67390E-01  3.70121E-01  3.81539E-01  4.52433E-01  5.41952E-01  6.32645E-01  7.16335E-01
   7.82477E-01  8.15614E-01  8.01259E-01  7.37700E-01  6.41487E-01  5.43847E-01  4.80346E-01  4.68973E-01  5.04546E-01  5.67093E-01
   6.29613E-01  6.77844E-01  7.07393E-01  7.16237E-01  7.04285E-01  6.73715E-01  6.33006E-01  5.92107E-01  5.59473E-01  5.39634E-01
   5.26548E-01  5.15707E-01  5.03199E-01  4.82333E-01  4.47124E-01  3.96578E-01  3.33295E-01  2.62065E-01  1.94208E-01  1.49094E-01
   1.45348E-01  1.88747E-01  2.67280E-01  3.55478E-01  4.24912E-01  4.62813E-01  4.70225E-01  4.58339E-01  4.53714E-01  4.94233E-01
   5.95027E-01  7.45474E-01  9.35378E-01  1.14213E+00  1.29590E+00  1.31195E+00  1.16175E+00  8.98754E-01  6.23534E-01  4.21768E-01
   3.32547E-01  3.12540E-01  3.08498E-01  3.08755E-01  3.09326E-01  3.08392E-01  3.04555E-01  2.98103E-01  2.89963E-01  2.80993E-01
   2.72797E-01  2.68201E-01  2.70219E-01  2.80946E-01  2.99752E-01  3.22914E-01  3.46376E-01  3.67729E-01  3.88042E-01  4.09659E-01
   4.30951E-01  4.45915E-01  4.50640E-01  4.41088E-01  4.08522E-01  3.43969E-01  2.54671E-01  1.69873E-01  1.25710E-01  1.43654E-01
   2.19656E-01  3.22601E-01  4.09157E-01  4.53744E-01  4.51685E-01  4.14966E-01  3.67059E-01  3.25201E-01  2.96759E-01  2.80159E-01
   2.66633E-01  2.52648E-01  2.38427E-01  2.25814E-01  2.16364E-01  2.11332E-01  2.11057E-01  2.13324E-01  2.15505E-01  2.15308E-01
   2.11562E-01  2.04996E-01  1.98010E-01  1.93987E-01  1.93858E-01  1.95818E-01  1.96981E-01  1.95412E-01  1.91394E-01  1.87184E-01
   1.84182E-01  1.81771E-01  1.78794E-01  1.73970E-01  1.67149E-01  1.58124E-01  1.47034E-01  1.35806E-01  1.27377E-01  1.23249E-01
   1.21230E-01  1.16751E-01  1.07882E-01  9.69110E-02  8.76011E-02  8.40567E-02  9.08009E-02  1.13211E-01  1.53353E-01  2.06139E-01
   2.58474E-01  2.91733E-01  2.81939E-01  2.12497E-01  8.90102E-02 -5.78980E-02 -1.87181E-01 -2.58227E-01 -2.39200E-01 -1.21368E-01
   7.53857E-02  3.10832E-01  5.33207E-01  6.81904E-01  7.14997E-01  6.22556E-01  4.21501E-01  1.55165E-01 -1.15873E-01 -3.49576E-01
  -5.12625E-01 -5.53605E-01 -4.30788E-01 -1.76732E-01  1.13509E-01  3.44677E-01  4.66970E-01  4.84733E-01  4.58266E-01  4.34781E-01
   4.14626E-01  3.95181E-01  3.78490E-01  3.65065E-01  3.53565E-01  3.41517E-01  3.25190E-01  2.99996E-01  2.64963E-01  2.24493E-01
   1.81402E-01  1.30533E-01  7.18819E-02  2.61401E-02  1.36801E-02  2.89865E-02  6.26381E-02  1.22523E-01  2.08397E-01  2.96151E-01
   3.55514E-01  3.57359E-01  2.76951E-01  1.12768E-01 -8.20240E-02 -2.44366E-01 -3.35147E-01 -3.34340E-01 -2.55120E-01 -1.38963E-01
  -2.45293E-02  8.36052E-02  1.76606E-01  2.37884E-01  2.59202E-01  2.51996E-01  2.44509E-01  2.62377E-01  3.11707E-01  3.88207E-01
   4.85716E-01  5.77013E-01  6.14386E-01  5.65050E-01  4.40711E-01  2.92111E-01  1.68923E-01  1.03356E-01  8.48266E-02  7.79181E-02
   7.29683E-02  6.89325E-02  6.60303E-02  6.41727E-02  6.29563E-02  6.20324E-02  6.11296E-02  6.00506E-02  5.86447E-02  5.67101E-02
   5.42298E-02  5.14608E-02  4.87795E-02  4.65655E-02  4.49893E-02  4.40161E-02  4.35808E-02  4.35225E-02  4.35087E-02  4.33029E-02
   4.28253E-02  4.20417E-02  4.10015E-02  3.97881E-02  3.84549E-02  3.70692E-02  3.57250E-02  3.45001E-02  3.34055E-02  3.24623E-02
   3.16879E-02  3.10272E-02  3.04551E-02  2.99793E-02  2.96242E-02  2.94267E-02  2.94216E-02  2.96247E-02  3.00349E-02  3.06552E-02
   3.15115E-02  3.26555E-02  3.41634E-02  3.61415E-02  3.87130E-02  4.20537E-02  4.64088E-02  5.21226E-02  5.97150E-02  7.00527E-02
   8.47565E-02  1.07391E-01  1.44463E-01  1.95944E-01  2.45475E-01  2.74607E-01  2.75325E-01  2.34848E-01  1.30949E-01 -4.18100E-02
  -2.45239E-01 -4.06490E-01 -4.67892E-01 -4.21053E-01 -2.87045E-01 -1.04437E-01  9.63307E-02  2.78598E-01  3.97085E-01  4.32384E-01
   4.05315E-01  3.62627E-01  3.63855E-01  4.33468E-01  5.35602E-01  6.16398E-01  6.44495E-01  5.98806E-01  4.31307E-01  1.00875E-01
  -3.47836E-01 -7.67168E-01 -1.00317E+00 -9.96815E-01 -7.69175E-01 -3.93438E-01  2.22333E-02  3.90136E-01  6.14182E-01  6.48124E-01
   5.28765E-01  3.43767E-01  1.92783E-01  1.10173E-01  6.12648E-02  2.82527E-02  4.23376E-03 -1.41123E-02 -2.86149E-02 -4.03929E-02
  -5.01913E-02 -5.85243E-02 -6.57403E-02 -7.20707E-02 -7.76798E-02 -8.27038E-02 -8.72616E-02 -9.14473E-02 -9.53220E-02 -9.89234E-02
  -1.02284E-01 -1.05443E-01 -1.08440E-01 -1.11303E-01 -1.14045E-01 -1.16670E-01 -1.19190E-01 -1.21626E-01 -1.23994E-01 -1.26303E-01
  -1.28553E-01 -1.30743E-01 -1.32881E-01 -1.34980E-01 -1.37049E-01 -1.39086E-01 -1.41089E-01 -1.43058E-01 -1.44999E-01 -1.46923E-01
  -1.48831E-01 -1.50720E-01 -1.52586E-01 -1.54431E-01 -1.56263E-01 -1.58087E-01 -1.59901E-01 -1.61700E-01 -1.63484E-01 -1.65255E-01
  -1.67021E-01 -1.68783E-01 -1.70537E-01 -1.72280E-01 -1.74013E-01 -1.75739E-01 -1.77465E-01 -1.79187E-01 -1.80903E-01 -1.82611E-01
  -1.84311E-01 -1.86010E-01 -1.87707E-01 -1.89402E-01 -1.91089E-01 -1.92770E-01 -1.94447E-01 -1.96125E-01 -1.97803E-01 -1.99477E-01
  -2.01146E-01 -2.02811E-01 -2.04475E-01 -2.06140E-01 -2.07804E-01 -2.09464E-01 -2.11119E-01 -2.12771E-01 -2.14425E-01 -2.16079E-01
  -2.17731E-01 -2.19379E-01 -2.21023E-01 -2.22668E-01 -2.24314E-01 -2.25960E-01 -2.27602E-01 -2.29241E-01 -2.30878E-01 -2.32516E-01
  -2.34157E-01 -2.35796E-01 -2.37432E-01 -2.39066E-01 -2.40699E-01 -2.42334E-01 -2.43970E-01 -2.45602E-01 -2.47231E-01 -2.48859E-01
  -2.50489E-01 -2.52121E-01 -2.53751E-01 -2.55378E-01 -2.57002E-01 -2.58625E-01 -2.60250E-01 -2.61874E-01 -2.63497E-01 -2.65117E-01
  -2.66736E-01 -2.68356E-01 -2.69977E-01 -2.71598E-01 -2.73215E-01 -2.74830E-01 -2.76445E-01 -2.78061E-01 -2.79677E-01 -2.81291E-01
  -2.82902E-01 -2.84511E-01 -2.86121E-01 -2.87731E-01 -2.89340E-01 -2.90945E-01 -2.92548E-01 -2.94149E-01 -2.95750E-01 -2.97351E-01
  -2.98948E-01 -3.00541E-01 -3.02131E-01 -3.03719E-01 -3.05306E-01 -3.06890E-01 -3.08467E-01 -3.10039E-01
 NY background values follow
     4.917E-01    4.901E-01    4.885E-01    4.868E-01    4.852E-01    4.836E-01    4.820E-01    4.804E-01    4.788E-01    4.772E-01
     4.756E-01    4.739E-01    4.723E-01    4.707E-01    4.691E-01    4.675E-01    4.659E-01    4.643E-01    4.626E-01    4.610E-01
     4.594E-01    4.578E-01    4.562E-01    4.546E-01    4.530E-01    4.513E-01    4.497E-01    4.481E-01    4.465E-01    4.449E-01
     4.433E-01    4.417E-01    4.401E-01    4.384E-01    4.368E-01    4.352E-01    4.336E-01    4.320E-01    4.304E-01    4.288E-01
     4.271E-01    4.255E-01    4.239E-01    4.223E-01    4.207E-01    4.191E-01    4.175E-01    4.158E-01    4.142E-01    4.126E-01
     4.110E-01    4.094E-01    4.078E-01    4.062E-01    4.045E-01    4.029E-01    4.013E-01    3.997E-01    3.981E-01    3.965E-01
     3.949E-01    3.933E-01    3.916E-01    3.900E-01    3.884E-01    3.868E-01    3.852E-01    3.836E-01    3.820E-01    3.803E-01
     3.787E-01    3.771E-01    3.755E-01    3.739E-01    3.723E-01    3.707E-01    3.690E-01    3.674E-01    3.658E-01    3.642E-01
     3.626E-01    3.610E-01    3.594E-01    3.577E-01    3.561E-01    3.545E-01    3.529E-01    3.513E-01    3.497E-01    3.481E-01
     3.464E-01    3.448E-01    3.432E-01    3.416E-01    3.400E-01    3.384E-01    3.368E-01    3.351E-01    3.335E-01    3.319E-01
     3.303E-01    3.287E-01    3.271E-01    3.255E-01    3.238E-01    3.222E-01    3.206E-01    3.190E-01    3.174E-01    3.158E-01
     3.142E-01    3.126E-01    3.109E-01    3.093E-01    3.077E-01    3.061E-01    3.045E-01    3.029E-01    3.013E-01    2.996E-01
     2.980E-01    2.964E-01    2.948E-01    2.932E-01    2.916E-01    2.900E-01    2.883E-01    2.867E-01    2.851E-01    2.835E-01
     2.819E-01    2.803E-01    2.787E-01    2.770E-01    2.754E-01    2.738E-01    2.722E-01    2.706E-01    2.690E-01    2.674E-01
     2.657E-01    2.641E-01    2.625E-01    2.609E-01    2.593E-01    2.577E-01    2.561E-01    2.544E-01    2.528E-01    2.512E-01
     2.496E-01    2.480E-01    2.464E-01    2.448E-01    2.431E-01    2.415E-01    2.399E-01    2.383E-01    2.367E-01    2.351E-01
     2.335E-01    2.318E-01    2.302E-01    2.286E-01    2.270E-01    2.254E-01    2.238E-01    2.222E-01    2.205E-01    2.189E-01
     2.173E-01    2.157E-01    2.141E-01    2.125E-01    2.109E-01    2.092E-01    2.076E-01    2.060E-01    2.044E-01    2.028E-01
     2.012E-01    1.996E-01    1.979E-01    1.963E-01    1.947E-01    1.931E-01    1.915E-01    1.899E-01    1.883E-01    1.866E-01
     1.850E-01    1.834E-01    1.818E-01    1.802E-01    1.786E-01    1.770E-01    1.753E-01    1.737E-01    1.721E-01    1.705E-01
     1.689E-01    1.673E-01    1.657E-01    1.640E-01    1.624E-01    1.608E-01    1.592E-01    1.576E-01    1.560E-01    1.544E-01
     1.527E-01    1.511E-01    1.495E-01    1.479E-01    1.463E-01    1.447E-01    1.431E-01    1.414E-01    1.398E-01    1.382E-01
     1.366E-01    1.350E-01    1.334E-01    1.318E-01    1.301E-01    1.285E-01    1.269E-01    1.253E-01    1.237E-01    1.221E-01
     1.204E-01    1.188E-01    1.172E-01    1.156E-01    1.140E-01    1.124E-01    1.108E-01    1.091E-01    1.075E-01    1.059E-01
     1.043E-01    1.027E-01    1.011E-01    9.946E-02    9.785E-02    9.623E-02    9.462E-02    9.300E-02    9.139E-02    8.977E-02
     8.816E-02    8.654E-02    8.493E-02    8.331E-02    8.170E-02    8.009E-02    7.847E-02    7.686E-02    7.524E-02    7.363E-02
     7.201E-02    7.040E-02    6.878E-02    6.717E-02    6.555E-02    6.394E-02    6.232E-02    6.071E-02    5.910E-02    5.748E-02
     5.587E-02    5.425E-02    5.264E-02    5.102E-02    4.941E-02    4.779E-02    4.618E-02    4.456E-02    4.295E-02    4.133E-02
     3.972E-02    3.810E-02    3.649E-02    3.487E-02    3.326E-02    3.165E-02    3.003E-02    2.842E-02    2.680E-02    2.519E-02
     2.357E-02    2.196E-02    2.034E-02    1.873E-02    1.711E-02    1.550E-02    1.388E-02    1.227E-02    1.065E-02    9.039E-03
     7.424E-03    5.809E-03    4.194E-03    2.579E-03    9.646E-04   -6.503E-04   -2.265E-03   -3.880E-03   -5.495E-03   -7.110E-03
    -8.724E-03   -1.034E-02   -1.195E-02   -1.357E-02   -1.518E-02   -1.680E-02   -1.841E-02   -2.003E-02   -2.164E-02   -2.326E-02
    -2.487E-02   -2.649E-02   -2.810E-02   -2.972E-02   -3.133E-02   -3.295E-02   -3.456E-02   -3.618E-02   -3.779E-02   -3.941E-02
    -4.102E-02   -4.264E-02   -4.425E-02   -4.587E-02   -4.748E-02   -4.910E-02   -5.071E-02   -5.233E-02   -5.394E-02   -5.556E-02
    -5.717E-02   -5.879E-02   -6.040E-02   -6.202E-02   -6.363E-02   -6.525E-02   -6.686E-02   -6.848E-02   -7.009E-02   -7.171E-02
    -7.332E-02   -7.494E-02   -7.655E-02   -7.817E-02   -7.978E-02   -8.140E-02   -8.301E-02   -8.463E-02   -8.624E-02   -8.786E-02
    -8.947E-02   -9.109E-02   -9.270E-02   -9.432E-02   -9.593E-02   -9.755E-02   -9.916E-02   -1.008E-01   -1.024E-01   -1.040E-01
    -1.056E-01   -1.072E-01   -1.089E-01   -1.105E-01   -1.121E-01   -1.137E-01   -1.153E-01   -1.169E-01   -1.185E-01   -1.202E-01
    -1.218E-01   -1.234E-01   -1.250E-01   -1.266E-01   -1.282E-01   -1.298E-01   -1.315E-01   -1.331E-01   -1.347E-01   -1.363E-01
    -1.379E-01   -1.395E-01   -1.412E-01   -1.428E-01   -1.444E-01   -1.460E-01   -1.476E-01   -1.492E-01   -1.508E-01   -1.525E-01
    -1.541E-01   -1.557E-01   -1.573E-01   -1.589E-01   -1.605E-01   -1.621E-01   -1.638E-01   -1.654E-01   -1.670E-01   -1.686E-01
    -1.702E-01   -1.718E-01   -1.735E-01   -1.751E-01   -1.767E-01   -1.783E-01   -1.799E-01   -1.815E-01   -1.831E-01   -1.848E-01
    -1.864E-01   -1.880E-01   -1.896E-01   -1.912E-01   -1.928E-01   -1.945E-01   -1.961E-01   -1.977E-01   -1.993E-01   -2.009E-01
    -2.025E-01   -2.041E-01   -2.058E-01   -2.074E-01   -2.090E-01   -2.106E-01   -2.122E-01   -2.138E-01   -2.154E-01   -2.171E-01
    -2.187E-01   -2.203E-01   -2.219E-01   -2.235E-01   -2.251E-01   -2.268E-01   -2.284E-01   -2.300E-01   -2.316E-01   -2.332E-01
    -2.348E-01   -2.364E-01   -2.381E-01   -2.397E-01   -2.413E-01   -2.429E-01   -2.445E-01   -2.461E-01   -2.478E-01   -2.494E-01
    -2.510E-01   -2.526E-01   -2.542E-01   -2.558E-01   -2.574E-01   -2.591E-01   -2.607E-01   -2.623E-01   -2.639E-01   -2.655E-01
    -2.671E-01   -2.688E-01   -2.704E-01   -2.720E-01   -2.736E-01   -2.752E-01   -2.768E-01   -2.784E-01   -2.801E-01   -2.817E-01
    -2.833E-01   -2.849E-01   -2.865E-01   -2.881E-01   -2.898E-01   -2.914E-01   -2.930E-01   -2.946E-01   -2.962E-01   -2.978E-01
    -2.994E-01   -3.011E-01   -3.027E-01   -3.043E-01   -3.059E-01   -3.075E-01   -3.091E-01   -3.108E-01
 Ala      Conc. = 2.81E+01
