 LCModel (Version 6.3-1L) Copyright: S.W. Provencher.          Ref.: Magn. Reson. Med. 30:672-679 (1993).                
 Slice#2 Row#8 Col#12  PD_24_press_1_raw_act
 36 lines in following concentration table = NCONC+1
    Conc.  %SD /Cr+PCr  Metabolite                                         
  431.141  32%   1.290 Ala                                                 
  185.586  63%   0.556 Asp                                                 
  161.594 107%   0.484 Cr                                                  
  172.494 101%   0.516 PCr                                                 
   44.979 166%   0.135 GABA                                                
   80.411  89%   0.241 Glc                                                 
  616.797  44%   1.846 Gln                                                 
 1.38E+03  23%   4.142 Glu                                                 
    0.000 999%   0.000 GPC                                                 
   95.612  17%   0.286 PCh                                                 
    0.000 999%   0.000 GSH                                                 
  376.523  57%   1.127 Ins                                                 
    0.000 999%   0.000 Lac                                                 
 1.65E+03   5%   4.938 NAA                                                 
    0.000 999%   0.000 NAAG                                                
   56.168  31%   0.168 Scyllo                                              
  244.969  46%   0.733 Tau                                                 
   86.719  77%   0.260 -CrCH2                                              
   95.612  17%   0.286 GPC+PCh                                             
 1.65E+03   5%   4.938 NAA+NAAG                                            
  334.088  14%   1.000 Cr+PCr                                              
 2.00E+03  25%   5.988 Glu+Gln                                             
 1.70E+04  10%  50.887 Lip13a                                              
    0.000 999%   0.000 Lip13b                                              
 2.45E+03  21%   7.348 Lip09                                               
    0.000 999%   0.000 MM09                                                
 1.34E+03  37%   4.009 Lip20                                               
  832.178  60%   2.491 MM20                                                
    0.000 999%   0.000 MM12                                                
 3.20E+03  25%   9.593 MM14                                                
 4.22E+03  18%  12.626+MM17                                                
 1.70E+04  10%  50.887 Lip13a+Lip13b                                       
 2.02E+04   8%  60.480 MM14+Lip13a+Lip13b+MM12                             
 2.45E+03  21%   7.348 MM09+Lip09                                          
 2.17E+03  20%   6.500 MM20+Lip20                                          
   6 lines in following misc. output table
  FWHM = 0.069 ppm    S/N =  11                                            
  Data shift =-0.023 ppm                                                   
  Ph:-157 deg     -64.6 deg/ppm                                            
  alphaB,S = 6.8E-01,   2.0E+02                                            
   14 spline knots.   Ns =11(1)                                            
  (14) 3 infls.   (15) 1 extrs.                                            
  498 points on ppm-axis = NY
      4.000000     3.992357     3.984714     3.977070     3.969427     3.961784     3.954141     3.946497     3.938854     3.931211
      3.923568     3.915925     3.908281     3.900638     3.892995     3.885352     3.877708     3.870065     3.862422     3.854779
      3.847136     3.839492     3.831849     3.824206     3.816563     3.808919     3.801276     3.793633     3.785990     3.778347
      3.770703     3.763060     3.755417     3.747774     3.740130     3.732487     3.724844     3.717201     3.709558     3.701914
      3.694271     3.686628     3.678985     3.671341     3.663698     3.656055     3.648412     3.640769     3.633125     3.625482
      3.617839     3.610196     3.602552     3.594909     3.587266     3.579623     3.571980     3.564336     3.556693     3.549050
      3.541407     3.533763     3.526120     3.518477     3.510834     3.503191     3.495547     3.487904     3.480261     3.472618
      3.464974     3.457331     3.449688     3.442045     3.434402     3.426758     3.419115     3.411472     3.403829     3.396185
      3.388542     3.380899     3.373256     3.365613     3.357969     3.350326     3.342683     3.335040     3.327396     3.319753
      3.312110     3.304467     3.296824     3.289180     3.281537     3.273894     3.266251     3.258607     3.250964     3.243321
      3.235678     3.228034     3.220391     3.212748     3.205105     3.197462     3.189818     3.182175     3.174532     3.166889
      3.159245     3.151602     3.143959     3.136316     3.128673     3.121029     3.113386     3.105743     3.098100     3.090456
      3.082813     3.075170     3.067527     3.059884     3.052240     3.044597     3.036954     3.029311     3.021667     3.014024
      3.006381     2.998738     2.991095     2.983451     2.975808     2.968165     2.960522     2.952878     2.945235     2.937592
      2.929949     2.922306     2.914662     2.907019     2.899376     2.891733     2.884089     2.876446     2.868803     2.861160
      2.853517     2.845873     2.838230     2.830587     2.822944     2.815300     2.807657     2.800014     2.792371     2.784728
      2.777084     2.769441     2.761798     2.754155     2.746511     2.738868     2.731225     2.723582     2.715939     2.708295
      2.700652     2.693009     2.685366     2.677722     2.670079     2.662436     2.654793     2.647150     2.639506     2.631863
      2.624220     2.616577     2.608933     2.601290     2.593647     2.586004     2.578361     2.570717     2.563074     2.555431
      2.547788     2.540144     2.532501     2.524858     2.517215     2.509572     2.501928     2.494285     2.486642     2.478999
      2.471355     2.463712     2.456069     2.448426     2.440783     2.433139     2.425496     2.417853     2.410210     2.402566
      2.394923     2.387280     2.379637     2.371994     2.364350     2.356707     2.349064     2.341421     2.333777     2.326134
      2.318491     2.310848     2.303205     2.295561     2.287918     2.280275     2.272632     2.264988     2.257345     2.249702
      2.242059     2.234416     2.226772     2.219129     2.211486     2.203843     2.196199     2.188556     2.180913     2.173270
      2.165627     2.157983     2.150340     2.142697     2.135054     2.127410     2.119767     2.112124     2.104481     2.096838
      2.089194     2.081551     2.073908     2.066265     2.058621     2.050978     2.043335     2.035692     2.028049     2.020405
      2.012762     2.005119     1.997476     1.989833     1.982190     1.974546     1.966903     1.959260     1.951617     1.943974
      1.936331     1.928688     1.921045     1.913402     1.905759     1.898115     1.890472     1.882829     1.875186     1.867543
      1.859900     1.852257     1.844614     1.836971     1.829327     1.821684     1.814041     1.806398     1.798755     1.791112
      1.783469     1.775826     1.768183     1.760540     1.752896     1.745253     1.737610     1.729967     1.722324     1.714681
      1.707038     1.699395     1.691752     1.684108     1.676465     1.668822     1.661179     1.653536     1.645893     1.638250
      1.630607     1.622964     1.615321     1.607677     1.600034     1.592391     1.584748     1.577105     1.569462     1.561819
      1.554176     1.546533     1.538890     1.531246     1.523603     1.515960     1.508317     1.500674     1.493031     1.485388
      1.477745     1.470102     1.462458     1.454815     1.447172     1.439529     1.431886     1.424243     1.416600     1.408957
      1.401314     1.393671     1.386027     1.378384     1.370741     1.363098     1.355455     1.347812     1.340169     1.332526
      1.324883     1.317240     1.309596     1.301953     1.294310     1.286667     1.279024     1.271381     1.263738     1.256095
      1.248452     1.240808     1.233165     1.225522     1.217879     1.210236     1.202593     1.194950     1.187307     1.179664
      1.172021     1.164377     1.156734     1.149091     1.141448     1.133805     1.126162     1.118519     1.110876     1.103233
      1.095590     1.087946     1.080303     1.072660     1.065017     1.057374     1.049731     1.042088     1.034445     1.026802
      1.019158     1.011515     1.003872     0.996229     0.988586     0.980943     0.973300     0.965657     0.958014     0.950371
      0.942727     0.935084     0.927441     0.919798     0.912155     0.904512     0.896869     0.889226     0.881583     0.873940
      0.866296     0.858653     0.851010     0.843367     0.835724     0.828081     0.820438     0.812795     0.805152     0.797508
      0.789865     0.782222     0.774579     0.766936     0.759293     0.751650     0.744007     0.736364     0.728721     0.721077
      0.713434     0.705791     0.698148     0.690505     0.682862     0.675219     0.667576     0.659933     0.652290     0.644646
      0.637003     0.629360     0.621717     0.614074     0.606431     0.598788     0.591145     0.583502     0.575858     0.568215
      0.560572     0.552929     0.545286     0.537643     0.530000     0.522357     0.514714     0.507071     0.499427     0.491784
      0.484141     0.476498     0.468855     0.461212     0.453569     0.445925     0.438282     0.430639     0.422996     0.415353
      0.407710     0.400067     0.392424     0.384780     0.377137     0.369494     0.361851     0.354208     0.346565     0.338922
      0.331278     0.323635     0.315992     0.308349     0.300706     0.293063     0.285420     0.277777     0.270133     0.262490
      0.254847     0.247204     0.239561     0.231918     0.224275     0.216631     0.208988     0.201345
 NY phased data points follow
   7.14480E+00  1.02796E+01  8.87554E+00  1.03873E+01  8.30229E+00  9.86889E+00  6.00304E+00  8.73317E+00  9.03777E+00  1.31056E+01
   8.95956E+00  9.07619E+00  1.20693E+01  1.03434E+01  9.64902E+00  1.11903E+01  8.84467E+00  8.60111E+00  8.25534E+00  8.08373E+00
   9.17776E+00  8.83331E+00  9.03335E+00  7.83815E+00  7.44583E+00  8.07088E+00  9.50137E+00  8.93423E+00  7.44027E+00  8.56054E+00
   7.15419E+00  1.17815E+01  9.53466E+00  1.28271E+01  9.84923E+00  8.31032E+00  5.78566E+00  1.00221E+01  1.06961E+01  9.75693E+00
   1.13843E+01  1.25886E+01  8.13175E+00  1.19905E+01  9.81281E+00  7.48717E+00  1.24382E+01  8.98649E+00  1.17510E+01  1.16956E+01
   1.11979E+01  1.03544E+01  1.07213E+01  1.24447E+01  1.16824E+01  1.20477E+01  1.02234E+01  9.35920E+00  7.40846E+00  1.01154E+01
   9.04581E+00  1.10448E+01  9.05721E+00  1.26358E+01  1.04198E+01  1.05892E+01  1.42571E+01  9.44002E+00  9.01179E+00  1.11589E+01
   1.12954E+01  1.01277E+01  1.00529E+01  1.30121E+01  1.08539E+01  1.27499E+01  1.52059E+01  1.10625E+01  1.42088E+01  9.92887E+00
   1.47084E+01  1.29188E+01  1.12418E+01  1.63170E+01  1.28253E+01  1.10972E+01  1.07507E+01  1.37557E+01  1.32275E+01  1.31341E+01
   1.32132E+01  1.45914E+01  1.28771E+01  1.22838E+01  1.25626E+01  1.32828E+01  1.72383E+01  1.44036E+01  1.14882E+01  1.55624E+01
   1.63279E+01  1.60059E+01  1.31991E+01  1.86093E+01  1.75937E+01  1.95519E+01  1.70494E+01  1.59147E+01  1.28866E+01  1.34064E+01
   1.77947E+01  1.43561E+01  1.56195E+01  9.70922E+00  1.11807E+01  1.38840E+01  9.69907E+00  1.38343E+01  1.30298E+01  1.38975E+01
   1.33954E+01  1.60587E+01  1.65044E+01  1.84942E+01  1.83876E+01  2.29045E+01  2.01273E+01  1.76772E+01  1.91614E+01  2.00072E+01
   1.53686E+01  1.76236E+01  1.52033E+01  1.30675E+01  1.25928E+01  1.48117E+01  1.27327E+01  1.27942E+01  1.60057E+01  1.10888E+01
   1.42608E+01  1.40423E+01  1.17736E+01  1.53344E+01  1.39058E+01  1.38442E+01  1.35978E+01  1.46683E+01  1.04996E+01  1.29852E+01
   1.54431E+01  1.37590E+01  1.30499E+01  1.29055E+01  1.52510E+01  1.33625E+01  1.52395E+01  1.52801E+01  1.24106E+01  1.33391E+01
   1.09896E+01  1.28240E+01  1.31695E+01  1.17234E+01  1.58946E+01  1.12993E+01  1.14078E+01  1.30798E+01  1.23289E+01  8.94421E+00
   1.37419E+01  1.02771E+01  1.48392E+01  1.25890E+01  1.11127E+01  1.15160E+01  1.20377E+01  1.29917E+01  9.44203E+00  9.94778E+00
   1.19309E+01  1.28586E+01  1.60408E+01  1.22784E+01  1.28075E+01  1.49017E+01  1.04530E+01  1.40793E+01  1.32918E+01  1.44007E+01
   1.54005E+01  1.56341E+01  1.32048E+01  1.38352E+01  1.17645E+01  1.90204E+01  1.72204E+01  1.65609E+01  1.58181E+01  1.74994E+01
   1.64650E+01  1.90440E+01  1.92160E+01  2.20999E+01  1.91476E+01  2.04418E+01  1.89226E+01  1.98949E+01  1.96490E+01  2.15768E+01
   2.05122E+01  2.25606E+01  2.06440E+01  2.56505E+01  2.65379E+01  2.77417E+01  2.28508E+01  2.42185E+01  2.33279E+01  2.16378E+01
   2.03816E+01  2.14552E+01  2.13907E+01  2.14510E+01  2.10894E+01  2.65023E+01  2.62338E+01  2.43203E+01  2.56332E+01  2.68296E+01
   2.57386E+01  2.69823E+01  2.89947E+01  2.92772E+01  2.92361E+01  2.64145E+01  2.87457E+01  2.38961E+01  2.95428E+01  2.79651E+01
   2.90781E+01  2.71745E+01  3.05095E+01  2.85403E+01  2.93438E+01  3.07165E+01  3.15159E+01  3.15206E+01  3.56206E+01  3.36130E+01
   3.84425E+01  3.94289E+01  4.06593E+01  4.48186E+01  4.90579E+01  5.48121E+01  6.20091E+01  6.80484E+01  7.25518E+01  7.81530E+01
   7.14574E+01  6.98846E+01  6.52785E+01  6.16676E+01  5.42267E+01  5.18563E+01  4.78096E+01  4.19396E+01  4.01489E+01  3.91487E+01
   3.84112E+01  3.66258E+01  3.84082E+01  3.48746E+01  3.64998E+01  3.62634E+01  3.45240E+01  3.46211E+01  3.53268E+01  3.28779E+01
   3.49233E+01  3.60014E+01  3.35574E+01  3.28249E+01  3.70679E+01  3.61272E+01  3.56918E+01  3.99479E+01  4.24422E+01  4.06644E+01
   4.28065E+01  3.97529E+01  4.06375E+01  4.15363E+01  4.17483E+01  4.34498E+01  4.57738E+01  4.56493E+01  4.53420E+01  4.85674E+01
   4.62869E+01  5.51378E+01  5.13014E+01  5.49782E+01  5.56415E+01  5.53107E+01  5.49285E+01  5.58118E+01  6.05612E+01  5.97455E+01
   5.96100E+01  6.22542E+01  6.42361E+01  6.40547E+01  6.59607E+01  6.65992E+01  6.38791E+01  6.57138E+01  6.94019E+01  6.89360E+01
   6.92422E+01  6.93707E+01  6.83377E+01  6.43360E+01  6.75024E+01  6.36351E+01  6.48517E+01  6.64060E+01  6.14234E+01  6.32159E+01
   6.64581E+01  6.45686E+01  6.37503E+01  6.48648E+01  6.45976E+01  6.57249E+01  6.44869E+01  6.58987E+01  6.72519E+01  6.41634E+01
   6.82285E+01  6.56707E+01  7.02493E+01  7.11406E+01  6.82012E+01  6.91927E+01  6.81775E+01  6.81516E+01  6.77531E+01  6.92943E+01
   7.16613E+01  6.96313E+01  6.69674E+01  6.63577E+01  6.65974E+01  6.49056E+01  6.31335E+01  6.24541E+01  6.42814E+01  6.67399E+01
   6.53629E+01  6.55460E+01  6.41070E+01  6.44932E+01  6.60789E+01  6.58361E+01  6.51843E+01  6.61004E+01  6.90232E+01  6.65215E+01
   6.57648E+01  6.18373E+01  6.25601E+01  6.14511E+01  5.90636E+01  6.10697E+01  5.90992E+01  5.84140E+01  5.94831E+01  5.75225E+01
   5.86911E+01  5.82807E+01  5.53629E+01  5.21065E+01  5.37508E+01  4.93144E+01  4.99464E+01  4.76206E+01  4.73170E+01  5.12606E+01
   4.87320E+01  4.88778E+01  4.61231E+01  4.47760E+01  4.68389E+01  4.40055E+01  4.83446E+01  4.48663E+01  4.36886E+01  4.50469E+01
   4.49566E+01  4.33491E+01  4.49059E+01  4.37553E+01  4.34125E+01  4.02478E+01  4.24943E+01  4.28994E+01  4.12030E+01  4.11850E+01
   4.17534E+01  4.01181E+01  3.91145E+01  4.20123E+01  3.97096E+01  4.01675E+01  3.91592E+01  3.71882E+01  3.61124E+01  3.47465E+01
   3.57008E+01  3.59404E+01  3.64033E+01  3.48866E+01  3.45173E+01  3.23691E+01  3.04608E+01  3.34074E+01  3.20208E+01  3.14818E+01
   3.20384E+01  2.91512E+01  2.67892E+01  3.07716E+01  2.99730E+01  3.16351E+01  2.52578E+01  2.51157E+01  2.94071E+01  2.64589E+01
   2.50264E+01  2.55186E+01  2.56326E+01  2.72618E+01  2.39136E+01  2.42951E+01  2.51381E+01  2.36919E+01  2.49854E+01  2.32967E+01
   2.23539E+01  2.33907E+01  2.28652E+01  2.23975E+01  2.32773E+01  2.47986E+01  2.20162E+01  2.30906E+01  2.34781E+01  2.03949E+01
   2.34841E+01  1.89290E+01  2.09807E+01  2.17070E+01  2.41118E+01  2.00943E+01  1.91043E+01  1.85304E+01  1.89640E+01  1.92169E+01
   1.99592E+01  1.97016E+01  1.79902E+01  1.63579E+01  1.78602E+01  2.08655E+01  1.82950E+01  1.92131E+01  1.94279E+01  2.05373E+01
   1.79971E+01  2.00340E+01  1.91329E+01  2.01146E+01  1.69285E+01  1.76805E+01  1.69515E+01  1.71841E+01  1.73817E+01  1.59979E+01
   1.70818E+01  1.55508E+01  1.73306E+01  1.51559E+01  1.59949E+01  1.90089E+01  1.79934E+01  1.74642E+01
 NY points of the fit to the data follow
   7.52277E+00  7.66160E+00  7.87079E+00  8.14752E+00  8.50041E+00  8.93752E+00  9.44190E+00  9.93956E+00  1.03463E+01  1.05979E+01
   1.06532E+01  1.05210E+01  1.02614E+01  9.95219E+00  9.66243E+00  9.42016E+00  9.25040E+00  9.14985E+00  9.11387E+00  9.14317E+00
   9.20513E+00  9.25582E+00  9.23968E+00  9.09450E+00  8.84123E+00  8.53625E+00  8.29212E+00  8.26089E+00  8.53533E+00  9.09885E+00
   9.80534E+00  1.04263E+01  1.07702E+01  1.07638E+01  1.04697E+01  1.00378E+01  9.63901E+00  9.40730E+00  9.38172E+00  9.50257E+00
   9.71205E+00  9.96183E+00  1.02350E+01  1.05146E+01  1.07653E+01  1.09592E+01  1.10583E+01  1.10384E+01  1.09201E+01  1.07408E+01
   1.05430E+01  1.03587E+01  1.02060E+01  1.01051E+01  1.00686E+01  1.00974E+01  1.01842E+01  1.03013E+01  1.04143E+01  1.04888E+01
   1.05239E+01  1.05526E+01  1.05879E+01  1.06247E+01  1.06754E+01  1.07547E+01  1.08500E+01  1.09490E+01  1.10548E+01  1.11753E+01
   1.13128E+01  1.14579E+01  1.15920E+01  1.16882E+01  1.17244E+01  1.17279E+01  1.17265E+01  1.17241E+01  1.17467E+01  1.18396E+01
   1.20324E+01  1.23094E+01  1.26227E+01  1.28958E+01  1.30515E+01  1.30485E+01  1.28936E+01  1.26417E+01  1.23694E+01  1.21085E+01
   1.18653E+01  1.16647E+01  1.15687E+01  1.16835E+01  1.19752E+01  1.23780E+01  1.28767E+01  1.34936E+01  1.42538E+01  1.51739E+01
   1.61730E+01  1.70589E+01  1.76323E+01  1.77747E+01  1.75176E+01  1.69892E+01  1.63113E+01  1.55800E+01  1.48729E+01  1.42217E+01
   1.36314E+01  1.31267E+01  1.27329E+01  1.24242E+01  1.21698E+01  1.20098E+01  1.20933E+01  1.24382E+01  1.29144E+01  1.35060E+01
   1.42777E+01  1.52812E+01  1.64888E+01  1.77782E+01  1.89331E+01  1.97079E+01  1.99443E+01  1.96725E+01  1.90507E+01  1.82375E+01
   1.73647E+01  1.65345E+01  1.57876E+01  1.51312E+01  1.45869E+01  1.41728E+01  1.38606E+01  1.35965E+01  1.33469E+01  1.31571E+01
   1.31187E+01  1.31716E+01  1.32561E+01  1.33523E+01  1.34470E+01  1.35315E+01  1.36050E+01  1.36723E+01  1.37385E+01  1.38000E+01
   1.38363E+01  1.38490E+01  1.38528E+01  1.38527E+01  1.38488E+01  1.38096E+01  1.37166E+01  1.35904E+01  1.34728E+01  1.34112E+01
   1.34293E+01  1.35093E+01  1.36028E+01  1.36591E+01  1.36450E+01  1.35478E+01  1.33899E+01  1.32208E+01  1.30549E+01  1.28810E+01
   1.26797E+01  1.24679E+01  1.22939E+01  1.21878E+01  1.21484E+01  1.21645E+01  1.22043E+01  1.22609E+01  1.23627E+01  1.25099E+01
   1.26992E+01  1.29265E+01  1.31811E+01  1.34624E+01  1.37869E+01  1.41694E+01  1.46196E+01  1.50946E+01  1.55292E+01  1.58826E+01
   1.61735E+01  1.64533E+01  1.67523E+01  1.70928E+01  1.74589E+01  1.78435E+01  1.82586E+01  1.87151E+01  1.92140E+01  1.96727E+01
   2.00399E+01  2.02810E+01  2.03028E+01  2.00473E+01  1.95517E+01  1.89564E+01  1.83995E+01  1.79791E+01  1.78540E+01  1.81617E+01
   1.89237E+01  1.99889E+01  2.11379E+01  2.21701E+01  2.28870E+01  2.30949E+01  2.27494E+01  2.19914E+01  2.10513E+01  2.02076E+01
   1.97258E+01  1.97757E+01  2.03690E+01  2.13330E+01  2.24828E+01  2.36255E+01  2.46107E+01  2.53814E+01  2.59631E+01  2.64484E+01
   2.68719E+01  2.72076E+01  2.74828E+01  2.77848E+01  2.81729E+01  2.85988E+01  2.89580E+01  2.92202E+01  2.93954E+01  2.94664E+01
   2.94661E+01  2.94834E+01  2.96092E+01  2.98744E+01  3.02476E+01  3.06944E+01  3.12085E+01  3.17902E+01  3.25386E+01  3.40000E+01
   3.64277E+01  3.92753E+01  4.23641E+01  4.59767E+01  5.04471E+01  5.58364E+01  6.17990E+01  6.75490E+01  7.19242E+01  7.38513E+01
   7.30166E+01  7.00282E+01  6.57640E+01  6.09415E+01  5.61620E+01  5.17970E+01  4.79071E+01  4.45191E+01  4.17586E+01  3.96306E+01
   3.79407E+01  3.64466E+01  3.51034E+01  3.43279E+01  3.41922E+01  3.42231E+01  3.42891E+01  3.43782E+01  3.44921E+01  3.46272E+01
   3.47990E+01  3.50149E+01  3.52772E+01  3.55860E+01  3.59407E+01  3.63370E+01  3.67775E+01  3.72707E+01  3.78213E+01  3.84313E+01
   3.91037E+01  3.98416E+01  4.06480E+01  4.15246E+01  4.24702E+01  4.34851E+01  4.45680E+01  4.57149E+01  4.69204E+01  4.81772E+01
   4.94755E+01  5.08033E+01  5.21467E+01  5.34908E+01  5.48201E+01  5.61182E+01  5.73699E+01  5.85607E+01  5.96779E+01  6.07114E+01
   6.16541E+01  6.25025E+01  6.32579E+01  6.39265E+01  6.45222E+01  6.50741E+01  6.56243E+01  6.61260E+01  6.65207E+01  6.68362E+01
   6.71096E+01  6.73313E+01  6.74356E+01  6.73234E+01  6.69619E+01  6.63698E+01  6.55598E+01  6.46495E+01  6.38344E+01  6.32845E+01
   6.31138E+01  6.33754E+01  6.40221E+01  6.49025E+01  6.58185E+01  6.66005E+01  6.71611E+01  6.74871E+01  6.76139E+01  6.76300E+01
   6.76343E+01  6.76081E+01  6.75238E+01  6.74251E+01  6.73487E+01  6.72994E+01  6.72546E+01  6.71915E+01  6.71590E+01  6.72013E+01
   6.72861E+01  6.73909E+01  6.75024E+01  6.76100E+01  6.77045E+01  6.77774E+01  6.78207E+01  6.78274E+01  6.77910E+01  6.77059E+01
   6.75676E+01  6.73723E+01  6.71177E+01  6.68022E+01  6.64256E+01  6.59886E+01  6.54929E+01  6.49412E+01  6.43372E+01  6.36850E+01
   6.29897E+01  6.22566E+01  6.14915E+01  6.07005E+01  5.98898E+01  5.90656E+01  5.82340E+01  5.74010E+01  5.65723E+01  5.57532E+01
   5.49487E+01  5.41631E+01  5.34006E+01  5.26646E+01  5.19579E+01  5.12831E+01  5.06417E+01  5.00352E+01  4.94640E+01  4.89282E+01
   4.84273E+01  4.79602E+01  4.75253E+01  4.71205E+01  4.67431E+01  4.63900E+01  4.60578E+01  4.57426E+01  4.54404E+01  4.51469E+01
   4.48576E+01  4.45683E+01  4.42745E+01  4.39722E+01  4.36576E+01  4.33272E+01  4.29780E+01  4.26077E+01  4.22144E+01  4.17971E+01
   4.13551E+01  4.08887E+01  4.03987E+01  3.98864E+01  3.93538E+01  3.88033E+01  3.82376E+01  3.76596E+01  3.70725E+01  3.64797E+01
   3.58842E+01  3.52893E+01  3.46979E+01  3.41126E+01  3.35361E+01  3.29704E+01  3.24174E+01  3.18786E+01  3.13551E+01  3.08480E+01
   3.03577E+01  2.98847E+01  2.94290E+01  2.89905E+01  2.85690E+01  2.81642E+01  2.77754E+01  2.74021E+01  2.70437E+01  2.66995E+01
   2.63687E+01  2.60507E+01  2.57447E+01  2.54501E+01  2.51661E+01  2.48921E+01  2.46274E+01  2.43716E+01  2.41240E+01  2.38841E+01
   2.36514E+01  2.34254E+01  2.32058E+01  2.29921E+01  2.27840E+01  2.25811E+01  2.23830E+01  2.21895E+01  2.20003E+01  2.18152E+01
   2.16339E+01  2.14561E+01  2.12818E+01  2.11106E+01  2.09424E+01  2.07771E+01  2.06144E+01  2.04544E+01  2.02967E+01  2.01413E+01
   1.99882E+01  1.98371E+01  1.96880E+01  1.95407E+01  1.93953E+01  1.92517E+01  1.91097E+01  1.89692E+01  1.88303E+01  1.86929E+01
   1.85568E+01  1.84222E+01  1.82888E+01  1.81567E+01  1.80258E+01  1.78961E+01  1.77676E+01  1.76402E+01  1.75139E+01  1.73887E+01
   1.72645E+01  1.71414E+01  1.70193E+01  1.68982E+01  1.67780E+01  1.66589E+01  1.65408E+01  1.64237E+01
 NY background values follow
     6.644E+00    6.684E+00    6.725E+00    6.765E+00    6.805E+00    6.846E+00    6.886E+00    6.927E+00    6.968E+00    7.009E+00
     7.050E+00    7.091E+00    7.133E+00    7.174E+00    7.216E+00    7.257E+00    7.299E+00    7.340E+00    7.382E+00    7.424E+00
     7.466E+00    7.508E+00    7.550E+00    7.591E+00    7.633E+00    7.675E+00    7.718E+00    7.760E+00    7.802E+00    7.844E+00
     7.886E+00    7.928E+00    7.970E+00    8.012E+00    8.054E+00    8.096E+00    8.138E+00    8.179E+00    8.221E+00    8.263E+00
     8.305E+00    8.346E+00    8.388E+00    8.429E+00    8.471E+00    8.512E+00    8.553E+00    8.595E+00    8.636E+00    8.677E+00
     8.717E+00    8.758E+00    8.798E+00    8.838E+00    8.879E+00    8.918E+00    8.958E+00    8.997E+00    9.036E+00    9.075E+00
     9.114E+00    9.152E+00    9.190E+00    9.227E+00    9.264E+00    9.301E+00    9.338E+00    9.374E+00    9.410E+00    9.445E+00
     9.480E+00    9.514E+00    9.548E+00    9.582E+00    9.615E+00    9.647E+00    9.679E+00    9.711E+00    9.742E+00    9.772E+00
     9.802E+00    9.831E+00    9.860E+00    9.888E+00    9.915E+00    9.942E+00    9.968E+00    9.993E+00    1.002E+01    1.004E+01
     1.007E+01    1.009E+01    1.011E+01    1.013E+01    1.015E+01    1.017E+01    1.019E+01    1.021E+01    1.023E+01    1.025E+01
     1.026E+01    1.028E+01    1.030E+01    1.031E+01    1.033E+01    1.035E+01    1.036E+01    1.038E+01    1.039E+01    1.041E+01
     1.042E+01    1.044E+01    1.045E+01    1.047E+01    1.048E+01    1.050E+01    1.051E+01    1.053E+01    1.054E+01    1.056E+01
     1.058E+01    1.059E+01    1.061E+01    1.063E+01    1.065E+01    1.066E+01    1.068E+01    1.070E+01    1.072E+01    1.074E+01
     1.076E+01    1.078E+01    1.081E+01    1.083E+01    1.085E+01    1.088E+01    1.090E+01    1.093E+01    1.096E+01    1.099E+01
     1.101E+01    1.104E+01    1.108E+01    1.111E+01    1.114E+01    1.118E+01    1.121E+01    1.125E+01    1.129E+01    1.132E+01
     1.136E+01    1.141E+01    1.145E+01    1.149E+01    1.154E+01    1.159E+01    1.163E+01    1.168E+01    1.173E+01    1.179E+01
     1.184E+01    1.190E+01    1.195E+01    1.201E+01    1.207E+01    1.214E+01    1.220E+01    1.227E+01    1.233E+01    1.240E+01
     1.247E+01    1.255E+01    1.262E+01    1.270E+01    1.278E+01    1.286E+01    1.294E+01    1.302E+01    1.311E+01    1.320E+01
     1.329E+01    1.338E+01    1.348E+01    1.357E+01    1.367E+01    1.377E+01    1.388E+01    1.398E+01    1.409E+01    1.419E+01
     1.430E+01    1.442E+01    1.453E+01    1.464E+01    1.476E+01    1.488E+01    1.500E+01    1.512E+01    1.524E+01    1.536E+01
     1.548E+01    1.561E+01    1.573E+01    1.586E+01    1.599E+01    1.612E+01    1.624E+01    1.637E+01    1.651E+01    1.664E+01
     1.677E+01    1.690E+01    1.703E+01    1.717E+01    1.730E+01    1.743E+01    1.757E+01    1.770E+01    1.784E+01    1.797E+01
     1.811E+01    1.824E+01    1.838E+01    1.851E+01    1.864E+01    1.878E+01    1.891E+01    1.904E+01    1.918E+01    1.931E+01
     1.944E+01    1.957E+01    1.970E+01    1.983E+01    1.996E+01    2.009E+01    2.022E+01    2.035E+01    2.048E+01    2.061E+01
     2.073E+01    2.086E+01    2.098E+01    2.111E+01    2.123E+01    2.136E+01    2.148E+01    2.160E+01    2.172E+01    2.184E+01
     2.196E+01    2.208E+01    2.220E+01    2.231E+01    2.243E+01    2.254E+01    2.266E+01    2.277E+01    2.288E+01    2.299E+01
     2.310E+01    2.321E+01    2.332E+01    2.342E+01    2.353E+01    2.363E+01    2.374E+01    2.384E+01    2.394E+01    2.404E+01
     2.414E+01    2.423E+01    2.433E+01    2.442E+01    2.452E+01    2.461E+01    2.470E+01    2.479E+01    2.487E+01    2.496E+01
     2.505E+01    2.513E+01    2.521E+01    2.529E+01    2.537E+01    2.545E+01    2.553E+01    2.560E+01    2.568E+01    2.575E+01
     2.582E+01    2.589E+01    2.596E+01    2.603E+01    2.609E+01    2.616E+01    2.622E+01    2.628E+01    2.634E+01    2.640E+01
     2.646E+01    2.651E+01    2.657E+01    2.662E+01    2.667E+01    2.672E+01    2.677E+01    2.681E+01    2.686E+01    2.690E+01
     2.695E+01    2.699E+01    2.703E+01    2.706E+01    2.710E+01    2.713E+01    2.717E+01    2.720E+01    2.723E+01    2.726E+01
     2.728E+01    2.731E+01    2.733E+01    2.736E+01    2.738E+01    2.740E+01    2.741E+01    2.743E+01    2.744E+01    2.746E+01
     2.747E+01    2.748E+01    2.749E+01    2.750E+01    2.750E+01    2.751E+01    2.751E+01    2.751E+01    2.751E+01    2.751E+01
     2.751E+01    2.751E+01    2.750E+01    2.750E+01    2.749E+01    2.748E+01    2.747E+01    2.746E+01    2.744E+01    2.743E+01
     2.742E+01    2.740E+01    2.738E+01    2.736E+01    2.734E+01    2.732E+01    2.730E+01    2.727E+01    2.725E+01    2.722E+01
     2.719E+01    2.716E+01    2.713E+01    2.710E+01    2.707E+01    2.703E+01    2.700E+01    2.696E+01    2.692E+01    2.688E+01
     2.684E+01    2.680E+01    2.676E+01    2.672E+01    2.667E+01    2.663E+01    2.658E+01    2.654E+01    2.649E+01    2.644E+01
     2.639E+01    2.633E+01    2.628E+01    2.623E+01    2.617E+01    2.612E+01    2.606E+01    2.600E+01    2.594E+01    2.588E+01
     2.582E+01    2.576E+01    2.570E+01    2.564E+01    2.557E+01    2.551E+01    2.544E+01    2.537E+01    2.530E+01    2.524E+01
     2.517E+01    2.510E+01    2.502E+01    2.495E+01    2.488E+01    2.480E+01    2.473E+01    2.465E+01    2.458E+01    2.450E+01
     2.442E+01    2.434E+01    2.426E+01    2.418E+01    2.410E+01    2.402E+01    2.394E+01    2.386E+01    2.377E+01    2.369E+01
     2.360E+01    2.352E+01    2.343E+01    2.334E+01    2.326E+01    2.317E+01    2.308E+01    2.299E+01    2.290E+01    2.281E+01
     2.272E+01    2.263E+01    2.254E+01    2.245E+01    2.235E+01    2.226E+01    2.217E+01    2.208E+01    2.198E+01    2.189E+01
     2.179E+01    2.170E+01    2.160E+01    2.151E+01    2.141E+01    2.132E+01    2.122E+01    2.112E+01    2.103E+01    2.093E+01
     2.083E+01    2.073E+01    2.064E+01    2.054E+01    2.044E+01    2.034E+01    2.024E+01    2.015E+01    2.005E+01    1.995E+01
     1.985E+01    1.975E+01    1.965E+01    1.955E+01    1.946E+01    1.936E+01    1.926E+01    1.916E+01    1.906E+01    1.896E+01
     1.886E+01    1.876E+01    1.866E+01    1.856E+01    1.846E+01    1.836E+01    1.826E+01    1.816E+01    1.806E+01    1.796E+01
     1.786E+01    1.777E+01    1.767E+01    1.757E+01    1.747E+01    1.737E+01    1.727E+01    1.717E+01    1.707E+01    1.697E+01
     1.687E+01    1.677E+01    1.667E+01    1.658E+01    1.648E+01    1.638E+01    1.628E+01    1.618E+01
 Ala      Conc. = 4.31E+02
