 LCModel (Version 6.3-1L) Copyright: S.W. Provencher.          Ref.: Magn. Reson. Med. 30:672-679 (1993).                
 Slice#2 Row#7 Col#8  PD_24_press_1_raw_act
 36 lines in following concentration table = NCONC+1
    Conc.  %SD /Cr+PCr  Metabolite                                         
   85.357 178% 5.9E-02 Ala                                                 
  163.950 149%   0.114 Asp                                                 
 1.10E+03  23%   0.763 Cr                                                  
  340.475  74%   0.237 PCr                                                 
   81.724 198% 5.7E-02 GABA                                                
   52.330 300% 3.6E-02 Glc                                                 
 1.19E+03  27%   0.830 Gln                                                 
 2.04E+03  19%   1.416 Glu                                                 
  667.618   5%   0.464 GPC                                                 
    0.000 999%   0.000 PCh                                                 
  501.847  19%   0.349 GSH                                                 
 1.59E+03  21%   1.104 Ins                                                 
    0.000 999%   0.000 Lac                                                 
 1.69E+03   8%   1.172 NAA                                                 
  206.072  68%   0.143 NAAG                                                
   42.423  76% 2.9E-02 Scyllo                                              
    0.000 999%   0.000 Tau                                                 
    0.000 999%   0.000 -CrCH2                                              
  667.618   5%   0.464 GPC+PCh                                             
 1.89E+03   5%   1.315 NAA+NAAG                                            
 1.44E+03   5%   1.000 Cr+PCr                                              
 3.23E+03  17%   2.246 Glu+Gln                                             
 2.71E+03  19%   1.883 Lip13a                                              
  177.888 189%   0.124 Lip13b                                              
    0.000 999%   0.000 Lip09                                               
 1.59E+03  14%   1.104 MM09                                                
  407.837  75%   0.284 Lip20                                               
 3.38E+03  13%   2.353 MM20                                                
  516.173  34%   0.359 MM12                                                
  555.603  71%   0.386 MM14                                                
 1.60E+03  19%   1.110 MM17                                                
 2.89E+03  16%   2.007 Lip13a+Lip13b                                       
 3.96E+03  11%   2.752 MM14+Lip13a+Lip13b+MM12                             
 1.59E+03  14%   1.104 MM09+Lip09                                          
 3.79E+03  12%   2.637 MM20+Lip20                                          
   6 lines in following misc. output table
  FWHM = 0.061 ppm    S/N =   8                                            
  Data shift = 0.000 ppm                                                   
  Ph: -12 deg       9.6 deg/ppm                                            
  alphaB,S = 1.3E+00,   2.5E+01                                            
   14 spline knots.   Ns = 7(1)                                            
  (12) 7 infls.   (10) 1 extrs.                                            
  498 points on ppm-axis = NY
      4.000000     3.992357     3.984714     3.977070     3.969427     3.961784     3.954141     3.946497     3.938854     3.931211
      3.923568     3.915925     3.908281     3.900638     3.892995     3.885352     3.877708     3.870065     3.862422     3.854779
      3.847136     3.839492     3.831849     3.824206     3.816563     3.808919     3.801276     3.793633     3.785990     3.778347
      3.770703     3.763060     3.755417     3.747774     3.740130     3.732487     3.724844     3.717201     3.709558     3.701914
      3.694271     3.686628     3.678985     3.671341     3.663698     3.656055     3.648412     3.640769     3.633125     3.625482
      3.617839     3.610196     3.602552     3.594909     3.587266     3.579623     3.571980     3.564336     3.556693     3.549050
      3.541407     3.533763     3.526120     3.518477     3.510834     3.503191     3.495547     3.487904     3.480261     3.472618
      3.464974     3.457331     3.449688     3.442045     3.434402     3.426758     3.419115     3.411472     3.403829     3.396185
      3.388542     3.380899     3.373256     3.365613     3.357969     3.350326     3.342683     3.335040     3.327396     3.319753
      3.312110     3.304467     3.296824     3.289180     3.281537     3.273894     3.266251     3.258607     3.250964     3.243321
      3.235678     3.228034     3.220391     3.212748     3.205105     3.197462     3.189818     3.182175     3.174532     3.166889
      3.159245     3.151602     3.143959     3.136316     3.128673     3.121029     3.113386     3.105743     3.098100     3.090456
      3.082813     3.075170     3.067527     3.059884     3.052240     3.044597     3.036954     3.029311     3.021667     3.014024
      3.006381     2.998738     2.991095     2.983451     2.975808     2.968165     2.960522     2.952878     2.945235     2.937592
      2.929949     2.922306     2.914662     2.907019     2.899376     2.891733     2.884089     2.876446     2.868803     2.861160
      2.853517     2.845873     2.838230     2.830587     2.822944     2.815300     2.807657     2.800014     2.792371     2.784728
      2.777084     2.769441     2.761798     2.754155     2.746511     2.738868     2.731225     2.723582     2.715939     2.708295
      2.700652     2.693009     2.685366     2.677722     2.670079     2.662436     2.654793     2.647150     2.639506     2.631863
      2.624220     2.616577     2.608933     2.601290     2.593647     2.586004     2.578361     2.570717     2.563074     2.555431
      2.547788     2.540144     2.532501     2.524858     2.517215     2.509572     2.501928     2.494285     2.486642     2.478999
      2.471355     2.463712     2.456069     2.448426     2.440783     2.433139     2.425496     2.417853     2.410210     2.402566
      2.394923     2.387280     2.379637     2.371994     2.364350     2.356707     2.349064     2.341421     2.333777     2.326134
      2.318491     2.310848     2.303205     2.295561     2.287918     2.280275     2.272632     2.264988     2.257345     2.249702
      2.242059     2.234416     2.226772     2.219129     2.211486     2.203843     2.196199     2.188556     2.180913     2.173270
      2.165627     2.157983     2.150340     2.142697     2.135054     2.127410     2.119767     2.112124     2.104481     2.096838
      2.089194     2.081551     2.073908     2.066265     2.058621     2.050978     2.043335     2.035692     2.028049     2.020405
      2.012762     2.005119     1.997476     1.989833     1.982190     1.974546     1.966903     1.959260     1.951617     1.943974
      1.936331     1.928688     1.921045     1.913402     1.905759     1.898115     1.890472     1.882829     1.875186     1.867543
      1.859900     1.852257     1.844614     1.836971     1.829327     1.821684     1.814041     1.806398     1.798755     1.791112
      1.783469     1.775826     1.768183     1.760540     1.752896     1.745253     1.737610     1.729967     1.722324     1.714681
      1.707038     1.699395     1.691752     1.684108     1.676465     1.668822     1.661179     1.653536     1.645893     1.638250
      1.630607     1.622964     1.615321     1.607677     1.600034     1.592391     1.584748     1.577105     1.569462     1.561819
      1.554176     1.546533     1.538890     1.531246     1.523603     1.515960     1.508317     1.500674     1.493031     1.485388
      1.477745     1.470102     1.462458     1.454815     1.447172     1.439529     1.431886     1.424243     1.416600     1.408957
      1.401314     1.393671     1.386027     1.378384     1.370741     1.363098     1.355455     1.347812     1.340169     1.332526
      1.324883     1.317240     1.309596     1.301953     1.294310     1.286667     1.279024     1.271381     1.263738     1.256095
      1.248452     1.240808     1.233165     1.225522     1.217879     1.210236     1.202593     1.194950     1.187307     1.179664
      1.172021     1.164377     1.156734     1.149091     1.141448     1.133805     1.126162     1.118519     1.110876     1.103233
      1.095590     1.087946     1.080303     1.072660     1.065017     1.057374     1.049731     1.042088     1.034445     1.026802
      1.019158     1.011515     1.003872     0.996229     0.988586     0.980943     0.973300     0.965657     0.958014     0.950371
      0.942727     0.935084     0.927441     0.919798     0.912155     0.904512     0.896869     0.889226     0.881583     0.873940
      0.866296     0.858653     0.851010     0.843367     0.835724     0.828081     0.820438     0.812795     0.805152     0.797508
      0.789865     0.782222     0.774579     0.766936     0.759293     0.751650     0.744007     0.736364     0.728721     0.721077
      0.713434     0.705791     0.698148     0.690505     0.682862     0.675219     0.667576     0.659933     0.652290     0.644646
      0.637003     0.629360     0.621717     0.614074     0.606431     0.598788     0.591145     0.583502     0.575858     0.568215
      0.560572     0.552929     0.545286     0.537643     0.530000     0.522357     0.514714     0.507071     0.499427     0.491784
      0.484141     0.476498     0.468855     0.461212     0.453569     0.445925     0.438282     0.430639     0.422996     0.415353
      0.407710     0.400067     0.392424     0.384780     0.377137     0.369494     0.361851     0.354208     0.346565     0.338922
      0.331278     0.323635     0.315992     0.308349     0.300706     0.293063     0.285420     0.277777     0.270133     0.262490
      0.254847     0.247204     0.239561     0.231918     0.224275     0.216631     0.208988     0.201345
 NY phased data points follow
   2.90454E+01  2.67047E+01  2.98174E+01  3.46269E+01  2.88996E+01  4.15394E+01  3.91826E+01  5.43680E+01  5.09642E+01  5.92794E+01
   6.55453E+01  6.62376E+01  6.09230E+01  5.75488E+01  5.41626E+01  5.34053E+01  4.33008E+01  4.30699E+01  3.74228E+01  4.56433E+01
   3.87059E+01  3.40234E+01  2.96149E+01  3.70351E+01  2.92729E+01  3.07542E+01  3.41381E+01  3.59552E+01  3.56047E+01  3.84124E+01
   3.36917E+01  4.28856E+01  3.26130E+01  3.51636E+01  2.88032E+01  3.29297E+01  2.60221E+01  3.30870E+01  2.81143E+01  3.05337E+01
   2.72427E+01  3.26003E+01  2.64961E+01  3.72567E+01  2.94207E+01  3.48227E+01  3.14247E+01  3.75361E+01  3.99692E+01  3.24912E+01
   2.67391E+01  3.35981E+01  3.53782E+01  3.23712E+01  2.74188E+01  2.72638E+01  2.60943E+01  2.95081E+01  3.16070E+01  2.74771E+01
   2.84204E+01  2.90121E+01  1.44383E+01  1.77597E+01  7.74934E+00  2.19004E+01  1.69718E+01  1.89012E+01  9.52414E+00  1.30967E+01
   1.66389E+01  2.10960E+01  1.83305E+01  9.48191E+00  1.73568E+01  2.34833E+01  2.22931E+01  2.20327E+01  9.71164E+00  1.81404E+01
   1.27636E+01  1.39316E+01  1.32344E+01  2.37113E+01  1.75355E+01  1.73232E+01  9.35507E+00  1.82404E+01  1.77693E+01  1.62244E+01
   1.23196E+01  1.87701E+01  1.46635E+01  1.39304E+01  9.53475E+00  1.71324E+01  1.10916E+01  1.37667E+01  1.26330E+01  3.27661E+01
   4.45140E+01  5.87939E+01  7.28919E+01  6.95039E+01  6.98179E+01  6.11144E+01  4.80052E+01  4.90084E+01  3.91243E+01  4.14040E+01
   3.43204E+01  2.69203E+01  2.24354E+01  1.99596E+01  1.77660E+01  1.58050E+01  1.60602E+01  1.26392E+01  1.16208E+01  6.21978E+00
   6.95577E+00  1.30458E+01  1.33014E+01  2.97438E+01  2.86986E+01  4.03842E+01  4.86569E+01  5.67469E+01  5.04342E+01  4.58146E+01
   4.06981E+01  4.29935E+01  3.62507E+01  3.59989E+01  2.36607E+01  2.38485E+01  1.89200E+01  1.16734E+01  8.94541E+00  1.28512E+01
   1.35282E+01  1.40234E+01  1.22358E+01  8.97444E+00  8.71723E+00  1.10230E+01  6.72426E+00  1.42493E+01  8.50065E+00  1.32132E+01
   8.96667E+00  1.02220E+01 -4.71906E-01  5.00356E+00  4.48121E+00  6.15473E+00  1.13800E+00  3.41240E+00  6.54410E+00  1.13199E+01
  -7.79620E-01  8.46274E+00  4.14531E+00  4.09301E+00  1.44439E+00  3.92176E+00  6.21015E+00  5.95447E+00  6.50725E+00  2.49830E+00
   1.09161E+00  8.19376E-01  2.51786E+00  1.80213E+00  1.60463E+00  3.38703E+00  1.13474E+00 -6.65631E+00  1.53797E+00  4.72866E-01
  -2.47987E+00  8.20804E-01 -3.15065E+00 -6.44083E+00 -6.49776E+00 -6.21089E-01 -4.62376E+00 -4.74305E-01  3.02536E+00  4.22201E+00
   6.69357E+00  1.09300E+01  7.07851E+00  1.53944E+00  8.03729E+00  1.35964E+01  7.11317E+00  6.81582E+00  1.71715E+00  5.51621E+00
   5.89277E+00  1.22661E+01  1.06704E+01  9.25289E+00  1.14536E+01  5.95355E+00  7.59653E+00  3.97865E+00  1.37899E+00 -1.16419E+00
  -1.94419E+00  2.13986E+00  3.23110E+00  1.21274E+01  1.00154E+01  2.06595E+01  9.66543E+00  1.75971E+01  8.12618E+00  9.13273E+00
   6.10575E+00  5.36753E-01  4.28080E+00  1.07365E+01  5.41290E+00  9.02261E+00  4.33026E+00  1.43134E+01  1.21707E+01  1.54666E+01
   1.40693E+01  1.05965E+01  1.03072E+01  1.56558E+01  1.21826E+01  1.65341E+01  8.27719E+00  9.38028E+00  7.39561E+00  1.73108E+01
   9.71354E+00  9.99463E+00  7.81270E+00  1.14508E+01  1.53899E+01  1.21225E+01  1.63600E+01  1.17162E+01  1.92133E+01  2.01341E+01
   2.01592E+01  1.90908E+01  2.27122E+01  2.34985E+01  1.99813E+01  2.63990E+01  3.64226E+01  4.39466E+01  5.47402E+01  7.40471E+01
   6.68731E+01  6.63169E+01  5.85127E+01  5.85684E+01  4.75101E+01  4.64539E+01  3.34915E+01  2.06109E+01  1.46348E+01  1.85622E+01
   7.40807E+00  2.39068E+01  1.52569E+01  8.06912E+00  6.65624E+00  1.19350E+01  9.69742E+00  1.13013E+01  6.10000E+00  1.03674E+01
   7.93989E+00  1.05236E+01  3.54478E+00  8.22795E+00  7.17622E+00  5.93751E+00  2.24295E+00  7.15567E+00  4.90816E+00  7.37054E+00
   8.29939E+00  9.27591E+00  1.14864E+01  9.98892E+00  8.57621E+00  9.17490E+00  8.81445E+00  8.33173E+00  3.07132E+00  1.14585E+01
   5.30885E+00  7.99611E+00  1.36388E+01  9.46721E+00  8.32041E+00  6.43009E+00  1.07916E+01  9.59805E+00  4.90060E+00  9.53135E+00
   9.77399E+00  6.23440E+00  7.95417E+00  2.10229E+01  1.44435E+01  9.41514E+00  1.43041E+01  4.32660E+00  1.17226E+01  1.00646E+01
   3.38883E+00  9.45663E+00  1.05762E+01  6.71685E+00 -1.17771E+00  1.40236E+01  1.02111E+01  6.23260E+00  2.07216E+00  5.47659E+00
   3.53427E+00  2.70899E+00  1.76611E+00  6.84392E+00  6.36059E+00  4.09922E+00  7.74603E+00 -2.54144E-01 -6.70359E-03  7.30928E+00
  -1.51078E+00  1.79500E+00  8.38834E+00  6.02063E+00 -7.75014E-02  1.11530E+01  1.43841E+01  9.44785E+00  1.37271E+01  9.50129E+00
   1.38148E+01  1.80254E+01  1.42291E+01  2.00363E+01  1.93847E+01  2.22692E+01  1.80000E+01  2.93980E+01  2.68100E+01  2.54392E+01
   2.09368E+01  1.75786E+01  1.44684E+01  2.19517E+01  2.02445E+01  2.70877E+01  1.74791E+01  1.44015E+01  1.76275E+01  1.50745E+01
   1.15092E+01  1.21505E+01  4.26371E+00  1.93428E+01  1.05699E+01  1.37776E+01  8.67145E+00  3.75638E+00  4.44153E+00  4.76765E+00
  -7.63331E-01  8.09434E+00  5.54759E+00  5.45560E+00  6.27127E+00 -4.86404E-01  7.70186E+00  2.97779E-01  2.50355E+00  5.89048E+00
   5.59093E+00  9.48736E+00  1.04862E+01  4.31164E+00  9.75142E+00  7.84896E+00  6.99939E+00  9.06104E+00  1.38982E+01  1.25832E+01
   7.89099E+00  9.03562E+00  1.33251E+01  8.05681E+00  9.58946E+00  1.13771E+01  1.24773E+01  1.04492E+01  7.75744E+00  3.70781E+00
   1.11347E+01  9.67383E+00  2.02008E+00  9.10906E+00  4.05946E+00  2.12603E+00  3.23853E+00  8.31799E+00  3.18252E+00  2.74531E+00
   4.74247E+00  4.92704E+00  1.85224E-01 -7.12422E-01  2.97333E+00  6.28750E+00  1.46749E-01  7.91199E-01  3.20165E-01  4.80769E-01
   2.92975E-01  5.48122E-01 -6.61292E+00  3.15242E-01 -4.82632E+00 -2.20673E+00 -4.32585E+00 -2.40953E+00 -5.68321E-01 -1.46082E+00
  -7.01510E+00 -3.03883E+00 -7.29716E+00 -5.75121E+00  3.00671E+00  3.11361E+00  8.33803E-01 -2.65432E+00 -1.63178E+00 -3.14104E+00
  -5.78982E+00 -1.94615E+00 -5.90296E+00  4.73092E-01 -4.01559E+00 -2.46990E+00 -2.15853E+00 -2.44426E+00 -3.86033E+00 -5.53835E+00
   1.98175E-01 -3.06435E+00  8.73268E-01  1.18943E+00  6.34022E+00 -3.80111E+00  2.75407E+00 -2.79603E+00 -1.31847E+00 -2.41839E+00
  -4.84057E+00 -8.16470E+00 -2.65622E+00 -9.98628E-01 -3.02270E+00  1.06454E+00 -7.95618E+00  9.11961E-01  9.68128E-01 -1.97297E+00
  -1.04582E+00  1.07593E+00 -1.58595E+00  2.11639E+00 -9.71938E-01 -3.44897E+00  7.94346E-01  8.48323E-01  4.25388E+00 -5.83262E-01
   2.62838E+00 -3.35550E+00 -2.59654E+00 -1.25124E+00 -3.29411E+00 -5.30849E+00 -1.86367E+00  9.33995E-01
 NY points of the fit to the data follow
   3.26464E+01  3.18522E+01  3.15797E+01  3.18353E+01  3.28548E+01  3.44750E+01  3.77105E+01  4.36488E+01  4.94733E+01  5.43114E+01
   5.83638E+01  5.93001E+01  5.71844E+01  5.39135E+01  5.06159E+01  4.79213E+01  4.53186E+01  4.21396E+01  3.85973E+01  3.58572E+01
   3.26938E+01  3.08656E+01  2.98993E+01  2.87694E+01  2.83645E+01  2.86660E+01  2.94083E+01  3.20501E+01  3.55981E+01  3.80884E+01
   3.94037E+01  3.94128E+01  3.83156E+01  3.61621E+01  3.37092E+01  3.18551E+01  3.04811E+01  2.90443E+01  2.77045E+01  2.71863E+01
   2.61389E+01  2.57793E+01  2.71949E+01  2.95946E+01  3.22261E+01  3.47322E+01  3.62269E+01  3.57540E+01  3.36574E+01  3.14489E+01
   2.98582E+01  2.85770E+01  2.70882E+01  2.57312E+01  2.47531E+01  2.36848E+01  2.30937E+01  2.35409E+01  2.43028E+01  2.44974E+01
   2.41004E+01  2.32165E+01  2.22702E+01  2.14955E+01  2.09370E+01  2.06331E+01  2.05822E+01  2.05896E+01  2.05318E+01  2.06219E+01
   2.08327E+01  2.10186E+01  2.10322E+01  2.08941E+01  2.07009E+01  2.04400E+01  2.01363E+01  1.97672E+01  1.93772E+01  1.89768E+01
   1.86394E+01  1.86099E+01  1.85265E+01  1.82222E+01  1.77101E+01  1.68262E+01  1.57167E+01  1.48135E+01  1.44145E+01  1.44832E+01
   1.47869E+01  1.52191E+01  1.55893E+01  1.58072E+01  1.58354E+01  1.58041E+01  1.52580E+01  1.48608E+01  2.00577E+01  3.18285E+01
   4.42262E+01  5.82295E+01  7.06703E+01  7.35425E+01  6.85899E+01  6.11100E+01  5.45239E+01  5.00333E+01  4.54106E+01  3.97480E+01
   3.32282E+01  2.62003E+01  1.73884E+01  1.39616E+01  1.33259E+01  1.31505E+01  1.30976E+01  1.30821E+01  1.30923E+01  1.31736E+01
   1.30384E+01  1.32411E+01  1.73081E+01  2.58737E+01  3.51972E+01  4.54947E+01  5.46310E+01  5.74392E+01  5.48927E+01  5.02600E+01
   4.57656E+01  4.23295E+01  3.82438E+01  3.28672E+01  2.69482E+01  2.09487E+01  1.45991E+01  1.21162E+01  1.18836E+01  1.19986E+01
   1.19987E+01  1.17512E+01  1.15523E+01  1.16107E+01  1.16901E+01  1.16222E+01  1.14222E+01  1.09668E+01  1.04358E+01  9.81005E+00
   9.24966E+00  8.85311E+00  8.52280E+00  8.29913E+00  8.19759E+00  8.06285E+00  7.73847E+00  7.27027E+00  6.71565E+00  6.21156E+00
   6.02018E+00  6.06514E+00  6.23363E+00  6.37967E+00  6.19313E+00  5.77399E+00  5.37126E+00  5.08297E+00  4.93705E+00  4.91302E+00
   4.74304E+00  4.21927E+00  3.57818E+00  2.97829E+00  2.57376E+00  2.44505E+00  2.46606E+00  2.45614E+00  2.34077E+00  2.06261E+00
   1.81711E+00  1.76174E+00  1.71617E+00  1.71634E+00  1.89200E+00  2.29981E+00  3.08844E+00  4.38227E+00  5.65267E+00  6.61242E+00
   7.00458E+00  6.61233E+00  5.70716E+00  4.77019E+00  3.96288E+00  3.43606E+00  3.37100E+00  3.84314E+00  4.84546E+00  6.33210E+00
   8.15315E+00  9.89297E+00  1.12353E+01  1.19633E+01  1.13608E+01  8.97861E+00  6.13268E+00  3.07170E+00  1.39288E-01 -1.18904E+00
  -2.71423E-01  2.43572E+00  5.62332E+00  8.73392E+00  1.16460E+01  1.32316E+01  1.27913E+01  1.05085E+01  7.85017E+00  5.11999E+00
   2.37847E+00  8.26050E-01  1.07311E+00  2.56251E+00  3.88379E+00  5.36351E+00  6.69416E+00  7.76263E+00  8.82233E+00  9.72783E+00
   1.06421E+01  1.14415E+01  1.19686E+01  1.20780E+01  1.21709E+01  1.26572E+01  1.35481E+01  1.39980E+01  1.36427E+01  1.32801E+01
   1.28196E+01  1.19778E+01  1.16714E+01  1.21444E+01  1.29573E+01  1.32689E+01  1.32525E+01  1.33232E+01  1.35747E+01  1.40345E+01
   1.51982E+01  1.76776E+01  1.98218E+01  2.06886E+01  2.20089E+01  2.79288E+01  3.73001E+01  4.70974E+01  5.91088E+01  6.89212E+01
   7.02962E+01  6.55068E+01  5.87455E+01  5.26616E+01  4.75804E+01  4.24991E+01  3.68489E+01  3.06691E+01  2.31819E+01  1.53206E+01
   1.21773E+01  1.09804E+01  1.02884E+01  9.82945E+00  9.49108E+00  9.03114E+00  8.55800E+00  8.13145E+00  7.73924E+00  7.34802E+00
   7.00431E+00  6.68327E+00  6.35705E+00  6.07413E+00  5.85821E+00  5.70307E+00  5.59905E+00  5.55443E+00  5.57129E+00  5.65293E+00
   5.77382E+00  5.92957E+00  6.11882E+00  6.34239E+00  6.59010E+00  6.87100E+00  7.18481E+00  7.51999E+00  7.87251E+00  8.23995E+00
   8.60434E+00  8.95565E+00  9.28636E+00  9.58354E+00  9.83741E+00  1.00402E+01  1.01852E+01  1.02704E+01  1.02875E+01  1.02352E+01
   1.01173E+01  9.93693E+00  9.70113E+00  9.41897E+00  9.09898E+00  8.75115E+00  8.38589E+00  8.01381E+00  7.64536E+00  7.28955E+00
   6.95954E+00  6.72577E+00  6.61587E+00  6.49379E+00  6.31563E+00  6.08862E+00  5.69161E+00  5.15308E+00  4.59736E+00  4.09390E+00
   3.78394E+00  3.66044E+00  3.63820E+00  3.80253E+00  4.11798E+00  4.38141E+00  4.63961E+00  4.93962E+00  5.24469E+00  5.60302E+00
   6.01164E+00  6.46235E+00  6.97788E+00  7.52403E+00  8.10116E+00  8.85302E+00  9.77024E+00  1.08343E+01  1.20319E+01  1.33444E+01
   1.47436E+01  1.61899E+01  1.76331E+01  1.90146E+01  2.02723E+01  2.13470E+01  2.21885E+01  2.27611E+01  2.30467E+01  2.30453E+01
   2.27732E+01  2.22587E+01  2.15379E+01  2.06493E+01  1.96310E+01  1.85179E+01  1.73418E+01  1.61305E+01  1.49091E+01  1.36997E+01
   1.25222E+01  1.13942E+01  1.03306E+01  9.34387E+00  8.44359E+00  7.63642E+00  6.92640E+00  6.31530E+00  5.80306E+00  5.38820E+00
   5.06823E+00  4.84003E+00  4.70018E+00  4.64512E+00  4.67128E+00  4.77490E+00  4.95192E+00  5.19783E+00  5.50741E+00  5.87459E+00
   6.29211E+00  6.75137E+00  7.24234E+00  7.75359E+00  8.27247E+00  8.78534E+00  9.27794E+00  9.73577E+00  1.01447E+01  1.04916E+01
   1.07649E+01  1.09551E+01  1.10552E+01  1.10610E+01  1.09714E+01  1.07884E+01  1.05167E+01  1.01638E+01  9.73908E+00  9.25379E+00
   8.72006E+00  8.15057E+00  7.55791E+00  6.95404E+00  6.34987E+00  5.75501E+00  5.17755E+00  4.62400E+00  4.09926E+00  3.60664E+00
   3.14806E+00  2.72424E+00  2.33494E+00  1.97912E+00  1.65515E+00  1.36096E+00  1.09424E+00  8.52590E-01  6.33642E-01  4.35100E-01
   2.54770E-01  9.05931E-02 -5.92949E-02 -1.96541E-01 -3.22597E-01 -4.38754E-01 -5.46174E-01 -6.45876E-01 -7.38728E-01 -8.25467E-01
  -9.06726E-01 -9.83070E-01 -1.05502E+00 -1.12304E+00 -1.18748E+00 -1.24866E+00 -1.30685E+00 -1.36234E+00 -1.41537E+00 -1.46616E+00
  -1.51486E+00 -1.56161E+00 -1.60656E+00 -1.64985E+00 -1.69162E+00 -1.73197E+00 -1.77098E+00 -1.80873E+00 -1.84531E+00 -1.88082E+00
  -1.91533E+00 -1.94889E+00 -1.98154E+00 -2.01331E+00 -2.04430E+00 -2.07456E+00 -2.10414E+00 -2.13306E+00 -2.16133E+00 -2.18901E+00
  -2.21614E+00 -2.24276E+00 -2.26890E+00 -2.29457E+00 -2.31977E+00 -2.34455E+00 -2.36897E+00 -2.39303E+00 -2.41676E+00 -2.44014E+00
  -2.46322E+00 -2.48602E+00 -2.50859E+00 -2.53093E+00 -2.55305E+00 -2.57494E+00 -2.59666E+00 -2.61822E+00 -2.63967E+00 -2.66100E+00
  -2.68221E+00 -2.70333E+00 -2.72440E+00 -2.74544E+00 -2.76650E+00 -2.78756E+00 -2.80864E+00 -2.82979E+00
 NY background values follow
     2.519E+01    2.505E+01    2.492E+01    2.478E+01    2.465E+01    2.451E+01    2.438E+01    2.424E+01    2.411E+01    2.397E+01
     2.384E+01    2.370E+01    2.357E+01    2.343E+01    2.330E+01    2.316E+01    2.303E+01    2.289E+01    2.276E+01    2.262E+01
     2.249E+01    2.235E+01    2.222E+01    2.208E+01    2.195E+01    2.181E+01    2.168E+01    2.154E+01    2.141E+01    2.127E+01
     2.114E+01    2.100E+01    2.087E+01    2.073E+01    2.060E+01    2.047E+01    2.033E+01    2.020E+01    2.006E+01    1.993E+01
     1.980E+01    1.966E+01    1.953E+01    1.939E+01    1.926E+01    1.913E+01    1.900E+01    1.886E+01    1.873E+01    1.860E+01
     1.846E+01    1.833E+01    1.820E+01    1.807E+01    1.794E+01    1.781E+01    1.768E+01    1.754E+01    1.741E+01    1.728E+01
     1.715E+01    1.702E+01    1.689E+01    1.676E+01    1.664E+01    1.651E+01    1.638E+01    1.625E+01    1.612E+01    1.599E+01
     1.587E+01    1.574E+01    1.561E+01    1.549E+01    1.536E+01    1.524E+01    1.511E+01    1.499E+01    1.486E+01    1.474E+01
     1.462E+01    1.449E+01    1.437E+01    1.425E+01    1.413E+01    1.401E+01    1.388E+01    1.376E+01    1.364E+01    1.352E+01
     1.341E+01    1.329E+01    1.317E+01    1.305E+01    1.294E+01    1.282E+01    1.270E+01    1.259E+01    1.247E+01    1.236E+01
     1.225E+01    1.213E+01    1.202E+01    1.191E+01    1.180E+01    1.168E+01    1.157E+01    1.146E+01    1.135E+01    1.125E+01
     1.114E+01    1.103E+01    1.092E+01    1.082E+01    1.071E+01    1.060E+01    1.050E+01    1.040E+01    1.029E+01    1.019E+01
     1.009E+01    9.984E+00    9.882E+00    9.781E+00    9.681E+00    9.582E+00    9.483E+00    9.384E+00    9.286E+00    9.189E+00
     9.093E+00    8.997E+00    8.901E+00    8.807E+00    8.713E+00    8.619E+00    8.526E+00    8.434E+00    8.343E+00    8.252E+00
     8.162E+00    8.072E+00    7.983E+00    7.894E+00    7.807E+00    7.720E+00    7.633E+00    7.547E+00    7.462E+00    7.377E+00
     7.293E+00    7.210E+00    7.127E+00    7.045E+00    6.963E+00    6.882E+00    6.802E+00    6.722E+00    6.643E+00    6.565E+00
     6.487E+00    6.409E+00    6.333E+00    6.257E+00    6.181E+00    6.106E+00    6.032E+00    5.958E+00    5.885E+00    5.813E+00
     5.741E+00    5.669E+00    5.599E+00    5.529E+00    5.459E+00    5.390E+00    5.322E+00    5.254E+00    5.187E+00    5.120E+00
     5.054E+00    4.989E+00    4.924E+00    4.859E+00    4.796E+00    4.732E+00    4.670E+00    4.608E+00    4.546E+00    4.485E+00
     4.425E+00    4.365E+00    4.305E+00    4.246E+00    4.188E+00    4.130E+00    4.072E+00    4.015E+00    3.959E+00    3.903E+00
     3.847E+00    3.792E+00    3.737E+00    3.683E+00    3.629E+00    3.576E+00    3.523E+00    3.470E+00    3.418E+00    3.366E+00
     3.315E+00    3.264E+00    3.213E+00    3.163E+00    3.113E+00    3.063E+00    3.014E+00    2.965E+00    2.917E+00    2.868E+00
     2.820E+00    2.773E+00    2.726E+00    2.679E+00    2.632E+00    2.586E+00    2.540E+00    2.494E+00    2.448E+00    2.403E+00
     2.358E+00    2.313E+00    2.269E+00    2.225E+00    2.181E+00    2.137E+00    2.093E+00    2.050E+00    2.007E+00    1.965E+00
     1.922E+00    1.880E+00    1.838E+00    1.796E+00    1.755E+00    1.713E+00    1.672E+00    1.631E+00    1.591E+00    1.550E+00
     1.510E+00    1.470E+00    1.430E+00    1.391E+00    1.351E+00    1.312E+00    1.273E+00    1.234E+00    1.196E+00    1.157E+00
     1.119E+00    1.081E+00    1.043E+00    1.005E+00    9.677E-01    9.304E-01    8.932E-01    8.561E-01    8.193E-01    7.826E-01
     7.460E-01    7.096E-01    6.734E-01    6.373E-01    6.013E-01    5.655E-01    5.299E-01    4.943E-01    4.590E-01    4.238E-01
     3.887E-01    3.538E-01    3.190E-01    2.843E-01    2.498E-01    2.155E-01    1.812E-01    1.471E-01    1.132E-01    7.938E-02
     4.570E-02    1.215E-02   -2.126E-02   -5.454E-02   -8.768E-02   -1.207E-01   -1.536E-01   -1.863E-01   -2.190E-01   -2.515E-01
    -2.839E-01   -3.161E-01   -3.482E-01   -3.802E-01   -4.121E-01   -4.439E-01   -4.755E-01   -5.070E-01   -5.384E-01   -5.697E-01
    -6.008E-01   -6.319E-01   -6.628E-01   -6.936E-01   -7.243E-01   -7.549E-01   -7.854E-01   -8.157E-01   -8.460E-01   -8.761E-01
    -9.061E-01   -9.360E-01   -9.658E-01   -9.955E-01   -1.025E+00   -1.055E+00   -1.084E+00   -1.113E+00   -1.142E+00   -1.171E+00
    -1.200E+00   -1.229E+00   -1.257E+00   -1.286E+00   -1.314E+00   -1.342E+00   -1.371E+00   -1.399E+00   -1.426E+00   -1.454E+00
    -1.482E+00   -1.509E+00   -1.537E+00   -1.564E+00   -1.591E+00   -1.618E+00   -1.645E+00   -1.671E+00   -1.698E+00   -1.725E+00
    -1.751E+00   -1.777E+00   -1.803E+00   -1.829E+00   -1.855E+00   -1.880E+00   -1.906E+00   -1.931E+00   -1.957E+00   -1.982E+00
    -2.007E+00   -2.031E+00   -2.056E+00   -2.081E+00   -2.105E+00   -2.129E+00   -2.153E+00   -2.177E+00   -2.201E+00   -2.225E+00
    -2.248E+00   -2.272E+00   -2.295E+00   -2.318E+00   -2.341E+00   -2.364E+00   -2.386E+00   -2.409E+00   -2.431E+00   -2.453E+00
    -2.475E+00   -2.497E+00   -2.519E+00   -2.541E+00   -2.562E+00   -2.583E+00   -2.605E+00   -2.625E+00   -2.646E+00   -2.667E+00
    -2.687E+00   -2.708E+00   -2.728E+00   -2.748E+00   -2.768E+00   -2.788E+00   -2.807E+00   -2.827E+00   -2.846E+00   -2.865E+00
    -2.884E+00   -2.903E+00   -2.921E+00   -2.940E+00   -2.958E+00   -2.976E+00   -2.994E+00   -3.012E+00   -3.029E+00   -3.047E+00
    -3.064E+00   -3.081E+00   -3.098E+00   -3.115E+00   -3.131E+00   -3.148E+00   -3.164E+00   -3.180E+00   -3.196E+00   -3.212E+00
    -3.228E+00   -3.243E+00   -3.259E+00   -3.274E+00   -3.289E+00   -3.304E+00   -3.319E+00   -3.333E+00   -3.348E+00   -3.362E+00
    -3.377E+00   -3.391E+00   -3.405E+00   -3.418E+00   -3.432E+00   -3.446E+00   -3.459E+00   -3.472E+00   -3.486E+00   -3.499E+00
    -3.511E+00   -3.524E+00   -3.537E+00   -3.549E+00   -3.562E+00   -3.574E+00   -3.586E+00   -3.598E+00   -3.610E+00   -3.622E+00
    -3.633E+00   -3.645E+00   -3.656E+00   -3.668E+00   -3.679E+00   -3.690E+00   -3.701E+00   -3.712E+00   -3.723E+00   -3.733E+00
    -3.744E+00   -3.754E+00   -3.765E+00   -3.775E+00   -3.785E+00   -3.796E+00   -3.806E+00   -3.816E+00   -3.826E+00   -3.836E+00
    -3.845E+00   -3.855E+00   -3.865E+00   -3.875E+00   -3.884E+00   -3.894E+00   -3.903E+00   -3.913E+00   -3.922E+00   -3.932E+00
    -3.941E+00   -3.950E+00   -3.960E+00   -3.969E+00   -3.978E+00   -3.987E+00   -3.997E+00   -4.006E+00   -4.015E+00   -4.024E+00
    -4.033E+00   -4.043E+00   -4.052E+00   -4.061E+00   -4.070E+00   -4.079E+00   -4.089E+00   -4.098E+00
 Ala      Conc. = 8.54E+01
