 LCModel (Version 6.3-1L) Copyright: S.W. Provencher.          Ref.: Magn. Reson. Med. 30:672-679 (1993).                
 Slice#3 Row#3 Col#11  PD_24_press_1_raw_act
 36 lines in following concentration table = NCONC+1
    Conc.  %SD /Cr+PCr  Metabolite                                         
  217.867  55%   2.940 Ala                                                 
   17.447  27%   0.235 Asp                                                 
    0.000 999%   0.000 Cr                                                  
   74.111  59%   1.000 PCr                                                 
   10.467  27%   0.141 GABA                                                
   10.467  27%   0.141 Glc                                                 
  782.688  28%  10.561 Gln                                                 
    0.000 999%   0.000 Glu                                                 
    0.000 999%   0.000 GPC                                                 
   33.423  48%   0.451 PCh                                                 
    0.000 999%   0.000 GSH                                                 
    0.000 999%   0.000 Ins                                                 
  545.799  34%   7.365 Lac                                                 
  174.544  37%   2.355 NAA                                                 
    0.000 999%   0.000 NAAG                                                
    3.489  27% 4.7E-02 Scyllo                                              
   17.446  27%   0.235 Tau                                                 
    7.414  66%   0.100 -CrCH2                                              
   33.423  48%   0.451 GPC+PCh                                             
  174.544  37%   2.355 NAA+NAAG                                            
   74.111  59%   1.000 Cr+PCr                                              
  782.688  28%  10.561 Glu+Gln                                             
 8.25E+04   5% 1.1E+03 Lip13a                                              
 6.19E+03  49%  83.488 Lip13b                                              
    0.000 999%   0.000 Lip09                                               
  487.934  50%   6.584 MM09                                                
 2.30E+03  19%  31.021 Lip20                                               
    0.000 999%   0.000 MM20                                                
  157.408 123%   2.124 MM12                                                
 2.75E+03  24%  37.079 MM14                                                
 1.58E+03  27%  21.295 MM17                                                
 8.87E+04   5% 1.2E+03 Lip13a+Lip13b                                       
 9.16E+04   5% 1.2E+03 MM14+Lip13a+Lip13b+MM12                             
  487.934  50%   6.584 MM09+Lip09                                          
 2.30E+03  19%  31.021 MM20+Lip20                                          
   6 lines in following misc. output table
  FWHM = 0.069 ppm    S/N =  42                                            
  Data shift =-0.092 ppm                                                   
  Ph:-115 deg     -48.9 deg/ppm                                            
  alphaB,S = 5.8E-01,   2.8E+01                                            
   14 spline knots.   Ns = 5(1)                                            
  (10) 4 infls.   ( 9) 1 extrs.                                            
  498 points on ppm-axis = NY
      4.000000     3.992357     3.984714     3.977070     3.969427     3.961784     3.954141     3.946497     3.938854     3.931211
      3.923568     3.915925     3.908281     3.900638     3.892995     3.885352     3.877708     3.870065     3.862422     3.854779
      3.847136     3.839492     3.831849     3.824206     3.816563     3.808919     3.801276     3.793633     3.785990     3.778347
      3.770703     3.763060     3.755417     3.747774     3.740130     3.732487     3.724844     3.717201     3.709558     3.701914
      3.694271     3.686628     3.678985     3.671341     3.663698     3.656055     3.648412     3.640769     3.633125     3.625482
      3.617839     3.610196     3.602552     3.594909     3.587266     3.579623     3.571980     3.564336     3.556693     3.549050
      3.541407     3.533763     3.526120     3.518477     3.510834     3.503191     3.495547     3.487904     3.480261     3.472618
      3.464974     3.457331     3.449688     3.442045     3.434402     3.426758     3.419115     3.411472     3.403829     3.396185
      3.388542     3.380899     3.373256     3.365613     3.357969     3.350326     3.342683     3.335040     3.327396     3.319753
      3.312110     3.304467     3.296824     3.289180     3.281537     3.273894     3.266251     3.258607     3.250964     3.243321
      3.235678     3.228034     3.220391     3.212748     3.205105     3.197462     3.189818     3.182175     3.174532     3.166889
      3.159245     3.151602     3.143959     3.136316     3.128673     3.121029     3.113386     3.105743     3.098100     3.090456
      3.082813     3.075170     3.067527     3.059884     3.052240     3.044597     3.036954     3.029311     3.021667     3.014024
      3.006381     2.998738     2.991095     2.983451     2.975808     2.968165     2.960522     2.952878     2.945235     2.937592
      2.929949     2.922306     2.914662     2.907019     2.899376     2.891733     2.884089     2.876446     2.868803     2.861160
      2.853517     2.845873     2.838230     2.830587     2.822944     2.815300     2.807657     2.800014     2.792371     2.784728
      2.777084     2.769441     2.761798     2.754155     2.746511     2.738868     2.731225     2.723582     2.715939     2.708295
      2.700652     2.693009     2.685366     2.677722     2.670079     2.662436     2.654793     2.647150     2.639506     2.631863
      2.624220     2.616577     2.608933     2.601290     2.593647     2.586004     2.578361     2.570717     2.563074     2.555431
      2.547788     2.540144     2.532501     2.524858     2.517215     2.509572     2.501928     2.494285     2.486642     2.478999
      2.471355     2.463712     2.456069     2.448426     2.440783     2.433139     2.425496     2.417853     2.410210     2.402566
      2.394923     2.387280     2.379637     2.371994     2.364350     2.356707     2.349064     2.341421     2.333777     2.326134
      2.318491     2.310848     2.303205     2.295561     2.287918     2.280275     2.272632     2.264988     2.257345     2.249702
      2.242059     2.234416     2.226772     2.219129     2.211486     2.203843     2.196199     2.188556     2.180913     2.173270
      2.165627     2.157983     2.150340     2.142697     2.135054     2.127410     2.119767     2.112124     2.104481     2.096838
      2.089194     2.081551     2.073908     2.066265     2.058621     2.050978     2.043335     2.035692     2.028049     2.020405
      2.012762     2.005119     1.997476     1.989833     1.982190     1.974546     1.966903     1.959260     1.951617     1.943974
      1.936331     1.928688     1.921045     1.913402     1.905759     1.898115     1.890472     1.882829     1.875186     1.867543
      1.859900     1.852257     1.844614     1.836971     1.829327     1.821684     1.814041     1.806398     1.798755     1.791112
      1.783469     1.775826     1.768183     1.760540     1.752896     1.745253     1.737610     1.729967     1.722324     1.714681
      1.707038     1.699395     1.691752     1.684108     1.676465     1.668822     1.661179     1.653536     1.645893     1.638250
      1.630607     1.622964     1.615321     1.607677     1.600034     1.592391     1.584748     1.577105     1.569462     1.561819
      1.554176     1.546533     1.538890     1.531246     1.523603     1.515960     1.508317     1.500674     1.493031     1.485388
      1.477745     1.470102     1.462458     1.454815     1.447172     1.439529     1.431886     1.424243     1.416600     1.408957
      1.401314     1.393671     1.386027     1.378384     1.370741     1.363098     1.355455     1.347812     1.340169     1.332526
      1.324883     1.317240     1.309596     1.301953     1.294310     1.286667     1.279024     1.271381     1.263738     1.256095
      1.248452     1.240808     1.233165     1.225522     1.217879     1.210236     1.202593     1.194950     1.187307     1.179664
      1.172021     1.164377     1.156734     1.149091     1.141448     1.133805     1.126162     1.118519     1.110876     1.103233
      1.095590     1.087946     1.080303     1.072660     1.065017     1.057374     1.049731     1.042088     1.034445     1.026802
      1.019158     1.011515     1.003872     0.996229     0.988586     0.980943     0.973300     0.965657     0.958014     0.950371
      0.942727     0.935084     0.927441     0.919798     0.912155     0.904512     0.896869     0.889226     0.881583     0.873940
      0.866296     0.858653     0.851010     0.843367     0.835724     0.828081     0.820438     0.812795     0.805152     0.797508
      0.789865     0.782222     0.774579     0.766936     0.759293     0.751650     0.744007     0.736364     0.728721     0.721077
      0.713434     0.705791     0.698148     0.690505     0.682862     0.675219     0.667576     0.659933     0.652290     0.644646
      0.637003     0.629360     0.621717     0.614074     0.606431     0.598788     0.591145     0.583502     0.575858     0.568215
      0.560572     0.552929     0.545286     0.537643     0.530000     0.522357     0.514714     0.507071     0.499427     0.491784
      0.484141     0.476498     0.468855     0.461212     0.453569     0.445925     0.438282     0.430639     0.422996     0.415353
      0.407710     0.400067     0.392424     0.384780     0.377137     0.369494     0.361851     0.354208     0.346565     0.338922
      0.331278     0.323635     0.315992     0.308349     0.300706     0.293063     0.285420     0.277777     0.270133     0.262490
      0.254847     0.247204     0.239561     0.231918     0.224275     0.216631     0.208988     0.201345
 NY phased data points follow
   4.09685E+01  4.42771E+01  4.16554E+01  4.04609E+01  4.51425E+01  4.53052E+01  4.66034E+01  4.55261E+01  4.44587E+01  4.66388E+01
   4.34666E+01  4.53609E+01  4.67211E+01  4.59402E+01  4.25000E+01  4.70780E+01  4.62262E+01  4.47380E+01  4.75963E+01  4.78940E+01
   4.62739E+01  5.08662E+01  4.75402E+01  4.88877E+01  4.79092E+01  4.56790E+01  4.63791E+01  4.43628E+01  4.64642E+01  4.80097E+01
   4.56494E+01  5.07650E+01  4.69849E+01  4.56243E+01  4.71564E+01  4.64508E+01  4.82178E+01  4.85245E+01  5.04864E+01  5.26697E+01
   5.08649E+01  5.14007E+01  4.86969E+01  5.04711E+01  4.97859E+01  5.03386E+01  5.27978E+01  5.46283E+01  5.03467E+01  5.32483E+01
   5.06206E+01  5.17641E+01  5.59418E+01  5.23035E+01  5.07842E+01  5.12884E+01  5.23797E+01  5.37792E+01  5.55580E+01  5.80307E+01
   5.65227E+01  5.78127E+01  5.47746E+01  5.41069E+01  5.34359E+01  5.64022E+01  5.59650E+01  5.47743E+01  5.64281E+01  5.79863E+01
   5.89588E+01  5.74263E+01  5.92226E+01  5.79898E+01  5.68963E+01  5.74404E+01  5.71642E+01  5.74226E+01  6.17226E+01  6.26639E+01
   5.91480E+01  6.10308E+01  6.36899E+01  6.01025E+01  6.51919E+01  6.13171E+01  6.37060E+01  6.06240E+01  6.22464E+01  6.60673E+01
   6.53982E+01  6.70284E+01  6.56168E+01  6.75225E+01  6.72978E+01  6.78178E+01  6.54194E+01  6.66118E+01  6.40417E+01  7.02437E+01
   6.64854E+01  7.08199E+01  6.83158E+01  7.11409E+01  7.23525E+01  7.63073E+01  7.24720E+01  7.54733E+01  7.65451E+01  7.23902E+01
   7.12396E+01  7.60184E+01  7.75557E+01  7.77546E+01  8.41133E+01  8.24696E+01  7.82932E+01  7.68165E+01  7.38846E+01  7.40728E+01
   7.31849E+01  7.44855E+01  7.04752E+01  7.60592E+01  7.78832E+01  7.70089E+01  7.90832E+01  8.12325E+01  8.08064E+01  8.34865E+01
   7.83655E+01  8.23647E+01  7.85853E+01  8.10814E+01  8.30077E+01  8.19935E+01  8.47677E+01  8.85273E+01  8.68737E+01  8.81619E+01
   8.76084E+01  8.57854E+01  8.24455E+01  8.61269E+01  8.48211E+01  8.52129E+01  8.11070E+01  8.40278E+01  8.24618E+01  8.63813E+01
   8.82163E+01  8.48275E+01  8.75026E+01  8.72813E+01  8.64504E+01  8.90242E+01  9.31535E+01  8.90709E+01  9.02698E+01  9.03977E+01
   9.28187E+01  9.18850E+01  9.18958E+01  9.19165E+01  9.03158E+01  9.24344E+01  9.29506E+01  9.81233E+01  9.57900E+01  9.46631E+01
   9.67888E+01  9.73097E+01  9.55467E+01  9.60683E+01  9.52791E+01  9.47698E+01  9.66626E+01  9.95340E+01  1.01351E+02  1.00220E+02
   9.95552E+01  1.00744E+02  1.00530E+02  1.04288E+02  1.02981E+02  1.05739E+02  1.02200E+02  1.01988E+02  1.04139E+02  1.01428E+02
   1.05920E+02  1.09020E+02  1.08536E+02  1.09771E+02  1.08375E+02  1.13166E+02  1.13113E+02  1.13610E+02  1.12399E+02  1.17876E+02
   1.15722E+02  1.19431E+02  1.19315E+02  1.21895E+02  1.21385E+02  1.23161E+02  1.25129E+02  1.24245E+02  1.28357E+02  1.29057E+02
   1.26957E+02  1.31088E+02  1.32739E+02  1.34128E+02  1.37483E+02  1.37605E+02  1.39856E+02  1.42380E+02  1.43648E+02  1.42549E+02
   1.49345E+02  1.48753E+02  1.51926E+02  1.54082E+02  1.53388E+02  1.54171E+02  1.56530E+02  1.60214E+02  1.61662E+02  1.59196E+02
   1.63248E+02  1.62233E+02  1.63000E+02  1.62235E+02  1.61303E+02  1.63469E+02  1.61155E+02  1.58865E+02  1.60892E+02  1.61579E+02
   1.55369E+02  1.58884E+02  1.54508E+02  1.54578E+02  1.53799E+02  1.57040E+02  1.55269E+02  1.56175E+02  1.62387E+02  1.62230E+02
   1.64481E+02  1.65551E+02  1.68403E+02  1.69230E+02  1.70687E+02  1.72886E+02  1.73032E+02  1.74790E+02  1.75140E+02  1.78285E+02
   1.80408E+02  1.77634E+02  1.73776E+02  1.78631E+02  1.81574E+02  1.79151E+02  1.79020E+02  1.78229E+02  1.72773E+02  1.73016E+02
   1.72925E+02  1.74661E+02  1.73647E+02  1.75092E+02  1.74555E+02  1.72822E+02  1.68098E+02  1.69177E+02  1.66567E+02  1.68851E+02
   1.65848E+02  1.65744E+02  1.68456E+02  1.65977E+02  1.64285E+02  1.65731E+02  1.68302E+02  1.66886E+02  1.72513E+02  1.73651E+02
   1.69092E+02  1.76554E+02  1.77069E+02  1.80365E+02  1.83609E+02  1.83342E+02  1.82463E+02  1.82238E+02  1.84642E+02  1.86081E+02
   1.93465E+02  1.93634E+02  1.93649E+02  1.97693E+02  1.98781E+02  1.97843E+02  2.00360E+02  2.03601E+02  2.04390E+02  2.06155E+02
   2.05270E+02  2.08763E+02  2.10755E+02  2.12494E+02  2.16420E+02  2.17323E+02  2.18969E+02  2.22801E+02  2.26564E+02  2.30702E+02
   2.31036E+02  2.33346E+02  2.37123E+02  2.35856E+02  2.38785E+02  2.41749E+02  2.46096E+02  2.45711E+02  2.49358E+02  2.51944E+02
   2.55635E+02  2.56084E+02  2.62371E+02  2.63152E+02  2.73500E+02  2.77411E+02  2.80961E+02  2.85446E+02  2.89314E+02  2.93806E+02
   3.03664E+02  3.08204E+02  3.14235E+02  3.17437E+02  3.27844E+02  3.35334E+02  3.39019E+02  3.48167E+02  3.56157E+02  3.62617E+02
   3.71137E+02  3.75535E+02  3.82175E+02  3.91507E+02  3.90789E+02  3.97886E+02  4.01737E+02  4.04996E+02  4.05625E+02  4.08616E+02
   4.07811E+02  4.01604E+02  3.97594E+02  3.86178E+02  3.76224E+02  3.69536E+02  3.53757E+02  3.45354E+02  3.36610E+02  3.28624E+02
   3.17961E+02  3.09561E+02  3.02332E+02  2.93543E+02  2.87010E+02  2.80557E+02  2.72833E+02  2.68337E+02  2.59768E+02  2.57120E+02
   2.49069E+02  2.35690E+02  2.35429E+02  2.29291E+02  2.26521E+02  2.19730E+02  2.11406E+02  2.07994E+02  2.03336E+02  1.99109E+02
   1.95203E+02  1.93162E+02  1.88390E+02  1.87998E+02  1.86395E+02  1.81680E+02  1.77211E+02  1.74308E+02  1.72941E+02  1.71012E+02
   1.67751E+02  1.63156E+02  1.62094E+02  1.60756E+02  1.56594E+02  1.56951E+02  1.50884E+02  1.50518E+02  1.50785E+02  1.45125E+02
   1.45008E+02  1.42357E+02  1.39498E+02  1.39095E+02  1.36772E+02  1.39035E+02  1.36454E+02  1.30244E+02  1.34734E+02  1.32156E+02
   1.34683E+02  1.30516E+02  1.26031E+02  1.26352E+02  1.25661E+02  1.23079E+02  1.22775E+02  1.22341E+02  1.16769E+02  1.16945E+02
   1.15645E+02  1.12614E+02  1.14982E+02  1.11059E+02  1.08787E+02  1.09093E+02  1.09170E+02  1.06370E+02  1.08241E+02  1.06449E+02
   1.01011E+02  1.01007E+02  1.01877E+02  9.88052E+01  9.94915E+01  9.93531E+01  9.88740E+01  1.01111E+02  9.63326E+01  9.46898E+01
   9.54718E+01  9.34831E+01  9.28260E+01  9.41734E+01  8.95475E+01  8.85443E+01  8.86491E+01  8.94495E+01  8.62929E+01  8.52145E+01
   8.32994E+01  8.51877E+01  8.61752E+01  8.56645E+01  8.40229E+01  8.20813E+01  8.08069E+01  8.18872E+01  8.22036E+01  8.14733E+01
   7.87169E+01  7.92765E+01  7.84809E+01  8.18183E+01  7.87738E+01  7.75836E+01  7.61794E+01  7.74069E+01  7.64126E+01  7.63122E+01
   7.46905E+01  7.71977E+01  7.55898E+01  7.49279E+01  7.19714E+01  7.52876E+01  7.21892E+01  7.03066E+01  6.94953E+01  6.84892E+01
   7.34895E+01  6.85387E+01  6.90748E+01  6.92746E+01  6.79545E+01  6.65945E+01  7.04398E+01  7.15278E+01
 NY points of the fit to the data follow
   4.26390E+01  4.26251E+01  4.26661E+01  4.28555E+01  4.33521E+01  4.40398E+01  4.45725E+01  4.49277E+01  4.51931E+01  4.54054E+01
   4.56027E+01  4.58224E+01  4.60227E+01  4.60722E+01  4.58805E+01  4.55640E+01  4.54812E+01  4.56471E+01  4.59138E+01  4.62801E+01
   4.66937E+01  4.68987E+01  4.68633E+01  4.67496E+01  4.66346E+01  4.65234E+01  4.66128E+01  4.70143E+01  4.74013E+01  4.74898E+01
   4.74161E+01  4.76392E+01  4.82683E+01  4.88681E+01  4.94981E+01  5.00573E+01  5.01475E+01  4.95899E+01  4.88846E+01  4.86765E+01
   4.88531E+01  4.93273E+01  5.00003E+01  5.06190E+01  5.08837E+01  5.09321E+01  5.10852E+01  5.12856E+01  5.14877E+01  5.17180E+01
   5.19632E+01  5.22203E+01  5.24833E+01  5.27440E+01  5.30115E+01  5.32911E+01  5.35797E+01  5.38759E+01  5.41670E+01  5.44505E+01
   5.47420E+01  5.50438E+01  5.53557E+01  5.56746E+01  5.59988E+01  5.63230E+01  5.66457E+01  5.69719E+01  5.73055E+01  5.76429E+01
   5.79870E+01  5.83404E+01  5.86941E+01  5.90447E+01  5.93938E+01  5.97385E+01  6.00875E+01  6.04405E+01  6.07959E+01  6.11522E+01
   6.14999E+01  6.18452E+01  6.22110E+01  6.25989E+01  6.29890E+01  6.33760E+01  6.37573E+01  6.41293E+01  6.44936E+01  6.48515E+01
   6.51889E+01  6.54883E+01  6.57632E+01  6.60747E+01  6.64387E+01  6.68180E+01  6.71999E+01  6.76084E+01  6.81858E+01  6.91003E+01
   7.01114E+01  7.09666E+01  7.16217E+01  7.21300E+01  7.25475E+01  7.29894E+01  7.35022E+01  7.38902E+01  7.38241E+01  7.31974E+01
   7.25520E+01  7.25278E+01  7.27750E+01  7.30704E+01  7.33774E+01  7.36937E+01  7.40145E+01  7.43386E+01  7.46654E+01  7.49976E+01
   7.53477E+01  7.57836E+01  7.64576E+01  7.72603E+01  7.79836E+01  7.85662E+01  7.90455E+01  7.94587E+01  7.98752E+01  8.03454E+01
   8.07743E+01  8.09335E+01  8.06628E+01  8.02285E+01  8.02165E+01  8.05138E+01  8.08831E+01  8.12847E+01  8.17158E+01  8.21763E+01
   8.26646E+01  8.31783E+01  8.37141E+01  8.42716E+01  8.48429E+01  8.54243E+01  8.60214E+01  8.66372E+01  8.72677E+01  8.78985E+01
   8.85187E+01  8.91255E+01  8.97195E+01  9.03043E+01  9.08728E+01  9.14107E+01  9.19031E+01  9.23449E+01  9.27506E+01  9.31325E+01
   9.34995E+01  9.38446E+01  9.41491E+01  9.44078E+01  9.46322E+01  9.48456E+01  9.50746E+01  9.53259E+01  9.55633E+01  9.57611E+01
   9.59353E+01  9.61063E+01  9.63159E+01  9.65904E+01  9.69210E+01  9.73030E+01  9.77216E+01  9.81685E+01  9.86569E+01  9.92049E+01
   9.98257E+01  1.00523E+02  1.01277E+02  1.02040E+02  1.02803E+02  1.03624E+02  1.04527E+02  1.05493E+02  1.06436E+02  1.07291E+02
   1.08106E+02  1.08879E+02  1.09666E+02  1.10505E+02  1.11376E+02  1.12301E+02  1.13433E+02  1.14819E+02  1.16370E+02  1.18050E+02
   1.19839E+02  1.21612E+02  1.23271E+02  1.24589E+02  1.25430E+02  1.25646E+02  1.25580E+02  1.25640E+02  1.26057E+02  1.26761E+02
   1.27532E+02  1.28377E+02  1.29586E+02  1.31398E+02  1.34060E+02  1.37296E+02  1.39968E+02  1.41416E+02  1.42567E+02  1.43838E+02
   1.45105E+02  1.46338E+02  1.47586E+02  1.48837E+02  1.50072E+02  1.51270E+02  1.52403E+02  1.53436E+02  1.54361E+02  1.55168E+02
   1.55727E+02  1.55963E+02  1.56132E+02  1.56446E+02  1.56945E+02  1.57644E+02  1.58524E+02  1.59227E+02  1.59532E+02  1.59683E+02
   1.60115E+02  1.60914E+02  1.61583E+02  1.61731E+02  1.61598E+02  1.61309E+02  1.61123E+02  1.61532E+02  1.62835E+02  1.64506E+02
   1.66258E+02  1.68064E+02  1.69771E+02  1.71281E+02  1.72622E+02  1.73941E+02  1.75407E+02  1.76750E+02  1.77709E+02  1.78238E+02
   1.78459E+02  1.78504E+02  1.78550E+02  1.78608E+02  1.78385E+02  1.77280E+02  1.75063E+02  1.72767E+02  1.71567E+02  1.70870E+02
   1.70306E+02  1.69836E+02  1.69460E+02  1.69177E+02  1.68984E+02  1.68883E+02  1.68867E+02  1.68925E+02  1.69055E+02  1.69251E+02
   1.69508E+02  1.69818E+02  1.70177E+02  1.70587E+02  1.71053E+02  1.71571E+02  1.72145E+02  1.72779E+02  1.73479E+02  1.74251E+02
   1.75101E+02  1.76036E+02  1.77065E+02  1.78197E+02  1.79438E+02  1.80789E+02  1.82254E+02  1.83831E+02  1.85511E+02  1.87287E+02
   1.89145E+02  1.91066E+02  1.93033E+02  1.95024E+02  1.97020E+02  1.99003E+02  2.00959E+02  2.02877E+02  2.04752E+02  2.06587E+02
   2.08387E+02  2.10165E+02  2.11937E+02  2.13725E+02  2.15550E+02  2.17436E+02  2.19405E+02  2.21475E+02  2.23668E+02  2.26002E+02
   2.28508E+02  2.31254E+02  2.34283E+02  2.37266E+02  2.39984E+02  2.42524E+02  2.45029E+02  2.47564E+02  2.50157E+02  2.52789E+02
   2.55578E+02  2.58514E+02  2.61569E+02  2.65183E+02  2.69774E+02  2.74705E+02  2.79712E+02  2.85029E+02  2.90793E+02  2.96814E+02
   3.02599E+02  3.07957E+02  3.13765E+02  3.20681E+02  3.28219E+02  3.35388E+02  3.42045E+02  3.48547E+02  3.55119E+02  3.61784E+02
   3.68476E+02  3.75339E+02  3.82063E+02  3.87786E+02  3.92693E+02  3.98103E+02  4.03469E+02  4.06883E+02  4.08454E+02  4.08525E+02
   4.06785E+02  4.02201E+02  3.94221E+02  3.84707E+02  3.75270E+02  3.65779E+02  3.56248E+02  3.46787E+02  3.37493E+02  3.28437E+02
   3.19653E+02  3.11155E+02  3.02940E+02  2.94996E+02  2.87313E+02  2.79880E+02  2.72689E+02  2.65737E+02  2.59024E+02  2.52550E+02
   2.46316E+02  2.40325E+02  2.34577E+02  2.29074E+02  2.23812E+02  2.18790E+02  2.14003E+02  2.09445E+02  2.05112E+02  2.00994E+02
   1.97083E+02  1.93370E+02  1.89845E+02  1.86497E+02  1.83316E+02  1.80290E+02  1.77406E+02  1.74654E+02  1.72021E+02  1.69496E+02
   1.67067E+02  1.64723E+02  1.62454E+02  1.60250E+02  1.58102E+02  1.56004E+02  1.53950E+02  1.51934E+02  1.49952E+02  1.48002E+02
   1.46084E+02  1.44197E+02  1.42340E+02  1.40516E+02  1.38725E+02  1.36968E+02  1.35248E+02  1.33565E+02  1.31921E+02  1.30315E+02
   1.28749E+02  1.27222E+02  1.25733E+02  1.24283E+02  1.22869E+02  1.21491E+02  1.20147E+02  1.18836E+02  1.17556E+02  1.16305E+02
   1.15083E+02  1.13887E+02  1.12716E+02  1.11569E+02  1.10445E+02  1.09342E+02  1.08260E+02  1.07198E+02  1.06156E+02  1.05131E+02
   1.04125E+02  1.03136E+02  1.02163E+02  1.01207E+02  1.00268E+02  9.93445E+01  9.84366E+01  9.75441E+01  9.66668E+01  9.58048E+01
   9.49579E+01  9.41260E+01  9.33089E+01  9.25066E+01  9.17186E+01  9.09445E+01  9.01841E+01  8.94368E+01  8.87022E+01  8.79800E+01
   8.72699E+01  8.65715E+01  8.58846E+01  8.52088E+01  8.45436E+01  8.38890E+01  8.32446E+01  8.26101E+01  8.19853E+01  8.13698E+01
   8.07633E+01  8.01657E+01  7.95768E+01  7.89962E+01  7.84237E+01  7.78590E+01  7.73019E+01  7.67523E+01  7.62099E+01  7.56744E+01
   7.51457E+01  7.46234E+01  7.41075E+01  7.35978E+01  7.30939E+01  7.25958E+01  7.21032E+01  7.16158E+01  7.11337E+01  7.06565E+01
   7.01840E+01  6.97161E+01  6.92525E+01  6.87932E+01  6.83379E+01  6.78865E+01  6.74387E+01  6.69943E+01
 NY background values follow
     4.186E+01    4.202E+01    4.217E+01    4.232E+01    4.248E+01    4.263E+01    4.278E+01    4.292E+01    4.307E+01    4.322E+01
     4.336E+01    4.351E+01    4.366E+01    4.380E+01    4.395E+01    4.409E+01    4.424E+01    4.438E+01    4.453E+01    4.468E+01
     4.483E+01    4.498E+01    4.513E+01    4.529E+01    4.544E+01    4.560E+01    4.576E+01    4.592E+01    4.609E+01    4.625E+01
     4.642E+01    4.660E+01    4.677E+01    4.695E+01    4.714E+01    4.732E+01    4.751E+01    4.771E+01    4.791E+01    4.811E+01
     4.832E+01    4.853E+01    4.874E+01    4.897E+01    4.919E+01    4.942E+01    4.966E+01    4.991E+01    5.015E+01    5.041E+01
     5.067E+01    5.093E+01    5.120E+01    5.147E+01    5.175E+01    5.203E+01    5.232E+01    5.261E+01    5.290E+01    5.320E+01
     5.350E+01    5.380E+01    5.411E+01    5.442E+01    5.474E+01    5.506E+01    5.538E+01    5.570E+01    5.603E+01    5.636E+01
     5.669E+01    5.702E+01    5.735E+01    5.769E+01    5.803E+01    5.837E+01    5.871E+01    5.906E+01    5.940E+01    5.975E+01
     6.009E+01    6.044E+01    6.079E+01    6.114E+01    6.149E+01    6.184E+01    6.219E+01    6.254E+01    6.288E+01    6.323E+01
     6.358E+01    6.393E+01    6.428E+01    6.463E+01    6.497E+01    6.532E+01    6.567E+01    6.601E+01    6.635E+01    6.670E+01
     6.704E+01    6.738E+01    6.772E+01    6.805E+01    6.839E+01    6.872E+01    6.906E+01    6.939E+01    6.972E+01    7.005E+01
     7.038E+01    7.070E+01    7.103E+01    7.135E+01    7.167E+01    7.199E+01    7.230E+01    7.262E+01    7.293E+01    7.324E+01
     7.355E+01    7.385E+01    7.416E+01    7.446E+01    7.475E+01    7.505E+01    7.534E+01    7.563E+01    7.592E+01    7.621E+01
     7.649E+01    7.677E+01    7.704E+01    7.732E+01    7.759E+01    7.785E+01    7.812E+01    7.838E+01    7.864E+01    7.889E+01
     7.915E+01    7.940E+01    7.966E+01    7.992E+01    8.018E+01    8.044E+01    8.070E+01    8.097E+01    8.124E+01    8.152E+01
     8.180E+01    8.209E+01    8.239E+01    8.269E+01    8.300E+01    8.332E+01    8.365E+01    8.399E+01    8.434E+01    8.470E+01
     8.508E+01    8.547E+01    8.587E+01    8.628E+01    8.671E+01    8.716E+01    8.762E+01    8.810E+01    8.859E+01    8.911E+01
     8.964E+01    9.019E+01    9.076E+01    9.135E+01    9.197E+01    9.260E+01    9.326E+01    9.394E+01    9.465E+01    9.538E+01
     9.613E+01    9.692E+01    9.772E+01    9.856E+01    9.941E+01    1.003E+02    1.012E+02    1.021E+02    1.030E+02    1.040E+02
     1.050E+02    1.060E+02    1.070E+02    1.080E+02    1.090E+02    1.100E+02    1.111E+02    1.121E+02    1.132E+02    1.143E+02
     1.153E+02    1.164E+02    1.175E+02    1.185E+02    1.196E+02    1.207E+02    1.217E+02    1.228E+02    1.239E+02    1.249E+02
     1.259E+02    1.270E+02    1.280E+02    1.290E+02    1.300E+02    1.310E+02    1.319E+02    1.329E+02    1.338E+02    1.347E+02
     1.356E+02    1.365E+02    1.373E+02    1.382E+02    1.389E+02    1.397E+02    1.405E+02    1.412E+02    1.419E+02    1.425E+02
     1.431E+02    1.437E+02    1.443E+02    1.449E+02    1.454E+02    1.459E+02    1.464E+02    1.468E+02    1.473E+02    1.477E+02
     1.481E+02    1.484E+02    1.488E+02    1.491E+02    1.494E+02    1.497E+02    1.500E+02    1.503E+02    1.505E+02    1.508E+02
     1.510E+02    1.512E+02    1.514E+02    1.515E+02    1.517E+02    1.519E+02    1.520E+02    1.521E+02    1.523E+02    1.524E+02
     1.525E+02    1.526E+02    1.527E+02    1.527E+02    1.528E+02    1.529E+02    1.529E+02    1.530E+02    1.531E+02    1.531E+02
     1.532E+02    1.532E+02    1.533E+02    1.533E+02    1.534E+02    1.534E+02    1.535E+02    1.535E+02    1.535E+02    1.536E+02
     1.536E+02    1.536E+02    1.537E+02    1.537E+02    1.537E+02    1.537E+02    1.538E+02    1.538E+02    1.538E+02    1.538E+02
     1.538E+02    1.538E+02    1.538E+02    1.538E+02    1.538E+02    1.538E+02    1.537E+02    1.537E+02    1.537E+02    1.536E+02
     1.536E+02    1.535E+02    1.535E+02    1.534E+02    1.534E+02    1.533E+02    1.532E+02    1.531E+02    1.530E+02    1.529E+02
     1.528E+02    1.527E+02    1.526E+02    1.525E+02    1.524E+02    1.522E+02    1.521E+02    1.519E+02    1.518E+02    1.516E+02
     1.514E+02    1.512E+02    1.510E+02    1.508E+02    1.506E+02    1.504E+02    1.502E+02    1.500E+02    1.497E+02    1.495E+02
     1.492E+02    1.490E+02    1.487E+02    1.484E+02    1.481E+02    1.479E+02    1.476E+02    1.473E+02    1.470E+02    1.467E+02
     1.463E+02    1.460E+02    1.457E+02    1.454E+02    1.450E+02    1.447E+02    1.443E+02    1.439E+02    1.436E+02    1.432E+02
     1.428E+02    1.425E+02    1.421E+02    1.417E+02    1.413E+02    1.409E+02    1.405E+02    1.401E+02    1.396E+02    1.392E+02
     1.388E+02    1.383E+02    1.379E+02    1.375E+02    1.370E+02    1.366E+02    1.361E+02    1.356E+02    1.352E+02    1.347E+02
     1.342E+02    1.338E+02    1.333E+02    1.328E+02    1.323E+02    1.318E+02    1.313E+02    1.308E+02    1.303E+02    1.297E+02
     1.292E+02    1.287E+02    1.282E+02    1.276E+02    1.271E+02    1.265E+02    1.260E+02    1.254E+02    1.248E+02    1.243E+02
     1.237E+02    1.231E+02    1.225E+02    1.220E+02    1.214E+02    1.208E+02    1.202E+02    1.196E+02    1.189E+02    1.183E+02
     1.177E+02    1.171E+02    1.165E+02    1.158E+02    1.152E+02    1.145E+02    1.139E+02    1.132E+02    1.126E+02    1.119E+02
     1.112E+02    1.105E+02    1.099E+02    1.092E+02    1.085E+02    1.078E+02    1.071E+02    1.064E+02    1.057E+02    1.050E+02
     1.043E+02    1.036E+02    1.029E+02    1.022E+02    1.015E+02    1.008E+02    1.001E+02    9.944E+01    9.875E+01    9.805E+01
     9.735E+01    9.665E+01    9.596E+01    9.527E+01    9.458E+01    9.390E+01    9.321E+01    9.253E+01    9.186E+01    9.118E+01
     9.052E+01    8.985E+01    8.919E+01    8.854E+01    8.789E+01    8.725E+01    8.661E+01    8.598E+01    8.536E+01    8.474E+01
     8.413E+01    8.353E+01    8.293E+01    8.234E+01    8.176E+01    8.119E+01    8.062E+01    8.007E+01    7.952E+01    7.897E+01
     7.843E+01    7.790E+01    7.738E+01    7.686E+01    7.635E+01    7.585E+01    7.535E+01    7.485E+01    7.437E+01    7.389E+01
     7.341E+01    7.294E+01    7.247E+01    7.201E+01    7.156E+01    7.111E+01    7.066E+01    7.022E+01    6.979E+01    6.936E+01
     6.893E+01    6.850E+01    6.808E+01    6.767E+01    6.726E+01    6.685E+01    6.644E+01    6.604E+01    6.564E+01    6.525E+01
     6.485E+01    6.446E+01    6.408E+01    6.369E+01    6.331E+01    6.293E+01    6.255E+01    6.218E+01
 Ala      Conc. = 2.18E+02
