 LCModel (Version 6.3-1L) Copyright: S.W. Provencher.          Ref.: Magn. Reson. Med. 30:672-679 (1993).                
 Slice#1 Row#14 Col#4  PD_24_press_1_raw_act
 36 lines in following concentration table = NCONC+1
    Conc.  %SD /Cr+PCr  Metabolite                                         
    0.000 999%   0.000 Ala                                                 
    4.780  70% 7.9E-02 Asp                                                 
    0.000 999%   0.000 Cr                                                  
   60.471  33%   1.000 PCr                                                 
    2.924  68% 4.8E-02 GABA                                                
    2.856  70% 4.7E-02 Glc                                                 
    0.000 999%   0.000 Gln                                                 
    0.000 999%   0.000 Glu                                                 
    0.000 999%   0.000 GPC                                                 
    9.362  76%   0.155 PCh                                                 
    0.000 999%   0.000 GSH                                                 
    0.000 999%   0.000 Ins                                                 
    0.000 999%   0.000 Lac                                                 
    0.000 999%   0.000 NAA                                                 
    7.571 318%   0.125 NAAG                                                
    0.981  68% 1.6E-02 Scyllo                                              
    4.705  71% 7.8E-02 Tau                                                 
    4.939  79% 8.2E-02 -CrCH2                                              
    9.362  76%   0.155 GPC+PCh                                             
    7.571 318%   0.125 NAA+NAAG                                            
   60.471  33%   1.000 Cr+PCr                                              
    0.000 999%   0.000 Glu+Gln                                             
    0.000 999%   0.000 Lip13a                                              
    0.000 999%   0.000 Lip13b                                              
 4.63E-02 999% 7.7E-04 Lip09                                               
  339.285  22%   5.611 MM09                                                
 3.82E-03 999% 6.3E-05 Lip20                                               
   33.771 449%   0.558 MM20                                                
   64.669 113%   1.069 MM12                                                
    0.000 999%   0.000 MM14                                                
  190.769  50%   3.155 MM17                                                
    0.000 999%   0.000 Lip13a+Lip13b                                       
   64.669 113%   1.069 MM14+Lip13a+Lip13b+MM12                             
  339.332  22%   5.612 MM09+Lip09                                          
   33.775 449%   0.559 MM20+Lip20                                          
   6 lines in following misc. output table
  FWHM = 0.054 ppm    S/N =   1                                            
  Data shift =-0.015 ppm                                                   
  Ph: 119 deg       2.8 deg/ppm                                            
  alphaB,S = 4.6E-01,   2.2E+01                                            
   14 spline knots.   Ns = 5(1)                                            
  ( 4) 2 infls.   ( 3) 1 extrs.                                            
  498 points on ppm-axis = NY
      4.000000     3.992357     3.984714     3.977070     3.969427     3.961784     3.954141     3.946497     3.938854     3.931211
      3.923568     3.915925     3.908281     3.900638     3.892995     3.885352     3.877708     3.870065     3.862422     3.854779
      3.847136     3.839492     3.831849     3.824206     3.816563     3.808919     3.801276     3.793633     3.785990     3.778347
      3.770703     3.763060     3.755417     3.747774     3.740130     3.732487     3.724844     3.717201     3.709558     3.701914
      3.694271     3.686628     3.678985     3.671341     3.663698     3.656055     3.648412     3.640769     3.633125     3.625482
      3.617839     3.610196     3.602552     3.594909     3.587266     3.579623     3.571980     3.564336     3.556693     3.549050
      3.541407     3.533763     3.526120     3.518477     3.510834     3.503191     3.495547     3.487904     3.480261     3.472618
      3.464974     3.457331     3.449688     3.442045     3.434402     3.426758     3.419115     3.411472     3.403829     3.396185
      3.388542     3.380899     3.373256     3.365613     3.357969     3.350326     3.342683     3.335040     3.327396     3.319753
      3.312110     3.304467     3.296824     3.289180     3.281537     3.273894     3.266251     3.258607     3.250964     3.243321
      3.235678     3.228034     3.220391     3.212748     3.205105     3.197462     3.189818     3.182175     3.174532     3.166889
      3.159245     3.151602     3.143959     3.136316     3.128673     3.121029     3.113386     3.105743     3.098100     3.090456
      3.082813     3.075170     3.067527     3.059884     3.052240     3.044597     3.036954     3.029311     3.021667     3.014024
      3.006381     2.998738     2.991095     2.983451     2.975808     2.968165     2.960522     2.952878     2.945235     2.937592
      2.929949     2.922306     2.914662     2.907019     2.899376     2.891733     2.884089     2.876446     2.868803     2.861160
      2.853517     2.845873     2.838230     2.830587     2.822944     2.815300     2.807657     2.800014     2.792371     2.784728
      2.777084     2.769441     2.761798     2.754155     2.746511     2.738868     2.731225     2.723582     2.715939     2.708295
      2.700652     2.693009     2.685366     2.677722     2.670079     2.662436     2.654793     2.647150     2.639506     2.631863
      2.624220     2.616577     2.608933     2.601290     2.593647     2.586004     2.578361     2.570717     2.563074     2.555431
      2.547788     2.540144     2.532501     2.524858     2.517215     2.509572     2.501928     2.494285     2.486642     2.478999
      2.471355     2.463712     2.456069     2.448426     2.440783     2.433139     2.425496     2.417853     2.410210     2.402566
      2.394923     2.387280     2.379637     2.371994     2.364350     2.356707     2.349064     2.341421     2.333777     2.326134
      2.318491     2.310848     2.303205     2.295561     2.287918     2.280275     2.272632     2.264988     2.257345     2.249702
      2.242059     2.234416     2.226772     2.219129     2.211486     2.203843     2.196199     2.188556     2.180913     2.173270
      2.165627     2.157983     2.150340     2.142697     2.135054     2.127410     2.119767     2.112124     2.104481     2.096838
      2.089194     2.081551     2.073908     2.066265     2.058621     2.050978     2.043335     2.035692     2.028049     2.020405
      2.012762     2.005119     1.997476     1.989833     1.982190     1.974546     1.966903     1.959260     1.951617     1.943974
      1.936331     1.928688     1.921045     1.913402     1.905759     1.898115     1.890472     1.882829     1.875186     1.867543
      1.859900     1.852257     1.844614     1.836971     1.829327     1.821684     1.814041     1.806398     1.798755     1.791112
      1.783469     1.775826     1.768183     1.760540     1.752896     1.745253     1.737610     1.729967     1.722324     1.714681
      1.707038     1.699395     1.691752     1.684108     1.676465     1.668822     1.661179     1.653536     1.645893     1.638250
      1.630607     1.622964     1.615321     1.607677     1.600034     1.592391     1.584748     1.577105     1.569462     1.561819
      1.554176     1.546533     1.538890     1.531246     1.523603     1.515960     1.508317     1.500674     1.493031     1.485388
      1.477745     1.470102     1.462458     1.454815     1.447172     1.439529     1.431886     1.424243     1.416600     1.408957
      1.401314     1.393671     1.386027     1.378384     1.370741     1.363098     1.355455     1.347812     1.340169     1.332526
      1.324883     1.317240     1.309596     1.301953     1.294310     1.286667     1.279024     1.271381     1.263738     1.256095
      1.248452     1.240808     1.233165     1.225522     1.217879     1.210236     1.202593     1.194950     1.187307     1.179664
      1.172021     1.164377     1.156734     1.149091     1.141448     1.133805     1.126162     1.118519     1.110876     1.103233
      1.095590     1.087946     1.080303     1.072660     1.065017     1.057374     1.049731     1.042088     1.034445     1.026802
      1.019158     1.011515     1.003872     0.996229     0.988586     0.980943     0.973300     0.965657     0.958014     0.950371
      0.942727     0.935084     0.927441     0.919798     0.912155     0.904512     0.896869     0.889226     0.881583     0.873940
      0.866296     0.858653     0.851010     0.843367     0.835724     0.828081     0.820438     0.812795     0.805152     0.797508
      0.789865     0.782222     0.774579     0.766936     0.759293     0.751650     0.744007     0.736364     0.728721     0.721077
      0.713434     0.705791     0.698148     0.690505     0.682862     0.675219     0.667576     0.659933     0.652290     0.644646
      0.637003     0.629360     0.621717     0.614074     0.606431     0.598788     0.591145     0.583502     0.575858     0.568215
      0.560572     0.552929     0.545286     0.537643     0.530000     0.522357     0.514714     0.507071     0.499427     0.491784
      0.484141     0.476498     0.468855     0.461212     0.453569     0.445925     0.438282     0.430639     0.422996     0.415353
      0.407710     0.400067     0.392424     0.384780     0.377137     0.369494     0.361851     0.354208     0.346565     0.338922
      0.331278     0.323635     0.315992     0.308349     0.300706     0.293063     0.285420     0.277777     0.270133     0.262490
      0.254847     0.247204     0.239561     0.231918     0.224275     0.216631     0.208988     0.201345
 NY phased data points follow
   4.76633E+01  4.78843E+01  4.60111E+01  4.71946E+01  4.70596E+01  4.78639E+01  4.58568E+01  4.57807E+01  4.54226E+01  4.37844E+01
   4.48266E+01  4.35019E+01  4.36209E+01  4.30837E+01  4.18825E+01  4.08846E+01  4.03542E+01  4.25000E+01  3.83599E+01  3.83620E+01
   3.77509E+01  3.67634E+01  3.90798E+01  3.84230E+01  3.76573E+01  3.98490E+01  3.59756E+01  3.68151E+01  3.51993E+01  3.45724E+01
   3.63087E+01  3.55647E+01  3.47515E+01  3.58279E+01  3.33296E+01  3.31821E+01  3.37533E+01  3.11774E+01  3.36158E+01  3.13086E+01
   3.24386E+01  3.06718E+01  2.97766E+01  3.00561E+01  2.95443E+01  3.15373E+01  3.03858E+01  3.13436E+01  2.99832E+01  2.93943E+01
   2.64336E+01  2.83835E+01  2.90384E+01  2.93421E+01  2.88486E+01  2.91723E+01  2.91941E+01  2.81524E+01  2.73973E+01  2.82855E+01
   2.88452E+01  2.70226E+01  2.64724E+01  3.02007E+01  2.73854E+01  2.30990E+01  2.80768E+01  2.47382E+01  2.61148E+01  2.62326E+01
   2.53958E+01  2.78834E+01  2.58590E+01  2.41866E+01  2.61867E+01  2.23552E+01  2.42654E+01  2.33769E+01  2.48371E+01  2.31297E+01
   2.24904E+01  2.34275E+01  2.32352E+01  2.32613E+01  2.47003E+01  2.38559E+01  2.31322E+01  2.29364E+01  2.27284E+01  2.17348E+01
   2.43802E+01  2.06087E+01  2.21601E+01  1.94148E+01  2.31087E+01  2.19459E+01  1.97370E+01  1.93965E+01  2.04121E+01  1.99498E+01
   2.17643E+01  2.23887E+01  2.21829E+01  1.98234E+01  2.12701E+01  1.94633E+01  2.09136E+01  2.16367E+01  2.14724E+01  1.84275E+01
   1.83533E+01  1.86900E+01  1.87012E+01  1.78308E+01  1.73894E+01  1.69020E+01  1.97150E+01  1.99879E+01  2.13107E+01  1.81761E+01
   1.59552E+01  1.82707E+01  1.70381E+01  1.55671E+01  2.00491E+01  1.79240E+01  1.88912E+01  1.92669E+01  2.11560E+01  1.58507E+01
   1.63049E+01  1.52102E+01  1.90405E+01  1.81888E+01  1.79725E+01  1.46461E+01  1.70739E+01  1.72078E+01  1.63943E+01  1.91402E+01
   1.77344E+01  1.64403E+01  1.73424E+01  1.63224E+01  1.93995E+01  1.66065E+01  1.60176E+01  1.82124E+01  1.45870E+01  1.72374E+01
   1.48132E+01  1.71940E+01  1.24416E+01  1.62508E+01  1.67461E+01  1.57093E+01  1.45368E+01  1.54597E+01  1.80250E+01  1.53315E+01
   1.68731E+01  1.40974E+01  1.29651E+01  1.53907E+01  1.54444E+01  1.42336E+01  1.55873E+01  1.43932E+01  1.39818E+01  1.42632E+01
   1.66516E+01  1.43168E+01  1.62432E+01  1.53654E+01  1.34199E+01  1.31715E+01  1.42650E+01  1.20221E+01  1.41224E+01  1.46683E+01
   1.26988E+01  1.45255E+01  1.40692E+01  1.46239E+01  1.59186E+01  1.24829E+01  1.23932E+01  1.64997E+01  1.44587E+01  1.47756E+01
   1.47831E+01  1.32942E+01  1.51984E+01  1.53650E+01  1.22994E+01  1.48498E+01  1.49815E+01  1.06973E+01  1.27833E+01  1.09055E+01
   1.06143E+01  1.35567E+01  1.33174E+01  1.31579E+01  1.22144E+01  1.27530E+01  1.46391E+01  1.12520E+01  1.08998E+01  1.21994E+01
   1.33039E+01  1.28951E+01  1.41223E+01  1.15184E+01  1.05262E+01  1.23312E+01  1.24727E+01  1.27086E+01  1.04259E+01  1.12911E+01
   1.14281E+01  1.37126E+01  1.10186E+01  1.22137E+01  1.40736E+01  1.13998E+01  1.15319E+01  1.12005E+01  1.03310E+01  1.16329E+01
   1.08303E+01  8.87528E+00  1.14209E+01  1.12517E+01  8.99168E+00  1.27835E+01  9.68845E+00  1.17752E+01  1.12145E+01  1.53283E+01
   1.09022E+01  1.11306E+01  1.13357E+01  1.19090E+01  1.05801E+01  1.21940E+01  1.17452E+01  1.18025E+01  8.99905E+00  7.11891E+00
   9.26007E+00  7.91845E+00  9.36222E+00  1.10335E+01  9.90386E+00  1.04631E+01  1.16903E+01  8.09249E+00  1.05337E+01  1.31020E+01
   9.60377E+00  9.28658E+00  8.36848E+00  1.04399E+01  7.34402E+00  1.03767E+01  7.55537E+00  8.54413E+00  1.20265E+01  7.74027E+00
   9.11471E+00  7.67002E+00  8.25635E+00  6.31978E+00  1.16197E+01  9.69192E+00  6.15401E+00  9.72914E+00  1.13867E+01  9.07398E+00
   8.59990E+00  8.75727E+00  6.46698E+00  1.04263E+01  8.42695E+00  1.02800E+01  1.12468E+01  1.04578E+01  9.48112E+00  1.00146E+01
   1.36043E+01  1.05295E+01  9.63249E+00  1.09388E+01  7.46970E+00  9.04177E+00  8.53980E+00  8.62364E+00  9.43494E+00  1.03765E+01
   8.15789E+00  8.80134E+00  1.03346E+01  1.01944E+01  7.29524E+00  9.45945E+00  8.37813E+00  9.15825E+00  8.28741E+00  9.96753E+00
   7.39449E+00  1.12226E+01  8.45930E+00  8.55162E+00  8.69760E+00  6.76380E+00  6.46210E+00  8.21231E+00  9.57229E+00  6.63556E+00
   7.81748E+00  1.01910E+01  1.02292E+01  6.50167E+00  1.01431E+01  7.71288E+00  7.75195E+00  6.03147E+00  7.69236E+00  6.98209E+00
   8.67253E+00  7.57256E+00  9.43209E+00  5.69984E+00  6.73634E+00  5.45839E+00  7.85317E+00  6.55537E+00  7.43061E+00  5.94240E+00
   5.12271E+00  1.05129E+01  1.03537E+01  6.44105E+00  4.22620E+00  9.49943E+00  7.52942E+00  1.05162E+01  8.18122E+00  8.47266E+00
   9.49287E+00  9.40881E+00  6.82051E+00  9.34525E+00  9.91324E+00  8.21388E+00  8.08891E+00  8.86144E+00  7.18311E+00  9.19751E+00
   7.15094E+00  5.12909E+00  6.88395E+00  8.33218E+00  6.33079E+00  6.73200E+00  8.84825E+00  6.48067E+00  9.26436E+00  8.33047E+00
   7.82030E+00  8.53961E+00  1.06192E+01  1.08579E+01  9.78674E+00  9.16986E+00  8.28197E+00  9.40094E+00  8.17317E+00  8.45193E+00
   7.63609E+00  8.56753E+00  8.70185E+00  1.01118E+01  9.56718E+00  9.66874E+00  9.25179E+00  1.15687E+01  9.02382E+00  1.24265E+01
   1.10881E+01  1.14035E+01  1.14480E+01  1.24678E+01  9.99120E+00  1.18990E+01  1.13462E+01  9.48601E+00  1.09780E+01  9.87747E+00
   9.44646E+00  9.99410E+00  1.15370E+01  1.26767E+01  6.58554E+00  1.02007E+01  1.35800E+01  1.19683E+01  1.15589E+01  8.37465E+00
   9.74152E+00  8.88280E+00  1.06508E+01  1.38856E+01  1.11206E+01  9.75197E+00  1.13195E+01  1.20254E+01  1.02368E+01  9.12460E+00
   1.26344E+01  1.19683E+01  1.02982E+01  1.06122E+01  1.03064E+01  9.70259E+00  9.20147E+00  1.06267E+01  8.12467E+00  8.81839E+00
   9.70228E+00  1.13998E+01  1.13329E+01  8.12207E+00  8.92826E+00  6.75057E+00  8.25028E+00  7.98825E+00  8.97755E+00  8.95968E+00
   7.43471E+00  1.04179E+01  9.42256E+00  6.91997E+00  1.00360E+01  1.11149E+01  9.90689E+00  5.56212E+00  7.61484E+00  1.02085E+01
   9.69550E+00  8.98853E+00  8.71255E+00  8.82083E+00  8.43073E+00  7.01072E+00  6.30647E+00  9.44825E+00  5.98735E+00  8.89129E+00
   7.23894E+00  8.81585E+00  8.97696E+00  7.62502E+00  5.90741E+00  9.09809E+00  9.35648E+00  8.44798E+00  7.32305E+00  7.14030E+00
   4.87740E+00  1.01528E+01  7.18511E+00  5.57302E+00  7.88360E+00  7.86828E+00  6.26994E+00  1.03439E+01  7.32235E+00  8.19124E+00
   8.28338E+00  5.27915E+00  6.31332E+00  6.73947E+00  9.08605E+00  5.38841E+00  5.53500E+00  7.40992E+00  8.11510E+00  7.91315E+00
   4.17588E+00  6.96794E+00  5.40013E+00  7.02053E+00  4.85293E+00  6.78772E+00  4.00739E+00  3.96153E+00
 NY points of the fit to the data follow
   4.50334E+01  4.47309E+01  4.44351E+01  4.41651E+01  4.40056E+01  4.39950E+01  4.40383E+01  4.40208E+01  4.38678E+01  4.35582E+01
   4.31058E+01  4.25621E+01  4.20036E+01  4.14777E+01  4.09828E+01  4.05159E+01  4.01148E+01  3.97777E+01  3.94606E+01  3.91518E+01
   3.88480E+01  3.85470E+01  3.82478E+01  3.79498E+01  3.76526E+01  3.73558E+01  3.70590E+01  3.67615E+01  3.64643E+01  3.61680E+01
   3.58733E+01  3.55803E+01  3.52893E+01  3.50009E+01  3.47151E+01  3.44319E+01  3.41514E+01  3.38731E+01  3.35947E+01  3.33157E+01
   3.30361E+01  3.27568E+01  3.24798E+01  3.22064E+01  3.19370E+01  3.16717E+01  3.14090E+01  3.11489E+01  3.08929E+01  3.06413E+01
   3.03931E+01  3.01476E+01  2.99035E+01  2.96597E+01  2.94162E+01  2.91732E+01  2.89319E+01  2.86929E+01  2.84562E+01  2.82220E+01
   2.79913E+01  2.77642E+01  2.75404E+01  2.73192E+01  2.71001E+01  2.68820E+01  2.66643E+01  2.64475E+01  2.62328E+01  2.60210E+01
   2.58145E+01  2.56153E+01  2.54215E+01  2.52295E+01  2.50359E+01  2.48388E+01  2.46391E+01  2.44392E+01  2.42425E+01  2.40516E+01
   2.38671E+01  2.36925E+01  2.35288E+01  2.33706E+01  2.32107E+01  2.30451E+01  2.28737E+01  2.26975E+01  2.25190E+01  2.23407E+01
   2.21642E+01  2.19897E+01  2.18185E+01  2.16559E+01  2.15049E+01  2.13633E+01  2.12296E+01  2.11115E+01  2.10617E+01  2.11304E+01
   2.12603E+01  2.13625E+01  2.13725E+01  2.12669E+01  2.10507E+01  2.07559E+01  2.04392E+01  2.01435E+01  1.98739E+01  1.96258E+01
   1.94220E+01  1.92735E+01  1.91449E+01  1.90231E+01  1.89052E+01  1.87904E+01  1.86782E+01  1.85692E+01  1.84640E+01  1.83645E+01
   1.82786E+01  1.82513E+01  1.84380E+01  1.88623E+01  1.93537E+01  1.97269E+01  1.98716E+01  1.97597E+01  1.94190E+01  1.89415E+01
   1.84511E+01  1.80138E+01  1.76237E+01  1.72872E+01  1.70695E+01  1.69430E+01  1.68419E+01  1.67496E+01  1.66614E+01  1.65760E+01
   1.64932E+01  1.64132E+01  1.63360E+01  1.62608E+01  1.61862E+01  1.61113E+01  1.60364E+01  1.59619E+01  1.58884E+01  1.58154E+01
   1.57427E+01  1.56707E+01  1.56002E+01  1.55321E+01  1.54665E+01  1.54018E+01  1.53369E+01  1.52718E+01  1.52068E+01  1.51419E+01
   1.50775E+01  1.50139E+01  1.49521E+01  1.48927E+01  1.48352E+01  1.47784E+01  1.47222E+01  1.46664E+01  1.46113E+01  1.45569E+01
   1.45028E+01  1.44479E+01  1.43917E+01  1.43342E+01  1.42766E+01  1.42193E+01  1.41622E+01  1.41047E+01  1.40463E+01  1.39889E+01
   1.39344E+01  1.38830E+01  1.38336E+01  1.37844E+01  1.37345E+01  1.36828E+01  1.36291E+01  1.35742E+01  1.35177E+01  1.34594E+01
   1.33995E+01  1.33395E+01  1.32804E+01  1.32224E+01  1.31658E+01  1.31111E+01  1.30581E+01  1.30057E+01  1.29534E+01  1.29006E+01
   1.28466E+01  1.27915E+01  1.27356E+01  1.26791E+01  1.26218E+01  1.25636E+01  1.25055E+01  1.24486E+01  1.23932E+01  1.23390E+01
   1.22858E+01  1.22329E+01  1.21795E+01  1.21253E+01  1.20707E+01  1.20160E+01  1.19617E+01  1.19083E+01  1.18569E+01  1.18085E+01
   1.17627E+01  1.17179E+01  1.16723E+01  1.16239E+01  1.15719E+01  1.15159E+01  1.14560E+01  1.13945E+01  1.13347E+01  1.12786E+01
   1.12277E+01  1.11821E+01  1.11399E+01  1.10980E+01  1.10544E+01  1.10087E+01  1.09614E+01  1.09120E+01  1.08607E+01  1.08098E+01
   1.07608E+01  1.07139E+01  1.06692E+01  1.06260E+01  1.05832E+01  1.05394E+01  1.04946E+01  1.04494E+01  1.04045E+01  1.03606E+01
   1.03243E+01  1.03160E+01  1.03357E+01  1.03616E+01  1.03714E+01  1.03520E+01  1.03003E+01  1.02205E+01  1.01249E+01  1.00291E+01
   9.94034E+00  9.85730E+00  9.78125E+00  9.71999E+00  9.66817E+00  9.61821E+00  9.56890E+00  9.52090E+00  9.47505E+00  9.43204E+00
   9.39221E+00  9.35559E+00  9.32138E+00  9.28857E+00  9.25666E+00  9.22590E+00  9.19657E+00  9.16904E+00  9.14440E+00  9.12372E+00
   9.10750E+00  9.09628E+00  9.09042E+00  9.08995E+00  9.09460E+00  9.10397E+00  9.11775E+00  9.13593E+00  9.15829E+00  9.18429E+00
   9.21310E+00  9.24358E+00  9.27445E+00  9.30440E+00  9.33184E+00  9.35540E+00  9.37400E+00  9.38655E+00  9.39204E+00  9.38980E+00
   9.37927E+00  9.35998E+00  9.33175E+00  9.29479E+00  9.24963E+00  9.19707E+00  9.13805E+00  9.07378E+00  9.00560E+00  8.93484E+00
   8.86279E+00  8.79070E+00  8.71968E+00  8.65069E+00  8.58457E+00  8.52195E+00  8.46331E+00  8.40894E+00  8.35900E+00  8.31352E+00
   8.27241E+00  8.23551E+00  8.20261E+00  8.17346E+00  8.14778E+00  8.12530E+00  8.10574E+00  8.08886E+00  8.07442E+00  8.06221E+00
   8.05205E+00  8.04377E+00  8.03725E+00  8.03236E+00  8.02904E+00  8.02719E+00  8.02679E+00  8.02778E+00  8.03015E+00  8.03389E+00
   8.03900E+00  8.04548E+00  8.05336E+00  8.06265E+00  8.07338E+00  8.08554E+00  8.09917E+00  8.11426E+00  8.13081E+00  8.14878E+00
   8.16815E+00  8.18885E+00  8.21080E+00  8.23387E+00  8.25795E+00  8.28288E+00  8.30848E+00  8.33455E+00  8.36090E+00  8.38732E+00
   8.41361E+00  8.43957E+00  8.46506E+00  8.48991E+00  8.51403E+00  8.53735E+00  8.55986E+00  8.58162E+00  8.60273E+00  8.62337E+00
   8.64378E+00  8.66426E+00  8.68516E+00  8.70690E+00  8.72995E+00  8.75480E+00  8.78203E+00  8.81221E+00  8.84599E+00  8.88402E+00
   8.92696E+00  8.97551E+00  9.03033E+00  9.09207E+00  9.16131E+00  9.23856E+00  9.32419E+00  9.41842E+00  9.52126E+00  9.63245E+00
   9.75143E+00  9.87735E+00  1.00090E+01  1.01447E+01  1.02825E+01  1.04203E+01  1.05555E+01  1.06853E+01  1.08070E+01  1.09179E+01
   1.10152E+01  1.10967E+01  1.11603E+01  1.12046E+01  1.12286E+01  1.12318E+01  1.12147E+01  1.11779E+01  1.11228E+01  1.10512E+01
   1.09655E+01  1.08679E+01  1.07611E+01  1.06476E+01  1.05299E+01  1.04103E+01  1.02909E+01  1.01735E+01  1.00594E+01  9.94993E+00
   9.84577E+00  9.74745E+00  9.65526E+00  9.56922E+00  9.48921E+00  9.41496E+00  9.34611E+00  9.28222E+00  9.22283E+00  9.16747E+00
   9.11568E+00  9.06701E+00  9.02104E+00  8.97739E+00  8.93571E+00  8.89568E+00  8.85705E+00  8.81955E+00  8.78299E+00  8.74717E+00
   8.71193E+00  8.67713E+00  8.64265E+00  8.60838E+00  8.57424E+00  8.54014E+00  8.50601E+00  8.47179E+00  8.43743E+00  8.40288E+00
   8.36810E+00  8.33306E+00  8.29771E+00  8.26204E+00  8.22604E+00  8.18969E+00  8.15298E+00  8.11592E+00  8.07850E+00  8.04072E+00
   8.00258E+00  7.96408E+00  7.92523E+00  7.88603E+00  7.84648E+00  7.80659E+00  7.76638E+00  7.72583E+00  7.68497E+00  7.64381E+00
   7.60234E+00  7.56059E+00  7.51856E+00  7.47626E+00  7.43371E+00  7.39091E+00  7.34788E+00  7.30463E+00  7.26116E+00  7.21750E+00
   7.17366E+00  7.12965E+00  7.08547E+00  7.04115E+00  6.99670E+00  6.95213E+00  6.90746E+00  6.86269E+00  6.81784E+00  6.77293E+00
   6.72798E+00  6.68298E+00  6.63797E+00  6.59294E+00  6.54792E+00  6.50293E+00  6.45797E+00  6.41306E+00
 NY background values follow
     4.501E+01    4.470E+01    4.439E+01    4.408E+01    4.377E+01    4.346E+01    4.315E+01    4.284E+01    4.253E+01    4.222E+01
     4.191E+01    4.160E+01    4.129E+01    4.098E+01    4.067E+01    4.036E+01    4.005E+01    3.975E+01    3.944E+01    3.914E+01
     3.883E+01    3.853E+01    3.823E+01    3.793E+01    3.763E+01    3.733E+01    3.703E+01    3.673E+01    3.644E+01    3.615E+01
     3.585E+01    3.556E+01    3.527E+01    3.499E+01    3.470E+01    3.441E+01    3.413E+01    3.385E+01    3.357E+01    3.329E+01
     3.302E+01    3.275E+01    3.247E+01    3.221E+01    3.194E+01    3.167E+01    3.141E+01    3.115E+01    3.089E+01    3.064E+01
     3.039E+01    3.013E+01    2.989E+01    2.964E+01    2.940E+01    2.915E+01    2.891E+01    2.868E+01    2.844E+01    2.821E+01
     2.798E+01    2.775E+01    2.753E+01    2.730E+01    2.708E+01    2.686E+01    2.665E+01    2.643E+01    2.622E+01    2.601E+01
     2.580E+01    2.560E+01    2.539E+01    2.519E+01    2.500E+01    2.480E+01    2.461E+01    2.441E+01    2.423E+01    2.404E+01
     2.385E+01    2.367E+01    2.349E+01    2.331E+01    2.314E+01    2.296E+01    2.279E+01    2.262E+01    2.246E+01    2.229E+01
     2.213E+01    2.197E+01    2.181E+01    2.166E+01    2.151E+01    2.135E+01    2.121E+01    2.106E+01    2.092E+01    2.077E+01
     2.063E+01    2.049E+01    2.036E+01    2.022E+01    2.009E+01    1.996E+01    1.983E+01    1.971E+01    1.958E+01    1.946E+01
     1.934E+01    1.922E+01    1.910E+01    1.898E+01    1.887E+01    1.876E+01    1.865E+01    1.854E+01    1.843E+01    1.833E+01
     1.822E+01    1.812E+01    1.802E+01    1.792E+01    1.782E+01    1.772E+01    1.763E+01    1.754E+01    1.744E+01    1.735E+01
     1.726E+01    1.717E+01    1.709E+01    1.700E+01    1.692E+01    1.683E+01    1.675E+01    1.667E+01    1.659E+01    1.651E+01
     1.644E+01    1.636E+01    1.629E+01    1.621E+01    1.614E+01    1.607E+01    1.600E+01    1.593E+01    1.586E+01    1.579E+01
     1.572E+01    1.565E+01    1.559E+01    1.552E+01    1.546E+01    1.539E+01    1.533E+01    1.527E+01    1.521E+01    1.514E+01
     1.508E+01    1.502E+01    1.496E+01    1.490E+01    1.485E+01    1.479E+01    1.473E+01    1.467E+01    1.461E+01    1.456E+01
     1.450E+01    1.444E+01    1.439E+01    1.433E+01    1.428E+01    1.422E+01    1.417E+01    1.411E+01    1.405E+01    1.400E+01
     1.394E+01    1.389E+01    1.383E+01    1.378E+01    1.372E+01    1.367E+01    1.361E+01    1.356E+01    1.350E+01    1.345E+01
     1.339E+01    1.333E+01    1.328E+01    1.322E+01    1.317E+01    1.311E+01    1.306E+01    1.300E+01    1.295E+01    1.289E+01
     1.284E+01    1.278E+01    1.272E+01    1.267E+01    1.261E+01    1.256E+01    1.250E+01    1.245E+01    1.239E+01    1.234E+01
     1.228E+01    1.223E+01    1.217E+01    1.212E+01    1.206E+01    1.201E+01    1.196E+01    1.190E+01    1.185E+01    1.179E+01
     1.174E+01    1.168E+01    1.163E+01    1.158E+01    1.152E+01    1.147E+01    1.141E+01    1.136E+01    1.131E+01    1.125E+01
     1.120E+01    1.115E+01    1.110E+01    1.104E+01    1.099E+01    1.094E+01    1.089E+01    1.083E+01    1.078E+01    1.073E+01
     1.068E+01    1.063E+01    1.058E+01    1.053E+01    1.048E+01    1.043E+01    1.038E+01    1.033E+01    1.028E+01    1.023E+01
     1.018E+01    1.013E+01    1.008E+01    1.003E+01    9.987E+00    9.940E+00    9.893E+00    9.847E+00    9.801E+00    9.755E+00
     9.710E+00    9.665E+00    9.620E+00    9.576E+00    9.533E+00    9.489E+00    9.447E+00    9.404E+00    9.362E+00    9.321E+00
     9.280E+00    9.239E+00    9.199E+00    9.160E+00    9.121E+00    9.082E+00    9.044E+00    9.007E+00    8.970E+00    8.933E+00
     8.897E+00    8.862E+00    8.827E+00    8.793E+00    8.759E+00    8.726E+00    8.693E+00    8.661E+00    8.629E+00    8.599E+00
     8.568E+00    8.539E+00    8.510E+00    8.481E+00    8.453E+00    8.426E+00    8.399E+00    8.373E+00    8.348E+00    8.324E+00
     8.299E+00    8.276E+00    8.253E+00    8.231E+00    8.210E+00    8.189E+00    8.170E+00    8.150E+00    8.132E+00    8.114E+00
     8.097E+00    8.080E+00    8.065E+00    8.050E+00    8.036E+00    8.022E+00    8.009E+00    7.998E+00    7.986E+00    7.976E+00
     7.966E+00    7.957E+00    7.949E+00    7.941E+00    7.935E+00    7.928E+00    7.923E+00    7.918E+00    7.914E+00    7.911E+00
     7.908E+00    7.906E+00    7.904E+00    7.903E+00    7.903E+00    7.903E+00    7.904E+00    7.906E+00    7.908E+00    7.910E+00
     7.914E+00    7.917E+00    7.922E+00    7.927E+00    7.932E+00    7.938E+00    7.944E+00    7.951E+00    7.959E+00    7.967E+00
     7.975E+00    7.984E+00    7.993E+00    8.003E+00    8.013E+00    8.024E+00    8.035E+00    8.047E+00    8.059E+00    8.071E+00
     8.084E+00    8.097E+00    8.110E+00    8.124E+00    8.138E+00    8.153E+00    8.168E+00    8.183E+00    8.198E+00    8.213E+00
     8.229E+00    8.245E+00    8.261E+00    8.277E+00    8.293E+00    8.309E+00    8.325E+00    8.341E+00    8.357E+00    8.373E+00
     8.389E+00    8.405E+00    8.421E+00    8.436E+00    8.452E+00    8.467E+00    8.482E+00    8.496E+00    8.511E+00    8.525E+00
     8.539E+00    8.552E+00    8.565E+00    8.578E+00    8.590E+00    8.601E+00    8.612E+00    8.623E+00    8.633E+00    8.643E+00
     8.652E+00    8.660E+00    8.668E+00    8.674E+00    8.681E+00    8.686E+00    8.691E+00    8.695E+00    8.698E+00    8.701E+00
     8.702E+00    8.703E+00    8.703E+00    8.703E+00    8.701E+00    8.699E+00    8.696E+00    8.692E+00    8.687E+00    8.682E+00
     8.676E+00    8.669E+00    8.662E+00    8.653E+00    8.644E+00    8.634E+00    8.624E+00    8.612E+00    8.600E+00    8.587E+00
     8.574E+00    8.559E+00    8.544E+00    8.529E+00    8.512E+00    8.495E+00    8.477E+00    8.458E+00    8.439E+00    8.419E+00
     8.398E+00    8.377E+00    8.354E+00    8.331E+00    8.308E+00    8.284E+00    8.259E+00    8.233E+00    8.206E+00    8.179E+00
     8.152E+00    8.123E+00    8.094E+00    8.064E+00    8.034E+00    8.003E+00    7.971E+00    7.939E+00    7.906E+00    7.872E+00
     7.838E+00    7.804E+00    7.769E+00    7.733E+00    7.697E+00    7.660E+00    7.623E+00    7.585E+00    7.547E+00    7.509E+00
     7.470E+00    7.431E+00    7.391E+00    7.351E+00    7.311E+00    7.271E+00    7.230E+00    7.188E+00    7.147E+00    7.105E+00
     7.063E+00    7.021E+00    6.979E+00    6.936E+00    6.893E+00    6.850E+00    6.807E+00    6.764E+00    6.720E+00    6.677E+00
     6.633E+00    6.590E+00    6.546E+00    6.502E+00    6.458E+00    6.415E+00    6.371E+00    6.327E+00
 Asp      Conc. = 4.78E+00
