 LCModel (Version 6.3-1L) Copyright: S.W. Provencher.          Ref.: Magn. Reson. Med. 30:672-679 (1993).                
 Slice#3 Row#11 Col#11  PD_24_press_1_raw_act
 36 lines in following concentration table = NCONC+1
    Conc.  %SD /Cr+PCr  Metabolite                                         
   61.180 103%   0.116 Ala                                                 
   30.481 327% 5.8E-02 Asp                                                 
  336.030  33%   0.639 Cr                                                  
  189.932  59%   0.361 PCr                                                 
    0.000 999%   0.000 GABA                                                
   57.534 109%   0.109 Glc                                                 
   33.526 399% 6.4E-02 Gln                                                 
  385.946  38%   0.734 Glu                                                 
  153.837  11%   0.292 GPC                                                 
    0.000 999%   0.000 PCh                                                 
  115.984  39%   0.221 GSH                                                 
  268.531  61%   0.511 Ins                                                 
   44.113 167% 8.4E-02 Lac                                                 
  489.253  17%   0.930 NAA                                                 
  379.008  18%   0.721 NAAG                                                
    6.424 224% 1.2E-02 Scyllo                                              
   32.660 293% 6.2E-02 Tau                                                 
  250.996  27%   0.477 -CrCH2                                              
  153.837  11%   0.292 GPC+PCh                                             
  868.261   7%   1.651 NAA+NAAG                                            
  525.962   9%   1.000 Cr+PCr                                              
  419.473  52%   0.798 Glu+Gln                                             
 1.50E+03  34%   2.856 Lip13a                                              
    0.000 999%   0.000 Lip13b                                              
 1.79E+03  23%   3.401 Lip09                                               
 2.32E+03  13%   4.415 MM09                                                
  743.604  48%   1.414 Lip20                                               
 2.83E+03  15%   5.383 MM20                                                
 1.37E+03  13%   2.599 MM12                                                
    0.000 999%   0.000 MM14                                                
  182.578  88%   0.347 MM17                                                
 1.50E+03  34%   2.856 Lip13a+Lip13b                                       
 2.87E+03  17%   5.456 MM14+Lip13a+Lip13b+MM12                             
 4.11E+03  10%   7.816 MM09+Lip09                                          
 3.57E+03  11%   6.797 MM20+Lip20                                          
   6 lines in following misc. output table
  FWHM = 0.076 ppm    S/N =   7                                            
  Data shift = 0.015 ppm                                                   
  Ph:  69 deg      33.8 deg/ppm                                            
  alphaB,S = 3.4E-01,   5.0E+01                                            
   14 spline knots.   Ns = 8(1)                                            
  (16) 1 infls.   (12) 2 extrs.                                            
  498 points on ppm-axis = NY
      4.000000     3.992357     3.984714     3.977070     3.969427     3.961784     3.954141     3.946497     3.938854     3.931211
      3.923568     3.915925     3.908281     3.900638     3.892995     3.885352     3.877708     3.870065     3.862422     3.854779
      3.847136     3.839492     3.831849     3.824206     3.816563     3.808919     3.801276     3.793633     3.785990     3.778347
      3.770703     3.763060     3.755417     3.747774     3.740130     3.732487     3.724844     3.717201     3.709558     3.701914
      3.694271     3.686628     3.678985     3.671341     3.663698     3.656055     3.648412     3.640769     3.633125     3.625482
      3.617839     3.610196     3.602552     3.594909     3.587266     3.579623     3.571980     3.564336     3.556693     3.549050
      3.541407     3.533763     3.526120     3.518477     3.510834     3.503191     3.495547     3.487904     3.480261     3.472618
      3.464974     3.457331     3.449688     3.442045     3.434402     3.426758     3.419115     3.411472     3.403829     3.396185
      3.388542     3.380899     3.373256     3.365613     3.357969     3.350326     3.342683     3.335040     3.327396     3.319753
      3.312110     3.304467     3.296824     3.289180     3.281537     3.273894     3.266251     3.258607     3.250964     3.243321
      3.235678     3.228034     3.220391     3.212748     3.205105     3.197462     3.189818     3.182175     3.174532     3.166889
      3.159245     3.151602     3.143959     3.136316     3.128673     3.121029     3.113386     3.105743     3.098100     3.090456
      3.082813     3.075170     3.067527     3.059884     3.052240     3.044597     3.036954     3.029311     3.021667     3.014024
      3.006381     2.998738     2.991095     2.983451     2.975808     2.968165     2.960522     2.952878     2.945235     2.937592
      2.929949     2.922306     2.914662     2.907019     2.899376     2.891733     2.884089     2.876446     2.868803     2.861160
      2.853517     2.845873     2.838230     2.830587     2.822944     2.815300     2.807657     2.800014     2.792371     2.784728
      2.777084     2.769441     2.761798     2.754155     2.746511     2.738868     2.731225     2.723582     2.715939     2.708295
      2.700652     2.693009     2.685366     2.677722     2.670079     2.662436     2.654793     2.647150     2.639506     2.631863
      2.624220     2.616577     2.608933     2.601290     2.593647     2.586004     2.578361     2.570717     2.563074     2.555431
      2.547788     2.540144     2.532501     2.524858     2.517215     2.509572     2.501928     2.494285     2.486642     2.478999
      2.471355     2.463712     2.456069     2.448426     2.440783     2.433139     2.425496     2.417853     2.410210     2.402566
      2.394923     2.387280     2.379637     2.371994     2.364350     2.356707     2.349064     2.341421     2.333777     2.326134
      2.318491     2.310848     2.303205     2.295561     2.287918     2.280275     2.272632     2.264988     2.257345     2.249702
      2.242059     2.234416     2.226772     2.219129     2.211486     2.203843     2.196199     2.188556     2.180913     2.173270
      2.165627     2.157983     2.150340     2.142697     2.135054     2.127410     2.119767     2.112124     2.104481     2.096838
      2.089194     2.081551     2.073908     2.066265     2.058621     2.050978     2.043335     2.035692     2.028049     2.020405
      2.012762     2.005119     1.997476     1.989833     1.982190     1.974546     1.966903     1.959260     1.951617     1.943974
      1.936331     1.928688     1.921045     1.913402     1.905759     1.898115     1.890472     1.882829     1.875186     1.867543
      1.859900     1.852257     1.844614     1.836971     1.829327     1.821684     1.814041     1.806398     1.798755     1.791112
      1.783469     1.775826     1.768183     1.760540     1.752896     1.745253     1.737610     1.729967     1.722324     1.714681
      1.707038     1.699395     1.691752     1.684108     1.676465     1.668822     1.661179     1.653536     1.645893     1.638250
      1.630607     1.622964     1.615321     1.607677     1.600034     1.592391     1.584748     1.577105     1.569462     1.561819
      1.554176     1.546533     1.538890     1.531246     1.523603     1.515960     1.508317     1.500674     1.493031     1.485388
      1.477745     1.470102     1.462458     1.454815     1.447172     1.439529     1.431886     1.424243     1.416600     1.408957
      1.401314     1.393671     1.386027     1.378384     1.370741     1.363098     1.355455     1.347812     1.340169     1.332526
      1.324883     1.317240     1.309596     1.301953     1.294310     1.286667     1.279024     1.271381     1.263738     1.256095
      1.248452     1.240808     1.233165     1.225522     1.217879     1.210236     1.202593     1.194950     1.187307     1.179664
      1.172021     1.164377     1.156734     1.149091     1.141448     1.133805     1.126162     1.118519     1.110876     1.103233
      1.095590     1.087946     1.080303     1.072660     1.065017     1.057374     1.049731     1.042088     1.034445     1.026802
      1.019158     1.011515     1.003872     0.996229     0.988586     0.980943     0.973300     0.965657     0.958014     0.950371
      0.942727     0.935084     0.927441     0.919798     0.912155     0.904512     0.896869     0.889226     0.881583     0.873940
      0.866296     0.858653     0.851010     0.843367     0.835724     0.828081     0.820438     0.812795     0.805152     0.797508
      0.789865     0.782222     0.774579     0.766936     0.759293     0.751650     0.744007     0.736364     0.728721     0.721077
      0.713434     0.705791     0.698148     0.690505     0.682862     0.675219     0.667576     0.659933     0.652290     0.644646
      0.637003     0.629360     0.621717     0.614074     0.606431     0.598788     0.591145     0.583502     0.575858     0.568215
      0.560572     0.552929     0.545286     0.537643     0.530000     0.522357     0.514714     0.507071     0.499427     0.491784
      0.484141     0.476498     0.468855     0.461212     0.453569     0.445925     0.438282     0.430639     0.422996     0.415353
      0.407710     0.400067     0.392424     0.384780     0.377137     0.369494     0.361851     0.354208     0.346565     0.338922
      0.331278     0.323635     0.315992     0.308349     0.300706     0.293063     0.285420     0.277777     0.270133     0.262490
      0.254847     0.247204     0.239561     0.231918     0.224275     0.216631     0.208988     0.201345
 NY phased data points follow
  -1.29646E+00 -5.93662E+00 -3.50288E+00 -4.16757E+00 -6.06513E+00 -7.73898E+00 -7.26269E+00 -6.53147E+00 -3.71911E+00 -3.34770E+00
   2.19088E-01  4.50301E-02  3.21265E+00  3.11692E+00  5.73984E+00  4.93190E+00  5.24772E+00  5.04065E+00  4.34030E+00  2.48171E+00
   2.76570E+00  1.08916E+00  2.83326E+00 -8.72062E-01  1.16011E+00 -3.81754E-01  4.22851E+00  6.83556E-01  2.24464E+00 -5.15139E-01
   2.99336E+00  2.76104E+00  1.84564E+00  4.67000E+00  5.89572E-01  2.90016E+00 -2.95058E-01  3.45002E+00 -1.49279E+00  3.30134E+00
   3.18128E+00  1.83723E+00  3.00122E+00  1.40905E+00  9.60366E-01 -1.07774E+00  4.35901E+00  3.67450E+00  3.18484E+00  7.28838E+00
   5.32808E+00  3.49045E+00  3.19950E+00  4.92473E+00  5.11625E+00  4.47644E-01  5.56789E+00  5.35208E+00  4.08656E+00  5.58743E+00
   5.12460E+00  3.71712E+00  3.66743E+00  2.77466E+00  3.66175E+00  2.62734E+00  5.49771E+00  2.56179E-01 -1.27817E+00 -1.31492E+00
  -6.53319E-01 -3.17850E-01  8.20332E-01 -1.21974E+00  1.66470E+00 -1.19234E+00 -1.20118E+00  4.24940E-01  3.12684E+00  3.04883E+00
   2.70853E+00  4.23025E+00  1.88671E-01 -3.41740E-01  1.96369E+00  1.07157E-01  1.81864E+00 -2.74077E-01  2.24671E+00  1.38823E+00
   1.60578E+00  2.06743E+00  6.55580E-01  7.37658E-01  1.95869E-01  2.66406E+00 -2.45312E+00 -2.48159E+00 -5.50688E+00 -3.79021E+00
   1.19793E+00  4.65839E+00  7.63199E+00  8.65644E+00  1.35074E+01  1.68017E+01  1.56103E+01  1.41487E+01  1.64789E+01  1.36203E+01
   1.26222E+01  1.29627E+01  9.14250E+00  9.72657E+00  6.96950E+00  6.58965E+00  4.54989E+00  4.45357E+00  2.50220E+00 -1.97891E-01
   5.14349E-01 -2.52751E+00 -2.01457E+00 -9.99398E-01  7.53343E-01  7.13899E+00  1.27018E+01  1.51558E+01  1.81581E+01  1.89904E+01
   2.16767E+01  2.02867E+01  1.77988E+01  1.89766E+01  1.82648E+01  1.38755E+01  1.20478E+01  1.27584E+01  9.58962E+00  7.45184E+00
   5.88627E+00  6.50235E+00  4.44654E+00  3.24357E+00  3.98142E+00  3.05454E+00  3.49960E+00  4.07880E+00  1.22091E+00  3.34784E+00
   2.03096E+00  3.50225E+00  1.39779E+00 -1.41752E+00 -5.45263E-01  2.62591E+00  4.22081E+00  1.38750E+00  2.98636E+00 -4.60118E-01
  -1.66480E-01  3.47197E+00  8.22787E-01  1.52065E+00  5.56987E-01  6.48541E-01  1.46260E+00  3.30385E+00 -1.75159E-01 -2.03716E+00
   9.94010E-01 -2.00788E+00 -4.98276E+00 -2.45370E+00 -4.03605E+00 -8.41277E-01 -6.05596E+00 -5.18174E+00 -1.94801E+00 -3.36245E+00
  -4.74235E+00 -3.33634E+00 -2.63985E+00 -3.04581E+00 -2.53162E+00 -5.85875E+00 -4.72564E+00 -3.11073E+00 -8.89989E-01 -2.60140E+00
  -1.95830E+00 -7.43960E-01  2.98614E+00 -1.42739E+00 -7.95807E-01 -6.88895E-01  9.11055E-01 -2.80909E+00 -7.56331E-01 -2.74035E+00
  -5.62672E-02 -1.31697E+00 -1.22845E+00 -5.80996E-02  7.70888E-01 -7.00787E-01  8.31361E-02  4.90658E-01 -1.07433E+00 -1.93545E+00
  -3.23883E+00  1.61823E+00  8.48356E-01  7.03408E-01  4.58336E+00  5.49448E+00  4.67041E+00  5.55489E+00  4.84024E+00  4.62272E+00
   4.53548E+00  1.13434E+00  1.93586E+00  1.89013E+00  1.14134E+00  1.08168E+00  2.15060E+00  3.03038E+00  3.35802E+00  5.26969E+00
   3.15145E+00  4.49685E+00  4.16053E+00  5.56052E+00  2.58362E+00  2.61531E+00  3.70989E+00  3.60644E+00  3.34354E+00  2.86557E+00
   2.94415E+00  2.12988E+00  2.30512E+00  1.19769E+00  4.55848E+00  3.67428E+00  3.00982E+00  4.28350E+00  3.32460E+00  3.42481E+00
   2.88483E+00  1.36939E+00  1.82253E+00  6.16453E+00  6.63744E+00  7.01543E+00  1.27270E+01  2.24361E+01  2.66113E+01  3.18405E+01
   2.93439E+01  2.71072E+01  2.75460E+01  2.30817E+01  2.28526E+01  1.96924E+01  1.07618E+01  7.91279E+00  6.68215E+00  1.87286E+00
   1.85845E+00 -3.80562E+00 -1.77010E+00 -7.61386E+00 -3.80088E+00 -4.54119E+00 -4.15336E+00 -8.10415E+00 -7.11644E+00 -4.78273E+00
  -8.83368E+00 -5.29579E+00 -7.24848E+00 -8.03481E+00 -1.05215E+01 -6.89083E+00 -6.18198E+00 -6.40756E+00 -6.43823E+00 -6.86977E+00
  -4.53330E+00 -7.56041E+00 -9.04243E+00 -6.60404E+00 -7.30522E+00 -4.67658E+00 -6.61858E+00 -7.21776E+00 -8.95819E+00 -4.85174E+00
  -7.45476E+00 -5.19080E+00 -5.85357E+00 -7.27743E+00 -6.69936E+00 -9.54479E+00 -1.01893E+01 -4.88257E+00 -7.29371E+00 -6.70342E+00
  -8.31987E+00 -7.38898E+00 -6.11964E+00 -8.86984E+00 -8.99135E+00 -9.62700E+00 -8.59813E+00 -1.10161E+01 -1.07147E+01 -8.80404E+00
  -8.44035E+00 -1.02769E+01 -9.69812E+00 -1.07474E+01 -1.14229E+01 -1.16743E+01 -1.15351E+01 -1.34735E+01 -1.22073E+01 -1.34417E+01
  -1.24884E+01 -1.35133E+01 -1.15446E+01 -1.02523E+01 -1.03096E+01 -9.25108E+00 -4.94701E+00 -6.15778E+00 -4.14559E+00 -2.41655E+00
   6.19946E-01 -3.35388E+00 -1.89879E+00 -7.08712E-01 -1.95910E+00  2.31875E+00  1.72172E+00  1.89483E+00  3.41207E+00 -4.81386E-01
   1.09656E+00  4.24317E+00  5.55887E+00  6.27093E+00  4.97419E+00  4.82207E+00  2.62566E+00  4.83700E+00  5.78713E+00  4.57627E+00
   6.16502E+00  1.03797E+01  8.69661E+00  8.09558E+00  9.68261E+00  1.00142E+01  9.93866E+00  1.28231E+01  1.08041E+01  1.43793E+01
   1.35521E+01  1.54282E+01  1.31942E+01  1.30060E+01  1.70016E+01  1.56793E+01  1.49520E+01  1.48020E+01  1.42846E+01  1.42493E+01
   1.59159E+01  1.36885E+01  1.40372E+01  1.54533E+01  1.54063E+01  1.29708E+01  1.25973E+01  1.10803E+01  1.36727E+01  9.91360E+00
   1.25503E+01  1.40021E+01  1.06682E+01  1.35833E+01  1.26469E+01  9.78667E+00  1.09773E+01  1.02622E+01  7.20189E+00  7.56620E+00
   9.44201E+00  1.08343E+01  1.05057E+01  1.04679E+01  1.16539E+01  9.40318E+00  1.11347E+01  8.46885E+00  8.21266E+00  9.63714E+00
   8.53414E+00  4.55086E+00  8.41052E+00  5.32622E+00  4.93297E+00  7.10034E+00  5.94202E+00  6.12753E+00  3.18016E+00  1.08787E+00
   6.51576E+00  6.31230E+00  1.58714E+00  3.76114E+00  3.67013E+00  2.94479E+00  5.11720E+00  5.69458E+00  4.45351E+00  4.70701E+00
   1.14859E+00  2.23737E+00  1.82819E+00  5.71959E+00  4.62521E+00  3.00730E+00  4.26244E+00  3.35523E+00  4.61164E+00  3.04039E+00
   3.80289E+00  3.20859E+00  2.84678E+00  3.61752E+00  5.14042E+00  1.58835E+00  8.73765E-01  1.36001E+00  5.84835E-01  7.44012E-01
   5.94704E+00 -2.14678E+00  3.34418E+00  3.36111E+00  1.49301E+00  1.84500E+00  3.03806E+00  1.92777E+00  2.62766E+00  4.36692E+00
   1.01519E+00  5.04212E-01  1.67227E+00  1.57437E+00  1.83314E-01  3.02740E+00  1.24186E+00  1.07962E+00  1.90768E+00  3.56571E+00
   2.71835E+00  2.04304E+00  3.09218E+00  1.24273E+00  3.29029E+00  2.37300E+00  9.54692E-01 -5.76345E-01  1.57732E+00 -3.51504E-01
   4.41623E-01  7.34731E-01 -1.07722E+00  3.19763E+00 -1.60060E+00  8.52671E-01  2.56830E+00  9.74530E-01  2.05112E+00  2.16250E-01
  -2.62590E+00  1.12754E+00 -1.22234E+00  1.11865E+00 -1.44078E+00  6.28552E-01  1.84754E+00  1.43570E+00
 NY points of the fit to the data follow
  -1.34100E+00 -1.14001E+00 -1.23737E+00 -1.65330E+00 -2.68627E+00 -4.35915E+00 -5.61203E+00 -5.69782E+00 -4.50075E+00 -2.38002E+00
  -4.47232E-02  1.94913E+00  3.46449E+00  4.63260E+00  5.46052E+00  5.90130E+00  6.03997E+00  6.04123E+00  5.63538E+00  4.64402E+00
   3.68474E+00  2.36830E+00  8.09986E-01 -5.72564E-02 -4.32706E-01 -4.81531E-01 -2.13856E-01  2.53997E-01  8.34919E-01  1.46741E+00
   2.09881E+00  2.64932E+00  2.99423E+00  3.08649E+00  2.98888E+00  2.79340E+00  2.56995E+00  2.30966E+00  1.81740E+00  1.13493E+00
   6.05485E-01  2.42930E-01  1.64882E-01  4.89893E-01  1.14900E+00  1.86893E+00  2.39496E+00  2.75807E+00  3.00478E+00  3.07597E+00
   3.04271E+00  2.95885E+00  2.74612E+00  2.41000E+00  2.09183E+00  1.86594E+00  1.64981E+00  1.54428E+00  1.67708E+00  1.87668E+00
   1.95539E+00  1.92736E+00  1.87198E+00  1.80910E+00  1.71214E+00  1.58758E+00  1.49107E+00  1.42981E+00  1.36462E+00  1.33080E+00
   1.37097E+00  1.48992E+00  1.68125E+00  1.88381E+00  2.04311E+00  2.13284E+00  2.15712E+00  2.14068E+00  2.08150E+00  2.03555E+00
   2.02990E+00  2.05490E+00  2.10709E+00  2.10899E+00  1.99306E+00  1.79554E+00  1.60100E+00  1.44634E+00  1.32237E+00  1.22610E+00
   1.16162E+00  1.12138E+00  1.12082E+00  1.14352E+00  1.12257E+00  8.51184E-01 -4.45076E-01 -2.57136E+00 -3.89435E+00 -3.22362E+00
  -2.31539E-01  4.15879E+00  8.41418E+00  1.16369E+01  1.38679E+01  1.53769E+01  1.62154E+01  1.63478E+01  1.58087E+01  1.46761E+01
   1.31292E+01  1.13549E+01  9.09742E+00  6.16970E+00  4.03754E+00  3.39723E+00  3.18367E+00  3.04271E+00  2.83833E+00  2.11999E+00
   4.28222E-01 -1.72089E+00 -2.65845E+00 -1.26502E+00  2.46651E+00  7.35617E+00  1.19191E+01  1.54475E+01  1.80231E+01  1.98395E+01
   2.08412E+01  2.08790E+01  1.99616E+01  1.82443E+01  1.60210E+01  1.34612E+01  1.04062E+01  7.21619E+00  4.99473E+00  4.18404E+00
   3.88709E+00  3.70642E+00  3.57305E+00  3.52294E+00  3.55190E+00  3.57539E+00  3.58032E+00  3.56386E+00  3.46212E+00  3.26891E+00
   2.97712E+00  2.63875E+00  2.37674E+00  2.26825E+00  2.26591E+00  2.26723E+00  2.17058E+00  1.93219E+00  1.66337E+00  1.47369E+00
   1.38166E+00  1.34042E+00  1.30891E+00  1.24124E+00  1.05938E+00  7.48035E-01  3.92482E-01  9.17091E-02 -4.59330E-02 -5.22882E-02
  -1.18632E-01 -3.82665E-01 -7.58627E-01 -1.07974E+00 -1.25392E+00 -1.28270E+00 -1.36856E+00 -1.57161E+00 -1.80038E+00 -1.95750E+00
  -2.10826E+00 -2.30550E+00 -2.53115E+00 -2.74330E+00 -2.82970E+00 -2.71815E+00 -2.46771E+00 -2.08770E+00 -1.59291E+00 -1.06040E+00
  -5.53626E-01 -2.17229E-01 -1.11268E-01 -2.32964E-01 -4.49531E-01 -6.67424E-01 -8.76972E-01 -1.11199E+00 -1.30704E+00 -1.36015E+00
  -1.24531E+00 -9.78305E-01 -5.67136E-01 -1.59033E-01  8.30664E-02  1.28848E-01 -4.58888E-02 -4.60034E-01 -1.20403E+00 -1.97018E+00
  -2.37903E+00 -2.29515E+00 -1.80048E+00 -1.07042E+00 -2.32104E-01  5.56297E-01  1.07831E+00  1.13111E+00  7.50758E-01  1.05790E-01
  -5.73919E-01 -1.05397E+00 -1.30107E+00 -1.37182E+00 -1.28889E+00 -1.09575E+00 -6.68611E-01 -1.82176E-01  2.19014E-01  5.83928E-01
   1.06797E+00  1.74730E+00  2.46070E+00  3.03688E+00  3.51687E+00  3.96527E+00  4.23843E+00  4.27390E+00  4.09324E+00  3.86163E+00
   3.77411E+00  3.85837E+00  4.09091E+00  4.43884E+00  4.80238E+00  5.10285E+00  5.28377E+00  5.15454E+00  3.99649E+00  2.38134E+00
   1.67835E+00  2.45576E+00  3.64718E+00  4.79940E+00  6.61256E+00  9.85759E+00  1.48572E+01  2.05404E+01  2.52068E+01  2.80280E+01
   2.92101E+01  2.90684E+01  2.77861E+01  2.55061E+01  2.19902E+01  1.73484E+01  1.33219E+01  1.01856E+01  6.69425E+00  2.66158E+00
   5.31944E-02 -9.49849E-01 -1.57999E+00 -2.12198E+00 -2.60696E+00 -3.07219E+00 -3.54463E+00 -3.98463E+00 -4.39047E+00 -4.75353E+00
  -5.07295E+00 -5.36046E+00 -5.62218E+00 -5.85860E+00 -6.07583E+00 -6.26660E+00 -6.42893E+00 -6.58576E+00 -6.72807E+00 -6.83662E+00
  -6.91311E+00 -6.96922E+00 -7.01530E+00 -7.05147E+00 -7.07239E+00 -7.09833E+00 -7.12695E+00 -7.15454E+00 -7.18046E+00 -7.20534E+00
  -7.23858E+00 -7.29433E+00 -7.35785E+00 -7.42105E+00 -7.48557E+00 -7.55375E+00 -7.62607E+00 -7.69891E+00 -7.77046E+00 -7.85106E+00
  -7.94069E+00 -8.03249E+00 -8.12409E+00 -8.21231E+00 -8.29521E+00 -8.37229E+00 -8.44436E+00 -8.51610E+00 -8.60400E+00 -8.69769E+00
  -8.68145E+00 -8.51494E+00 -8.24003E+00 -7.95467E+00 -7.76043E+00 -7.68204E+00 -7.68990E+00 -7.83023E+00 -8.09030E+00 -8.38309E+00
  -8.58889E+00 -8.61416E+00 -8.45177E+00 -8.16059E+00 -7.80404E+00 -7.40159E+00 -6.89211E+00 -6.22789E+00 -5.53735E+00 -4.88085E+00
  -4.20784E+00 -3.43011E+00 -2.54192E+00 -1.64150E+00 -8.52736E-01 -1.20578E-01  5.79940E-01  1.18689E+00  1.67954E+00  2.09960E+00
   2.51226E+00  2.97997E+00  3.51194E+00  4.06971E+00  4.61333E+00  5.12419E+00  5.62409E+00  6.18361E+00  6.79009E+00  7.37227E+00
   7.93258E+00  8.48707E+00  9.04895E+00  9.59582E+00  1.00874E+01  1.05815E+01  1.11120E+01  1.16406E+01  1.21402E+01  1.25913E+01
   1.29795E+01  1.32954E+01  1.35345E+01  1.36978E+01  1.37913E+01  1.38247E+01  1.38108E+01  1.37641E+01  1.36991E+01  1.36289E+01
   1.35645E+01  1.35130E+01  1.34779E+01  1.34588E+01  1.34518E+01  1.34501E+01  1.34449E+01  1.34263E+01  1.33845E+01  1.33107E+01
   1.31982E+01  1.30422E+01  1.28410E+01  1.25952E+01  1.23083E+01  1.19858E+01  1.16350E+01  1.12641E+01  1.08820E+01  1.04971E+01
   1.01175E+01  9.75014E+00  9.40069E+00  9.07310E+00  8.76974E+00  8.49144E+00  8.23765E+00  8.00658E+00  7.79545E+00  7.60067E+00
   7.41827E+00  7.24411E+00  7.07419E+00  6.90475E+00  6.73241E+00  6.55435E+00  6.36842E+00  6.17319E+00  5.96793E+00  5.75252E+00
   5.52741E+00  5.29353E+00  5.05229E+00  4.80547E+00  4.55505E+00  4.30308E+00  4.05163E+00  3.80274E+00  3.55838E+00  3.32040E+00
   3.09037E+00  2.86962E+00  2.65923E+00  2.46006E+00  2.27278E+00  2.09783E+00  1.93541E+00  1.78550E+00  1.64795E+00  1.52252E+00
   1.40888E+00  1.30660E+00  1.21514E+00  1.13392E+00  1.06235E+00  9.99879E-01  9.45953E-01  8.99982E-01  8.61359E-01  8.29514E-01
   8.03942E-01  7.84185E-01  7.69793E-01  7.60312E-01  7.55325E-01  7.54474E-01  7.57465E-01  7.64034E-01  7.73902E-01  7.86780E-01
   8.02410E-01  8.20589E-01  8.41159E-01  8.63963E-01  8.88815E-01  9.15528E-01  9.43952E-01  9.73990E-01  1.00556E+00  1.03857E+00
   1.07287E+00  1.10837E+00  1.14498E+00  1.18267E+00  1.22140E+00  1.26108E+00  1.30163E+00  1.34299E+00  1.38513E+00  1.42804E+00
   1.47170E+00  1.51604E+00  1.56100E+00  1.60655E+00  1.65271E+00  1.69947E+00  1.74682E+00  1.79469E+00  1.84305E+00  1.89191E+00
   1.94130E+00  1.99121E+00  2.04161E+00  2.09245E+00  2.14375E+00  2.19551E+00  2.24778E+00  2.30054E+00
 NY background values follow
    -2.526E+00   -2.463E+00   -2.401E+00   -2.338E+00   -2.276E+00   -2.214E+00   -2.151E+00   -2.089E+00   -2.026E+00   -1.964E+00
    -1.901E+00   -1.839E+00   -1.777E+00   -1.715E+00   -1.654E+00   -1.592E+00   -1.531E+00   -1.470E+00   -1.409E+00   -1.348E+00
    -1.288E+00   -1.228E+00   -1.168E+00   -1.109E+00   -1.050E+00   -9.917E-01   -9.336E-01   -8.760E-01   -8.189E-01   -7.622E-01
    -7.061E-01   -6.504E-01   -5.954E-01   -5.409E-01   -4.869E-01   -4.336E-01   -3.810E-01   -3.290E-01   -2.776E-01   -2.270E-01
    -1.771E-01   -1.279E-01   -7.953E-02   -3.190E-02    1.492E-02    6.091E-02    1.061E-01    1.504E-01    1.938E-01    2.364E-01
     2.782E-01    3.191E-01    3.592E-01    3.984E-01    4.368E-01    4.744E-01    5.111E-01    5.470E-01    5.820E-01    6.162E-01
     6.496E-01    6.822E-01    7.139E-01    7.448E-01    7.749E-01    8.041E-01    8.326E-01    8.602E-01    8.870E-01    9.129E-01
     9.381E-01    9.624E-01    9.859E-01    1.009E+00    1.031E+00    1.052E+00    1.072E+00    1.091E+00    1.110E+00    1.128E+00
     1.145E+00    1.161E+00    1.177E+00    1.191E+00    1.205E+00    1.218E+00    1.231E+00    1.242E+00    1.253E+00    1.263E+00
     1.272E+00    1.280E+00    1.288E+00    1.294E+00    1.300E+00    1.305E+00    1.310E+00    1.313E+00    1.316E+00    1.318E+00
     1.319E+00    1.320E+00    1.319E+00    1.318E+00    1.316E+00    1.313E+00    1.309E+00    1.304E+00    1.299E+00    1.293E+00
     1.286E+00    1.278E+00    1.269E+00    1.260E+00    1.249E+00    1.238E+00    1.226E+00    1.213E+00    1.200E+00    1.185E+00
     1.170E+00    1.153E+00    1.136E+00    1.118E+00    1.099E+00    1.080E+00    1.059E+00    1.038E+00    1.015E+00    9.922E-01
     9.682E-01    9.433E-01    9.175E-01    8.908E-01    8.633E-01    8.349E-01    8.056E-01    7.754E-01    7.443E-01    7.124E-01
     6.796E-01    6.460E-01    6.116E-01    5.763E-01    5.402E-01    5.033E-01    4.657E-01    4.272E-01    3.880E-01    3.480E-01
     3.072E-01    2.657E-01    2.235E-01    1.805E-01    1.369E-01    9.249E-02    4.742E-02    1.666E-03   -4.477E-02   -9.186E-02
    -1.396E-01   -1.880E-01   -2.371E-01   -2.867E-01   -3.370E-01   -3.879E-01   -4.394E-01   -4.914E-01   -5.441E-01   -5.973E-01
    -6.511E-01   -7.054E-01   -7.603E-01   -8.157E-01   -8.716E-01   -9.280E-01   -9.849E-01   -1.042E+00   -1.100E+00   -1.159E+00
    -1.217E+00   -1.277E+00   -1.336E+00   -1.397E+00   -1.457E+00   -1.518E+00   -1.580E+00   -1.642E+00   -1.704E+00   -1.767E+00
    -1.831E+00   -1.895E+00   -1.959E+00   -2.024E+00   -2.090E+00   -2.156E+00   -2.223E+00   -2.290E+00   -2.357E+00   -2.425E+00
    -2.494E+00   -2.563E+00   -2.633E+00   -2.704E+00   -2.775E+00   -2.846E+00   -2.918E+00   -2.991E+00   -3.064E+00   -3.138E+00
    -3.213E+00   -3.288E+00   -3.364E+00   -3.440E+00   -3.517E+00   -3.595E+00   -3.673E+00   -3.752E+00   -3.832E+00   -3.912E+00
    -3.993E+00   -4.075E+00   -4.157E+00   -4.240E+00   -4.323E+00   -4.408E+00   -4.493E+00   -4.578E+00   -4.665E+00   -4.752E+00
    -4.839E+00   -4.927E+00   -5.016E+00   -5.105E+00   -5.195E+00   -5.284E+00   -5.374E+00   -5.465E+00   -5.555E+00   -5.646E+00
    -5.737E+00   -5.828E+00   -5.919E+00   -6.011E+00   -6.102E+00   -6.193E+00   -6.284E+00   -6.375E+00   -6.465E+00   -6.556E+00
    -6.646E+00   -6.736E+00   -6.825E+00   -6.914E+00   -7.003E+00   -7.091E+00   -7.178E+00   -7.265E+00   -7.352E+00   -7.438E+00
    -7.523E+00   -7.607E+00   -7.690E+00   -7.773E+00   -7.855E+00   -7.936E+00   -8.016E+00   -8.095E+00   -8.173E+00   -8.249E+00
    -8.325E+00   -8.400E+00   -8.473E+00   -8.545E+00   -8.616E+00   -8.686E+00   -8.754E+00   -8.821E+00   -8.887E+00   -8.951E+00
    -9.014E+00   -9.076E+00   -9.137E+00   -9.196E+00   -9.253E+00   -9.310E+00   -9.365E+00   -9.418E+00   -9.470E+00   -9.521E+00
    -9.570E+00   -9.617E+00   -9.664E+00   -9.708E+00   -9.751E+00   -9.793E+00   -9.833E+00   -9.871E+00   -9.908E+00   -9.943E+00
    -9.977E+00   -1.001E+01   -1.004E+01   -1.007E+01   -1.010E+01   -1.012E+01   -1.014E+01   -1.017E+01   -1.019E+01   -1.021E+01
    -1.022E+01   -1.024E+01   -1.025E+01   -1.026E+01   -1.027E+01   -1.028E+01   -1.029E+01   -1.029E+01   -1.029E+01   -1.029E+01
    -1.029E+01   -1.029E+01   -1.028E+01   -1.028E+01   -1.027E+01   -1.026E+01   -1.025E+01   -1.023E+01   -1.022E+01   -1.020E+01
    -1.018E+01   -1.016E+01   -1.014E+01   -1.012E+01   -1.009E+01   -1.007E+01   -1.004E+01   -1.001E+01   -9.980E+00   -9.948E+00
    -9.914E+00   -9.879E+00   -9.842E+00   -9.804E+00   -9.764E+00   -9.724E+00   -9.681E+00   -9.638E+00   -9.593E+00   -9.546E+00
    -9.499E+00   -9.450E+00   -9.400E+00   -9.348E+00   -9.295E+00   -9.242E+00   -9.186E+00   -9.130E+00   -9.073E+00   -9.014E+00
    -8.954E+00   -8.893E+00   -8.831E+00   -8.768E+00   -8.704E+00   -8.639E+00   -8.573E+00   -8.506E+00   -8.437E+00   -8.368E+00
    -8.298E+00   -8.227E+00   -8.155E+00   -8.082E+00   -8.009E+00   -7.934E+00   -7.859E+00   -7.783E+00   -7.706E+00   -7.628E+00
    -7.550E+00   -7.471E+00   -7.391E+00   -7.311E+00   -7.230E+00   -7.148E+00   -7.065E+00   -6.982E+00   -6.899E+00   -6.815E+00
    -6.730E+00   -6.645E+00   -6.560E+00   -6.473E+00   -6.387E+00   -6.300E+00   -6.213E+00   -6.125E+00   -6.037E+00   -5.948E+00
    -5.860E+00   -5.771E+00   -5.681E+00   -5.592E+00   -5.502E+00   -5.412E+00   -5.321E+00   -5.231E+00   -5.140E+00   -5.050E+00
    -4.959E+00   -4.868E+00   -4.777E+00   -4.686E+00   -4.594E+00   -4.503E+00   -4.412E+00   -4.321E+00   -4.230E+00   -4.139E+00
    -4.048E+00   -3.957E+00   -3.866E+00   -3.775E+00   -3.684E+00   -3.594E+00   -3.504E+00   -3.414E+00   -3.324E+00   -3.234E+00
    -3.145E+00   -3.056E+00   -2.967E+00   -2.878E+00   -2.790E+00   -2.703E+00   -2.615E+00   -2.528E+00   -2.441E+00   -2.355E+00
    -2.269E+00   -2.184E+00   -2.099E+00   -2.015E+00   -1.931E+00   -1.848E+00   -1.765E+00   -1.683E+00   -1.601E+00   -1.520E+00
    -1.440E+00   -1.360E+00   -1.281E+00   -1.203E+00   -1.125E+00   -1.048E+00   -9.717E-01   -8.959E-01   -8.207E-01   -7.461E-01
    -6.720E-01   -5.985E-01   -5.255E-01   -4.530E-01   -3.810E-01   -3.096E-01   -2.385E-01   -1.679E-01   -9.778E-02   -2.804E-02
     4.130E-02    1.103E-01    1.789E-01    2.471E-01    3.150E-01    3.826E-01    4.499E-01    5.169E-01    5.837E-01    6.502E-01
     7.165E-01    7.825E-01    8.484E-01    9.141E-01    9.796E-01    1.045E+00    1.110E+00    1.175E+00    1.240E+00    1.305E+00
     1.370E+00    1.435E+00    1.500E+00    1.564E+00    1.629E+00    1.694E+00    1.759E+00    1.824E+00
 Ala      Conc. = 6.12E+01
