 LCModel (Version 6.3-1L) Copyright: S.W. Provencher.          Ref.: Magn. Reson. Med. 30:672-679 (1993).                
 Slice#2 Row#7 Col#12  PD_24_press_1_raw_act
 36 lines in following concentration table = NCONC+1
    Conc.  %SD /Cr+PCr  Metabolite                                         
  811.350  47%   1.645 Ala                                                 
   68.822 173%   0.139 Asp                                                 
  267.172 149%   0.542 Cr                                                  
  226.189 173%   0.458 PCr                                                 
   70.920 106%   0.144 GABA                                                
  103.689  71%   0.210 Glc                                                 
 1.91E+03  29%   3.869 Gln                                                 
 2.95E+03  23%   5.975 Glu                                                 
   36.395 223% 7.4E-02 GPC                                                 
  109.511  77%   0.222 PCh                                                 
    0.000 999%   0.000 GSH                                                 
  740.192  42%   1.500 Ins                                                 
    0.000 999%   0.000 Lac                                                 
 1.55E+03   6%   3.149 NAA                                                 
    0.000 999%   0.000 NAAG                                                
   65.983  32%   0.134 Scyllo                                              
  207.656  56%   0.421 Tau                                                 
    0.000 999%   0.000 -CrCH2                                              
  145.906  16%   0.296 GPC+PCh                                             
 1.55E+03   6%   3.149 NAA+NAAG                                            
  493.361  11%   1.000 Cr+PCr                                              
 4.86E+03  23%   9.844 Glu+Gln                                             
 1.47E+04  11%  29.892 Lip13a                                              
    0.000 999%   0.000 Lip13b                                              
 2.11E+03  23%   4.274 Lip09                                               
    0.000 999%   0.000 MM09                                                
  676.748  54%   1.372 Lip20                                               
    0.000 999%   0.000 MM20                                                
   52.543 519%   0.107 MM12                                                
 3.99E+03  19%   8.093 MM14                                                
 2.49E+03  24%   5.054 MM17                                                
 1.47E+04  11%  29.892 Lip13a+Lip13b                                       
 1.88E+04   8%  38.092 MM14+Lip13a+Lip13b+MM12                             
 2.11E+03  23%   4.274 MM09+Lip09                                          
  676.748  54%   1.372 MM20+Lip20                                          
   6 lines in following misc. output table
  FWHM = 0.107 ppm    S/N =   9                                            
  Data shift =-0.008 ppm                                                   
  Ph:-165 deg     -65.5 deg/ppm                                            
  alphaB,S = 6.1E-01,   1.7E+02                                            
   13 spline knots.   Ns = 9(2)                                            
  ( 9) 2 infls.   ( 3) 1 extrs.                                            
  498 points on ppm-axis = NY
      4.000000     3.992357     3.984714     3.977070     3.969427     3.961784     3.954141     3.946497     3.938854     3.931211
      3.923568     3.915925     3.908281     3.900638     3.892995     3.885352     3.877708     3.870065     3.862422     3.854779
      3.847136     3.839492     3.831849     3.824206     3.816563     3.808919     3.801276     3.793633     3.785990     3.778347
      3.770703     3.763060     3.755417     3.747774     3.740130     3.732487     3.724844     3.717201     3.709558     3.701914
      3.694271     3.686628     3.678985     3.671341     3.663698     3.656055     3.648412     3.640769     3.633125     3.625482
      3.617839     3.610196     3.602552     3.594909     3.587266     3.579623     3.571980     3.564336     3.556693     3.549050
      3.541407     3.533763     3.526120     3.518477     3.510834     3.503191     3.495547     3.487904     3.480261     3.472618
      3.464974     3.457331     3.449688     3.442045     3.434402     3.426758     3.419115     3.411472     3.403829     3.396185
      3.388542     3.380899     3.373256     3.365613     3.357969     3.350326     3.342683     3.335040     3.327396     3.319753
      3.312110     3.304467     3.296824     3.289180     3.281537     3.273894     3.266251     3.258607     3.250964     3.243321
      3.235678     3.228034     3.220391     3.212748     3.205105     3.197462     3.189818     3.182175     3.174532     3.166889
      3.159245     3.151602     3.143959     3.136316     3.128673     3.121029     3.113386     3.105743     3.098100     3.090456
      3.082813     3.075170     3.067527     3.059884     3.052240     3.044597     3.036954     3.029311     3.021667     3.014024
      3.006381     2.998738     2.991095     2.983451     2.975808     2.968165     2.960522     2.952878     2.945235     2.937592
      2.929949     2.922306     2.914662     2.907019     2.899376     2.891733     2.884089     2.876446     2.868803     2.861160
      2.853517     2.845873     2.838230     2.830587     2.822944     2.815300     2.807657     2.800014     2.792371     2.784728
      2.777084     2.769441     2.761798     2.754155     2.746511     2.738868     2.731225     2.723582     2.715939     2.708295
      2.700652     2.693009     2.685366     2.677722     2.670079     2.662436     2.654793     2.647150     2.639506     2.631863
      2.624220     2.616577     2.608933     2.601290     2.593647     2.586004     2.578361     2.570717     2.563074     2.555431
      2.547788     2.540144     2.532501     2.524858     2.517215     2.509572     2.501928     2.494285     2.486642     2.478999
      2.471355     2.463712     2.456069     2.448426     2.440783     2.433139     2.425496     2.417853     2.410210     2.402566
      2.394923     2.387280     2.379637     2.371994     2.364350     2.356707     2.349064     2.341421     2.333777     2.326134
      2.318491     2.310848     2.303205     2.295561     2.287918     2.280275     2.272632     2.264988     2.257345     2.249702
      2.242059     2.234416     2.226772     2.219129     2.211486     2.203843     2.196199     2.188556     2.180913     2.173270
      2.165627     2.157983     2.150340     2.142697     2.135054     2.127410     2.119767     2.112124     2.104481     2.096838
      2.089194     2.081551     2.073908     2.066265     2.058621     2.050978     2.043335     2.035692     2.028049     2.020405
      2.012762     2.005119     1.997476     1.989833     1.982190     1.974546     1.966903     1.959260     1.951617     1.943974
      1.936331     1.928688     1.921045     1.913402     1.905759     1.898115     1.890472     1.882829     1.875186     1.867543
      1.859900     1.852257     1.844614     1.836971     1.829327     1.821684     1.814041     1.806398     1.798755     1.791112
      1.783469     1.775826     1.768183     1.760540     1.752896     1.745253     1.737610     1.729967     1.722324     1.714681
      1.707038     1.699395     1.691752     1.684108     1.676465     1.668822     1.661179     1.653536     1.645893     1.638250
      1.630607     1.622964     1.615321     1.607677     1.600034     1.592391     1.584748     1.577105     1.569462     1.561819
      1.554176     1.546533     1.538890     1.531246     1.523603     1.515960     1.508317     1.500674     1.493031     1.485388
      1.477745     1.470102     1.462458     1.454815     1.447172     1.439529     1.431886     1.424243     1.416600     1.408957
      1.401314     1.393671     1.386027     1.378384     1.370741     1.363098     1.355455     1.347812     1.340169     1.332526
      1.324883     1.317240     1.309596     1.301953     1.294310     1.286667     1.279024     1.271381     1.263738     1.256095
      1.248452     1.240808     1.233165     1.225522     1.217879     1.210236     1.202593     1.194950     1.187307     1.179664
      1.172021     1.164377     1.156734     1.149091     1.141448     1.133805     1.126162     1.118519     1.110876     1.103233
      1.095590     1.087946     1.080303     1.072660     1.065017     1.057374     1.049731     1.042088     1.034445     1.026802
      1.019158     1.011515     1.003872     0.996229     0.988586     0.980943     0.973300     0.965657     0.958014     0.950371
      0.942727     0.935084     0.927441     0.919798     0.912155     0.904512     0.896869     0.889226     0.881583     0.873940
      0.866296     0.858653     0.851010     0.843367     0.835724     0.828081     0.820438     0.812795     0.805152     0.797508
      0.789865     0.782222     0.774579     0.766936     0.759293     0.751650     0.744007     0.736364     0.728721     0.721077
      0.713434     0.705791     0.698148     0.690505     0.682862     0.675219     0.667576     0.659933     0.652290     0.644646
      0.637003     0.629360     0.621717     0.614074     0.606431     0.598788     0.591145     0.583502     0.575858     0.568215
      0.560572     0.552929     0.545286     0.537643     0.530000     0.522357     0.514714     0.507071     0.499427     0.491784
      0.484141     0.476498     0.468855     0.461212     0.453569     0.445925     0.438282     0.430639     0.422996     0.415353
      0.407710     0.400067     0.392424     0.384780     0.377137     0.369494     0.361851     0.354208     0.346565     0.338922
      0.331278     0.323635     0.315992     0.308349     0.300706     0.293063     0.285420     0.277777     0.270133     0.262490
      0.254847     0.247204     0.239561     0.231918     0.224275     0.216631     0.208988     0.201345
 NY phased data points follow
   1.04758E+01  1.33235E+01  1.47872E+01  1.17928E+01  9.62242E+00  1.50720E+01  1.19302E+01  1.62102E+01  1.14671E+01  1.67209E+01
   1.63792E+01  1.36519E+01  1.64769E+01  1.77533E+01  1.35661E+01  1.33529E+01  9.72950E+00  1.52883E+01  1.03207E+01  1.28609E+01
   1.25015E+01  1.28348E+01  1.07633E+01  8.30825E+00  1.26398E+01  1.43023E+01  9.84795E+00  1.30658E+01  1.26014E+01  1.43324E+01
   1.34887E+01  1.42118E+01  1.07163E+01  1.07564E+01  1.04951E+01  1.44204E+01  1.29390E+01  1.44482E+01  1.35541E+01  1.39222E+01
   1.33926E+01  1.38818E+01  1.32779E+01  1.03956E+01  1.37786E+01  1.24632E+01  1.22295E+01  1.33029E+01  1.06784E+01  1.60440E+01
   1.35324E+01  1.37982E+01  1.69489E+01  1.34062E+01  1.41929E+01  1.18695E+01  1.06325E+01  1.09476E+01  1.35692E+01  1.07806E+01
   1.21792E+01  1.10140E+01  1.09918E+01  1.19104E+01  1.33368E+01  9.75338E+00  1.27148E+01  1.10611E+01  1.20354E+01  1.02874E+01
   1.26156E+01  1.29058E+01  1.31718E+01  1.57930E+01  1.32806E+01  1.33161E+01  1.47837E+01  1.02678E+01  1.64926E+01  1.59243E+01
   1.39882E+01  1.65127E+01  1.17741E+01  1.33425E+01  1.23076E+01  1.46735E+01  1.52672E+01  1.35309E+01  1.29139E+01  1.48866E+01
   1.15745E+01  1.20950E+01  1.34600E+01  1.40232E+01  1.52850E+01  1.19501E+01  1.37128E+01  1.55837E+01  1.57583E+01  1.53582E+01
   1.72616E+01  1.93209E+01  1.58087E+01  1.68917E+01  1.87973E+01  1.74211E+01  1.80300E+01  1.81546E+01  1.63772E+01  1.65952E+01
   1.51785E+01  1.15767E+01  1.53050E+01  1.21989E+01  1.35120E+01  1.52110E+01  1.32081E+01  1.70868E+01  1.53478E+01  1.54484E+01
   1.57382E+01  1.75804E+01  1.65430E+01  2.13884E+01  1.82088E+01  1.92972E+01  2.04891E+01  1.99973E+01  1.54444E+01  1.60022E+01
   1.56012E+01  1.67591E+01  1.63152E+01  1.57349E+01  1.36819E+01  1.40812E+01  1.26105E+01  1.19966E+01  1.40967E+01  1.17855E+01
   1.20532E+01  1.45239E+01  1.22263E+01  1.52103E+01  1.54729E+01  1.03537E+01  1.07628E+01  1.04741E+01  1.51394E+01  1.43477E+01
   1.20956E+01  1.04428E+01  1.55676E+01  1.46741E+01  1.62389E+01  1.41690E+01  1.25660E+01  1.25665E+01  1.00924E+01  1.27363E+01
   1.27717E+01  1.18771E+01  1.45690E+01  1.32297E+01  1.06014E+01  9.46633E+00  1.05909E+01  8.13956E+00  1.14283E+01  9.07465E+00
   1.18836E+01  1.21716E+01  9.79751E+00  1.09058E+01  1.17757E+01  1.05179E+01  9.48087E+00  9.82412E+00  1.34664E+01  1.19281E+01
   1.45973E+01  9.43141E+00  1.29373E+01  1.35411E+01  1.00073E+01  1.22499E+01  1.44542E+01  1.21975E+01  1.72518E+01  1.49669E+01
   1.25513E+01  1.30075E+01  1.26684E+01  1.87283E+01  1.14119E+01  1.83331E+01  1.35497E+01  1.30734E+01  1.61827E+01  2.06624E+01
   1.81526E+01  2.14979E+01  1.59606E+01  1.68962E+01  1.59782E+01  1.83867E+01  1.79775E+01  1.91640E+01  1.56753E+01  1.51439E+01
   1.90011E+01  2.19209E+01  2.17535E+01  1.97644E+01  2.16921E+01  1.99994E+01  1.60714E+01  2.00056E+01  1.89794E+01  1.77358E+01
   1.91504E+01  1.72922E+01  1.86730E+01  2.14718E+01  2.25359E+01  2.07199E+01  2.13524E+01  2.08858E+01  1.87714E+01  2.26587E+01
   2.31828E+01  2.33210E+01  2.18762E+01  2.37207E+01  2.64603E+01  2.12246E+01  2.51088E+01  2.41403E+01  2.37411E+01  2.52207E+01
   2.54744E+01  2.50744E+01  2.69164E+01  2.53487E+01  2.85793E+01  2.91786E+01  3.18503E+01  2.87001E+01  3.18100E+01  3.36442E+01
   3.72606E+01  3.58839E+01  4.17194E+01  3.97815E+01  4.41680E+01  4.94598E+01  5.23034E+01  5.65353E+01  5.59494E+01  5.77358E+01
   5.59558E+01  4.90508E+01  5.02405E+01  4.92982E+01  4.63753E+01  4.19346E+01  3.93361E+01  4.08438E+01  4.00196E+01  3.97504E+01
   3.53140E+01  3.36059E+01  3.41947E+01  3.28080E+01  3.26320E+01  3.61156E+01  3.43341E+01  3.31801E+01  3.37651E+01  3.19259E+01
   3.21595E+01  3.35051E+01  3.54566E+01  3.85427E+01  3.75107E+01  3.46553E+01  3.76928E+01  3.83069E+01  3.86338E+01  3.45664E+01
   3.89648E+01  3.52020E+01  3.69249E+01  3.95098E+01  4.29094E+01  4.19336E+01  4.27743E+01  4.23576E+01  4.45270E+01  4.83054E+01
   4.25215E+01  4.65078E+01  4.54175E+01  4.86607E+01  4.71166E+01  5.25010E+01  5.45896E+01  5.40291E+01  5.18877E+01  5.75142E+01
   5.73271E+01  5.87799E+01  5.96945E+01  6.12537E+01  5.93814E+01  6.19962E+01  6.46339E+01  6.51736E+01  6.54992E+01  6.59887E+01
   6.43396E+01  6.65801E+01  6.54059E+01  6.45077E+01  6.90374E+01  6.87308E+01  6.51762E+01  6.63888E+01  6.65311E+01  6.75914E+01
   6.63446E+01  6.78615E+01  6.74312E+01  6.69763E+01  6.64687E+01  6.82980E+01  6.68766E+01  6.81923E+01  6.72766E+01  6.14618E+01
   6.63862E+01  6.68780E+01  6.45804E+01  6.51919E+01  6.41320E+01  6.60102E+01  6.52812E+01  6.56353E+01  6.95618E+01  6.41080E+01
   6.44682E+01  6.43801E+01  6.54317E+01  6.30321E+01  6.24031E+01  6.12146E+01  6.15382E+01  6.29768E+01  6.01630E+01  6.14806E+01
   6.14398E+01  5.99506E+01  6.37050E+01  6.04127E+01  6.27509E+01  6.08291E+01  5.96594E+01  6.35339E+01  5.94341E+01  5.65627E+01
   6.08606E+01  5.64431E+01  5.84885E+01  5.67084E+01  5.59288E+01  5.78296E+01  5.26837E+01  5.54800E+01  5.31066E+01  5.11940E+01
   5.07604E+01  5.02562E+01  4.71538E+01  4.67552E+01  4.83792E+01  4.72475E+01  4.53580E+01  4.50605E+01  4.65301E+01  4.52293E+01
   4.51538E+01  4.32644E+01  4.47199E+01  3.95872E+01  4.32304E+01  4.29729E+01  4.33984E+01  4.08296E+01  3.97948E+01  3.95876E+01
   3.92230E+01  3.79362E+01  3.89530E+01  3.86691E+01  3.89834E+01  3.75775E+01  3.72727E+01  3.81686E+01  3.68507E+01  3.62567E+01
   4.01602E+01  3.77754E+01  3.59815E+01  3.74244E+01  3.48837E+01  3.52613E+01  3.36845E+01  3.80969E+01  3.33026E+01  3.40474E+01
   3.25999E+01  3.05201E+01  3.56006E+01  2.88839E+01  2.85707E+01  3.22413E+01  3.04360E+01  3.07712E+01  2.63485E+01  2.65454E+01
   2.60537E+01  3.03119E+01  2.53115E+01  2.70444E+01  2.46722E+01  2.30859E+01  2.61646E+01  2.21972E+01  2.75854E+01  2.44743E+01
   2.32557E+01  2.24293E+01  2.16325E+01  2.43252E+01  2.45175E+01  1.91716E+01  2.44742E+01  2.14493E+01  1.99678E+01  2.05545E+01
   2.21951E+01  2.33979E+01  2.09954E+01  1.90717E+01  1.93912E+01  2.25986E+01  1.90155E+01  1.99919E+01  2.31552E+01  1.63666E+01
   1.93156E+01  2.09226E+01  2.17477E+01  1.84744E+01  1.69009E+01  1.75606E+01  1.66260E+01  1.84720E+01  1.82705E+01  1.46862E+01
   1.66788E+01  1.52718E+01  1.70223E+01  1.75225E+01  1.47788E+01  1.89692E+01  1.44187E+01  1.85124E+01  1.74072E+01  1.69977E+01
   1.62012E+01  1.52131E+01  1.48275E+01  1.34077E+01  1.08554E+01  1.42559E+01  1.63047E+01  1.58632E+01  1.59626E+01  1.36901E+01
   1.54439E+01  1.65776E+01  1.75043E+01  1.67609E+01  1.36576E+01  1.67083E+01  1.42472E+01  1.49295E+01
 NY points of the fit to the data follow
   1.12000E+01  1.19900E+01  1.17399E+01  1.28559E+01  1.24758E+01  1.38677E+01  1.32753E+01  1.47638E+01  1.38480E+01  1.51162E+01
   1.38747E+01  1.48237E+01  1.34493E+01  1.42410E+01  1.30474E+01  1.39085E+01  1.29184E+01  1.38045E+01  1.27943E+01  1.35708E+01
   1.23669E+01  1.30394E+01  1.17624E+01  1.24783E+01  1.13567E+01  1.22456E+01  1.15157E+01  1.26000E+01  1.22003E+01  1.33032E+01
   1.28960E+01  1.37514E+01  1.30518E+01  1.35966E+01  1.28121E+01  1.32350E+01  1.27126E+01  1.31780E+01  1.29775E+01  1.34288E+01
   1.33345E+01  1.36557E+01  1.35485E+01  1.36886E+01  1.36176E+01  1.36191E+01  1.36503E+01  1.35752E+01  1.35969E+01  1.34155E+01
   1.33000E+01  1.30304E+01  1.28351E+01  1.25741E+01  1.24973E+01  1.23314E+01  1.23705E+01  1.22429E+01  1.22958E+01  1.21523E+01
   1.21917E+01  1.20804E+01  1.21583E+01  1.20995E+01  1.22095E+01  1.21700E+01  1.22943E+01  1.22615E+01  1.24515E+01  1.24311E+01
   1.26337E+01  1.25871E+01  1.27535E+01  1.26628E+01  1.28234E+01  1.27006E+01  1.28798E+01  1.27426E+01  1.29456E+01  1.28046E+01
   1.30120E+01  1.28719E+01  1.30044E+01  1.28438E+01  1.28713E+01  1.28256E+01  1.28609E+01  1.28756E+01  1.29536E+01  1.30257E+01
   1.31673E+01  1.33221E+01  1.35686E+01  1.38435E+01  1.42774E+01  1.46364E+01  1.52988E+01  1.56474E+01  1.65594E+01  1.66582E+01
   1.76505E+01  1.72472E+01  1.80405E+01  1.71297E+01  1.76127E+01  1.64668E+01  1.67224E+01  1.55729E+01  1.58210E+01  1.49699E+01
   1.50816E+01  1.45414E+01  1.44912E+01  1.42788E+01  1.41237E+01  1.43851E+01  1.42550E+01  1.51170E+01  1.50150E+01  1.64191E+01
   1.61910E+01  1.80186E+01  1.73735E+01  1.93556E+01  1.80998E+01  1.98834E+01  1.81438E+01  1.94313E+01  1.75452E+01  1.84014E+01
   1.66180E+01  1.71324E+01  1.55744E+01  1.58212E+01  1.45536E+01  1.46058E+01  1.36327E+01  1.35408E+01  1.29315E+01  1.28457E+01
   1.25742E+01  1.25936E+01  1.24756E+01  1.25169E+01  1.24359E+01  1.24331E+01  1.24033E+01  1.23841E+01  1.24415E+01  1.24626E+01
   1.25173E+01  1.25130E+01  1.25588E+01  1.25230E+01  1.25587E+01  1.24944E+01  1.25159E+01  1.24437E+01  1.24342E+01  1.24055E+01
   1.23656E+01  1.23857E+01  1.22785E+01  1.22813E+01  1.21221E+01  1.20959E+01  1.19305E+01  1.18879E+01  1.17368E+01  1.16656E+01
   1.15844E+01  1.15056E+01  1.15389E+01  1.14449E+01  1.16153E+01  1.14756E+01  1.17639E+01  1.16066E+01  1.19632E+01  1.18489E+01
   1.22299E+01  1.21819E+01  1.25675E+01  1.26374E+01  1.30469E+01  1.32810E+01  1.36405E+01  1.40603E+01  1.42438E+01  1.47731E+01
   1.47242E+01  1.53395E+01  1.49653E+01  1.58282E+01  1.53806E+01  1.65154E+01  1.61280E+01  1.75028E+01  1.71676E+01  1.85152E+01
   1.77878E+01  1.88655E+01  1.75594E+01  1.83475E+01  1.65631E+01  1.73204E+01  1.57892E+01  1.69254E+01  1.61822E+01  1.76021E+01
   1.76219E+01  1.88462E+01  1.89389E+01  1.95945E+01  1.92353E+01  1.93812E+01  1.86098E+01  1.86302E+01  1.78864E+01  1.83118E+01
   1.79891E+01  1.89663E+01  1.89112E+01  2.02511E+01  2.00733E+01  2.13400E+01  2.10297E+01  2.22172E+01  2.19783E+01  2.31032E+01
   2.29899E+01  2.39968E+01  2.38638E+01  2.46357E+01  2.45109E+01  2.48151E+01  2.48380E+01  2.45396E+01  2.49060E+01  2.41426E+01
   2.48572E+01  2.41228E+01  2.58867E+01  2.54713E+01  2.76592E+01  2.75174E+01  2.99639E+01  3.01992E+01  3.29198E+01  3.36338E+01
   3.68660E+01  3.80433E+01  4.17961E+01  4.32762E+01  4.73268E+01  4.86880E+01  5.21140E+01  5.27502E+01  5.43159E+01  5.39865E+01
   5.33994E+01  5.23941E+01  5.05222E+01  4.92633E+01  4.67700E+01  4.54800E+01  4.28411E+01  4.17143E+01  3.92631E+01  3.83644E+01
   3.61979E+01  3.55948E+01  3.41302E+01  3.38884E+01  3.32950E+01  3.33117E+01  3.31672E+01  3.32389E+01  3.31491E+01  3.32247E+01
   3.31828E+01  3.33734E+01  3.36788E+01  3.39833E+01  3.43538E+01  3.47191E+01  3.51647E+01  3.56081E+01  3.61359E+01  3.66845E+01
   3.73068E+01  3.79611E+01  3.86753E+01  3.94305E+01  4.02348E+01  4.10891E+01  4.19908E+01  4.29377E+01  4.39251E+01  4.49483E+01
   4.59997E+01  4.70740E+01  4.81616E+01  4.92574E+01  5.03576E+01  5.14561E+01  5.25569E+01  5.36631E+01  5.48057E+01  5.59783E+01
   5.69815E+01  5.81148E+01  5.89639E+01  6.00627E+01  6.07790E+01  6.18669E+01  6.24253E+01  6.37035E+01  6.41093E+01  6.54831E+01
   6.55733E+01  6.68867E+01  6.64558E+01  6.75398E+01  6.65829E+01  6.74086E+01  6.62434E+01  6.69577E+01  6.59819E+01  6.68072E+01
   6.61898E+01  6.70554E+01  6.67534E+01  6.73769E+01  6.72050E+01  6.73954E+01  6.71941E+01  6.70525E+01  6.68821E+01  6.65973E+01
   6.64470E+01  6.61012E+01  6.58892E+01  6.54888E+01  6.52319E+01  6.47870E+01  6.45518E+01  6.42119E+01  6.40959E+01  6.39822E+01
   6.39570E+01  6.39531E+01  6.39862E+01  6.39809E+01  6.39890E+01  6.39235E+01  6.38596E+01  6.37758E+01  6.36545E+01  6.34860E+01
   6.32642E+01  6.29847E+01  6.26453E+01  6.22451E+01  6.17847E+01  6.12659E+01  6.06914E+01  6.00654E+01  5.93923E+01  5.86776E+01
   5.79271E+01  5.71470E+01  5.63437E+01  5.55238E+01  5.46935E+01  5.38591E+01  5.30267E+01  5.22019E+01  5.13899E+01  5.05953E+01
   4.98226E+01  4.90753E+01  4.83566E+01  4.76692E+01  4.70150E+01  4.63955E+01  4.58117E+01  4.52639E+01  4.47521E+01  4.42756E+01
   4.38332E+01  4.34234E+01  4.30440E+01  4.26926E+01  4.23663E+01  4.20618E+01  4.17754E+01  4.15034E+01  4.12418E+01  4.09862E+01
   4.07326E+01  4.04768E+01  4.02147E+01  3.99426E+01  3.96570E+01  3.93548E+01  3.90334E+01  3.86909E+01  3.83258E+01  3.79372E+01
   3.75250E+01  3.70897E+01  3.66322E+01  3.61541E+01  3.56574E+01  3.51446E+01  3.46184E+01  3.40817E+01  3.35375E+01  3.29890E+01
   3.24392E+01  3.18910E+01  3.13470E+01  3.08097E+01  3.02813E+01  2.97637E+01  2.92585E+01  2.87668E+01  2.82897E+01  2.78278E+01
   2.73816E+01  2.69512E+01  2.65366E+01  2.61377E+01  2.57539E+01  2.53851E+01  2.50305E+01  2.46896E+01  2.43618E+01  2.40464E+01
   2.37427E+01  2.34500E+01  2.31678E+01  2.28954E+01  2.26320E+01  2.23773E+01  2.21307E+01  2.18915E+01  2.16594E+01  2.14338E+01
   2.12144E+01  2.10007E+01  2.07924E+01  2.05891E+01  2.03905E+01  2.01963E+01  2.00063E+01  1.98201E+01  1.96376E+01  1.94585E+01
   1.92827E+01  1.91099E+01  1.89400E+01  1.87729E+01  1.86083E+01  1.84462E+01  1.82865E+01  1.81289E+01  1.79735E+01  1.78202E+01
   1.76687E+01  1.75191E+01  1.73713E+01  1.72252E+01  1.70808E+01  1.69380E+01  1.67966E+01  1.66568E+01  1.65184E+01  1.63814E+01
   1.62458E+01  1.61115E+01  1.59785E+01  1.58468E+01  1.57164E+01  1.55871E+01  1.54591E+01  1.53323E+01  1.52068E+01  1.50824E+01
   1.49593E+01  1.48374E+01  1.47167E+01  1.45973E+01  1.44793E+01  1.43627E+01  1.42475E+01  1.41340E+01
 NY background values follow
     8.269E+00    8.291E+00    8.314E+00    8.336E+00    8.359E+00    8.382E+00    8.405E+00    8.429E+00    8.452E+00    8.476E+00
     8.500E+00    8.524E+00    8.548E+00    8.573E+00    8.597E+00    8.622E+00    8.646E+00    8.671E+00    8.696E+00    8.721E+00
     8.746E+00    8.772E+00    8.797E+00    8.823E+00    8.848E+00    8.874E+00    8.900E+00    8.926E+00    8.952E+00    8.978E+00
     9.004E+00    9.031E+00    9.057E+00    9.084E+00    9.110E+00    9.137E+00    9.163E+00    9.190E+00    9.217E+00    9.244E+00
     9.271E+00    9.298E+00    9.325E+00    9.352E+00    9.379E+00    9.406E+00    9.433E+00    9.460E+00    9.487E+00    9.514E+00
     9.541E+00    9.569E+00    9.596E+00    9.623E+00    9.650E+00    9.677E+00    9.704E+00    9.731E+00    9.758E+00    9.785E+00
     9.812E+00    9.839E+00    9.866E+00    9.893E+00    9.919E+00    9.946E+00    9.972E+00    9.998E+00    1.002E+01    1.005E+01
     1.008E+01    1.010E+01    1.013E+01    1.015E+01    1.018E+01    1.020E+01    1.023E+01    1.025E+01    1.028E+01    1.030E+01
     1.033E+01    1.035E+01    1.037E+01    1.040E+01    1.042E+01    1.044E+01    1.047E+01    1.049E+01    1.051E+01    1.053E+01
     1.055E+01    1.057E+01    1.060E+01    1.062E+01    1.064E+01    1.066E+01    1.068E+01    1.070E+01    1.071E+01    1.073E+01
     1.075E+01    1.077E+01    1.079E+01    1.080E+01    1.082E+01    1.084E+01    1.085E+01    1.087E+01    1.089E+01    1.090E+01
     1.092E+01    1.093E+01    1.095E+01    1.097E+01    1.098E+01    1.100E+01    1.102E+01    1.103E+01    1.105E+01    1.107E+01
     1.108E+01    1.110E+01    1.112E+01    1.114E+01    1.115E+01    1.117E+01    1.119E+01    1.121E+01    1.123E+01    1.125E+01
     1.127E+01    1.129E+01    1.132E+01    1.134E+01    1.136E+01    1.139E+01    1.141E+01    1.144E+01    1.147E+01    1.149E+01
     1.152E+01    1.155E+01    1.158E+01    1.161E+01    1.165E+01    1.168E+01    1.171E+01    1.175E+01    1.179E+01    1.182E+01
     1.186E+01    1.190E+01    1.194E+01    1.199E+01    1.203E+01    1.207E+01    1.212E+01    1.217E+01    1.222E+01    1.227E+01
     1.232E+01    1.237E+01    1.242E+01    1.248E+01    1.253E+01    1.259E+01    1.265E+01    1.271E+01    1.277E+01    1.283E+01
     1.289E+01    1.296E+01    1.302E+01    1.309E+01    1.316E+01    1.323E+01    1.330E+01    1.337E+01    1.345E+01    1.352E+01
     1.360E+01    1.368E+01    1.376E+01    1.384E+01    1.392E+01    1.400E+01    1.408E+01    1.417E+01    1.426E+01    1.434E+01
     1.443E+01    1.453E+01    1.462E+01    1.471E+01    1.481E+01    1.490E+01    1.500E+01    1.510E+01    1.520E+01    1.530E+01
     1.540E+01    1.551E+01    1.561E+01    1.572E+01    1.583E+01    1.594E+01    1.605E+01    1.616E+01    1.627E+01    1.639E+01
     1.650E+01    1.662E+01    1.674E+01    1.685E+01    1.697E+01    1.709E+01    1.721E+01    1.733E+01    1.746E+01    1.758E+01
     1.770E+01    1.782E+01    1.795E+01    1.807E+01    1.820E+01    1.833E+01    1.845E+01    1.858E+01    1.871E+01    1.883E+01
     1.896E+01    1.909E+01    1.922E+01    1.935E+01    1.947E+01    1.960E+01    1.973E+01    1.986E+01    1.999E+01    2.012E+01
     2.025E+01    2.038E+01    2.050E+01    2.063E+01    2.076E+01    2.089E+01    2.102E+01    2.114E+01    2.127E+01    2.140E+01
     2.152E+01    2.165E+01    2.178E+01    2.190E+01    2.203E+01    2.215E+01    2.227E+01    2.240E+01    2.252E+01    2.264E+01
     2.276E+01    2.288E+01    2.300E+01    2.312E+01    2.323E+01    2.335E+01    2.347E+01    2.358E+01    2.369E+01    2.381E+01
     2.392E+01    2.403E+01    2.414E+01    2.425E+01    2.435E+01    2.446E+01    2.456E+01    2.467E+01    2.477E+01    2.487E+01
     2.497E+01    2.507E+01    2.517E+01    2.526E+01    2.536E+01    2.545E+01    2.554E+01    2.563E+01    2.572E+01    2.580E+01
     2.589E+01    2.597E+01    2.605E+01    2.613E+01    2.621E+01    2.629E+01    2.636E+01    2.643E+01    2.650E+01    2.657E+01
     2.664E+01    2.670E+01    2.677E+01    2.683E+01    2.689E+01    2.694E+01    2.700E+01    2.705E+01    2.710E+01    2.715E+01
     2.720E+01    2.725E+01    2.729E+01    2.733E+01    2.737E+01    2.741E+01    2.745E+01    2.748E+01    2.752E+01    2.755E+01
     2.758E+01    2.761E+01    2.763E+01    2.766E+01    2.768E+01    2.770E+01    2.772E+01    2.774E+01    2.776E+01    2.777E+01
     2.778E+01    2.779E+01    2.780E+01    2.781E+01    2.782E+01    2.782E+01    2.782E+01    2.782E+01    2.782E+01    2.782E+01
     2.782E+01    2.781E+01    2.780E+01    2.780E+01    2.778E+01    2.777E+01    2.776E+01    2.774E+01    2.773E+01    2.771E+01
     2.769E+01    2.767E+01    2.765E+01    2.762E+01    2.760E+01    2.757E+01    2.754E+01    2.751E+01    2.748E+01    2.744E+01
     2.741E+01    2.737E+01    2.734E+01    2.730E+01    2.726E+01    2.721E+01    2.717E+01    2.713E+01    2.708E+01    2.703E+01
     2.698E+01    2.693E+01    2.688E+01    2.683E+01    2.677E+01    2.672E+01    2.666E+01    2.660E+01    2.654E+01    2.648E+01
     2.642E+01    2.636E+01    2.629E+01    2.622E+01    2.616E+01    2.609E+01    2.602E+01    2.595E+01    2.587E+01    2.580E+01
     2.572E+01    2.565E+01    2.557E+01    2.549E+01    2.541E+01    2.533E+01    2.525E+01    2.516E+01    2.508E+01    2.499E+01
     2.491E+01    2.482E+01    2.473E+01    2.464E+01    2.455E+01    2.446E+01    2.436E+01    2.427E+01    2.417E+01    2.408E+01
     2.398E+01    2.388E+01    2.378E+01    2.368E+01    2.358E+01    2.348E+01    2.338E+01    2.328E+01    2.317E+01    2.307E+01
     2.296E+01    2.286E+01    2.275E+01    2.265E+01    2.254E+01    2.243E+01    2.232E+01    2.222E+01    2.211E+01    2.200E+01
     2.189E+01    2.178E+01    2.166E+01    2.155E+01    2.144E+01    2.133E+01    2.122E+01    2.111E+01    2.099E+01    2.088E+01
     2.077E+01    2.065E+01    2.054E+01    2.043E+01    2.031E+01    2.020E+01    2.008E+01    1.997E+01    1.986E+01    1.974E+01
     1.963E+01    1.952E+01    1.940E+01    1.929E+01    1.917E+01    1.906E+01    1.895E+01    1.883E+01    1.872E+01    1.861E+01
     1.849E+01    1.838E+01    1.827E+01    1.815E+01    1.804E+01    1.793E+01    1.781E+01    1.770E+01    1.759E+01    1.748E+01
     1.736E+01    1.725E+01    1.714E+01    1.703E+01    1.692E+01    1.681E+01    1.669E+01    1.658E+01    1.647E+01    1.636E+01
     1.625E+01    1.614E+01    1.603E+01    1.592E+01    1.581E+01    1.570E+01    1.559E+01    1.549E+01    1.538E+01    1.527E+01
     1.516E+01    1.505E+01    1.495E+01    1.484E+01    1.473E+01    1.463E+01    1.452E+01    1.441E+01
 Ala      Conc. = 8.11E+02
