 LCModel (Version 6.3-1L) Copyright: S.W. Provencher.          Ref.: Magn. Reson. Med. 30:672-679 (1993).                
 Slice#2 Row#5 Col#3  PD_24_press_1_raw_act
 36 lines in following concentration table = NCONC+1
    Conc.  %SD /Cr+PCr  Metabolite                                         
 4.37E+03  13%   6.166 Ala                                                 
    0.000 999%   0.000 Asp                                                 
    0.000 999%   0.000 Cr                                                  
  709.554  12%   1.000 PCr                                                 
    0.000 999%   0.000 GABA                                                
   25.276 354% 3.6E-02 Glc                                                 
 6.96E+03  14%   9.811 Gln                                                 
 7.48E+03  17%  10.535 Glu                                                 
    0.000 999%   0.000 GPC                                                 
  185.991  20%   0.262 PCh                                                 
    6.977 999% 9.8E-03 GSH                                                 
 1.43E+03  31%   2.018 Ins                                                 
 5.78E+03   9%   8.151 Lac                                                 
  142.858  55%   0.201 NAA                                                 
    0.000 999%   0.000 NAAG                                                
   17.856 148% 2.5E-02 Scyllo                                              
   63.613 226% 9.0E-02 Tau                                                 
    0.000 999%   0.000 -CrCH2                                              
  185.991  20%   0.262 GPC+PCh                                             
  142.858  55%   0.201 NAA+NAAG                                            
  709.554  12%   1.000 Cr+PCr                                              
 1.44E+04  14%  20.346 Glu+Gln                                             
    0.000 999%   0.000 Lip13a                                              
  127.389  74%   0.180 Lip13b                                              
    0.000 999%   0.000 Lip09                                               
  147.823  49%   0.208 MM09                                                
    0.000 999%   0.000 Lip20                                               
    0.000 999%   0.000 MM20                                                
   45.758  87% 6.4E-02 MM12                                                
  959.511  12%   1.352+MM14                                                
  232.474  42%   0.328 MM17                                                
  127.389  74%   0.180 Lip13a+Lip13b                                       
 1.13E+03  16%   1.596 MM14+Lip13a+Lip13b+MM12                             
  147.823  49%   0.208 MM09+Lip09                                          
    0.000 999%   0.000 MM20+Lip20                                          
   6 lines in following misc. output table
  FWHM = 0.153 ppm    S/N =   4                                            
  Data shift = 0.054 ppm                                                   
  Ph: -16 deg     -51.7 deg/ppm                                            
  alphaB,S = 3.1E-01,   2.0E+02                                            
   14 spline knots.   Ns = 8(2)                                            
  ( 9) 5 infls.   ( 5) 1 extrs.                                            
  498 points on ppm-axis = NY
      4.000000     3.992357     3.984714     3.977070     3.969427     3.961784     3.954141     3.946497     3.938854     3.931211
      3.923568     3.915925     3.908281     3.900638     3.892995     3.885352     3.877708     3.870065     3.862422     3.854779
      3.847136     3.839492     3.831849     3.824206     3.816563     3.808919     3.801276     3.793633     3.785990     3.778347
      3.770703     3.763060     3.755417     3.747774     3.740130     3.732487     3.724844     3.717201     3.709558     3.701914
      3.694271     3.686628     3.678985     3.671341     3.663698     3.656055     3.648412     3.640769     3.633125     3.625482
      3.617839     3.610196     3.602552     3.594909     3.587266     3.579623     3.571980     3.564336     3.556693     3.549050
      3.541407     3.533763     3.526120     3.518477     3.510834     3.503191     3.495547     3.487904     3.480261     3.472618
      3.464974     3.457331     3.449688     3.442045     3.434402     3.426758     3.419115     3.411472     3.403829     3.396185
      3.388542     3.380899     3.373256     3.365613     3.357969     3.350326     3.342683     3.335040     3.327396     3.319753
      3.312110     3.304467     3.296824     3.289180     3.281537     3.273894     3.266251     3.258607     3.250964     3.243321
      3.235678     3.228034     3.220391     3.212748     3.205105     3.197462     3.189818     3.182175     3.174532     3.166889
      3.159245     3.151602     3.143959     3.136316     3.128673     3.121029     3.113386     3.105743     3.098100     3.090456
      3.082813     3.075170     3.067527     3.059884     3.052240     3.044597     3.036954     3.029311     3.021667     3.014024
      3.006381     2.998738     2.991095     2.983451     2.975808     2.968165     2.960522     2.952878     2.945235     2.937592
      2.929949     2.922306     2.914662     2.907019     2.899376     2.891733     2.884089     2.876446     2.868803     2.861160
      2.853517     2.845873     2.838230     2.830587     2.822944     2.815300     2.807657     2.800014     2.792371     2.784728
      2.777084     2.769441     2.761798     2.754155     2.746511     2.738868     2.731225     2.723582     2.715939     2.708295
      2.700652     2.693009     2.685366     2.677722     2.670079     2.662436     2.654793     2.647150     2.639506     2.631863
      2.624220     2.616577     2.608933     2.601290     2.593647     2.586004     2.578361     2.570717     2.563074     2.555431
      2.547788     2.540144     2.532501     2.524858     2.517215     2.509572     2.501928     2.494285     2.486642     2.478999
      2.471355     2.463712     2.456069     2.448426     2.440783     2.433139     2.425496     2.417853     2.410210     2.402566
      2.394923     2.387280     2.379637     2.371994     2.364350     2.356707     2.349064     2.341421     2.333777     2.326134
      2.318491     2.310848     2.303205     2.295561     2.287918     2.280275     2.272632     2.264988     2.257345     2.249702
      2.242059     2.234416     2.226772     2.219129     2.211486     2.203843     2.196199     2.188556     2.180913     2.173270
      2.165627     2.157983     2.150340     2.142697     2.135054     2.127410     2.119767     2.112124     2.104481     2.096838
      2.089194     2.081551     2.073908     2.066265     2.058621     2.050978     2.043335     2.035692     2.028049     2.020405
      2.012762     2.005119     1.997476     1.989833     1.982190     1.974546     1.966903     1.959260     1.951617     1.943974
      1.936331     1.928688     1.921045     1.913402     1.905759     1.898115     1.890472     1.882829     1.875186     1.867543
      1.859900     1.852257     1.844614     1.836971     1.829327     1.821684     1.814041     1.806398     1.798755     1.791112
      1.783469     1.775826     1.768183     1.760540     1.752896     1.745253     1.737610     1.729967     1.722324     1.714681
      1.707038     1.699395     1.691752     1.684108     1.676465     1.668822     1.661179     1.653536     1.645893     1.638250
      1.630607     1.622964     1.615321     1.607677     1.600034     1.592391     1.584748     1.577105     1.569462     1.561819
      1.554176     1.546533     1.538890     1.531246     1.523603     1.515960     1.508317     1.500674     1.493031     1.485388
      1.477745     1.470102     1.462458     1.454815     1.447172     1.439529     1.431886     1.424243     1.416600     1.408957
      1.401314     1.393671     1.386027     1.378384     1.370741     1.363098     1.355455     1.347812     1.340169     1.332526
      1.324883     1.317240     1.309596     1.301953     1.294310     1.286667     1.279024     1.271381     1.263738     1.256095
      1.248452     1.240808     1.233165     1.225522     1.217879     1.210236     1.202593     1.194950     1.187307     1.179664
      1.172021     1.164377     1.156734     1.149091     1.141448     1.133805     1.126162     1.118519     1.110876     1.103233
      1.095590     1.087946     1.080303     1.072660     1.065017     1.057374     1.049731     1.042088     1.034445     1.026802
      1.019158     1.011515     1.003872     0.996229     0.988586     0.980943     0.973300     0.965657     0.958014     0.950371
      0.942727     0.935084     0.927441     0.919798     0.912155     0.904512     0.896869     0.889226     0.881583     0.873940
      0.866296     0.858653     0.851010     0.843367     0.835724     0.828081     0.820438     0.812795     0.805152     0.797508
      0.789865     0.782222     0.774579     0.766936     0.759293     0.751650     0.744007     0.736364     0.728721     0.721077
      0.713434     0.705791     0.698148     0.690505     0.682862     0.675219     0.667576     0.659933     0.652290     0.644646
      0.637003     0.629360     0.621717     0.614074     0.606431     0.598788     0.591145     0.583502     0.575858     0.568215
      0.560572     0.552929     0.545286     0.537643     0.530000     0.522357     0.514714     0.507071     0.499427     0.491784
      0.484141     0.476498     0.468855     0.461212     0.453569     0.445925     0.438282     0.430639     0.422996     0.415353
      0.407710     0.400067     0.392424     0.384780     0.377137     0.369494     0.361851     0.354208     0.346565     0.338922
      0.331278     0.323635     0.315992     0.308349     0.300706     0.293063     0.285420     0.277777     0.270133     0.262490
      0.254847     0.247204     0.239561     0.231918     0.224275     0.216631     0.208988     0.201345
 NY phased data points follow
   1.31723E+01  1.77466E+01  1.35251E+01  1.83919E+01  1.73619E+01  1.33914E+01  1.51140E+01  1.72211E+01  1.59899E+01  1.65796E+01
   1.42354E+01  2.01939E+01  1.10129E+01  1.46410E+01  1.37098E+01  1.49192E+01  1.35860E+01  1.57764E+01  1.36034E+01  1.30338E+01
   1.16409E+01  1.50161E+01  1.14579E+01  1.45333E+01  1.62278E+01  1.55309E+01  1.67966E+01  1.58236E+01  1.21870E+01  1.53549E+01
   1.39961E+01  1.28860E+01  1.02244E+01  1.49270E+01  1.60603E+01  1.68183E+01  1.22978E+01  1.74778E+01  1.43125E+01  1.68218E+01
   1.45609E+01  1.74799E+01  1.63675E+01  1.61261E+01  1.31877E+01  1.80991E+01  1.24264E+01  1.34359E+01  1.57355E+01  1.46375E+01
   1.45823E+01  1.44849E+01  1.33503E+01  1.33702E+01  1.19854E+01  1.11521E+01  9.69826E+00  1.30110E+01  1.30080E+01  9.00840E+00
   1.00656E+01  9.52436E+00  1.06615E+01  1.23100E+01  1.02722E+01  1.24378E+01  7.99320E+00  1.39405E+01  8.82610E+00  1.28203E+01
   1.00736E+01  5.71837E+00  8.87438E+00  1.23442E+01  7.32156E+00  1.30592E+01  1.08209E+01  9.51568E+00  8.82441E+00  6.43958E+00
   7.06587E+00  9.15629E+00  1.26466E+01  9.29238E+00  1.10855E+01  1.14201E+01  8.27693E+00  1.30950E+01  8.18571E+00  7.73932E+00
   9.06447E+00  1.01383E+01  9.39066E+00  1.22673E+01  7.92053E+00  1.18269E+01  1.09700E+01  1.04839E+01  1.32181E+01  1.26243E+01
   1.61143E+01  1.61779E+01  1.23144E+01  1.90286E+01  1.55918E+01  1.83601E+01  1.42484E+01  1.40755E+01  1.11960E+01  1.32034E+01
   1.28525E+01  1.44277E+01  1.21491E+01  1.33331E+01  1.16674E+01  1.39797E+01  1.60562E+01  1.34124E+01  1.69563E+01  1.18980E+01
   1.56327E+01  1.44714E+01  1.66558E+01  1.55236E+01  1.74995E+01  1.64477E+01  1.12983E+01  1.88987E+01  1.62038E+01  1.85696E+01
   1.63406E+01  1.63217E+01  1.63007E+01  1.22687E+01  1.53063E+01  1.60741E+01  1.08882E+01  1.17425E+01  1.46968E+01  1.20066E+01
   1.31387E+01  1.56231E+01  1.29132E+01  1.25748E+01  1.05000E+01  1.04468E+01  1.10068E+01  1.16825E+01  1.21829E+01  6.70456E+00
   4.19657E+00  5.87567E+00  9.45084E+00  1.03976E+01  9.46847E+00  7.33617E+00  7.76756E+00  7.39512E+00  7.62119E+00  6.14366E+00
   5.19755E+00  8.02279E+00  3.15603E+00  4.39984E+00  5.57971E+00  8.22150E+00  1.06238E+00  4.92169E+00  2.53832E+00  6.49176E+00
   3.83974E+00  2.08006E+00  3.83643E+00  6.65667E+00  6.20509E+00  2.10104E+00  2.46081E+00  1.23316E+00  6.41180E-02 -8.40117E-01
  -1.08097E+00 -9.05649E-01 -1.85714E-01  1.45588E+00  1.89298E+00 -1.53930E+00  1.46813E+00 -2.91946E+00  1.31337E+00 -2.26138E+00
   2.05542E+00  7.91896E-01  1.17153E+00 -9.24059E-01  2.20915E-01  2.82161E+00  2.40855E+00  1.21416E-01  3.28373E+00 -4.51151E-01
  -1.47237E+00 -5.51489E-01  1.64785E+00  1.70939E+00 -8.45252E-01 -9.98632E-02  2.53204E+00  4.63569E+00  1.08576E+00  3.63687E+00
   3.33332E+00  4.04329E+00 -1.80072E+00  2.31716E-01  4.45144E+00  3.29879E+00  2.37485E+00 -8.04969E-01  2.35884E+00  3.63104E+00
   2.02407E+00  2.97191E+00  2.06355E+00  1.35382E+00  3.18405E-01  4.76533E+00 -6.73651E-01  1.35209E-01  8.52401E-01 -1.17343E+00
   1.90823E+00  1.24190E+00  4.08478E+00  1.46563E+00  9.47912E-01 -5.36049E-01 -1.24090E+00 -2.56730E+00  1.25231E+00 -7.86328E-01
   2.45629E+00  1.53730E+00 -3.50328E+00  4.87032E-02 -4.48365E+00 -2.17161E+00  4.95430E-01 -3.73585E+00 -4.55405E+00 -1.10610E-01
  -3.22719E+00 -2.57542E+00 -1.74427E-01  6.49788E-01  3.42304E+00  1.14257E+00 -1.45017E+00  3.58386E+00  1.43266E+00  4.76634E+00
   9.20128E+00  1.09701E+01  1.25431E+01  1.13239E+01  1.32861E+01  1.43310E+01  1.58238E+01  1.54424E+01  1.73300E+01  1.21971E+01
   1.43899E+01  1.55626E+01  1.10631E+01  1.52007E+01  1.61039E+01  1.18975E+01  1.23829E+01  9.01389E+00  1.07375E+01  1.30749E+01
   1.10377E+01  9.44090E+00  1.28783E+01  1.40646E+01  1.43758E+01  1.26724E+01  1.26822E+01  1.10426E+01  1.32251E+01  1.44720E+01
   1.60548E+01  1.28871E+01  1.57097E+01  1.14313E+01  1.64273E+01  1.48627E+01  1.36810E+01  1.57807E+01  1.86622E+01  2.00620E+01
   1.86279E+01  1.89046E+01  2.48670E+01  2.09789E+01  2.34808E+01  2.70453E+01  2.46831E+01  2.47998E+01  2.87007E+01  2.43364E+01
   2.41675E+01  2.81866E+01  2.71227E+01  2.53158E+01  2.99233E+01  3.01834E+01  3.21515E+01  3.30125E+01  3.55429E+01  3.15696E+01
   3.79772E+01  3.56720E+01  3.66982E+01  3.61651E+01  4.20348E+01  3.71204E+01  3.88370E+01  3.99509E+01  3.63385E+01  3.96624E+01
   4.65620E+01  3.83317E+01  4.34892E+01  3.91615E+01  3.91971E+01  3.82482E+01  3.84862E+01  4.11281E+01  4.11099E+01  4.16542E+01
   3.93794E+01  3.92043E+01  4.30786E+01  3.49141E+01  3.51825E+01  3.63959E+01  3.83156E+01  3.81733E+01  4.01285E+01  3.33596E+01
   3.48628E+01  2.90034E+01  3.49218E+01  3.63832E+01  3.52165E+01  3.30940E+01  3.26840E+01  3.07492E+01  3.29812E+01  3.19616E+01
   2.68573E+01  3.16395E+01  2.87214E+01  2.96466E+01  3.01108E+01  2.77307E+01  2.94962E+01  3.00597E+01  3.02731E+01  2.88874E+01
   2.82922E+01  2.63040E+01  2.51577E+01  2.37268E+01  2.02977E+01  2.09055E+01  2.13554E+01  2.10904E+01  2.38445E+01  2.34233E+01
   2.21952E+01  2.11948E+01  2.26949E+01  2.45212E+01  2.17115E+01  1.86395E+01  2.05966E+01  2.08618E+01  1.31540E+01  1.33554E+01
   1.65013E+01  1.48010E+01  1.53409E+01  1.45717E+01  1.53568E+01  1.74983E+01  1.12386E+01  1.44879E+01  1.52257E+01  1.25279E+01
   1.40931E+01  1.43025E+01  1.45791E+01  1.54021E+01  1.41544E+01  1.17896E+01  1.11949E+01  1.02554E+01  9.25951E+00  8.99484E+00
   1.11381E+01  8.55173E+00  1.00807E+01  7.58481E+00  7.28804E+00  1.07470E+01  1.11497E+01  9.61978E+00  1.06733E+01  1.09942E+01
   7.47439E+00  1.05832E+01  7.26274E+00  9.73447E+00  1.55911E+01  1.01280E+01  6.63814E+00  9.81217E+00  1.05906E+01  8.67291E+00
   8.05997E+00  4.76880E+00  8.08288E+00  6.69632E+00  8.75350E+00  9.84396E+00  4.77188E+00  8.68334E+00  5.77351E+00  6.06189E+00
   8.80539E+00  3.04990E+00  2.95782E+00  1.95126E+00  7.94594E+00  6.83375E+00  6.64253E+00  4.42237E+00  3.16278E+00  3.77108E+00
   4.25032E+00  2.82138E+00  3.99510E+00  6.28039E+00  4.79405E+00  4.26763E+00  3.81554E+00  1.38817E+00  4.69797E+00  4.12897E+00
   5.71416E+00  3.24266E+00  2.68067E+00  4.65820E+00  4.81180E+00  2.57302E+00  2.75980E+00  3.60001E+00 -8.32103E-01  4.75072E+00
   1.77685E+00  2.32775E+00  8.70712E-01  8.88206E-01  4.10672E-01  2.75722E+00  3.66470E-01  2.74502E+00 -2.88521E+00  3.52500E+00
   7.67266E-01  2.63162E+00  2.09924E+00  1.99092E+00  8.27927E-01 -1.80551E+00  1.03093E+00 -4.06101E-01  5.93947E-01 -1.56571E+00
   2.28967E+00 -2.46526E+00 -9.98384E-01  7.02349E-01 -1.74164E+00  1.45694E+00  7.28954E-02 -7.01116E-01
 NY points of the fit to the data follow
   1.20218E+01  1.40253E+01  1.27858E+01  1.49206E+01  1.34752E+01  1.54029E+01  1.40506E+01  1.58815E+01  1.47027E+01  1.60079E+01
   1.45432E+01  1.59857E+01  1.43311E+01  1.54215E+01  1.44055E+01  1.58749E+01  1.47126E+01  1.60368E+01  1.48444E+01  1.58487E+01
   1.42865E+01  1.53367E+01  1.41643E+01  1.53736E+01  1.43568E+01  1.56206E+01  1.43804E+01  1.52195E+01  1.41462E+01  1.50096E+01
   1.40659E+01  1.51635E+01  1.45824E+01  1.58757E+01  1.52311E+01  1.61022E+01  1.55446E+01  1.61227E+01  1.56071E+01  1.59669E+01
   1.56393E+01  1.57904E+01  1.54849E+01  1.55479E+01  1.57060E+01  1.56303E+01  1.57088E+01  1.54067E+01  1.51210E+01  1.42083E+01
   1.39526E+01  1.33069E+01  1.30517E+01  1.27631E+01  1.28953E+01  1.27845E+01  1.25385E+01  1.22548E+01  1.20110E+01  1.15564E+01
   1.13499E+01  1.10254E+01  1.09186E+01  1.06830E+01  1.05497E+01  1.03424E+01  1.02258E+01  1.01467E+01  1.02196E+01  1.02837E+01
   1.03603E+01  1.03480E+01  1.03126E+01  1.02323E+01  1.01364E+01  1.00421E+01  9.91486E+00  9.78988E+00  9.59351E+00  9.45807E+00
   9.26633E+00  9.19452E+00  9.01056E+00  8.95989E+00  8.75245E+00  8.75547E+00  8.70970E+00  9.27380E+00  9.08675E+00  9.70442E+00
   9.42006E+00  1.02251E+01  9.99610E+00  1.12464E+01  1.08960E+01  1.23705E+01  1.18089E+01  1.33088E+01  1.25469E+01  1.39950E+01
   1.31218E+01  1.45904E+01  1.36056E+01  1.50095E+01  1.38963E+01  1.50716E+01  1.38970E+01  1.47387E+01  1.35814E+01  1.42893E+01
   1.36407E+01  1.44621E+01  1.36858E+01  1.43502E+01  1.36692E+01  1.44044E+01  1.40506E+01  1.50829E+01  1.46688E+01  1.57306E+01
   1.50745E+01  1.61082E+01  1.54099E+01  1.68177E+01  1.60054E+01  1.74623E+01  1.64258E+01  1.78257E+01  1.64558E+01  1.76415E+01
   1.59852E+01  1.68906E+01  1.52087E+01  1.58917E+01  1.41442E+01  1.45284E+01  1.28563E+01  1.29847E+01  1.15251E+01  1.14754E+01
   1.02811E+01  1.00964E+01  9.06424E+00  8.71230E+00  7.91997E+00  7.52693E+00  7.36918E+00  7.23576E+00  7.12978E+00  7.01292E+00
   6.90813E+00  6.78769E+00  6.68151E+00  6.55652E+00  6.44668E+00  6.32241E+00  6.20701E+00  6.07946E+00  5.95692E+00  5.82415E+00
   5.69354E+00  5.55499E+00  5.42488E+00  5.28832E+00  5.15572E+00  5.01471E+00  4.88112E+00  4.74280E+00  4.61382E+00  4.47461E+00
   4.35793E+00  4.21938E+00  4.10285E+00  3.97767E+00  3.87157E+00  3.75300E+00  3.59695E+00  3.30067E+00  3.13349E+00  2.53369E+00
   2.32341E+00  1.63191E+00  1.45350E+00  6.76845E-01  9.62769E-01  3.07177E-01  8.28994E-01  6.80504E-02  1.11437E+00  3.41114E-01
   1.73366E+00  8.16583E-01  1.70005E+00 -2.57370E-01  1.19502E+00 -7.58543E-01  8.51245E-01 -1.41586E+00  1.49633E-01 -2.24410E+00
   1.55143E-01 -1.37820E+00  7.28683E-01 -3.79076E-01  1.47340E+00  8.05793E-01  1.81816E+00  1.10434E+00  1.14952E+00  1.56812E+00
   8.99296E-01  2.01312E+00  5.71096E-01  2.00508E+00  8.16123E-02  2.03720E+00 -1.07560E-01  2.65440E+00 -5.06266E-02  2.35183E+00
  -9.95452E-02  2.37504E+00  3.84611E-01  2.89661E+00  1.91851E+00  3.49692E+00  2.88308E+00  3.63470E+00  2.98409E+00  2.55004E+00
   2.95402E+00  2.11773E+00  2.59368E+00  1.15273E+00  1.91048E+00  2.28742E-01  1.76786E+00  9.45043E-01  2.57725E+00  2.23747E+00
   3.33725E+00  2.77057E+00  2.53671E+00  1.37919E+00  8.30061E-01  6.26762E-01  2.25278E-01  5.54305E-01  2.55688E-01  1.04079E+00
   8.71174E-01  2.17648E+00  2.24132E+00  3.79227E+00  3.63555E+00  4.76677E+00  4.56806E+00  5.78812E+00  5.88702E+00  7.49409E+00
   8.15591E+00  9.40852E+00  9.73747E+00  1.06417E+01  1.05065E+01  1.11740E+01  1.09504E+01  1.15417E+01  1.12515E+01  1.19107E+01
   1.16793E+01  1.21675E+01  1.18484E+01  1.23181E+01  1.22106E+01  1.26385E+01  1.26165E+01  1.29494E+01  1.27900E+01  1.29180E+01
   1.29362E+01  1.31250E+01  1.32898E+01  1.34546E+01  1.37577E+01  1.39535E+01  1.41916E+01  1.44120E+01  1.46754E+01  1.49052E+01
   1.51603E+01  1.53832E+01  1.56035E+01  1.58245E+01  1.61076E+01  1.64009E+01  1.67387E+01  1.70906E+01  1.74771E+01  1.78852E+01
   1.83158E+01  1.87553E+01  1.92368E+01  1.97421E+01  2.03015E+01  2.09056E+01  2.15879E+01  2.23585E+01  2.32725E+01  2.44041E+01
   2.59844E+01  2.81554E+01  2.91005E+01  3.02902E+01  3.09741E+01  3.19498E+01  3.25220E+01  3.33158E+01  3.29299E+01  3.38398E+01
   3.41785E+01  3.40896E+01  3.43066E+01  3.33903E+01  3.38086E+01  3.30993E+01  3.45272E+01  3.36295E+01  3.59143E+01  3.44826E+01
   3.79094E+01  3.71976E+01  4.01324E+01  3.78797E+01  4.09649E+01  3.82158E+01  4.18184E+01  3.88466E+01  4.17626E+01  3.98202E+01
   4.25725E+01  3.97479E+01  4.16740E+01  3.81252E+01  3.95204E+01  3.76521E+01  3.93175E+01  3.90744E+01  3.97211E+01  3.85184E+01
   3.82868E+01  3.61760E+01  3.52392E+01  3.35209E+01  3.19465E+01  3.13256E+01  3.09797E+01  3.07670E+01  3.08712E+01  3.05151E+01
   3.06120E+01  3.05109E+01  3.05959E+01  2.99067E+01  3.00084E+01  2.93109E+01  2.99548E+01  3.05110E+01  3.04460E+01  2.99839E+01
   2.94309E+01  2.79050E+01  2.67431E+01  2.41924E+01  2.25787E+01  2.15153E+01  2.07159E+01  2.00724E+01  1.95326E+01  1.90669E+01
   1.86570E+01  1.82907E+01  1.79596E+01  1.76576E+01  1.73798E+01  1.71229E+01  1.68838E+01  1.66605E+01  1.64508E+01  1.62529E+01
   1.60650E+01  1.58855E+01  1.57128E+01  1.55452E+01  1.53811E+01  1.52186E+01  1.50562E+01  1.48923E+01  1.47254E+01  1.45541E+01
   1.43773E+01  1.41940E+01  1.40038E+01  1.38062E+01  1.36012E+01  1.33891E+01  1.31705E+01  1.29461E+01  1.27170E+01  1.24841E+01
   1.22487E+01  1.20119E+01  1.17748E+01  1.15386E+01  1.13041E+01  1.10722E+01  1.08437E+01  1.06188E+01  1.03981E+01  1.01818E+01
   9.96994E+00  9.76251E+00  9.55940E+00  9.36046E+00  9.16546E+00  8.97419E+00  8.78638E+00  8.60180E+00  8.42014E+00  8.24124E+00
   8.06483E+00  7.89076E+00  7.71882E+00  7.54890E+00  7.38082E+00  7.21450E+00  7.04983E+00  6.88675E+00  6.72517E+00  6.56505E+00
   6.40631E+00  6.24896E+00  6.09294E+00  5.93825E+00  5.78486E+00  5.63274E+00  5.48190E+00  5.33233E+00  5.18406E+00  5.03703E+00
   4.89130E+00  4.74681E+00  4.60363E+00  4.46171E+00  4.32106E+00  4.18159E+00  4.04329E+00  3.90610E+00  3.77002E+00  3.63498E+00
   3.50097E+00  3.36793E+00  3.23584E+00  3.10466E+00  2.97437E+00  2.84494E+00  2.71631E+00  2.58848E+00  2.46139E+00  2.33504E+00
   2.20937E+00  2.08438E+00  1.96001E+00  1.83625E+00  1.71305E+00  1.59040E+00  1.46827E+00  1.34664E+00  1.22545E+00  1.10471E+00
   9.84365E-01  8.64408E-01  7.44807E-01  6.25538E-01  5.06572E-01  3.87893E-01  2.69482E-01  1.51320E-01  3.33870E-02 -8.43344E-02
  -2.01857E-01 -3.19185E-01 -4.36318E-01 -5.53257E-01 -6.69985E-01 -7.86479E-01 -9.02690E-01 -1.01855E+00
 NY background values follow
     4.160E+00    4.162E+00    4.166E+00    4.169E+00    4.173E+00    4.178E+00    4.183E+00    4.189E+00    4.195E+00    4.202E+00
     4.210E+00    4.218E+00    4.226E+00    4.236E+00    4.246E+00    4.257E+00    4.269E+00    4.281E+00    4.294E+00    4.308E+00
     4.323E+00    4.339E+00    4.356E+00    4.374E+00    4.392E+00    4.412E+00    4.433E+00    4.454E+00    4.477E+00    4.501E+00
     4.526E+00    4.552E+00    4.580E+00    4.608E+00    4.638E+00    4.669E+00    4.701E+00    4.734E+00    4.769E+00    4.805E+00
     4.843E+00    4.882E+00    4.922E+00    4.964E+00    5.007E+00    5.052E+00    5.098E+00    5.146E+00    5.195E+00    5.246E+00
     5.298E+00    5.351E+00    5.405E+00    5.461E+00    5.518E+00    5.576E+00    5.635E+00    5.695E+00    5.756E+00    5.818E+00
     5.880E+00    5.944E+00    6.009E+00    6.074E+00    6.140E+00    6.206E+00    6.273E+00    6.341E+00    6.409E+00    6.478E+00
     6.547E+00    6.616E+00    6.686E+00    6.756E+00    6.826E+00    6.896E+00    6.967E+00    7.037E+00    7.108E+00    7.179E+00
     7.249E+00    7.320E+00    7.390E+00    7.460E+00    7.530E+00    7.600E+00    7.669E+00    7.738E+00    7.807E+00    7.875E+00
     7.942E+00    8.009E+00    8.075E+00    8.141E+00    8.206E+00    8.270E+00    8.333E+00    8.395E+00    8.456E+00    8.516E+00
     8.575E+00    8.632E+00    8.688E+00    8.743E+00    8.796E+00    8.848E+00    8.898E+00    8.947E+00    8.993E+00    9.038E+00
     9.081E+00    9.122E+00    9.161E+00    9.198E+00    9.232E+00    9.264E+00    9.294E+00    9.322E+00    9.347E+00    9.370E+00
     9.390E+00    9.407E+00    9.421E+00    9.433E+00    9.442E+00    9.448E+00    9.450E+00    9.450E+00    9.447E+00    9.440E+00
     9.430E+00    9.416E+00    9.399E+00    9.379E+00    9.355E+00    9.327E+00    9.295E+00    9.260E+00    9.221E+00    9.179E+00
     9.132E+00    9.083E+00    9.030E+00    8.974E+00    8.914E+00    8.852E+00    8.786E+00    8.717E+00    8.645E+00    8.571E+00
     8.494E+00    8.414E+00    8.331E+00    8.246E+00    8.158E+00    8.068E+00    7.976E+00    7.881E+00    7.784E+00    7.686E+00
     7.585E+00    7.482E+00    7.377E+00    7.270E+00    7.162E+00    7.052E+00    6.941E+00    6.828E+00    6.713E+00    6.597E+00
     6.480E+00    6.362E+00    6.243E+00    6.122E+00    6.001E+00    5.878E+00    5.755E+00    5.631E+00    5.507E+00    5.381E+00
     5.256E+00    5.130E+00    5.003E+00    4.876E+00    4.749E+00    4.623E+00    4.496E+00    4.370E+00    4.244E+00    4.119E+00
     3.995E+00    3.871E+00    3.749E+00    3.627E+00    3.507E+00    3.389E+00    3.272E+00    3.157E+00    3.043E+00    2.932E+00
     2.823E+00    2.716E+00    2.611E+00    2.509E+00    2.410E+00    2.313E+00    2.220E+00    2.130E+00    2.043E+00    1.959E+00
     1.879E+00    1.802E+00    1.730E+00    1.661E+00    1.596E+00    1.536E+00    1.480E+00    1.428E+00    1.381E+00    1.339E+00
     1.302E+00    1.270E+00    1.243E+00    1.221E+00    1.205E+00    1.194E+00    1.190E+00    1.191E+00    1.198E+00    1.210E+00
     1.228E+00    1.252E+00    1.282E+00    1.317E+00    1.357E+00    1.403E+00    1.454E+00    1.511E+00    1.572E+00    1.639E+00
     1.711E+00    1.788E+00    1.870E+00    1.956E+00    2.048E+00    2.144E+00    2.245E+00    2.350E+00    2.461E+00    2.575E+00
     2.694E+00    2.818E+00    2.946E+00    3.078E+00    3.214E+00    3.355E+00    3.499E+00    3.648E+00    3.800E+00    3.957E+00
     4.117E+00    4.281E+00    4.449E+00    4.620E+00    4.795E+00    4.973E+00    5.155E+00    5.341E+00    5.529E+00    5.721E+00
     5.916E+00    6.115E+00    6.316E+00    6.521E+00    6.728E+00    6.937E+00    7.149E+00    7.363E+00    7.579E+00    7.797E+00
     8.016E+00    8.237E+00    8.459E+00    8.682E+00    8.905E+00    9.130E+00    9.354E+00    9.579E+00    9.804E+00    1.003E+01
     1.025E+01    1.048E+01    1.070E+01    1.092E+01    1.114E+01    1.136E+01    1.158E+01    1.180E+01    1.201E+01    1.222E+01
     1.243E+01    1.264E+01    1.285E+01    1.305E+01    1.325E+01    1.344E+01    1.364E+01    1.382E+01    1.401E+01    1.419E+01
     1.437E+01    1.454E+01    1.471E+01    1.487E+01    1.503E+01    1.518E+01    1.533E+01    1.547E+01    1.560E+01    1.574E+01
     1.586E+01    1.598E+01    1.609E+01    1.620E+01    1.631E+01    1.640E+01    1.650E+01    1.658E+01    1.667E+01    1.674E+01
     1.682E+01    1.688E+01    1.694E+01    1.700E+01    1.705E+01    1.710E+01    1.714E+01    1.718E+01    1.721E+01    1.724E+01
     1.726E+01    1.728E+01    1.729E+01    1.730E+01    1.731E+01    1.731E+01    1.730E+01    1.730E+01    1.728E+01    1.726E+01
     1.724E+01    1.722E+01    1.718E+01    1.715E+01    1.711E+01    1.707E+01    1.702E+01    1.697E+01    1.691E+01    1.685E+01
     1.679E+01    1.672E+01    1.665E+01    1.658E+01    1.650E+01    1.642E+01    1.633E+01    1.624E+01    1.615E+01    1.606E+01
     1.596E+01    1.585E+01    1.575E+01    1.564E+01    1.553E+01    1.542E+01    1.530E+01    1.518E+01    1.506E+01    1.494E+01
     1.481E+01    1.468E+01    1.455E+01    1.442E+01    1.428E+01    1.415E+01    1.401E+01    1.387E+01    1.373E+01    1.358E+01
     1.344E+01    1.329E+01    1.314E+01    1.299E+01    1.284E+01    1.269E+01    1.254E+01    1.239E+01    1.223E+01    1.208E+01
     1.192E+01    1.177E+01    1.161E+01    1.145E+01    1.129E+01    1.114E+01    1.098E+01    1.082E+01    1.066E+01    1.051E+01
     1.035E+01    1.019E+01    1.003E+01    9.877E+00    9.720E+00    9.563E+00    9.406E+00    9.250E+00    9.093E+00    8.937E+00
     8.782E+00    8.626E+00    8.471E+00    8.316E+00    8.162E+00    8.008E+00    7.854E+00    7.701E+00    7.548E+00    7.396E+00
     7.244E+00    7.093E+00    6.942E+00    6.792E+00    6.643E+00    6.494E+00    6.345E+00    6.198E+00    6.051E+00    5.905E+00
     5.760E+00    5.615E+00    5.471E+00    5.328E+00    5.186E+00    5.044E+00    4.904E+00    4.764E+00    4.626E+00    4.488E+00
     4.351E+00    4.216E+00    4.081E+00    3.947E+00    3.814E+00    3.683E+00    3.552E+00    3.422E+00    3.293E+00    3.165E+00
     3.038E+00    2.911E+00    2.786E+00    2.661E+00    2.537E+00    2.413E+00    2.290E+00    2.168E+00    2.047E+00    1.926E+00
     1.805E+00    1.685E+00    1.566E+00    1.447E+00    1.329E+00    1.211E+00    1.093E+00    9.761E-01    8.593E-01    7.428E-01
     6.266E-01    5.107E-01    3.949E-01    2.795E-01    1.642E-01    4.901E-02   -6.601E-02   -1.809E-01   -2.958E-01   -4.105E-01
    -5.253E-01   -6.401E-01   -7.549E-01   -8.697E-01   -9.847E-01   -1.100E+00   -1.215E+00   -1.330E+00
 Ala      Conc. = 4.37E+03
