 LCModel (Version 6.3-1L) Copyright: S.W. Provencher.          Ref.: Magn. Reson. Med. 30:672-679 (1993).                
 Slice#2 Row#6 Col#8  PD_24_press_1_raw_act
 36 lines in following concentration table = NCONC+1
    Conc.  %SD /Cr+PCr  Metabolite                                         
  289.190  38%   0.203 Ala                                                 
   99.315 219% 7.0E-02 Asp                                                 
  640.986  32%   0.451 Cr                                                  
  781.659  27%   0.549 PCr                                                 
    0.000 999%   0.000 GABA                                                
    7.937 999% 5.6E-03 Glc                                                 
  876.020  26%   0.616 Gln                                                 
 1.29E+03  19%   0.907 Glu                                                 
  684.654   4%   0.481 GPC                                                 
    0.000 999%   0.000 PCh                                                 
  490.163  15%   0.345 GSH                                                 
 1.57E+03  17%   1.105 Ins                                                 
  183.902  64%   0.129 Lac                                                 
 1.63E+03   6%   1.147 NAA                                                 
  233.480  42%   0.164 NAAG                                                
   52.025  52% 3.7E-02 Scyllo                                              
    0.000 999%   0.000 Tau                                                 
    0.000 999%   0.000 -CrCH2                                              
  684.654   4%   0.481 GPC+PCh                                             
 1.86E+03   5%   1.311 NAA+NAAG                                            
 1.42E+03   4%   1.000 Cr+PCr                                              
 2.17E+03  16%   1.523 Glu+Gln                                             
 1.19E+03  47%   0.839 Lip13a                                              
    0.000 999%   0.000 Lip13b                                              
   15.322 999% 1.1E-02 Lip09                                               
 1.81E+03  18%   1.273 MM09                                                
  193.451  90%   0.136 Lip20                                               
 3.96E+03  12%   2.785 MM20                                                
  622.171  33%   0.437 MM12                                                
 1.90E+03  24%   1.338 MM14                                                
 1.15E+03  25%   0.811 MM17                                                
 1.19E+03  47%   0.839 Lip13a+Lip13b                                       
 3.72E+03  13%   2.615 MM14+Lip13a+Lip13b+MM12                             
 1.83E+03  13%   1.283 MM09+Lip09                                          
 4.16E+03  11%   2.921 MM20+Lip20                                          
   6 lines in following misc. output table
  FWHM = 0.054 ppm    S/N =   9                                            
  Data shift =-0.008 ppm                                                   
  Ph: -19 deg       3.9 deg/ppm                                            
  alphaB,S = 1.2E+00,   2.4E+01                                            
   14 spline knots.   Ns = 6(1)                                            
  (11) 4 infls.   ( 6) 3 extrs.                                            
  498 points on ppm-axis = NY
      4.000000     3.992357     3.984714     3.977070     3.969427     3.961784     3.954141     3.946497     3.938854     3.931211
      3.923568     3.915925     3.908281     3.900638     3.892995     3.885352     3.877708     3.870065     3.862422     3.854779
      3.847136     3.839492     3.831849     3.824206     3.816563     3.808919     3.801276     3.793633     3.785990     3.778347
      3.770703     3.763060     3.755417     3.747774     3.740130     3.732487     3.724844     3.717201     3.709558     3.701914
      3.694271     3.686628     3.678985     3.671341     3.663698     3.656055     3.648412     3.640769     3.633125     3.625482
      3.617839     3.610196     3.602552     3.594909     3.587266     3.579623     3.571980     3.564336     3.556693     3.549050
      3.541407     3.533763     3.526120     3.518477     3.510834     3.503191     3.495547     3.487904     3.480261     3.472618
      3.464974     3.457331     3.449688     3.442045     3.434402     3.426758     3.419115     3.411472     3.403829     3.396185
      3.388542     3.380899     3.373256     3.365613     3.357969     3.350326     3.342683     3.335040     3.327396     3.319753
      3.312110     3.304467     3.296824     3.289180     3.281537     3.273894     3.266251     3.258607     3.250964     3.243321
      3.235678     3.228034     3.220391     3.212748     3.205105     3.197462     3.189818     3.182175     3.174532     3.166889
      3.159245     3.151602     3.143959     3.136316     3.128673     3.121029     3.113386     3.105743     3.098100     3.090456
      3.082813     3.075170     3.067527     3.059884     3.052240     3.044597     3.036954     3.029311     3.021667     3.014024
      3.006381     2.998738     2.991095     2.983451     2.975808     2.968165     2.960522     2.952878     2.945235     2.937592
      2.929949     2.922306     2.914662     2.907019     2.899376     2.891733     2.884089     2.876446     2.868803     2.861160
      2.853517     2.845873     2.838230     2.830587     2.822944     2.815300     2.807657     2.800014     2.792371     2.784728
      2.777084     2.769441     2.761798     2.754155     2.746511     2.738868     2.731225     2.723582     2.715939     2.708295
      2.700652     2.693009     2.685366     2.677722     2.670079     2.662436     2.654793     2.647150     2.639506     2.631863
      2.624220     2.616577     2.608933     2.601290     2.593647     2.586004     2.578361     2.570717     2.563074     2.555431
      2.547788     2.540144     2.532501     2.524858     2.517215     2.509572     2.501928     2.494285     2.486642     2.478999
      2.471355     2.463712     2.456069     2.448426     2.440783     2.433139     2.425496     2.417853     2.410210     2.402566
      2.394923     2.387280     2.379637     2.371994     2.364350     2.356707     2.349064     2.341421     2.333777     2.326134
      2.318491     2.310848     2.303205     2.295561     2.287918     2.280275     2.272632     2.264988     2.257345     2.249702
      2.242059     2.234416     2.226772     2.219129     2.211486     2.203843     2.196199     2.188556     2.180913     2.173270
      2.165627     2.157983     2.150340     2.142697     2.135054     2.127410     2.119767     2.112124     2.104481     2.096838
      2.089194     2.081551     2.073908     2.066265     2.058621     2.050978     2.043335     2.035692     2.028049     2.020405
      2.012762     2.005119     1.997476     1.989833     1.982190     1.974546     1.966903     1.959260     1.951617     1.943974
      1.936331     1.928688     1.921045     1.913402     1.905759     1.898115     1.890472     1.882829     1.875186     1.867543
      1.859900     1.852257     1.844614     1.836971     1.829327     1.821684     1.814041     1.806398     1.798755     1.791112
      1.783469     1.775826     1.768183     1.760540     1.752896     1.745253     1.737610     1.729967     1.722324     1.714681
      1.707038     1.699395     1.691752     1.684108     1.676465     1.668822     1.661179     1.653536     1.645893     1.638250
      1.630607     1.622964     1.615321     1.607677     1.600034     1.592391     1.584748     1.577105     1.569462     1.561819
      1.554176     1.546533     1.538890     1.531246     1.523603     1.515960     1.508317     1.500674     1.493031     1.485388
      1.477745     1.470102     1.462458     1.454815     1.447172     1.439529     1.431886     1.424243     1.416600     1.408957
      1.401314     1.393671     1.386027     1.378384     1.370741     1.363098     1.355455     1.347812     1.340169     1.332526
      1.324883     1.317240     1.309596     1.301953     1.294310     1.286667     1.279024     1.271381     1.263738     1.256095
      1.248452     1.240808     1.233165     1.225522     1.217879     1.210236     1.202593     1.194950     1.187307     1.179664
      1.172021     1.164377     1.156734     1.149091     1.141448     1.133805     1.126162     1.118519     1.110876     1.103233
      1.095590     1.087946     1.080303     1.072660     1.065017     1.057374     1.049731     1.042088     1.034445     1.026802
      1.019158     1.011515     1.003872     0.996229     0.988586     0.980943     0.973300     0.965657     0.958014     0.950371
      0.942727     0.935084     0.927441     0.919798     0.912155     0.904512     0.896869     0.889226     0.881583     0.873940
      0.866296     0.858653     0.851010     0.843367     0.835724     0.828081     0.820438     0.812795     0.805152     0.797508
      0.789865     0.782222     0.774579     0.766936     0.759293     0.751650     0.744007     0.736364     0.728721     0.721077
      0.713434     0.705791     0.698148     0.690505     0.682862     0.675219     0.667576     0.659933     0.652290     0.644646
      0.637003     0.629360     0.621717     0.614074     0.606431     0.598788     0.591145     0.583502     0.575858     0.568215
      0.560572     0.552929     0.545286     0.537643     0.530000     0.522357     0.514714     0.507071     0.499427     0.491784
      0.484141     0.476498     0.468855     0.461212     0.453569     0.445925     0.438282     0.430639     0.422996     0.415353
      0.407710     0.400067     0.392424     0.384780     0.377137     0.369494     0.361851     0.354208     0.346565     0.338922
      0.331278     0.323635     0.315992     0.308349     0.300706     0.293063     0.285420     0.277777     0.270133     0.262490
      0.254847     0.247204     0.239561     0.231918     0.224275     0.216631     0.208988     0.201345
 NY phased data points follow
   3.77338E+01  4.01787E+01  4.11657E+01  4.32392E+01  4.23353E+01  5.01398E+01  5.03667E+01  6.32910E+01  6.40422E+01  7.14970E+01
   7.30297E+01  7.18070E+01  7.80496E+01  6.73705E+01  6.03613E+01  5.55675E+01  4.77391E+01  4.50829E+01  4.20138E+01  4.28552E+01
   4.45086E+01  4.56573E+01  3.63399E+01  4.02411E+01  3.88711E+01  4.53507E+01  3.88258E+01  4.23335E+01  4.04276E+01  5.07286E+01
   4.58181E+01  4.46398E+01  4.59727E+01  4.25124E+01  3.75799E+01  3.83950E+01  3.71380E+01  3.70406E+01  3.55852E+01  3.86097E+01
   3.37313E+01  3.77192E+01  3.11681E+01  4.07861E+01  3.60940E+01  4.21978E+01  4.63565E+01  4.87373E+01  4.67557E+01  4.12530E+01
   4.06459E+01  3.57850E+01  3.97402E+01  3.64465E+01  3.04921E+01  3.17092E+01  3.36701E+01  3.71393E+01  3.42305E+01  3.84410E+01
   2.99930E+01  3.47290E+01  2.70863E+01  2.68546E+01  1.56860E+01  2.08417E+01  2.07636E+01  2.49033E+01  2.26369E+01  2.27806E+01
   2.49249E+01  2.47611E+01  2.46759E+01  2.64273E+01  2.39702E+01  2.77756E+01  2.12420E+01  2.68216E+01  2.15594E+01  1.93996E+01
   1.76398E+01  2.17849E+01  2.52444E+01  2.72676E+01  1.71891E+01  2.28495E+01  2.06056E+01  1.91126E+01  2.40083E+01  2.01741E+01
   2.16568E+01  2.23438E+01  2.23596E+01  2.47596E+01  1.73621E+01  1.93431E+01  1.69273E+01  1.58723E+01  2.21104E+01  3.78548E+01
   5.35710E+01  6.93209E+01  8.12641E+01  8.87422E+01  8.05748E+01  7.17182E+01  5.98098E+01  5.07100E+01  4.17761E+01  3.32599E+01
   3.61124E+01  3.12573E+01  2.59118E+01  2.42386E+01  2.29078E+01  2.29646E+01  1.40203E+01  1.91367E+01  1.53448E+01  1.55714E+01
   1.13943E+01  1.77834E+01  1.77300E+01  3.22019E+01  4.08862E+01  5.49765E+01  5.43763E+01  6.53266E+01  6.28113E+01  6.08887E+01
   5.01708E+01  4.05343E+01  3.69689E+01  2.84220E+01  3.21369E+01  2.41014E+01  1.89015E+01  2.17947E+01  2.05908E+01  1.80698E+01
   1.89591E+01  1.14877E+01  1.03960E+01  2.15385E+01  2.01930E+01  1.23234E+01  1.01400E+01  1.30118E+01  1.22757E+01  1.47383E+01
   8.37832E+00  1.32207E+01  1.50682E+01  1.19472E+01  1.23065E+01  8.76725E+00  1.17187E+01  1.29366E+01  7.93311E+00  1.32122E+01
   5.59159E+00  1.17714E+01  8.42768E+00  1.03722E+01  8.60271E+00  1.17761E+01  1.15877E+01  1.35248E+01  1.08781E+01  2.67346E+00
   4.18355E+00  7.29359E+00  3.74343E+00  2.31983E+00  3.04445E+00  6.51638E+00  5.25848E+00  4.53748E+00 -1.46497E+00  6.17461E+00
  -1.09862E+00  6.46339E+00 -1.67725E+00  1.88455E-01 -1.74152E+00  3.77719E-01  6.87960E+00  8.70567E+00  1.00599E+01  1.13945E+01
   1.21691E+01  1.23381E+01  1.98139E+01  1.46562E+01  1.14720E+01  1.41634E+01  9.28144E+00  1.61976E+01  6.89652E+00  1.72564E+01
   9.40356E+00  1.53913E+01  1.29376E+01  1.99692E+01  1.90365E+01  1.83548E+01  1.33446E+01  1.03425E+01  4.15760E+00  9.72363E+00
   5.78689E+00  9.36512E+00  4.28186E+00  1.69021E+01  1.57870E+01  2.25446E+01  2.48081E+01  1.88985E+01  1.61031E+01  1.21318E+01
   1.04394E+01  1.04379E+01  1.26151E+01  1.21438E+01  1.66732E+01  1.29969E+01  1.55387E+01  1.66620E+01  2.26035E+01  2.34426E+01
   2.27195E+01  1.80046E+01  1.44567E+01  1.06661E+01  1.54721E+01  2.17260E+01  2.41623E+01  2.11106E+01  1.63943E+01  1.21206E+01
   1.62241E+01  1.95092E+01  1.16995E+01  1.55225E+01  1.83275E+01  2.01166E+01  2.59891E+01  1.96084E+01  1.98000E+01  2.34810E+01
   2.73287E+01  2.63027E+01  2.71416E+01  2.84421E+01  3.18415E+01  3.36993E+01  4.19568E+01  5.63568E+01  6.51234E+01  7.10569E+01
   7.48483E+01  7.71381E+01  7.45276E+01  6.27045E+01  3.99507E+01  4.11352E+01  3.29952E+01  3.43949E+01  2.47261E+01  2.52174E+01
   1.63935E+01  2.09453E+01  1.72061E+01  1.84656E+01  1.61450E+01  1.55083E+01  1.26678E+01  1.78487E+01  1.25958E+01  1.34552E+01
   1.45254E+01  9.14098E+00  7.01164E+00  1.51113E+01  1.07487E+01  1.03309E+01  5.31479E+00  1.31588E+01  9.10424E+00  1.11187E+01
   9.94910E+00  4.43186E+00  1.16279E+01  9.63580E+00  8.38329E+00  1.39804E+01  1.21591E+01  1.40481E+01  8.65697E+00  9.45396E+00
   1.16117E+01  1.81391E+01  8.23114E+00  1.66851E+01  1.38662E+01  1.67098E+01  1.09632E+01  1.47695E+01  1.84035E+01  1.35395E+01
   1.39424E+01  1.39222E+01  9.23031E+00  1.59307E+01  1.45331E+01  1.73241E+01  1.47215E+01  1.65887E+01  1.52031E+01  1.24682E+01
   1.03719E+01  1.86953E+01  1.75232E+01  1.83924E+01  1.27697E+01  1.76194E+01  1.16848E+01  1.51862E+01  4.16224E+00  1.06486E+01
   1.14169E+01  9.52052E+00  1.35044E+01  1.59620E+01  1.50021E+01  2.04699E+01  1.60837E+01  1.25995E+01  1.18886E+01  1.94722E+01
   2.17670E+01  1.48109E+01  1.42799E+01  2.30736E+01  1.79216E+01  2.02385E+01  2.39080E+01  2.24491E+01  1.74209E+01  1.58008E+01
   1.08489E+01  1.22941E+01  1.62929E+01  1.68925E+01  1.34720E+01  1.71647E+01  1.56041E+01  1.33587E+01  1.38919E+01  1.06911E+01
   8.44728E+00  1.00436E+01  1.32273E+01  1.40732E+01  1.45171E+01  1.52150E+01  1.52591E+01  1.06367E+01  1.33430E+01  8.29212E+00
   9.81238E+00  1.63172E+01  1.24707E+01  2.70113E+00  1.12403E+01  1.03773E+01  7.86349E+00  9.55315E+00  9.87551E+00  7.92287E+00
   1.18760E+01  7.73551E+00  1.35692E+01  1.14023E+01  1.16123E+01  6.99228E+00  1.05312E+01  9.15691E+00  9.08124E+00  1.27519E+01
   8.01412E+00  5.61308E+00  4.89427E+00  1.29469E+01  4.97112E+00  1.02435E+01  1.65750E+01  1.03438E+01  1.49060E+01  1.49111E+01
   1.20501E+01  1.54553E+01  1.04471E+01  1.63994E+01  1.65581E+01  1.68179E+01  1.38916E+01  1.40743E+01  1.25083E+01  1.31289E+01
   1.20825E+01  1.46725E+01  1.01259E+01  1.55227E+01  6.48549E+00  1.29885E+01  8.57524E+00  5.77638E+00  1.07287E+01  5.48093E+00
   4.44126E+00  1.09496E+01  5.86460E+00  1.16842E+00  8.92064E-01  4.43870E+00  3.97267E+00  4.80681E+00  2.22476E+00  9.21187E-01
  -3.93761E-01  8.06356E-01  3.35225E+00 -4.48455E+00  1.16103E+00 -3.61199E+00  2.86609E+00  2.98545E+00  3.20473E-01 -3.27345E+00
   5.46266E+00 -7.00689E-01  2.89690E+00 -2.52871E+00  2.97508E+00 -1.25716E+00  9.19985E-01  2.59073E+00 -5.98978E+00 -4.36816E+00
   2.78519E+00 -9.51305E-01 -3.28389E+00  2.34860E-01  9.61774E-01  2.07434E+00  4.30420E-01 -2.48453E+00 -3.53317E-01 -1.40812E+00
  -2.08937E+00  4.61866E+00 -2.41237E+00  1.27918E+00 -8.07020E-01 -3.17072E+00  8.96251E-01  4.09486E+00  2.15273E+00 -5.22848E-01
   3.76431E+00  2.01510E+00  1.15954E+00  3.30153E+00 -5.54015E+00  2.02481E+00  4.67065E-01  1.83848E+00  3.20051E-01 -1.56528E+00
  -3.09652E+00  2.20755E+00 -4.07473E-01  4.02819E+00  1.11585E+00  6.19348E+00 -1.45195E+00  1.67823E+00 -7.36642E-01  5.34779E+00
  -1.13456E+00  4.21669E+00  5.05857E+00  1.22881E+00  1.70935E+00  5.65879E+00  7.22215E-01  6.42538E+00
 NY points of the fit to the data follow
   4.12654E+01  4.07041E+01  4.06822E+01  4.05597E+01  4.13035E+01  4.48871E+01  5.02671E+01  5.71467E+01  6.38623E+01  6.90070E+01
   7.13561E+01  7.09370E+01  6.77043E+01  6.26086E+01  5.74393E+01  5.33806E+01  5.05976E+01  4.71933E+01  4.48858E+01  4.20348E+01
   4.04908E+01  3.98534E+01  3.91719E+01  3.78165E+01  3.69087E+01  3.78138E+01  3.91977E+01  4.07793E+01  4.31608E+01  4.58425E+01
   4.75065E+01  4.76380E+01  4.61882E+01  4.40665E+01  4.18384E+01  4.02873E+01  3.83934E+01  3.56675E+01  3.47381E+01  3.46044E+01
   3.41469E+01  3.37575E+01  3.47824E+01  3.77084E+01  4.06820E+01  4.27478E+01  4.41999E+01  4.43606E+01  4.31392E+01  4.07801E+01
   3.75858E+01  3.45937E+01  3.31047E+01  3.24472E+01  3.12728E+01  3.02572E+01  3.04116E+01  3.13530E+01  3.19905E+01  3.22196E+01
   3.18993E+01  3.10464E+01  2.97568E+01  2.83020E+01  2.72545E+01  2.68342E+01  2.66657E+01  2.67970E+01  2.71923E+01  2.74523E+01
   2.76574E+01  2.77553E+01  2.76678E+01  2.74079E+01  2.68976E+01  2.62996E+01  2.57430E+01  2.53578E+01  2.50747E+01  2.45749E+01
   2.41715E+01  2.41525E+01  2.43712E+01  2.42443E+01  2.36165E+01  2.27912E+01  2.18483E+01  2.07930E+01  1.98578E+01  1.93765E+01
   1.94548E+01  2.00568E+01  2.08260E+01  2.10364E+01  2.08333E+01  2.07639E+01  2.06370E+01  2.00756E+01  2.37887E+01  3.82278E+01
   5.52808E+01  6.90424E+01  7.94254E+01  8.58308E+01  8.42240E+01  7.52404E+01  6.19324E+01  4.91396E+01  4.13471E+01  3.85344E+01
   3.42729E+01  2.42300E+01  2.02896E+01  1.93132E+01  1.89065E+01  1.86293E+01  1.84261E+01  1.82845E+01  1.82096E+01  1.82559E+01
   1.84576E+01  1.85984E+01  2.11202E+01  3.11977E+01  4.36137E+01  5.37297E+01  6.12389E+01  6.63557E+01  6.63944E+01  6.11625E+01
   5.22335E+01  4.27501E+01  3.62222E+01  3.28674E+01  2.91810E+01  2.09527E+01  1.71777E+01  1.65836E+01  1.69478E+01  1.74803E+01
   1.76507E+01  1.75767E+01  1.74659E+01  1.71589E+01  1.67702E+01  1.64792E+01  1.60241E+01  1.56093E+01  1.50097E+01  1.44012E+01
   1.38830E+01  1.34538E+01  1.31305E+01  1.28874E+01  1.27602E+01  1.27106E+01  1.25498E+01  1.21330E+01  1.15936E+01  1.10451E+01
   1.06545E+01  1.05628E+01  1.06299E+01  1.06955E+01  1.07745E+01  1.07061E+01  1.03248E+01  9.80183E+00  9.38541E+00  9.23127E+00
   9.06711E+00  8.79316E+00  8.13645E+00  7.40154E+00  7.06071E+00  6.93162E+00  6.85072E+00  6.76044E+00  6.75882E+00  6.83289E+00
   6.79921E+00  6.59222E+00  6.34753E+00  6.16832E+00  6.52109E+00  7.17432E+00  8.02330E+00  9.14960E+00  1.05023E+01  1.17895E+01
   1.24764E+01  1.23323E+01  1.13319E+01  9.90782E+00  8.82342E+00  8.36683E+00  8.23159E+00  8.73426E+00  9.79985E+00  1.11933E+01
   1.29795E+01  1.48063E+01  1.59556E+01  1.63556E+01  1.61428E+01  1.42705E+01  1.12533E+01  8.54764E+00  6.45403E+00  4.90954E+00
   4.81513E+00  6.95652E+00  1.02941E+01  1.35109E+01  1.59580E+01  1.74280E+01  1.75795E+01  1.67454E+01  1.40467E+01  1.03706E+01
   8.06322E+00  7.31793E+00  7.61287E+00  8.38761E+00  1.01919E+01  1.28258E+01  1.48099E+01  1.55939E+01  1.56437E+01  1.59353E+01
   1.65621E+01  1.66428E+01  1.65879E+01  1.72415E+01  1.80660E+01  1.86492E+01  1.91710E+01  1.96445E+01  1.95890E+01  1.90842E+01
   1.84848E+01  1.81079E+01  1.78390E+01  1.83104E+01  1.89622E+01  1.97044E+01  2.06016E+01  2.12437E+01  2.15479E+01  2.17694E+01
   2.29393E+01  2.51529E+01  2.77266E+01  2.98840E+01  3.12189E+01  3.35408E+01  4.31975E+01  5.59478E+01  6.60985E+01  7.32014E+01
   7.82305E+01  7.79964E+01  7.14679E+01  5.97409E+01  4.73954E+01  3.90146E+01  3.50632E+01  3.20685E+01  2.34826E+01  1.81908E+01
   1.65620E+01  1.56680E+01  1.50287E+01  1.46596E+01  1.42602E+01  1.38446E+01  1.33690E+01  1.28603E+01  1.23849E+01  1.20196E+01
   1.17069E+01  1.13923E+01  1.11066E+01  1.08824E+01  1.07133E+01  1.05588E+01  1.04054E+01  1.02903E+01  1.02527E+01  1.02611E+01
   1.03063E+01  1.03950E+01  1.05389E+01  1.07169E+01  1.09130E+01  1.11279E+01  1.13694E+01  1.16377E+01  1.19335E+01  1.22390E+01
   1.25527E+01  1.28705E+01  1.31818E+01  1.34722E+01  1.37299E+01  1.39491E+01  1.41329E+01  1.42702E+01  1.43583E+01  1.44008E+01
   1.43985E+01  1.43563E+01  1.42832E+01  1.41875E+01  1.40796E+01  1.39715E+01  1.38763E+01  1.38094E+01  1.37889E+01  1.38370E+01
   1.39908E+01  1.44662E+01  1.53819E+01  1.59329E+01  1.58828E+01  1.54426E+01  1.46949E+01  1.34996E+01  1.20220E+01  1.05643E+01
   1.01538E+01  1.09564E+01  1.22940E+01  1.35554E+01  1.47134E+01  1.63109E+01  1.75514E+01  1.81227E+01  1.81543E+01  1.80545E+01
   1.81750E+01  1.85795E+01  1.86281E+01  1.87821E+01  1.87742E+01  1.84366E+01  1.78718E+01  1.70579E+01  1.59182E+01  1.45693E+01
   1.35308E+01  1.32902E+01  1.36353E+01  1.41589E+01  1.45580E+01  1.49158E+01  1.54172E+01  1.55738E+01  1.53296E+01  1.48864E+01
   1.44867E+01  1.42894E+01  1.39040E+01  1.32552E+01  1.27360E+01  1.22894E+01  1.18711E+01  1.14680E+01  1.10760E+01  1.06947E+01
   1.03255E+01  9.97065E+00  9.63289E+00  9.31546E+00  9.02172E+00  8.75503E+00  8.51862E+00  8.31563E+00  8.14920E+00  8.02244E+00
   7.93833E+00  7.89957E+00  7.90857E+00  7.96751E+00  8.07828E+00  8.24235E+00  8.46049E+00  8.73252E+00  9.05723E+00  9.43223E+00
   9.85386E+00  1.03169E+01  1.08142E+01  1.13372E+01  1.18753E+01  1.24165E+01  1.29479E+01  1.34555E+01  1.39247E+01  1.43413E+01
   1.46917E+01  1.49637E+01  1.51473E+01  1.52346E+01  1.52207E+01  1.51037E+01  1.48848E+01  1.45684E+01  1.41621E+01  1.36752E+01
   1.31195E+01  1.25077E+01  1.18537E+01  1.11714E+01  1.04742E+01  9.77463E+00  9.08372E+00  8.41110E+00  7.76475E+00  7.15085E+00
   6.57378E+00  6.03619E+00  5.53935E+00  5.08338E+00  4.66744E+00  4.28992E+00  3.94853E+00  3.64061E+00  3.36335E+00  3.11400E+00
   2.88984E+00  2.68822E+00  2.50659E+00  2.34258E+00  2.19415E+00  2.05954E+00  1.93715E+00  1.82553E+00  1.72334E+00  1.62947E+00
   1.54301E+00  1.46323E+00  1.38944E+00  1.32097E+00  1.25722E+00  1.19772E+00  1.14215E+00  1.09021E+00  1.04158E+00  9.95922E-01
   9.52945E-01  9.12482E-01  8.74434E-01  8.38666E-01  8.04967E-01  7.73124E-01  7.42995E-01  7.14523E-01  6.87662E-01  6.62308E-01
   6.38307E-01  6.15527E-01  5.93919E-01  5.73487E-01  5.54200E-01  5.35956E-01  5.18628E-01  5.02144E-01  4.86504E-01  4.71727E-01
   4.57781E-01  4.44564E-01  4.31981E-01  4.20008E-01  4.08678E-01  3.98002E-01  3.87921E-01  3.78337E-01  3.69188E-01  3.60488E-01
   3.52280E-01  3.44555E-01  3.37235E-01  3.30238E-01  3.23543E-01  3.17190E-01  3.11211E-01  3.05570E-01  3.00182E-01  2.94993E-01
   2.90017E-01  2.85305E-01  2.80867E-01  2.76646E-01  2.72567E-01  2.68613E-01  2.64830E-01  2.61265E-01
 NY background values follow
     3.707E+01    3.686E+01    3.665E+01    3.644E+01    3.623E+01    3.602E+01    3.581E+01    3.560E+01    3.539E+01    3.518E+01
     3.497E+01    3.476E+01    3.455E+01    3.434E+01    3.413E+01    3.392E+01    3.371E+01    3.349E+01    3.328E+01    3.308E+01
     3.287E+01    3.266E+01    3.245E+01    3.224E+01    3.203E+01    3.182E+01    3.161E+01    3.140E+01    3.119E+01    3.099E+01
     3.078E+01    3.057E+01    3.036E+01    3.016E+01    2.995E+01    2.974E+01    2.954E+01    2.933E+01    2.913E+01    2.892E+01
     2.872E+01    2.851E+01    2.831E+01    2.811E+01    2.790E+01    2.770E+01    2.750E+01    2.730E+01    2.710E+01    2.690E+01
     2.670E+01    2.650E+01    2.630E+01    2.610E+01    2.590E+01    2.571E+01    2.551E+01    2.532E+01    2.512E+01    2.493E+01
     2.473E+01    2.454E+01    2.435E+01    2.416E+01    2.397E+01    2.378E+01    2.359E+01    2.340E+01    2.321E+01    2.302E+01
     2.284E+01    2.265E+01    2.247E+01    2.229E+01    2.210E+01    2.192E+01    2.174E+01    2.156E+01    2.138E+01    2.121E+01
     2.103E+01    2.085E+01    2.068E+01    2.051E+01    2.033E+01    2.016E+01    1.999E+01    1.982E+01    1.966E+01    1.949E+01
     1.932E+01    1.916E+01    1.900E+01    1.883E+01    1.867E+01    1.851E+01    1.835E+01    1.820E+01    1.804E+01    1.789E+01
     1.773E+01    1.758E+01    1.743E+01    1.728E+01    1.713E+01    1.698E+01    1.684E+01    1.669E+01    1.655E+01    1.641E+01
     1.627E+01    1.613E+01    1.599E+01    1.585E+01    1.571E+01    1.558E+01    1.545E+01    1.531E+01    1.518E+01    1.505E+01
     1.492E+01    1.480E+01    1.467E+01    1.455E+01    1.442E+01    1.430E+01    1.418E+01    1.406E+01    1.395E+01    1.383E+01
     1.371E+01    1.360E+01    1.349E+01    1.338E+01    1.327E+01    1.316E+01    1.305E+01    1.295E+01    1.284E+01    1.274E+01
     1.264E+01    1.254E+01    1.244E+01    1.234E+01    1.224E+01    1.215E+01    1.205E+01    1.196E+01    1.187E+01    1.178E+01
     1.169E+01    1.160E+01    1.152E+01    1.143E+01    1.135E+01    1.126E+01    1.118E+01    1.110E+01    1.102E+01    1.094E+01
     1.087E+01    1.079E+01    1.072E+01    1.064E+01    1.057E+01    1.050E+01    1.043E+01    1.036E+01    1.029E+01    1.022E+01
     1.016E+01    1.009E+01    1.003E+01    9.966E+00    9.905E+00    9.844E+00    9.784E+00    9.725E+00    9.668E+00    9.611E+00
     9.555E+00    9.501E+00    9.447E+00    9.394E+00    9.342E+00    9.291E+00    9.241E+00    9.191E+00    9.143E+00    9.095E+00
     9.048E+00    9.002E+00    8.957E+00    8.912E+00    8.868E+00    8.825E+00    8.782E+00    8.740E+00    8.698E+00    8.658E+00
     8.617E+00    8.577E+00    8.538E+00    8.499E+00    8.461E+00    8.423E+00    8.385E+00    8.348E+00    8.311E+00    8.275E+00
     8.239E+00    8.203E+00    8.168E+00    8.132E+00    8.098E+00    8.063E+00    8.028E+00    7.994E+00    7.959E+00    7.925E+00
     7.891E+00    7.857E+00    7.823E+00    7.789E+00    7.756E+00    7.722E+00    7.688E+00    7.654E+00    7.620E+00    7.586E+00
     7.551E+00    7.517E+00    7.483E+00    7.448E+00    7.414E+00    7.380E+00    7.345E+00    7.310E+00    7.276E+00    7.241E+00
     7.206E+00    7.171E+00    7.136E+00    7.101E+00    7.066E+00    7.031E+00    6.996E+00    6.960E+00    6.925E+00    6.889E+00
     6.854E+00    6.818E+00    6.782E+00    6.747E+00    6.711E+00    6.675E+00    6.639E+00    6.602E+00    6.566E+00    6.530E+00
     6.493E+00    6.457E+00    6.420E+00    6.383E+00    6.347E+00    6.310E+00    6.273E+00    6.236E+00    6.199E+00    6.161E+00
     6.124E+00    6.086E+00    6.049E+00    6.011E+00    5.973E+00    5.935E+00    5.897E+00    5.859E+00    5.821E+00    5.783E+00
     5.745E+00    5.706E+00    5.668E+00    5.629E+00    5.590E+00    5.552E+00    5.513E+00    5.474E+00    5.435E+00    5.396E+00
     5.357E+00    5.318E+00    5.278E+00    5.239E+00    5.200E+00    5.160E+00    5.121E+00    5.081E+00    5.041E+00    5.002E+00
     4.962E+00    4.922E+00    4.882E+00    4.842E+00    4.802E+00    4.762E+00    4.722E+00    4.682E+00    4.642E+00    4.601E+00
     4.561E+00    4.521E+00    4.480E+00    4.440E+00    4.400E+00    4.359E+00    4.319E+00    4.278E+00    4.238E+00    4.197E+00
     4.156E+00    4.116E+00    4.075E+00    4.035E+00    3.994E+00    3.953E+00    3.912E+00    3.872E+00    3.831E+00    3.790E+00
     3.750E+00    3.709E+00    3.668E+00    3.628E+00    3.587E+00    3.546E+00    3.506E+00    3.465E+00    3.424E+00    3.384E+00
     3.343E+00    3.303E+00    3.262E+00    3.222E+00    3.182E+00    3.141E+00    3.101E+00    3.061E+00    3.020E+00    2.980E+00
     2.940E+00    2.900E+00    2.860E+00    2.820E+00    2.780E+00    2.740E+00    2.700E+00    2.661E+00    2.621E+00    2.582E+00
     2.542E+00    2.503E+00    2.463E+00    2.424E+00    2.385E+00    2.346E+00    2.307E+00    2.268E+00    2.230E+00    2.191E+00
     2.153E+00    2.114E+00    2.076E+00    2.038E+00    2.001E+00    1.963E+00    1.926E+00    1.888E+00    1.851E+00    1.815E+00
     1.778E+00    1.742E+00    1.705E+00    1.669E+00    1.634E+00    1.598E+00    1.563E+00    1.528E+00    1.494E+00    1.459E+00
     1.425E+00    1.391E+00    1.358E+00    1.325E+00    1.292E+00    1.259E+00    1.227E+00    1.195E+00    1.163E+00    1.132E+00
     1.101E+00    1.071E+00    1.041E+00    1.011E+00    9.818E-01    9.528E-01    9.243E-01    8.961E-01    8.684E-01    8.411E-01
     8.142E-01    7.877E-01    7.617E-01    7.361E-01    7.108E-01    6.860E-01    6.617E-01    6.377E-01    6.142E-01    5.911E-01
     5.684E-01    5.462E-01    5.244E-01    5.030E-01    4.820E-01    4.615E-01    4.414E-01    4.218E-01    4.025E-01    3.838E-01
     3.654E-01    3.475E-01    3.300E-01    3.130E-01    2.964E-01    2.803E-01    2.646E-01    2.493E-01    2.345E-01    2.201E-01
     2.062E-01    1.927E-01    1.797E-01    1.671E-01    1.550E-01    1.434E-01    1.321E-01    1.214E-01    1.111E-01    1.012E-01
     9.186E-02    8.293E-02    7.446E-02    6.645E-02    5.889E-02    5.177E-02    4.506E-02    3.877E-02    3.288E-02    2.738E-02
     2.226E-02    1.751E-02    1.311E-02    9.047E-03    5.320E-03    1.913E-03   -1.185E-03   -3.987E-03   -6.504E-03   -8.748E-03
    -1.073E-02   -1.246E-02   -1.395E-02   -1.522E-02   -1.627E-02   -1.711E-02   -1.777E-02   -1.824E-02   -1.854E-02   -1.869E-02
    -1.869E-02   -1.855E-02   -1.829E-02   -1.793E-02   -1.746E-02   -1.690E-02   -1.627E-02   -1.557E-02   -1.481E-02   -1.402E-02
    -1.320E-02   -1.235E-02   -1.150E-02   -1.066E-02   -9.829E-03   -9.027E-03   -8.265E-03   -7.554E-03
 Ala      Conc. = 2.89E+02
