 LCModel (Version 6.3-1L) Copyright: S.W. Provencher.          Ref.: Magn. Reson. Med. 30:672-679 (1993).                
 Slice#1 Row#6 Col#12  PD_24_press_1_raw_act
 36 lines in following concentration table = NCONC+1
    Conc.  %SD /Cr+PCr  Metabolite                                         
  584.027  38%   1.812 Ala                                                 
    0.000 999%   0.000 Asp                                                 
    0.000 999%   0.000 Cr                                                  
  322.263  15%   1.000 PCr                                                 
   60.612 102%   0.188 GABA                                                
   70.216  86%   0.218 Glc                                                 
    0.000 999%   0.000 Gln                                                 
  111.406 366%   0.346 Glu                                                 
    0.000 999%   0.000 GPC                                                 
   67.062  26%   0.208 PCh                                                 
  284.732  26%   0.884 GSH                                                 
  972.494  20%   3.018 Ins                                                 
  325.633 107%   1.010 Lac                                                 
    0.000 999%   0.000 NAA                                                 
 1.42E+03   6%   4.391 NAAG                                                
   39.260  41%   0.122 Scyllo                                              
  180.607  51%   0.560 Tau                                                 
   61.411 105%   0.191 -CrCH2                                              
   67.062  26%   0.208 GPC+PCh                                             
 1.42E+03   6%   4.391 NAA+NAAG                                            
  322.263  15%   1.000 Cr+PCr                                              
  111.406 366%   0.346 Glu+Gln                                             
 2.91E+03  22%   9.028 Lip13a                                              
  205.489 108%   0.638 Lip13b                                              
    0.000 999%   0.000 Lip09                                               
  858.024  15%   2.662 MM09                                                
 1.25E+03  14%   3.894 Lip20                                               
  169.793 172%   0.527 MM20                                                
  277.165  51%   0.860 MM12                                                
 1.07E+03  30%   3.320 MM14                                                
  730.266  16%   2.266 MM17                                                
 3.11E+03  18%   9.665 Lip13a+Lip13b                                       
 4.46E+03   9%  13.846 MM14+Lip13a+Lip13b+MM12                             
  858.024  15%   2.662 MM09+Lip09                                          
 1.42E+03  19%   4.421 MM20+Lip20                                          
   6 lines in following misc. output table
  FWHM = 0.092 ppm    S/N =   8                                            
  Data shift = 0.023 ppm                                                   
  Ph: 151 deg      63.7 deg/ppm                                            
  alphaB,S = 4.3E+01,   1.2E+02                                            
   14 spline knots.   Ns = 6(2)                                            
  ( 3) 2 infls.   ( 1) 1 extrs.                                            
  498 points on ppm-axis = NY
      4.000000     3.992357     3.984714     3.977070     3.969427     3.961784     3.954141     3.946497     3.938854     3.931211
      3.923568     3.915925     3.908281     3.900638     3.892995     3.885352     3.877708     3.870065     3.862422     3.854779
      3.847136     3.839492     3.831849     3.824206     3.816563     3.808919     3.801276     3.793633     3.785990     3.778347
      3.770703     3.763060     3.755417     3.747774     3.740130     3.732487     3.724844     3.717201     3.709558     3.701914
      3.694271     3.686628     3.678985     3.671341     3.663698     3.656055     3.648412     3.640769     3.633125     3.625482
      3.617839     3.610196     3.602552     3.594909     3.587266     3.579623     3.571980     3.564336     3.556693     3.549050
      3.541407     3.533763     3.526120     3.518477     3.510834     3.503191     3.495547     3.487904     3.480261     3.472618
      3.464974     3.457331     3.449688     3.442045     3.434402     3.426758     3.419115     3.411472     3.403829     3.396185
      3.388542     3.380899     3.373256     3.365613     3.357969     3.350326     3.342683     3.335040     3.327396     3.319753
      3.312110     3.304467     3.296824     3.289180     3.281537     3.273894     3.266251     3.258607     3.250964     3.243321
      3.235678     3.228034     3.220391     3.212748     3.205105     3.197462     3.189818     3.182175     3.174532     3.166889
      3.159245     3.151602     3.143959     3.136316     3.128673     3.121029     3.113386     3.105743     3.098100     3.090456
      3.082813     3.075170     3.067527     3.059884     3.052240     3.044597     3.036954     3.029311     3.021667     3.014024
      3.006381     2.998738     2.991095     2.983451     2.975808     2.968165     2.960522     2.952878     2.945235     2.937592
      2.929949     2.922306     2.914662     2.907019     2.899376     2.891733     2.884089     2.876446     2.868803     2.861160
      2.853517     2.845873     2.838230     2.830587     2.822944     2.815300     2.807657     2.800014     2.792371     2.784728
      2.777084     2.769441     2.761798     2.754155     2.746511     2.738868     2.731225     2.723582     2.715939     2.708295
      2.700652     2.693009     2.685366     2.677722     2.670079     2.662436     2.654793     2.647150     2.639506     2.631863
      2.624220     2.616577     2.608933     2.601290     2.593647     2.586004     2.578361     2.570717     2.563074     2.555431
      2.547788     2.540144     2.532501     2.524858     2.517215     2.509572     2.501928     2.494285     2.486642     2.478999
      2.471355     2.463712     2.456069     2.448426     2.440783     2.433139     2.425496     2.417853     2.410210     2.402566
      2.394923     2.387280     2.379637     2.371994     2.364350     2.356707     2.349064     2.341421     2.333777     2.326134
      2.318491     2.310848     2.303205     2.295561     2.287918     2.280275     2.272632     2.264988     2.257345     2.249702
      2.242059     2.234416     2.226772     2.219129     2.211486     2.203843     2.196199     2.188556     2.180913     2.173270
      2.165627     2.157983     2.150340     2.142697     2.135054     2.127410     2.119767     2.112124     2.104481     2.096838
      2.089194     2.081551     2.073908     2.066265     2.058621     2.050978     2.043335     2.035692     2.028049     2.020405
      2.012762     2.005119     1.997476     1.989833     1.982190     1.974546     1.966903     1.959260     1.951617     1.943974
      1.936331     1.928688     1.921045     1.913402     1.905759     1.898115     1.890472     1.882829     1.875186     1.867543
      1.859900     1.852257     1.844614     1.836971     1.829327     1.821684     1.814041     1.806398     1.798755     1.791112
      1.783469     1.775826     1.768183     1.760540     1.752896     1.745253     1.737610     1.729967     1.722324     1.714681
      1.707038     1.699395     1.691752     1.684108     1.676465     1.668822     1.661179     1.653536     1.645893     1.638250
      1.630607     1.622964     1.615321     1.607677     1.600034     1.592391     1.584748     1.577105     1.569462     1.561819
      1.554176     1.546533     1.538890     1.531246     1.523603     1.515960     1.508317     1.500674     1.493031     1.485388
      1.477745     1.470102     1.462458     1.454815     1.447172     1.439529     1.431886     1.424243     1.416600     1.408957
      1.401314     1.393671     1.386027     1.378384     1.370741     1.363098     1.355455     1.347812     1.340169     1.332526
      1.324883     1.317240     1.309596     1.301953     1.294310     1.286667     1.279024     1.271381     1.263738     1.256095
      1.248452     1.240808     1.233165     1.225522     1.217879     1.210236     1.202593     1.194950     1.187307     1.179664
      1.172021     1.164377     1.156734     1.149091     1.141448     1.133805     1.126162     1.118519     1.110876     1.103233
      1.095590     1.087946     1.080303     1.072660     1.065017     1.057374     1.049731     1.042088     1.034445     1.026802
      1.019158     1.011515     1.003872     0.996229     0.988586     0.980943     0.973300     0.965657     0.958014     0.950371
      0.942727     0.935084     0.927441     0.919798     0.912155     0.904512     0.896869     0.889226     0.881583     0.873940
      0.866296     0.858653     0.851010     0.843367     0.835724     0.828081     0.820438     0.812795     0.805152     0.797508
      0.789865     0.782222     0.774579     0.766936     0.759293     0.751650     0.744007     0.736364     0.728721     0.721077
      0.713434     0.705791     0.698148     0.690505     0.682862     0.675219     0.667576     0.659933     0.652290     0.644646
      0.637003     0.629360     0.621717     0.614074     0.606431     0.598788     0.591145     0.583502     0.575858     0.568215
      0.560572     0.552929     0.545286     0.537643     0.530000     0.522357     0.514714     0.507071     0.499427     0.491784
      0.484141     0.476498     0.468855     0.461212     0.453569     0.445925     0.438282     0.430639     0.422996     0.415353
      0.407710     0.400067     0.392424     0.384780     0.377137     0.369494     0.361851     0.354208     0.346565     0.338922
      0.331278     0.323635     0.315992     0.308349     0.300706     0.293063     0.285420     0.277777     0.270133     0.262490
      0.254847     0.247204     0.239561     0.231918     0.224275     0.216631     0.208988     0.201345
 NY phased data points follow
  -4.66186E+00 -6.93269E+00 -4.89001E+00 -3.21640E+00 -3.51339E+00 -8.12467E+00 -6.05695E+00 -5.92334E+00 -2.29898E+00 -7.59595E+00
  -4.68121E+00 -6.38575E+00 -8.38154E+00 -7.25673E+00 -5.51640E+00 -7.71408E+00 -4.48983E+00 -8.74519E+00 -4.67680E+00 -8.42953E+00
  -7.26309E+00 -3.47789E+00 -6.20561E+00 -6.12777E+00 -2.73978E+00 -5.57631E+00 -4.10998E+00 -6.49269E+00 -3.91999E+00 -7.97208E+00
  -2.07656E+00 -6.25595E+00 -4.04704E+00 -6.95322E+00 -6.02118E+00 -9.40503E+00 -3.90919E+00 -8.75453E+00 -2.84368E+00 -6.73190E+00
  -6.77092E+00 -3.57774E+00 -4.50872E+00 -6.72090E+00 -6.80740E+00 -8.03634E+00 -3.87444E+00 -6.32206E+00 -6.86894E+00 -7.27099E+00
  -3.08284E+00 -7.49636E+00 -6.61697E+00 -5.92767E+00 -5.23310E+00 -4.31638E+00 -5.33951E+00 -5.89912E+00 -3.14934E+00 -8.81544E+00
  -8.94427E+00 -4.92577E+00 -4.14389E+00 -4.84916E+00 -4.15341E+00 -7.15024E+00 -5.47093E+00 -6.92866E+00 -3.97839E+00 -6.17345E+00
  -6.58867E+00 -6.48219E+00 -3.74436E+00 -6.21645E+00 -4.90217E+00 -3.66980E+00 -6.05665E+00 -4.59522E+00 -5.54541E+00 -7.08394E+00
  -4.21857E+00 -7.21454E+00 -9.87920E-01 -4.28332E+00 -6.38171E+00 -2.12486E+00 -7.86385E+00 -8.87385E+00 -6.50523E+00 -5.69482E+00
  -8.23468E+00 -5.74655E+00 -3.39747E+00 -8.35674E+00 -7.84612E+00 -7.39456E+00 -2.91080E+00 -4.92847E+00 -4.20237E+00 -6.61837E+00
  -6.14445E+00 -7.16659E+00 -6.62819E+00 -7.92319E+00 -6.83506E+00 -6.94789E+00 -2.44471E+00 -4.30356E+00 -2.71171E+00 -4.73861E+00
  -5.31114E+00 -4.14537E+00 -4.06342E+00 -4.93891E+00 -3.58456E+00 -6.62376E+00 -5.37371E+00 -6.29416E+00 -6.04482E+00 -6.68153E+00
  -4.44634E+00 -6.61468E+00 -6.53837E+00 -6.65864E+00 -2.42486E+00 -5.02494E+00 -3.07413E+00 -4.80470E-01 -1.54712E+00 -5.09507E+00
   1.27533E+00 -1.58910E+00 -2.32561E+00  9.32569E-01 -3.92471E-01 -5.43008E+00  2.76708E-01 -3.77059E+00 -1.53800E+00 -4.58342E+00
  -2.33837E+00 -2.28215E+00 -1.47003E+00 -5.03271E+00 -3.78656E+00 -2.48797E+00 -4.76376E+00 -5.80832E+00 -3.30119E+00 -5.69197E+00
  -2.54646E+00 -5.15343E+00 -1.06991E+00 -2.50303E+00 -5.63104E+00 -4.49049E+00 -3.50276E+00 -1.66052E+00 -2.58263E+00 -1.71172E-01
  -5.31895E+00 -8.44805E-01 -3.86679E+00 -4.99418E+00 -3.56770E+00 -3.73503E+00 -1.56324E+00 -6.60589E+00 -2.88889E+00 -6.76414E+00
  -3.90401E+00 -3.38889E+00 -7.31131E+00 -7.17167E+00 -7.20018E+00 -1.09304E+01 -9.47715E+00 -8.89619E+00 -1.02399E+01 -9.21372E+00
  -9.41513E+00 -1.11281E+01 -8.32874E+00 -9.93967E+00 -9.09967E+00 -8.92904E+00 -8.55106E+00 -7.64332E+00 -5.30958E+00 -5.37600E+00
  -6.85623E+00 -8.56065E+00 -5.94919E+00 -1.07169E+01 -7.98623E+00 -8.64064E+00 -7.84459E+00 -9.80505E+00 -6.78287E+00 -1.16217E+01
  -5.58903E+00 -8.69045E+00 -8.93761E+00 -1.33159E+01 -1.00086E+01 -1.17726E+01 -6.68451E+00 -8.27562E+00 -4.57557E+00 -7.93340E+00
  -3.62328E+00 -3.95075E+00 -3.01613E+00 -2.12676E+00 -5.05570E+00 -2.95716E+00 -5.06166E+00 -3.26251E+00 -3.10389E+00 -3.59297E+00
  -2.46923E+00 -1.77089E+00 -3.27137E+00 -5.04268E+00 -4.47674E+00 -2.79893E+00 -1.85158E+00 -4.68786E+00 -3.93992E+00 -2.24059E+00
  -3.49734E+00  4.39349E-01 -4.56237E+00 -3.12549E+00 -3.82992E+00 -6.35851E-02 -1.01994E+00  4.19504E-01  8.64271E-02  1.41928E-01
   1.11458E+00 -2.54660E+00 -7.64278E-01 -1.86709E+00  1.94210E+00  1.39020E+00  5.74694E+00  3.92278E+00  5.85599E-01  4.05245E+00
   5.68539E+00  8.78675E+00  1.41332E+01  1.46285E+01  2.09384E+01  2.54378E+01  2.99739E+01  3.11998E+01  3.18686E+01  2.69641E+01
   2.94611E+01  2.82288E+01  2.91416E+01  2.26144E+01  1.85073E+01  1.54154E+01  1.21961E+01  7.45475E+00  5.81783E+00 -1.87828E+00
   2.63305E+00 -2.56125E+00 -1.14473E+00 -4.98896E+00 -4.41122E+00 -6.99972E+00 -7.62063E+00 -6.07431E+00 -5.31241E+00 -8.27693E-01
  -7.24428E+00 -8.02123E+00 -3.64821E+00 -3.15917E+00 -7.78657E+00 -4.70917E+00 -7.09130E+00 -5.80312E+00 -7.39999E+00 -7.13308E+00
  -3.97359E+00 -6.01743E+00 -5.56548E+00 -5.83400E+00 -3.91210E+00 -4.51630E+00 -3.04640E+00 -5.56557E-01 -2.37120E-01  4.26309E-01
   8.79425E-01  6.88578E-01  9.33275E-01  9.66824E-01 -1.13625E+00  5.86491E+00  4.05098E+00  2.29581E+00  2.02566E+00  1.43113E+00
   3.99900E+00  6.33747E-01  5.19658E+00  7.47611E+00  2.67593E+00  4.97153E+00  8.39344E+00  4.62987E+00  6.05487E+00  5.93034E+00
   4.24282E+00  4.73054E+00  6.12798E+00  6.95345E+00  4.54434E+00  4.57694E+00  4.81483E+00  8.54821E+00  3.78553E+00  5.00773E+00
   3.66075E+00  2.64551E+00  2.57318E+00  3.00919E+00  5.91938E+00  5.93444E+00  6.51490E+00  6.05783E+00  8.77948E+00  7.38691E+00
   1.20134E+01  9.90376E+00  9.95285E+00  1.32276E+01  9.25808E+00  1.54567E+01  1.06765E+01  1.24677E+01  8.83829E+00  1.49202E+01
   1.08376E+01  1.33947E+01  1.36697E+01  1.32558E+01  1.46734E+01  1.30364E+01  1.23900E+01  1.36060E+01  1.40097E+01  1.33381E+01
   1.25775E+01  1.16382E+01  1.17447E+01  1.27370E+01  1.14050E+01  9.90551E+00  9.47022E+00  8.90272E+00  6.93546E+00  8.15164E+00
   3.74155E+00  7.35697E+00  7.95887E+00  3.48915E+00  4.93065E+00  4.12455E+00  3.11590E+00  3.52345E+00  4.20207E+00  3.38812E+00
   2.24296E+00  4.95421E+00  5.00479E+00  4.92294E+00  5.68920E+00  5.46793E+00  5.61976E+00  5.36712E+00  7.31188E+00  7.40085E+00
   6.09435E+00  5.99942E+00  4.61408E+00  5.38956E+00  5.03392E+00  8.95026E+00  5.77128E+00  6.93305E+00  7.09869E+00  4.81340E+00
   6.65435E+00  5.66376E+00  4.72633E+00  7.13780E+00  2.99565E+00  3.05039E+00  1.54630E+00 -1.42400E+00 -6.83323E-01  2.73779E+00
  -1.40851E+00  2.93605E+00 -2.86792E+00 -6.50392E+00 -1.55877E+00 -4.86030E+00 -1.90556E-01 -4.87725E+00 -1.96232E+00  4.75803E-01
  -2.78353E+00 -5.59733E+00 -2.32217E+00 -5.00118E+00  2.34253E-01 -1.41717E+00 -2.02234E+00 -1.35837E+00 -1.14901E+00 -2.10624E+00
  -6.50240E-01 -9.10639E-01 -1.17177E+00  1.56914E+00 -3.62469E+00  4.32244E-01 -2.06343E-02  1.20452E+00 -2.55016E+00 -2.34687E-01
  -2.65232E+00 -1.33012E+00 -1.05273E+00 -1.21526E+00 -1.98725E+00  1.95994E-01 -2.84609E+00  1.62025E+00  1.47081E-01 -1.55963E+00
  -3.65853E-01 -7.72913E-01 -2.16647E+00  1.29619E+00 -2.12238E+00 -1.61850E+00 -1.47581E+00  1.14523E+00 -7.03825E-01 -6.10372E-01
  -2.69964E-01 -1.79109E+00 -2.09459E+00  1.18262E-01 -2.67558E+00 -2.25212E+00 -9.44965E-01 -5.70822E-01  8.77893E-01 -2.03653E+00
  -2.52680E+00  1.61473E+00 -4.80576E+00  1.15337E+00 -2.86198E-01 -1.97315E+00  3.52898E-01  1.22047E+00 -1.66602E+00 -3.56099E-01
  -1.47641E+00 -9.27772E-01 -4.84959E+00 -1.51046E+00 -3.76099E+00 -8.23669E-01 -9.93235E-01 -8.51144E-01 -4.11107E+00  3.00951E-01
  -3.38864E+00 -5.25446E+00 -2.18007E+00 -2.93106E+00  2.85660E+00 -6.92042E-01 -4.01849E+00 -4.10887E+00
 NY points of the fit to the data follow
  -5.09635E+00 -5.39889E+00 -5.65614E+00 -6.09938E+00 -6.15574E+00 -6.66272E+00 -6.24227E+00 -6.77026E+00 -5.90583E+00 -6.48804E+00
  -5.41694E+00 -6.23620E+00 -5.17630E+00 -6.15614E+00 -5.31354E+00 -6.34456E+00 -5.74299E+00 -6.63435E+00 -6.21890E+00 -6.92484E+00
  -6.76903E+00 -7.20170E+00 -7.23754E+00 -7.29480E+00 -7.21843E+00 -6.97431E+00 -6.40059E+00 -6.28532E+00 -5.41385E+00 -5.62337E+00
  -4.56422E+00 -5.15106E+00 -4.07538E+00 -4.94747E+00 -3.95609E+00 -4.93325E+00 -4.04055E+00 -5.11019E+00 -4.53050E+00 -5.58462E+00
  -5.31536E+00 -6.07217E+00 -5.95054E+00 -6.28309E+00 -6.09704E+00 -5.97771E+00 -5.59579E+00 -5.48182E+00 -5.20794E+00 -5.18906E+00
  -5.03564E+00 -5.16309E+00 -5.13131E+00 -5.29000E+00 -5.31844E+00 -5.53894E+00 -5.67381E+00 -5.93349E+00 -6.05162E+00 -6.31628E+00
  -6.33412E+00 -6.53870E+00 -6.39939E+00 -6.39223E+00 -6.05456E+00 -6.03884E+00 -5.77693E+00 -5.85392E+00 -5.65401E+00 -5.77202E+00
  -5.58504E+00 -5.70937E+00 -5.52302E+00 -5.61414E+00 -5.42320E+00 -5.49240E+00 -5.29452E+00 -5.42588E+00 -5.26463E+00 -5.48263E+00
  -5.34082E+00 -5.63321E+00 -5.50346E+00 -5.86302E+00 -5.76036E+00 -6.17440E+00 -6.10744E+00 -6.55657E+00 -6.48900E+00 -6.89788E+00
  -6.81489E+00 -7.07121E+00 -6.87871E+00 -7.08643E+00 -6.93574E+00 -7.07593E+00 -6.95687E+00 -6.92811E+00 -6.66494E+00 -6.50508E+00
  -5.97828E+00 -5.84611E+00 -5.01100E+00 -5.16857E+00 -4.28582E+00 -4.82687E+00 -3.99921E+00 -4.80214E+00 -4.06408E+00 -5.01661E+00
  -4.43154E+00 -5.44040E+00 -5.07901E+00 -5.99217E+00 -5.87164E+00 -6.45274E+00 -6.42201E+00 -6.75026E+00 -6.69370E+00 -6.71618E+00
  -6.37666E+00 -6.16221E+00 -5.49230E+00 -5.17694E+00 -4.07420E+00 -3.87353E+00 -2.39963E+00 -2.54341E+00 -9.30962E-01 -1.59479E+00
  -1.49526E-01 -1.25995E+00 -1.33880E-01 -1.54869E+00 -8.17587E-01 -2.37453E+00 -2.07779E+00 -3.46358E+00 -3.49688E+00 -4.50342E+00
  -4.72264E+00 -5.19663E+00 -5.37942E+00 -5.24186E+00 -5.09998E+00 -4.88312E+00 -4.67267E+00 -4.41944E+00 -4.23353E+00 -4.03904E+00
  -3.93843E+00 -3.94071E+00 -3.90883E+00 -4.02869E+00 -4.02306E+00 -4.13860E+00 -4.13182E+00 -4.22463E+00 -4.28794E+00 -4.41429E+00
  -4.54747E+00 -4.72973E+00 -4.92071E+00 -5.16886E+00 -5.46414E+00 -5.72210E+00 -6.07819E+00 -6.32455E+00 -6.67693E+00 -6.92949E+00
  -7.26649E+00 -7.54162E+00 -7.72655E+00 -7.93840E+00 -8.02834E+00 -8.13533E+00 -8.22954E+00 -8.28853E+00 -8.29701E+00 -8.33042E+00
  -8.19966E+00 -8.24251E+00 -7.98440E+00 -8.01415E+00 -7.62585E+00 -7.61878E+00 -7.11990E+00 -6.99605E+00 -6.33167E+00 -6.19093E+00
  -5.58501E+00 -5.55810E+00 -5.22873E+00 -5.24333E+00 -5.15975E+00 -5.18200E+00 -5.26960E+00 -5.31259E+00 -5.47403E+00 -5.53960E+00
  -5.63390E+00 -5.71065E+00 -5.76562E+00 -5.87716E+00 -5.85295E+00 -5.97748E+00 -5.82479E+00 -5.96061E+00 -5.71395E+00 -5.88448E+00
  -5.66583E+00 -5.83488E+00 -5.61302E+00 -5.73920E+00 -5.45682E+00 -5.41580E+00 -5.01774E+00 -4.85263E+00 -4.41935E+00 -4.18257E+00
  -3.73443E+00 -3.41189E+00 -2.98161E+00 -2.60124E+00 -2.23793E+00 -1.95277E+00 -1.71409E+00 -1.55695E+00 -1.43734E+00 -1.37558E+00
  -1.33628E+00 -1.28487E+00 -1.27241E+00 -1.18073E+00 -1.25908E+00 -1.18787E+00 -1.44751E+00 -1.45485E+00 -1.84806E+00 -1.80847E+00
  -2.12723E+00 -1.88673E+00 -1.96878E+00 -1.28913E+00 -3.09483E-01  5.35603E-01  1.90368E+00  2.65687E+00  4.40620E+00  5.48784E+00
   8.77387E+00  1.03132E+01  1.53152E+01  1.67808E+01  2.26602E+01  2.32329E+01  2.84511E+01  2.75598E+01  3.07249E+01  2.84894E+01
   2.97331E+01  2.66045E+01  2.60732E+01  2.23141E+01  1.99081E+01  1.59449E+01  1.23380E+01  8.76474E+00  4.84816E+00  2.28981E+00
  -6.03325E-01 -1.70445E+00 -2.12607E+00 -2.60244E+00 -2.79638E+00 -3.17276E+00 -3.26225E+00 -3.57392E+00 -3.57543E+00 -3.83365E+00
  -3.74772E+00 -3.97446E+00 -3.82000E+00 -4.03119E+00 -3.85229E+00 -4.04996E+00 -3.84067E+00 -3.99377E+00 -3.71938E+00 -3.79990E+00
  -3.46646E+00 -3.47165E+00 -3.10946E+00 -3.07861E+00 -2.70780E+00 -2.59801E+00 -2.19961E+00 -1.98316E+00 -1.53480E+00 -1.18445E+00
  -6.69999E-01 -2.19472E-01  3.34545E-01  8.47151E-01  1.39371E+00  1.91486E+00  2.41485E+00  2.89137E+00  3.33009E+00  3.72862E+00
   4.05832E+00  4.34223E+00  4.54806E+00  4.71888E+00  4.84795E+00  4.98908E+00  4.96863E+00  4.99343E+00  4.90899E+00  4.92305E+00
   4.90300E+00  5.07033E+00  5.03266E+00  5.39576E+00  5.36342E+00  5.66097E+00  5.45425E+00  5.42165E+00  4.99071E+00  4.70667E+00
   4.39638E+00  4.12679E+00  4.23353E+00  4.10026E+00  4.79657E+00  4.76225E+00  5.92758E+00  5.89915E+00  7.33260E+00  7.40728E+00
   9.03052E+00  9.37876E+00  1.09412E+01  1.15938E+01  1.24568E+01  1.28889E+01  1.29629E+01  1.32222E+01  1.26348E+01  1.29965E+01
   1.21325E+01  1.30214E+01  1.23750E+01  1.35255E+01  1.28548E+01  1.39581E+01  1.31713E+01  1.39543E+01  1.30515E+01  1.34553E+01
   1.25493E+01  1.26689E+01  1.18305E+01  1.17055E+01  1.07577E+01  1.02938E+01  9.37704E+00  8.67559E+00  7.86013E+00  7.07788E+00
   6.44090E+00  5.89046E+00  5.40245E+00  4.97278E+00  4.59789E+00  4.28159E+00  4.02376E+00  3.82951E+00  3.69863E+00  3.63514E+00
   3.63688E+00  3.70520E+00  3.83470E+00  4.02307E+00  4.26086E+00  4.54154E+00  4.85145E+00  5.18012E+00  5.51062E+00  5.83017E+00
   6.12073E+00  6.36976E+00  6.56095E+00  6.68507E+00  6.73050E+00  6.69394E+00  6.57051E+00  6.36403E+00  6.07668E+00  5.71887E+00
   5.29847E+00  4.83034E+00  4.32537E+00  3.79985E+00  3.26457E+00  2.73444E+00  2.21774E+00  1.72601E+00  1.26364E+00  8.38074E-01
   4.49653E-01  1.02144E-01 -2.07327E-01 -4.77651E-01 -7.13779E-01 -9.16067E-01 -1.09037E+00 -1.23744E+00 -1.36316E+00 -1.46804E+00
  -1.55756E+00 -1.63165E+00 -1.69516E+00 -1.74737E+00 -1.79252E+00 -1.82935E+00 -1.86162E+00 -1.88763E+00 -1.91077E+00 -1.92903E+00
  -1.94553E+00 -1.95807E+00 -1.96965E+00 -1.97790E+00 -1.98571E+00 -1.99060E+00 -1.99541E+00 -1.99764E+00 -2.00006E+00 -2.00012E+00
  -2.00057E+00 -1.99881E+00 -1.99760E+00 -1.99433E+00 -1.99173E+00 -1.98717E+00 -1.98336E+00 -1.97768E+00 -1.97283E+00 -1.96619E+00
  -1.96045E+00 -1.95296E+00 -1.94642E+00 -1.93817E+00 -1.93093E+00 -1.92203E+00 -1.91418E+00 -1.90468E+00 -1.89625E+00 -1.88622E+00
  -1.87730E+00 -1.86680E+00 -1.85743E+00 -1.84649E+00 -1.83670E+00 -1.82537E+00 -1.81522E+00 -1.80354E+00 -1.79305E+00 -1.78103E+00
  -1.77022E+00 -1.75792E+00 -1.74684E+00 -1.73426E+00 -1.72291E+00 -1.71006E+00 -1.69847E+00 -1.68540E+00 -1.67359E+00 -1.66030E+00
  -1.64827E+00 -1.63477E+00 -1.62254E+00 -1.60886E+00 -1.59646E+00 -1.58259E+00 -1.57000E+00 -1.55596E+00 -1.54321E+00 -1.52901E+00
  -1.51611E+00 -1.50174E+00 -1.48867E+00 -1.47415E+00 -1.46093E+00 -1.44626E+00 -1.43288E+00 -1.41803E+00
 NY background values follow
    -9.862E+00   -9.846E+00   -9.829E+00   -9.813E+00   -9.796E+00   -9.780E+00   -9.763E+00   -9.746E+00   -9.730E+00   -9.713E+00
    -9.697E+00   -9.680E+00   -9.664E+00   -9.647E+00   -9.630E+00   -9.614E+00   -9.597E+00   -9.581E+00   -9.564E+00   -9.548E+00
    -9.531E+00   -9.514E+00   -9.498E+00   -9.481E+00   -9.465E+00   -9.448E+00   -9.432E+00   -9.415E+00   -9.398E+00   -9.382E+00
    -9.365E+00   -9.349E+00   -9.332E+00   -9.316E+00   -9.299E+00   -9.282E+00   -9.266E+00   -9.249E+00   -9.233E+00   -9.216E+00
    -9.200E+00   -9.183E+00   -9.166E+00   -9.150E+00   -9.133E+00   -9.117E+00   -9.100E+00   -9.084E+00   -9.067E+00   -9.050E+00
    -9.034E+00   -9.017E+00   -9.001E+00   -8.984E+00   -8.967E+00   -8.951E+00   -8.934E+00   -8.918E+00   -8.901E+00   -8.885E+00
    -8.868E+00   -8.851E+00   -8.835E+00   -8.818E+00   -8.802E+00   -8.785E+00   -8.769E+00   -8.752E+00   -8.735E+00   -8.719E+00
    -8.702E+00   -8.686E+00   -8.669E+00   -8.653E+00   -8.636E+00   -8.619E+00   -8.603E+00   -8.586E+00   -8.570E+00   -8.553E+00
    -8.537E+00   -8.520E+00   -8.503E+00   -8.487E+00   -8.470E+00   -8.454E+00   -8.437E+00   -8.421E+00   -8.404E+00   -8.387E+00
    -8.371E+00   -8.354E+00   -8.338E+00   -8.321E+00   -8.304E+00   -8.288E+00   -8.271E+00   -8.255E+00   -8.238E+00   -8.222E+00
    -8.205E+00   -8.188E+00   -8.172E+00   -8.155E+00   -8.139E+00   -8.122E+00   -8.106E+00   -8.089E+00   -8.072E+00   -8.056E+00
    -8.039E+00   -8.023E+00   -8.006E+00   -7.990E+00   -7.973E+00   -7.956E+00   -7.940E+00   -7.923E+00   -7.907E+00   -7.890E+00
    -7.874E+00   -7.857E+00   -7.840E+00   -7.824E+00   -7.807E+00   -7.791E+00   -7.774E+00   -7.757E+00   -7.741E+00   -7.724E+00
    -7.708E+00   -7.691E+00   -7.675E+00   -7.658E+00   -7.641E+00   -7.625E+00   -7.608E+00   -7.592E+00   -7.575E+00   -7.559E+00
    -7.542E+00   -7.525E+00   -7.509E+00   -7.492E+00   -7.476E+00   -7.459E+00   -7.443E+00   -7.426E+00   -7.409E+00   -7.393E+00
    -7.376E+00   -7.360E+00   -7.343E+00   -7.326E+00   -7.310E+00   -7.293E+00   -7.277E+00   -7.260E+00   -7.244E+00   -7.227E+00
    -7.210E+00   -7.194E+00   -7.177E+00   -7.161E+00   -7.144E+00   -7.128E+00   -7.111E+00   -7.094E+00   -7.078E+00   -7.061E+00
    -7.045E+00   -7.028E+00   -7.011E+00   -6.995E+00   -6.978E+00   -6.962E+00   -6.945E+00   -6.929E+00   -6.912E+00   -6.895E+00
    -6.879E+00   -6.862E+00   -6.846E+00   -6.829E+00   -6.812E+00   -6.796E+00   -6.779E+00   -6.763E+00   -6.746E+00   -6.730E+00
    -6.713E+00   -6.696E+00   -6.680E+00   -6.663E+00   -6.647E+00   -6.630E+00   -6.613E+00   -6.597E+00   -6.580E+00   -6.564E+00
    -6.547E+00   -6.531E+00   -6.514E+00   -6.497E+00   -6.481E+00   -6.464E+00   -6.448E+00   -6.431E+00   -6.414E+00   -6.398E+00
    -6.381E+00   -6.365E+00   -6.348E+00   -6.332E+00   -6.315E+00   -6.298E+00   -6.282E+00   -6.265E+00   -6.249E+00   -6.232E+00
    -6.215E+00   -6.199E+00   -6.182E+00   -6.166E+00   -6.149E+00   -6.132E+00   -6.116E+00   -6.099E+00   -6.083E+00   -6.066E+00
    -6.050E+00   -6.033E+00   -6.016E+00   -6.000E+00   -5.983E+00   -5.967E+00   -5.950E+00   -5.933E+00   -5.917E+00   -5.900E+00
    -5.884E+00   -5.867E+00   -5.850E+00   -5.834E+00   -5.817E+00   -5.801E+00   -5.784E+00   -5.767E+00   -5.751E+00   -5.734E+00
    -5.718E+00   -5.701E+00   -5.684E+00   -5.668E+00   -5.651E+00   -5.635E+00   -5.618E+00   -5.601E+00   -5.585E+00   -5.568E+00
    -5.552E+00   -5.535E+00   -5.519E+00   -5.502E+00   -5.485E+00   -5.469E+00   -5.452E+00   -5.436E+00   -5.419E+00   -5.402E+00
    -5.386E+00   -5.369E+00   -5.353E+00   -5.336E+00   -5.319E+00   -5.303E+00   -5.286E+00   -5.270E+00   -5.253E+00   -5.236E+00
    -5.220E+00   -5.203E+00   -5.187E+00   -5.170E+00   -5.153E+00   -5.137E+00   -5.120E+00   -5.104E+00   -5.087E+00   -5.070E+00
    -5.054E+00   -5.037E+00   -5.020E+00   -5.004E+00   -4.987E+00   -4.971E+00   -4.954E+00   -4.937E+00   -4.921E+00   -4.904E+00
    -4.888E+00   -4.871E+00   -4.854E+00   -4.838E+00   -4.821E+00   -4.805E+00   -4.788E+00   -4.771E+00   -4.755E+00   -4.738E+00
    -4.722E+00   -4.705E+00   -4.688E+00   -4.672E+00   -4.655E+00   -4.639E+00   -4.622E+00   -4.605E+00   -4.589E+00   -4.572E+00
    -4.556E+00   -4.539E+00   -4.522E+00   -4.506E+00   -4.489E+00   -4.472E+00   -4.456E+00   -4.439E+00   -4.423E+00   -4.406E+00
    -4.389E+00   -4.373E+00   -4.356E+00   -4.340E+00   -4.323E+00   -4.306E+00   -4.290E+00   -4.273E+00   -4.257E+00   -4.240E+00
    -4.223E+00   -4.207E+00   -4.190E+00   -4.173E+00   -4.157E+00   -4.140E+00   -4.124E+00   -4.107E+00   -4.090E+00   -4.074E+00
    -4.057E+00   -4.041E+00   -4.024E+00   -4.007E+00   -3.991E+00   -3.974E+00   -3.958E+00   -3.941E+00   -3.924E+00   -3.908E+00
    -3.891E+00   -3.874E+00   -3.858E+00   -3.841E+00   -3.825E+00   -3.808E+00   -3.791E+00   -3.775E+00   -3.758E+00   -3.742E+00
    -3.725E+00   -3.708E+00   -3.692E+00   -3.675E+00   -3.658E+00   -3.642E+00   -3.625E+00   -3.609E+00   -3.592E+00   -3.575E+00
    -3.559E+00   -3.542E+00   -3.526E+00   -3.509E+00   -3.492E+00   -3.476E+00   -3.459E+00   -3.442E+00   -3.426E+00   -3.409E+00
    -3.393E+00   -3.376E+00   -3.359E+00   -3.343E+00   -3.326E+00   -3.310E+00   -3.293E+00   -3.276E+00   -3.260E+00   -3.243E+00
    -3.226E+00   -3.210E+00   -3.193E+00   -3.177E+00   -3.160E+00   -3.143E+00   -3.127E+00   -3.110E+00   -3.094E+00   -3.077E+00
    -3.060E+00   -3.044E+00   -3.027E+00   -3.010E+00   -2.994E+00   -2.977E+00   -2.961E+00   -2.944E+00   -2.927E+00   -2.911E+00
    -2.894E+00   -2.877E+00   -2.861E+00   -2.844E+00   -2.828E+00   -2.811E+00   -2.794E+00   -2.778E+00   -2.761E+00   -2.745E+00
    -2.728E+00   -2.711E+00   -2.695E+00   -2.678E+00   -2.661E+00   -2.645E+00   -2.628E+00   -2.612E+00   -2.595E+00   -2.578E+00
    -2.562E+00   -2.545E+00   -2.528E+00   -2.512E+00   -2.495E+00   -2.479E+00   -2.462E+00   -2.445E+00   -2.429E+00   -2.412E+00
    -2.396E+00   -2.379E+00   -2.362E+00   -2.346E+00   -2.329E+00   -2.312E+00   -2.296E+00   -2.279E+00   -2.263E+00   -2.246E+00
    -2.229E+00   -2.213E+00   -2.196E+00   -2.179E+00   -2.163E+00   -2.146E+00   -2.130E+00   -2.113E+00   -2.096E+00   -2.080E+00
    -2.063E+00   -2.047E+00   -2.030E+00   -2.013E+00   -1.997E+00   -1.980E+00   -1.963E+00   -1.947E+00   -1.930E+00   -1.914E+00
    -1.897E+00   -1.880E+00   -1.864E+00   -1.847E+00   -1.831E+00   -1.814E+00   -1.797E+00   -1.781E+00   -1.764E+00   -1.747E+00
    -1.731E+00   -1.714E+00   -1.698E+00   -1.681E+00   -1.664E+00   -1.648E+00   -1.631E+00   -1.614E+00
 Ala      Conc. = 5.84E+02
