 LCModel (Version 6.3-1L) Copyright: S.W. Provencher.          Ref.: Magn. Reson. Med. 30:672-679 (1993).                
 Slice#3 Row#6 Col#11  PD_24_press_1_raw_act
 36 lines in following concentration table = NCONC+1
    Conc.  %SD /Cr+PCr  Metabolite                                         
    0.000 999%   0.000 Ala                                                 
   82.324 203% 7.4E-02 Asp                                                 
  413.709  46%   0.372 Cr                                                  
  699.692  28%   0.628 PCr                                                 
    0.000 999%   0.000 GABA                                                
    0.000 999%   0.000 Glc                                                 
  410.880  49%   0.369 Gln                                                 
 1.12E+03  20%   1.004 Glu                                                 
  380.713   5%   0.342 GPC                                                 
    0.000 999%   0.000 PCh                                                 
  294.543  21%   0.265 GSH                                                 
  547.048  44%   0.491 Ins                                                 
    0.000 999%   0.000 Lac                                                 
 1.54E+03   7%   1.383 NAA                                                 
  197.282  52%   0.177 NAAG                                                
   72.002  33% 6.5E-02 Scyllo                                              
    0.000 999%   0.000 Tau                                                 
  358.701  27%   0.322 -CrCH2                                              
  380.713   5%   0.342 GPC+PCh                                             
 1.74E+03   4%   1.560 NAA+NAAG                                            
 1.11E+03   5%   1.000 Cr+PCr                                              
 1.53E+03  22%   1.374 Glu+Gln                                             
    0.000 999%   0.000 Lip13a                                              
  753.670  31%   0.677 Lip13b                                              
    0.000 999%   0.000 Lip09                                               
  921.881  20%   0.828 MM09                                                
  181.870  51%   0.163 Lip20                                               
 1.61E+03  17%   1.446 MM20                                                
  279.065  23%   0.251 MM12                                                
  481.605  39%   0.433 MM14                                                
  423.000  26%   0.380 MM17                                                
  753.670  31%   0.677 Lip13a+Lip13b                                       
 1.51E+03  22%   1.360 MM14+Lip13a+Lip13b+MM12                             
  921.881  20%   0.828 MM09+Lip09                                          
 1.79E+03  16%   1.609 MM20+Lip20                                          
   6 lines in following misc. output table
  FWHM = 0.061 ppm    S/N =  10                                            
  Data shift = 0.008 ppm                                                   
  Ph:  -8 deg      -9.1 deg/ppm                                            
  alphaB,S = 2.9E-01,   4.5E+01                                            
   14 spline knots.   Ns = 7(1)                                            
  (11) 6 infls.   (13) 1 extrs.                                            
  498 points on ppm-axis = NY
      4.000000     3.992357     3.984714     3.977070     3.969427     3.961784     3.954141     3.946497     3.938854     3.931211
      3.923568     3.915925     3.908281     3.900638     3.892995     3.885352     3.877708     3.870065     3.862422     3.854779
      3.847136     3.839492     3.831849     3.824206     3.816563     3.808919     3.801276     3.793633     3.785990     3.778347
      3.770703     3.763060     3.755417     3.747774     3.740130     3.732487     3.724844     3.717201     3.709558     3.701914
      3.694271     3.686628     3.678985     3.671341     3.663698     3.656055     3.648412     3.640769     3.633125     3.625482
      3.617839     3.610196     3.602552     3.594909     3.587266     3.579623     3.571980     3.564336     3.556693     3.549050
      3.541407     3.533763     3.526120     3.518477     3.510834     3.503191     3.495547     3.487904     3.480261     3.472618
      3.464974     3.457331     3.449688     3.442045     3.434402     3.426758     3.419115     3.411472     3.403829     3.396185
      3.388542     3.380899     3.373256     3.365613     3.357969     3.350326     3.342683     3.335040     3.327396     3.319753
      3.312110     3.304467     3.296824     3.289180     3.281537     3.273894     3.266251     3.258607     3.250964     3.243321
      3.235678     3.228034     3.220391     3.212748     3.205105     3.197462     3.189818     3.182175     3.174532     3.166889
      3.159245     3.151602     3.143959     3.136316     3.128673     3.121029     3.113386     3.105743     3.098100     3.090456
      3.082813     3.075170     3.067527     3.059884     3.052240     3.044597     3.036954     3.029311     3.021667     3.014024
      3.006381     2.998738     2.991095     2.983451     2.975808     2.968165     2.960522     2.952878     2.945235     2.937592
      2.929949     2.922306     2.914662     2.907019     2.899376     2.891733     2.884089     2.876446     2.868803     2.861160
      2.853517     2.845873     2.838230     2.830587     2.822944     2.815300     2.807657     2.800014     2.792371     2.784728
      2.777084     2.769441     2.761798     2.754155     2.746511     2.738868     2.731225     2.723582     2.715939     2.708295
      2.700652     2.693009     2.685366     2.677722     2.670079     2.662436     2.654793     2.647150     2.639506     2.631863
      2.624220     2.616577     2.608933     2.601290     2.593647     2.586004     2.578361     2.570717     2.563074     2.555431
      2.547788     2.540144     2.532501     2.524858     2.517215     2.509572     2.501928     2.494285     2.486642     2.478999
      2.471355     2.463712     2.456069     2.448426     2.440783     2.433139     2.425496     2.417853     2.410210     2.402566
      2.394923     2.387280     2.379637     2.371994     2.364350     2.356707     2.349064     2.341421     2.333777     2.326134
      2.318491     2.310848     2.303205     2.295561     2.287918     2.280275     2.272632     2.264988     2.257345     2.249702
      2.242059     2.234416     2.226772     2.219129     2.211486     2.203843     2.196199     2.188556     2.180913     2.173270
      2.165627     2.157983     2.150340     2.142697     2.135054     2.127410     2.119767     2.112124     2.104481     2.096838
      2.089194     2.081551     2.073908     2.066265     2.058621     2.050978     2.043335     2.035692     2.028049     2.020405
      2.012762     2.005119     1.997476     1.989833     1.982190     1.974546     1.966903     1.959260     1.951617     1.943974
      1.936331     1.928688     1.921045     1.913402     1.905759     1.898115     1.890472     1.882829     1.875186     1.867543
      1.859900     1.852257     1.844614     1.836971     1.829327     1.821684     1.814041     1.806398     1.798755     1.791112
      1.783469     1.775826     1.768183     1.760540     1.752896     1.745253     1.737610     1.729967     1.722324     1.714681
      1.707038     1.699395     1.691752     1.684108     1.676465     1.668822     1.661179     1.653536     1.645893     1.638250
      1.630607     1.622964     1.615321     1.607677     1.600034     1.592391     1.584748     1.577105     1.569462     1.561819
      1.554176     1.546533     1.538890     1.531246     1.523603     1.515960     1.508317     1.500674     1.493031     1.485388
      1.477745     1.470102     1.462458     1.454815     1.447172     1.439529     1.431886     1.424243     1.416600     1.408957
      1.401314     1.393671     1.386027     1.378384     1.370741     1.363098     1.355455     1.347812     1.340169     1.332526
      1.324883     1.317240     1.309596     1.301953     1.294310     1.286667     1.279024     1.271381     1.263738     1.256095
      1.248452     1.240808     1.233165     1.225522     1.217879     1.210236     1.202593     1.194950     1.187307     1.179664
      1.172021     1.164377     1.156734     1.149091     1.141448     1.133805     1.126162     1.118519     1.110876     1.103233
      1.095590     1.087946     1.080303     1.072660     1.065017     1.057374     1.049731     1.042088     1.034445     1.026802
      1.019158     1.011515     1.003872     0.996229     0.988586     0.980943     0.973300     0.965657     0.958014     0.950371
      0.942727     0.935084     0.927441     0.919798     0.912155     0.904512     0.896869     0.889226     0.881583     0.873940
      0.866296     0.858653     0.851010     0.843367     0.835724     0.828081     0.820438     0.812795     0.805152     0.797508
      0.789865     0.782222     0.774579     0.766936     0.759293     0.751650     0.744007     0.736364     0.728721     0.721077
      0.713434     0.705791     0.698148     0.690505     0.682862     0.675219     0.667576     0.659933     0.652290     0.644646
      0.637003     0.629360     0.621717     0.614074     0.606431     0.598788     0.591145     0.583502     0.575858     0.568215
      0.560572     0.552929     0.545286     0.537643     0.530000     0.522357     0.514714     0.507071     0.499427     0.491784
      0.484141     0.476498     0.468855     0.461212     0.453569     0.445925     0.438282     0.430639     0.422996     0.415353
      0.407710     0.400067     0.392424     0.384780     0.377137     0.369494     0.361851     0.354208     0.346565     0.338922
      0.331278     0.323635     0.315992     0.308349     0.300706     0.293063     0.285420     0.277777     0.270133     0.262490
      0.254847     0.247204     0.239561     0.231918     0.224275     0.216631     0.208988     0.201345
 NY phased data points follow
   1.34946E+01  1.62554E+01  1.82842E+01  1.29605E+01  1.87199E+01  1.62682E+01  2.04298E+01  2.19744E+01  2.66839E+01  2.68009E+01
   3.08326E+01  3.26223E+01  3.26655E+01  3.14630E+01  2.88287E+01  2.58452E+01  2.26235E+01  2.22674E+01  1.86877E+01  1.71337E+01
   1.79072E+01  1.69764E+01  2.06695E+01  1.82813E+01  1.98542E+01  1.81450E+01  1.52569E+01  1.59471E+01  2.07204E+01  1.77962E+01
   2.24508E+01  2.27481E+01  2.12549E+01  2.11775E+01  2.47573E+01  1.91614E+01  2.07215E+01  1.85657E+01  2.19835E+01  1.62711E+01
   1.79579E+01  1.59802E+01  1.92467E+01  1.95602E+01  2.02512E+01  1.87211E+01  2.45190E+01  2.07886E+01  2.48883E+01  1.98341E+01
   2.40941E+01  1.97189E+01  2.07727E+01  1.99637E+01  2.00393E+01  1.77004E+01  1.86058E+01  1.66524E+01  2.07324E+01  1.69497E+01
   1.62084E+01  1.07824E+01  1.29091E+01  1.08525E+01  1.31811E+01  1.02396E+01  1.01335E+01  9.56553E+00  1.11081E+01  9.71372E+00
   9.72373E+00  1.04658E+01  1.05440E+01  1.32093E+01  1.23179E+01  1.31240E+01  1.24570E+01  1.25384E+01  1.58448E+01  1.17684E+01
   1.21744E+01  1.48846E+01  1.64212E+01  1.45014E+01  1.61323E+01  1.43412E+01  1.61772E+01  1.61690E+01  1.65540E+01  1.88418E+01
   1.58156E+01  1.58269E+01  1.92820E+01  1.81696E+01  1.73187E+01  1.63986E+01  1.50311E+01  1.60652E+01  1.62212E+01  2.18189E+01
   3.35742E+01  3.83972E+01  4.83549E+01  4.83903E+01  4.51068E+01  3.95163E+01  3.89689E+01  3.66675E+01  3.42389E+01  2.64963E+01
   2.57366E+01  2.23420E+01  1.77650E+01  1.96661E+01  2.17426E+01  1.94167E+01  1.72318E+01  2.11870E+01  2.11673E+01  1.47870E+01
   1.84060E+01  1.52691E+01  2.15019E+01  2.81005E+01  3.27156E+01  3.93733E+01  4.96412E+01  5.05375E+01  5.34084E+01  4.50515E+01
   4.44344E+01  3.89582E+01  4.06535E+01  3.44061E+01  3.08372E+01  2.51970E+01  2.57026E+01  1.80739E+01  2.05144E+01  1.66564E+01
   2.61613E+01  2.04129E+01  1.86218E+01  1.97923E+01  2.01606E+01  1.63694E+01  2.04226E+01  1.75404E+01  2.21792E+01  1.69125E+01
   2.08606E+01  1.82604E+01  1.71859E+01  1.61418E+01  2.14751E+01  1.94368E+01  2.20023E+01  2.31701E+01  2.23480E+01  1.98207E+01
   2.21788E+01  1.85876E+01  2.12227E+01  1.86943E+01  2.44668E+01  1.86802E+01  1.81506E+01  2.01885E+01  1.82429E+01  1.73785E+01
   1.57321E+01  1.94906E+01  1.67211E+01  1.68312E+01  1.87586E+01  1.86995E+01  1.75708E+01  1.74257E+01  2.13576E+01  1.76818E+01
   1.94197E+01  1.99993E+01  2.61292E+01  2.14357E+01  2.31311E+01  2.70977E+01  2.32213E+01  2.43037E+01  2.58231E+01  2.45391E+01
   3.14407E+01  2.70494E+01  3.17623E+01  2.94415E+01  3.29573E+01  3.26019E+01  3.44399E+01  3.20813E+01  3.27200E+01  3.06230E+01
   3.48986E+01  3.39569E+01  3.83443E+01  3.35854E+01  4.29968E+01  4.04220E+01  3.96068E+01  3.93575E+01  3.91810E+01  3.60293E+01
   4.19017E+01  3.93821E+01  4.52259E+01  4.76289E+01  4.83545E+01  4.93053E+01  5.06803E+01  5.19046E+01  4.87322E+01  4.84206E+01
   4.67287E+01  4.31766E+01  4.52303E+01  4.52296E+01  4.53660E+01  4.63294E+01  4.90113E+01  4.60994E+01  5.15699E+01  4.90847E+01
   5.06223E+01  5.11328E+01  5.05461E+01  5.13420E+01  5.22969E+01  4.71822E+01  5.12136E+01  5.12771E+01  5.24850E+01  4.91088E+01
   4.85998E+01  5.07271E+01  5.25881E+01  5.09453E+01  5.67260E+01  5.15878E+01  5.45168E+01  5.04489E+01  5.59459E+01  5.68548E+01
   5.58113E+01  5.97219E+01  6.04144E+01  5.95126E+01  5.86628E+01  6.38435E+01  6.78662E+01  7.89006E+01  9.43635E+01  9.83976E+01
   1.08117E+02  9.62581E+01  9.41134E+01  8.81300E+01  8.45065E+01  7.52631E+01  7.01886E+01  6.25821E+01  6.26080E+01  5.61611E+01
   5.41548E+01  5.09457E+01  4.86618E+01  4.81228E+01  4.99834E+01  4.53686E+01  4.74497E+01  4.07691E+01  4.46462E+01  4.68440E+01
   4.84512E+01  4.20838E+01  4.33621E+01  4.09976E+01  4.17999E+01  4.02549E+01  4.34100E+01  4.04585E+01  3.88256E+01  4.28387E+01
   4.09090E+01  4.27643E+01  4.09697E+01  3.82778E+01  3.79421E+01  3.91488E+01  4.05756E+01  3.57128E+01  3.67399E+01  3.74652E+01
   3.54690E+01  3.68247E+01  3.97897E+01  3.68394E+01  3.39751E+01  3.77210E+01  3.36275E+01  3.55742E+01  3.68596E+01  3.39023E+01
   3.28690E+01  3.16402E+01  3.08066E+01  3.04893E+01  2.98783E+01  2.86673E+01  2.80672E+01  2.41991E+01  2.72166E+01  2.51568E+01
   2.21554E+01  2.21228E+01  2.17491E+01  2.17359E+01  2.27005E+01  1.75887E+01  2.35951E+01  2.52793E+01  2.31534E+01  2.58229E+01
   1.92736E+01  2.27049E+01  2.04734E+01  1.95957E+01  2.07772E+01  1.86288E+01  1.76228E+01  1.37093E+01  1.79475E+01  1.38710E+01
   1.76108E+01  1.66764E+01  1.54751E+01  1.53409E+01  1.80399E+01  1.68482E+01  1.40206E+01  1.53587E+01  2.09715E+01  1.68745E+01
   2.04078E+01  1.78677E+01  1.72641E+01  1.37539E+01  1.58144E+01  1.37191E+01  1.67582E+01  1.35504E+01  1.41300E+01  1.36442E+01
   1.88057E+01  1.63560E+01  1.47003E+01  1.61360E+01  1.16669E+01  1.07189E+01  1.14693E+01  7.42041E+00  1.24481E+01  6.89232E+00
   5.56767E+00  6.46561E+00  5.98856E+00  4.77393E+00  3.57433E+00  5.98204E+00  7.11423E+00  3.56828E+00  4.91524E+00  2.40456E-01
   2.97948E+00  2.28293E+00 -6.47131E-01  1.95909E+00  2.63371E-01 -7.12129E-01  2.59269E+00  1.11288E+00  4.62428E-01 -2.04052E+00
   2.23303E+00 -1.73370E+00 -2.38893E+00 -3.32147E+00  1.54356E+00 -3.92411E+00 -2.51007E-01 -4.27007E+00 -1.74349E+00 -2.88956E+00
   1.74587E+00 -2.81003E-01  1.56799E+00 -1.00789E+00  4.89371E+00 -2.62419E-01  2.79829E+00  2.09716E+00 -4.17479E-02  2.92672E-01
   2.27587E+00  2.39561E+00  4.69107E+00  2.61537E+00  3.15258E+00 -1.48726E+00  9.23623E-01  1.73773E+00  2.08853E+00 -2.26625E+00
  -3.74110E-01 -2.25520E+00 -5.88322E-01 -2.41469E+00 -8.99666E-01 -3.97062E+00 -9.59559E-01 -8.06032E-01 -2.52173E+00 -1.22610E+00
   7.02845E-01  7.40753E-01  3.23045E-01 -3.18576E+00  8.23566E-01 -1.21251E+00 -2.34471E+00 -1.98752E+00 -1.32068E+00 -2.69317E+00
   2.39246E-01 -1.40119E+00  5.05405E+00 -3.81985E-01 -9.84380E-01 -2.45929E+00 -2.89263E+00  3.25224E-02  4.62837E-01  3.73308E-01
  -2.44319E-01 -1.85065E+00  1.35340E+00 -2.38905E+00  4.60122E-01  3.69214E-01 -3.95127E-01 -7.95665E-01 -2.26857E+00 -1.48895E+00
   2.34702E+00 -9.73071E-01 -3.74489E+00 -2.78865E-03 -1.83667E-01 -2.42691E+00  2.12663E+00 -3.90690E-01 -6.44885E-02 -9.44893E-01
  -2.62434E+00  2.55642E+00  1.15924E-01  9.22564E-01 -1.12734E+00  3.01992E-01 -5.46676E-02 -2.85658E+00  4.83496E-01  3.39661E-01
   4.09824E-01 -9.41576E-01  1.01524E+00  2.05750E+00  5.92498E+00 -9.57531E-01 -4.16687E-01  3.86200E+00  1.26757E+00 -3.31512E+00
   5.39960E-01 -1.82928E-01  9.49952E-01 -1.64332E+00  1.01172E-01 -1.95887E+00  3.69965E+00 -1.19728E+00
 NY points of the fit to the data follow
   1.60616E+01  1.58494E+01  1.58857E+01  1.61038E+01  1.65371E+01  1.76407E+01  1.96631E+01  2.26659E+01  2.62513E+01  2.94967E+01
   3.13767E+01  3.16976E+01  3.08728E+01  2.95663E+01  2.81864E+01  2.67679E+01  2.52269E+01  2.33736E+01  2.12366E+01  1.97553E+01
   1.84253E+01  1.77656E+01  1.74625E+01  1.70724E+01  1.65352E+01  1.60913E+01  1.62333E+01  1.72309E+01  1.90573E+01  2.12185E+01
   2.28839E+01  2.35033E+01  2.33194E+01  2.26885E+01  2.16628E+01  2.03652E+01  1.93311E+01  1.86001E+01  1.77691E+01  1.69958E+01
   1.66738E+01  1.65729E+01  1.68256E+01  1.74733E+01  1.84985E+01  1.95544E+01  2.03126E+01  2.04576E+01  1.99144E+01  1.92462E+01
   1.86857E+01  1.80339E+01  1.73495E+01  1.68266E+01  1.63453E+01  1.58298E+01  1.55454E+01  1.56193E+01  1.58168E+01  1.59096E+01
   1.58138E+01  1.55446E+01  1.52142E+01  1.48942E+01  1.46387E+01  1.44911E+01  1.44332E+01  1.43921E+01  1.43933E+01  1.44643E+01
   1.45716E+01  1.46873E+01  1.47302E+01  1.47039E+01  1.46563E+01  1.45917E+01  1.45127E+01  1.44158E+01  1.43388E+01  1.42783E+01
   1.42427E+01  1.43941E+01  1.48759E+01  1.56461E+01  1.64686E+01  1.70382E+01  1.71053E+01  1.66699E+01  1.61284E+01  1.58091E+01
   1.56448E+01  1.54482E+01  1.52367E+01  1.50770E+01  1.48060E+01  1.44862E+01  1.46250E+01  1.54254E+01  1.80047E+01  2.35884E+01
   3.17155E+01  4.03219E+01  4.66525E+01  4.83551E+01  4.57762E+01  4.20932E+01  3.92558E+01  3.64725E+01  3.28321E+01  2.90543E+01
   2.55281E+01  2.09506E+01  1.72596E+01  1.62517E+01  1.60287E+01  1.60010E+01  1.60486E+01  1.61376E+01  1.62675E+01  1.64709E+01
   1.68595E+01  1.77545E+01  2.01632E+01  2.53816E+01  3.32673E+01  4.20185E+01  4.89865E+01  5.16906E+01  4.99157E+01  4.65448E+01
   4.39115E+01  4.15206E+01  3.81516E+01  3.41284E+01  3.01051E+01  2.51746E+01  2.06424E+01  1.91631E+01  1.89638E+01  1.91130E+01
   1.93604E+01  1.95594E+01  1.96410E+01  1.97568E+01  1.99631E+01  2.01344E+01  2.02415E+01  2.02695E+01  2.01959E+01  2.01026E+01
   1.99543E+01  1.98422E+01  1.98064E+01  1.98435E+01  1.99569E+01  2.01314E+01  2.02651E+01  2.02358E+01  2.00580E+01  1.98636E+01
   1.98362E+01  2.00997E+01  2.05714E+01  2.10015E+01  2.12068E+01  2.11919E+01  2.11151E+01  2.11134E+01  2.12346E+01  2.14520E+01
   2.16080E+01  2.16102E+01  2.14591E+01  2.12098E+01  2.11498E+01  2.13956E+01  2.18381E+01  2.23172E+01  2.26412E+01  2.28029E+01
   2.30286E+01  2.34738E+01  2.40145E+01  2.44703E+01  2.48965E+01  2.54376E+01  2.62109E+01  2.73990E+01  2.88343E+01  3.02368E+01
   3.13582E+01  3.21173E+01  3.26027E+01  3.28950E+01  3.30934E+01  3.32645E+01  3.33854E+01  3.35675E+01  3.41111E+01  3.50505E+01
   3.62206E+01  3.74781E+01  3.87124E+01  3.96825E+01  4.01499E+01  3.99442E+01  3.92942E+01  3.83926E+01  3.74621E+01  3.68656E+01
   3.69374E+01  3.78302E+01  3.94192E+01  4.15311E+01  4.37532E+01  4.54675E+01  4.61100E+01  4.56771E+01  4.47753E+01  4.33952E+01
   4.18351E+01  4.07874E+01  4.06531E+01  4.14499E+01  4.25709E+01  4.37822E+01  4.51852E+01  4.65229E+01  4.76325E+01  4.84167E+01
   4.90809E+01  4.97169E+01  5.01333E+01  5.04058E+01  5.08305E+01  5.13581E+01  5.19231E+01  5.23309E+01  5.22989E+01  5.19246E+01
   5.15248E+01  5.12201E+01  5.11014E+01  5.13541E+01  5.19486E+01  5.24721E+01  5.27576E+01  5.29752E+01  5.32601E+01  5.35876E+01
   5.41383E+01  5.53341E+01  5.70223E+01  5.89667E+01  6.10847E+01  6.43777E+01  7.05499E+01  8.00278E+01  9.11083E+01  1.00252E+02
   1.03552E+02  1.00137E+02  9.40281E+01  8.86716E+01  8.35476E+01  7.76998E+01  7.16697E+01  6.61784E+01  5.95146E+01  5.28000E+01
   5.00203E+01  4.88855E+01  4.81408E+01  4.75624E+01  4.70811E+01  4.65451E+01  4.60052E+01  4.54915E+01  4.49898E+01  4.44855E+01
   4.40038E+01  4.35408E+01  4.30765E+01  4.26162E+01  4.21798E+01  4.17719E+01  4.13805E+01  4.10007E+01  4.06441E+01  4.03219E+01
   4.00189E+01  3.97260E+01  3.94419E+01  3.91642E+01  3.88855E+01  3.86020E+01  3.83103E+01  3.80057E+01  3.76874E+01  3.73522E+01
   3.69915E+01  3.66032E+01  3.61858E+01  3.57374E+01  3.52576E+01  3.47455E+01  3.42053E+01  3.36415E+01  3.30536E+01  3.24466E+01
   3.18275E+01  3.12011E+01  3.05734E+01  2.99500E+01  2.93357E+01  2.87336E+01  2.81469E+01  2.75774E+01  2.70271E+01  2.64963E+01
   2.59853E+01  2.54929E+01  2.50188E+01  2.45612E+01  2.41190E+01  2.36900E+01  2.32727E+01  2.28645E+01  2.24641E+01  2.20694E+01
   2.16793E+01  2.12916E+01  2.09056E+01  2.05196E+01  2.01338E+01  1.97475E+01  1.93617E+01  1.89768E+01  1.85949E+01  1.82185E+01
   1.78519E+01  1.74998E+01  1.71690E+01  1.68665E+01  1.66016E+01  1.63830E+01  1.62203E+01  1.61204E+01  1.60879E+01  1.61215E+01
   1.62145E+01  1.63516E+01  1.65105E+01  1.66608E+01  1.67685E+01  1.67976E+01  1.67160E+01  1.64985E+01  1.61313E+01  1.56125E+01
   1.49539E+01  1.41779E+01  1.33154E+01  1.24002E+01  1.14664E+01  1.05433E+01  9.65474E+00  8.81652E+00  8.03828E+00  7.32265E+00
   6.66840E+00  6.07050E+00  5.52340E+00  5.02042E+00  4.55618E+00  4.12521E+00  3.72385E+00  3.34861E+00  2.99784E+00  2.66984E+00
   2.36429E+00  2.08035E+00  1.81832E+00  1.57798E+00  1.36024E+00  1.16531E+00  9.94236E-01  8.47257E-01  7.25470E-01  6.29230E-01
   5.59715E-01  5.17109E-01  5.02121E-01  5.14308E-01  5.53725E-01  6.19224E-01  7.09934E-01  8.23460E-01  9.57454E-01  1.10804E+00
   1.27155E+00  1.44289E+00  1.61724E+00  1.78842E+00  1.95083E+00  2.09806E+00  2.22482E+00  2.32555E+00  2.39600E+00  2.43187E+00
   2.43071E+00  2.39062E+00  2.31183E+00  2.19507E+00  2.04300E+00  1.85852E+00  1.64629E+00  1.41092E+00  1.15833E+00  8.93762E-01
   6.23175E-01  3.51460E-01  8.39310E-02 -1.75378E-01 -4.22308E-01 -6.54272E-01 -8.68675E-01 -1.06438E+00 -1.24003E+00 -1.39558E+00
  -1.53072E+00 -1.64640E+00 -1.74312E+00 -1.82233E+00 -1.88478E+00 -1.93209E+00 -1.96517E+00 -1.98577E+00 -1.99483E+00 -1.99392E+00
  -1.98372E+00 -1.96563E+00 -1.94026E+00 -1.90895E+00 -1.87216E+00 -1.83097E+00 -1.78561E+00 -1.73707E+00 -1.68559E+00 -1.63214E+00
  -1.57679E+00 -1.52032E+00 -1.46272E+00 -1.40471E+00 -1.34614E+00 -1.28754E+00 -1.22861E+00 -1.16975E+00 -1.11065E+00 -1.05179E+00
  -9.92913E-01 -9.34447E-01 -8.75996E-01 -8.17922E-01 -7.59888E-01 -7.02359E-01 -6.45016E-01 -5.88219E-01 -5.31541E-01 -4.75339E-01
  -4.19283E-01 -3.63807E-01 -3.08549E-01 -2.53826E-01 -1.99206E-01 -1.45062E-01 -9.10726E-02 -3.76451E-02  1.56239E-02  6.84347E-02
   1.21202E-01  1.73538E-01  2.25765E-01  2.77509E-01  3.29203E-01  3.80551E-01  4.31942E-01  4.82973E-01  5.33982E-01  5.84630E-01
   6.35366E-01  6.85881E-01  7.36536E-01  7.86927E-01  8.37413E-01  8.87692E-01  9.38213E-01  9.88646E-01
 NY background values follow
     1.391E+01    1.391E+01    1.391E+01    1.390E+01    1.390E+01    1.389E+01    1.389E+01    1.388E+01    1.388E+01    1.387E+01
     1.386E+01    1.386E+01    1.385E+01    1.384E+01    1.383E+01    1.382E+01    1.382E+01    1.381E+01    1.380E+01    1.379E+01
     1.378E+01    1.377E+01    1.376E+01    1.374E+01    1.373E+01    1.372E+01    1.371E+01    1.370E+01    1.368E+01    1.367E+01
     1.366E+01    1.364E+01    1.363E+01    1.361E+01    1.360E+01    1.358E+01    1.357E+01    1.355E+01    1.354E+01    1.352E+01
     1.350E+01    1.349E+01    1.347E+01    1.345E+01    1.344E+01    1.342E+01    1.340E+01    1.338E+01    1.336E+01    1.334E+01
     1.333E+01    1.331E+01    1.329E+01    1.327E+01    1.325E+01    1.324E+01    1.322E+01    1.320E+01    1.318E+01    1.317E+01
     1.315E+01    1.314E+01    1.312E+01    1.311E+01    1.309E+01    1.308E+01    1.307E+01    1.306E+01    1.305E+01    1.304E+01
     1.303E+01    1.302E+01    1.302E+01    1.301E+01    1.301E+01    1.301E+01    1.301E+01    1.301E+01    1.301E+01    1.301E+01
     1.302E+01    1.302E+01    1.303E+01    1.304E+01    1.305E+01    1.307E+01    1.308E+01    1.310E+01    1.312E+01    1.314E+01
     1.317E+01    1.319E+01    1.322E+01    1.325E+01    1.328E+01    1.332E+01    1.335E+01    1.339E+01    1.343E+01    1.348E+01
     1.352E+01    1.357E+01    1.362E+01    1.367E+01    1.372E+01    1.378E+01    1.384E+01    1.390E+01    1.396E+01    1.402E+01
     1.409E+01    1.416E+01    1.423E+01    1.430E+01    1.438E+01    1.445E+01    1.453E+01    1.461E+01    1.470E+01    1.478E+01
     1.487E+01    1.496E+01    1.505E+01    1.514E+01    1.524E+01    1.534E+01    1.544E+01    1.554E+01    1.564E+01    1.575E+01
     1.586E+01    1.597E+01    1.608E+01    1.619E+01    1.631E+01    1.643E+01    1.655E+01    1.667E+01    1.680E+01    1.692E+01
     1.705E+01    1.719E+01    1.732E+01    1.746E+01    1.760E+01    1.774E+01    1.789E+01    1.804E+01    1.820E+01    1.836E+01
     1.852E+01    1.869E+01    1.886E+01    1.903E+01    1.922E+01    1.940E+01    1.959E+01    1.978E+01    1.998E+01    2.019E+01
     2.040E+01    2.062E+01    2.084E+01    2.107E+01    2.130E+01    2.154E+01    2.179E+01    2.204E+01    2.230E+01    2.257E+01
     2.284E+01    2.312E+01    2.341E+01    2.370E+01    2.400E+01    2.431E+01    2.463E+01    2.495E+01    2.529E+01    2.563E+01
     2.598E+01    2.633E+01    2.670E+01    2.708E+01    2.746E+01    2.785E+01    2.824E+01    2.864E+01    2.905E+01    2.946E+01
     2.988E+01    3.030E+01    3.072E+01    3.115E+01    3.158E+01    3.201E+01    3.245E+01    3.288E+01    3.332E+01    3.376E+01
     3.419E+01    3.463E+01    3.507E+01    3.550E+01    3.593E+01    3.636E+01    3.678E+01    3.721E+01    3.763E+01    3.804E+01
     3.845E+01    3.885E+01    3.925E+01    3.964E+01    4.003E+01    4.040E+01    4.077E+01    4.113E+01    4.149E+01    4.183E+01
     4.216E+01    4.249E+01    4.280E+01    4.310E+01    4.339E+01    4.367E+01    4.393E+01    4.419E+01    4.443E+01    4.465E+01
     4.487E+01    4.507E+01    4.526E+01    4.543E+01    4.560E+01    4.575E+01    4.589E+01    4.602E+01    4.613E+01    4.623E+01
     4.632E+01    4.640E+01    4.647E+01    4.652E+01    4.657E+01    4.660E+01    4.662E+01    4.662E+01    4.662E+01    4.661E+01
     4.658E+01    4.654E+01    4.650E+01    4.644E+01    4.637E+01    4.628E+01    4.619E+01    4.609E+01    4.597E+01    4.585E+01
     4.571E+01    4.557E+01    4.541E+01    4.524E+01    4.507E+01    4.488E+01    4.468E+01    4.448E+01    4.426E+01    4.403E+01
     4.379E+01    4.354E+01    4.329E+01    4.302E+01    4.275E+01    4.246E+01    4.217E+01    4.186E+01    4.155E+01    4.123E+01
     4.091E+01    4.057E+01    4.023E+01    3.988E+01    3.952E+01    3.915E+01    3.878E+01    3.841E+01    3.802E+01    3.763E+01
     3.723E+01    3.683E+01    3.643E+01    3.601E+01    3.559E+01    3.517E+01    3.475E+01    3.431E+01    3.388E+01    3.344E+01
     3.299E+01    3.255E+01    3.210E+01    3.164E+01    3.119E+01    3.073E+01    3.027E+01    2.980E+01    2.934E+01    2.887E+01
     2.840E+01    2.793E+01    2.746E+01    2.698E+01    2.651E+01    2.604E+01    2.556E+01    2.509E+01    2.461E+01    2.414E+01
     2.366E+01    2.319E+01    2.272E+01    2.225E+01    2.177E+01    2.130E+01    2.083E+01    2.036E+01    1.990E+01    1.943E+01
     1.896E+01    1.850E+01    1.804E+01    1.758E+01    1.712E+01    1.666E+01    1.621E+01    1.576E+01    1.531E+01    1.486E+01
     1.442E+01    1.398E+01    1.354E+01    1.310E+01    1.267E+01    1.224E+01    1.182E+01    1.139E+01    1.098E+01    1.056E+01
     1.015E+01    9.742E+00    9.339E+00    8.940E+00    8.545E+00    8.154E+00    7.768E+00    7.387E+00    7.010E+00    6.638E+00
     6.272E+00    5.910E+00    5.554E+00    5.202E+00    4.857E+00    4.516E+00    4.181E+00    3.852E+00    3.528E+00    3.210E+00
     2.897E+00    2.590E+00    2.289E+00    1.994E+00    1.705E+00    1.422E+00    1.144E+00    8.729E-01    6.078E-01    3.488E-01
     9.597E-02   -1.505E-01   -3.907E-01   -6.245E-01   -8.519E-01   -1.073E+00   -1.287E+00   -1.495E+00   -1.696E+00   -1.890E+00
    -2.078E+00   -2.259E+00   -2.433E+00   -2.600E+00   -2.760E+00   -2.913E+00   -3.059E+00   -3.198E+00   -3.329E+00   -3.454E+00
    -3.571E+00   -3.680E+00   -3.783E+00   -3.878E+00   -3.965E+00   -4.045E+00   -4.117E+00   -4.181E+00   -4.238E+00   -4.288E+00
    -4.330E+00   -4.365E+00   -4.393E+00   -4.415E+00   -4.430E+00   -4.439E+00   -4.442E+00   -4.439E+00   -4.430E+00   -4.416E+00
    -4.397E+00   -4.372E+00   -4.343E+00   -4.309E+00   -4.270E+00   -4.228E+00   -4.181E+00   -4.130E+00   -4.076E+00   -4.018E+00
    -3.957E+00   -3.893E+00   -3.825E+00   -3.756E+00   -3.683E+00   -3.609E+00   -3.532E+00   -3.453E+00   -3.373E+00   -3.291E+00
    -3.208E+00   -3.124E+00   -3.039E+00   -2.953E+00   -2.867E+00   -2.780E+00   -2.693E+00   -2.606E+00   -2.520E+00   -2.434E+00
    -2.349E+00   -2.264E+00   -2.181E+00   -2.099E+00   -2.018E+00   -1.938E+00   -1.859E+00   -1.782E+00   -1.705E+00   -1.630E+00
    -1.555E+00   -1.482E+00   -1.410E+00   -1.338E+00   -1.268E+00   -1.198E+00   -1.129E+00   -1.062E+00   -9.946E-01   -9.284E-01
    -8.630E-01   -7.984E-01   -7.344E-01   -6.712E-01   -6.086E-01   -5.467E-01   -4.854E-01   -4.247E-01   -3.645E-01   -3.049E-01
    -2.458E-01   -1.872E-01   -1.291E-01   -7.139E-02   -1.410E-02    4.281E-02    9.936E-02    1.556E-01    2.115E-01    2.671E-01
     3.225E-01    3.777E-01    4.326E-01    4.874E-01    5.420E-01    5.965E-01    6.510E-01    7.053E-01
 Asp      Conc. = 8.23E+01
