 LCModel (Version 6.3-1L) Copyright: S.W. Provencher.          Ref.: Magn. Reson. Med. 30:672-679 (1993).                
 Slice#1 Row#9 Col#2  PD_24_press_1_raw_act
 36 lines in following concentration table = NCONC+1
    Conc.  %SD /Cr+PCr  Metabolite                                         
   11.322 251%   0.165 Ala                                                 
   14.185 112%   0.207 Asp                                                 
    0.000 999%   0.000 Cr                                                  
   68.418  27%   1.000 PCr                                                 
   11.098  85%   0.162 GABA                                                
   10.920  88%   0.160 Glc                                                 
    0.000 999%   0.000 Gln                                                 
   86.320  69%   1.262 Glu                                                 
   48.346  45%   0.707 GPC                                                 
    0.933 999% 1.4E-02 PCh                                                 
   64.902  36%   0.949 GSH                                                 
  162.014  46%   2.368 Ins                                                 
   16.786 178%   0.245 Lac                                                 
  133.011  17%   1.944 NAA                                                 
    0.000 999%   0.000 NAAG                                                
    5.375  57% 7.9E-02 Scyllo                                              
   27.400  57%   0.400 Tau                                                 
   13.370 115%   0.195 -CrCH2                                              
   49.280  17%   0.720 GPC+PCh                                             
  133.011  17%   1.944 NAA+NAAG                                            
   68.418  27%   1.000 Cr+PCr                                              
   86.320  69%   1.262 Glu+Gln                                             
    0.000 999%   0.000 Lip13a                                              
    0.000 999%   0.000 Lip13b                                              
    0.000 999%   0.000 Lip09                                               
  365.517  22%   5.342 MM09                                                
 1.17E-02 999% 1.7E-04 Lip20                                               
  548.480  22%   8.017 MM20                                                
  109.656  22%   1.603 MM12                                                
  274.040  22%   4.005 MM14                                                
  137.046  22%   2.003 MM17                                                
    0.000 999%   0.000 Lip13a+Lip13b                                       
  383.696  22%   5.608 MM14+Lip13a+Lip13b+MM12                             
  365.517  22%   5.342 MM09+Lip09                                          
  548.491  22%   8.017 MM20+Lip20                                          
   6 lines in following misc. output table
  FWHM = 0.038 ppm    S/N =   2                                            
  Data shift = 0.031 ppm                                                   
  Ph: -99 deg     -45.7 deg/ppm                                            
  alphaB,S = 7.2E-01,   1.4E+01                                            
   14 spline knots.   Ns = 5(1)                                            
  ( 9) 3 infls.   ( 9) 2 extrs.                                            
  498 points on ppm-axis = NY
      4.000000     3.992357     3.984714     3.977070     3.969427     3.961784     3.954141     3.946497     3.938854     3.931211
      3.923568     3.915925     3.908281     3.900638     3.892995     3.885352     3.877708     3.870065     3.862422     3.854779
      3.847136     3.839492     3.831849     3.824206     3.816563     3.808919     3.801276     3.793633     3.785990     3.778347
      3.770703     3.763060     3.755417     3.747774     3.740130     3.732487     3.724844     3.717201     3.709558     3.701914
      3.694271     3.686628     3.678985     3.671341     3.663698     3.656055     3.648412     3.640769     3.633125     3.625482
      3.617839     3.610196     3.602552     3.594909     3.587266     3.579623     3.571980     3.564336     3.556693     3.549050
      3.541407     3.533763     3.526120     3.518477     3.510834     3.503191     3.495547     3.487904     3.480261     3.472618
      3.464974     3.457331     3.449688     3.442045     3.434402     3.426758     3.419115     3.411472     3.403829     3.396185
      3.388542     3.380899     3.373256     3.365613     3.357969     3.350326     3.342683     3.335040     3.327396     3.319753
      3.312110     3.304467     3.296824     3.289180     3.281537     3.273894     3.266251     3.258607     3.250964     3.243321
      3.235678     3.228034     3.220391     3.212748     3.205105     3.197462     3.189818     3.182175     3.174532     3.166889
      3.159245     3.151602     3.143959     3.136316     3.128673     3.121029     3.113386     3.105743     3.098100     3.090456
      3.082813     3.075170     3.067527     3.059884     3.052240     3.044597     3.036954     3.029311     3.021667     3.014024
      3.006381     2.998738     2.991095     2.983451     2.975808     2.968165     2.960522     2.952878     2.945235     2.937592
      2.929949     2.922306     2.914662     2.907019     2.899376     2.891733     2.884089     2.876446     2.868803     2.861160
      2.853517     2.845873     2.838230     2.830587     2.822944     2.815300     2.807657     2.800014     2.792371     2.784728
      2.777084     2.769441     2.761798     2.754155     2.746511     2.738868     2.731225     2.723582     2.715939     2.708295
      2.700652     2.693009     2.685366     2.677722     2.670079     2.662436     2.654793     2.647150     2.639506     2.631863
      2.624220     2.616577     2.608933     2.601290     2.593647     2.586004     2.578361     2.570717     2.563074     2.555431
      2.547788     2.540144     2.532501     2.524858     2.517215     2.509572     2.501928     2.494285     2.486642     2.478999
      2.471355     2.463712     2.456069     2.448426     2.440783     2.433139     2.425496     2.417853     2.410210     2.402566
      2.394923     2.387280     2.379637     2.371994     2.364350     2.356707     2.349064     2.341421     2.333777     2.326134
      2.318491     2.310848     2.303205     2.295561     2.287918     2.280275     2.272632     2.264988     2.257345     2.249702
      2.242059     2.234416     2.226772     2.219129     2.211486     2.203843     2.196199     2.188556     2.180913     2.173270
      2.165627     2.157983     2.150340     2.142697     2.135054     2.127410     2.119767     2.112124     2.104481     2.096838
      2.089194     2.081551     2.073908     2.066265     2.058621     2.050978     2.043335     2.035692     2.028049     2.020405
      2.012762     2.005119     1.997476     1.989833     1.982190     1.974546     1.966903     1.959260     1.951617     1.943974
      1.936331     1.928688     1.921045     1.913402     1.905759     1.898115     1.890472     1.882829     1.875186     1.867543
      1.859900     1.852257     1.844614     1.836971     1.829327     1.821684     1.814041     1.806398     1.798755     1.791112
      1.783469     1.775826     1.768183     1.760540     1.752896     1.745253     1.737610     1.729967     1.722324     1.714681
      1.707038     1.699395     1.691752     1.684108     1.676465     1.668822     1.661179     1.653536     1.645893     1.638250
      1.630607     1.622964     1.615321     1.607677     1.600034     1.592391     1.584748     1.577105     1.569462     1.561819
      1.554176     1.546533     1.538890     1.531246     1.523603     1.515960     1.508317     1.500674     1.493031     1.485388
      1.477745     1.470102     1.462458     1.454815     1.447172     1.439529     1.431886     1.424243     1.416600     1.408957
      1.401314     1.393671     1.386027     1.378384     1.370741     1.363098     1.355455     1.347812     1.340169     1.332526
      1.324883     1.317240     1.309596     1.301953     1.294310     1.286667     1.279024     1.271381     1.263738     1.256095
      1.248452     1.240808     1.233165     1.225522     1.217879     1.210236     1.202593     1.194950     1.187307     1.179664
      1.172021     1.164377     1.156734     1.149091     1.141448     1.133805     1.126162     1.118519     1.110876     1.103233
      1.095590     1.087946     1.080303     1.072660     1.065017     1.057374     1.049731     1.042088     1.034445     1.026802
      1.019158     1.011515     1.003872     0.996229     0.988586     0.980943     0.973300     0.965657     0.958014     0.950371
      0.942727     0.935084     0.927441     0.919798     0.912155     0.904512     0.896869     0.889226     0.881583     0.873940
      0.866296     0.858653     0.851010     0.843367     0.835724     0.828081     0.820438     0.812795     0.805152     0.797508
      0.789865     0.782222     0.774579     0.766936     0.759293     0.751650     0.744007     0.736364     0.728721     0.721077
      0.713434     0.705791     0.698148     0.690505     0.682862     0.675219     0.667576     0.659933     0.652290     0.644646
      0.637003     0.629360     0.621717     0.614074     0.606431     0.598788     0.591145     0.583502     0.575858     0.568215
      0.560572     0.552929     0.545286     0.537643     0.530000     0.522357     0.514714     0.507071     0.499427     0.491784
      0.484141     0.476498     0.468855     0.461212     0.453569     0.445925     0.438282     0.430639     0.422996     0.415353
      0.407710     0.400067     0.392424     0.384780     0.377137     0.369494     0.361851     0.354208     0.346565     0.338922
      0.331278     0.323635     0.315992     0.308349     0.300706     0.293063     0.285420     0.277777     0.270133     0.262490
      0.254847     0.247204     0.239561     0.231918     0.224275     0.216631     0.208988     0.201345
 NY phased data points follow
  -6.38951E+01 -6.39749E+01 -6.09177E+01 -6.36399E+01 -6.13428E+01 -5.84623E+01 -6.03155E+01 -5.83743E+01 -5.44090E+01 -5.21967E+01
  -5.46889E+01 -5.09908E+01 -5.27935E+01 -4.93440E+01 -5.06759E+01 -5.51617E+01 -5.34346E+01 -5.27513E+01 -4.93109E+01 -5.06297E+01
  -4.93518E+01 -4.87680E+01 -4.52898E+01 -4.61515E+01 -4.63106E+01 -4.93177E+01 -4.38259E+01 -4.53325E+01 -4.28292E+01 -4.56756E+01
  -3.94868E+01 -3.95342E+01 -4.37801E+01 -4.43518E+01 -4.01983E+01 -4.14665E+01 -4.01589E+01 -3.95175E+01 -4.12952E+01 -3.91657E+01
  -3.98774E+01 -3.93548E+01 -3.99352E+01 -3.96323E+01 -4.04470E+01 -3.51831E+01 -3.35876E+01 -3.68352E+01 -3.29354E+01 -3.55079E+01
  -3.50382E+01 -3.30298E+01 -3.84085E+01 -3.47069E+01 -3.37000E+01 -3.52939E+01 -3.72756E+01 -3.17561E+01 -3.19408E+01 -3.19906E+01
  -3.38316E+01 -3.47870E+01 -3.02209E+01 -3.10349E+01 -2.94516E+01 -2.72499E+01 -2.96618E+01 -2.87667E+01 -3.08030E+01 -2.80706E+01
  -2.79497E+01 -2.84028E+01 -2.86379E+01 -2.70222E+01 -2.44757E+01 -2.46654E+01 -2.40136E+01 -2.46268E+01 -2.54783E+01 -2.69217E+01
  -2.31177E+01 -2.76492E+01 -2.52261E+01 -2.19192E+01 -2.46008E+01 -2.07307E+01 -2.21431E+01 -2.09480E+01 -2.04797E+01 -2.15475E+01
  -2.26036E+01 -2.08595E+01 -1.71904E+01 -1.73628E+01 -1.74208E+01 -1.75728E+01 -1.75889E+01 -1.87499E+01 -2.22627E+01 -2.06528E+01
  -1.85183E+01 -1.55043E+01 -1.14401E+01 -9.27210E+00 -1.07721E+01 -1.18045E+01 -1.40023E+01 -1.41204E+01 -1.30872E+01 -1.55690E+01
  -1.60284E+01 -1.28595E+01 -1.31694E+01 -1.30745E+01 -1.55439E+01 -1.47876E+01 -1.42462E+01 -1.08212E+01 -8.42993E+00 -1.37647E+01
  -7.90068E+00 -1.26257E+01 -1.39078E+01 -1.54358E+01 -1.37646E+01 -1.32889E+01 -7.61277E+00 -7.74353E+00 -1.05499E+01 -6.44860E+00
  -8.24325E+00 -8.01651E+00 -8.69951E+00 -1.11290E+01 -7.67871E+00 -8.74552E+00 -1.12226E+01 -9.82940E+00 -9.28436E+00 -9.64461E+00
  -9.25811E+00 -9.72830E+00 -8.03880E+00 -8.39878E+00 -7.88492E+00 -7.91925E+00 -1.05195E+01 -7.02672E+00 -8.63336E+00 -6.92634E+00
  -6.60993E+00 -8.21359E+00 -7.12075E+00 -6.05175E+00 -1.02869E+01 -6.53170E+00 -5.96544E+00 -4.01266E+00 -6.33753E+00 -7.93632E+00
  -4.87857E+00 -5.37232E+00 -7.49194E+00 -6.44974E+00 -7.30298E+00 -4.86019E+00 -4.12944E+00 -6.71107E+00 -9.39111E+00 -2.57581E+00
  -8.94438E+00 -4.84589E+00 -4.59216E+00 -5.37197E+00 -5.19247E+00 -3.74141E+00 -4.34209E+00 -5.06060E+00 -4.58334E+00 -3.59068E+00
  -6.45929E+00 -4.24600E+00 -4.41385E+00 -5.80438E+00 -1.29631E+00 -5.97735E+00 -7.67263E+00 -5.43485E+00 -2.65160E+00 -4.80076E+00
  -3.44324E+00 -2.11896E+00 -2.93522E+00 -1.46139E+00 -1.92106E+00 -1.44216E-03  1.49665E+00 -4.91980E-01 -1.73541E+00  1.53307E+00
  -2.11337E-01  1.00098E+00  1.94089E+00  1.81599E+00 -4.16886E-01  2.10778E+00  3.10479E+00  7.55885E-01  2.38495E+00  3.37034E+00
   2.80640E+00  4.56629E+00 -2.12866E-01  2.67493E+00  4.10410E-01  2.90708E+00  3.66392E+00  3.50863E+00  5.00572E+00  8.95757E-01
   1.45232E+00  1.87123E+00  2.64175E+00 -8.51260E-02  4.34582E+00  5.05244E+00  4.08889E-01  2.67635E+00  6.63283E+00  2.31931E+00
   4.26489E+00  4.80788E+00  4.34880E+00  1.47220E+00  2.65128E+00  4.83914E+00  4.55934E+00  5.98552E+00  4.80628E+00  4.73547E+00
   5.16764E+00  3.76110E+00  6.22224E+00  6.10180E+00  5.92367E+00  6.76727E+00  7.61860E+00  9.44205E+00  6.12124E+00  1.19286E+01
   6.94061E+00  5.92344E+00  9.66117E+00  9.77715E+00  1.08819E+01  1.22793E+01  7.21551E+00  1.16989E+00  5.10130E+00  8.38223E+00
   1.47456E+01  1.51877E+01  1.25986E+01  1.44227E+01  1.11865E+01  8.99128E+00  8.32084E+00  8.46418E+00  8.67438E+00  6.34991E+00
   1.05160E+01  6.50378E+00  7.50020E+00  1.03529E+01  4.63110E+00  7.56416E+00  6.53084E+00  9.77936E+00  9.62829E+00  5.72447E+00
   7.54851E+00  1.06784E+01  6.89043E+00  1.00225E+01  7.68156E+00  8.56197E+00  6.20917E+00  7.38878E+00  3.36162E+00  6.13086E+00
   8.58276E+00  9.89965E+00  6.17133E+00  1.04534E+01  1.00428E+01  1.13961E+01  6.67961E+00  8.16960E+00  8.57242E+00  9.66502E+00
   7.58175E+00  8.63899E+00  8.07018E+00  1.00639E+01  8.97867E+00  9.17944E+00  1.03759E+01  1.06000E+01  7.94475E+00  9.17390E+00
   7.24124E+00  8.42778E+00  8.77944E+00  7.96743E+00  7.62288E+00  1.00534E+01  7.04581E+00  1.05479E+01  8.60543E+00  1.14251E+01
   9.40068E+00  9.58011E+00  1.00973E+01  1.24414E+01  8.63607E+00  7.90828E+00  9.55078E+00  6.39792E+00  1.26276E+01  1.16208E+01
   1.06572E+01  9.46951E+00  6.24610E+00  1.12657E+01  1.07717E+01  1.05515E+01  9.25688E+00  9.82828E+00  1.23114E+01  1.17139E+01
   7.58934E+00  1.36230E+01  1.22275E+01  1.15268E+01  1.04895E+01  1.11553E+01  9.57880E+00  1.03762E+01  9.78836E+00  9.03197E+00
   8.54939E+00  9.98318E+00  9.64119E+00  8.63722E+00  6.56509E+00  1.14742E+01  1.01764E+01  8.53119E+00  1.03025E+01  8.24148E+00
   8.51003E+00  7.70471E+00  8.91034E+00  1.11211E+01  1.36168E+01  1.31492E+01  1.22418E+01  1.21398E+01  1.03822E+01  8.75587E+00
   1.14886E+01  8.56308E+00  1.04733E+01  9.76096E+00  1.03219E+01  1.26002E+01  1.03226E+01  9.88381E+00  1.31478E+01  1.29069E+01
   9.50766E+00  9.34167E+00  1.24207E+01  9.39173E+00  1.02048E+01  1.02888E+01  1.14467E+01  1.30506E+01  1.39045E+01  1.29273E+01
   1.27938E+01  9.82604E+00  1.05804E+01  1.25329E+01  1.12071E+01  9.04747E+00  1.19621E+01  1.01887E+01  8.92281E+00  1.32521E+01
   1.14854E+01  1.17410E+01  1.22173E+01  1.26986E+01  1.14890E+01  1.06665E+01  1.05910E+01  1.15707E+01  9.61603E+00  1.25851E+01
   1.30794E+01  9.60032E+00  9.87323E+00  1.23321E+01  8.61773E+00  9.38815E+00  8.42003E+00  9.71922E+00  1.20155E+01  1.23045E+01
   8.14976E+00  7.78210E+00  9.85874E+00  9.97790E+00  9.20764E+00  9.06647E+00  9.99902E+00  9.42457E+00  8.17040E+00  9.96285E+00
   1.36762E+01  9.44909E+00  7.91735E+00  1.04409E+01  1.17736E+01  9.64708E+00  8.19201E+00  6.84390E+00  9.42767E+00  1.05390E+01
   1.28087E+01  1.14290E+01  1.09515E+01  9.31512E+00  1.13367E+01  1.07256E+01  1.12104E+01  1.08317E+01  1.04637E+01  1.13431E+01
   6.20679E+00  8.46081E+00  6.99782E+00  9.03815E+00  1.02648E+01  8.52784E+00  1.01125E+01  6.08101E+00  1.15566E+01  9.92988E+00
   8.32077E+00  7.72967E+00  7.47007E+00  8.76447E+00  7.36187E+00  7.04239E+00  6.12023E+00  5.13299E+00  9.41324E+00  8.07394E+00
   1.14256E+01  1.10225E+01  8.20472E+00  7.80862E+00  9.31229E+00  8.04887E+00  8.92753E+00  5.50363E+00  9.67961E+00  6.63710E+00
   9.57055E+00  1.04912E+01  7.31440E+00  6.32588E+00  7.31077E+00  5.85228E+00  7.26391E+00  8.21648E+00  8.03117E+00  8.55485E+00
   9.60817E+00  4.35556E+00  1.02512E+01  6.54252E+00  9.30910E+00  1.01394E+01  9.57527E+00  7.88296E+00
 NY points of the fit to the data follow
  -5.81559E+01 -5.78432E+01 -5.74847E+01 -5.70806E+01 -5.67458E+01 -5.64383E+01 -5.58293E+01 -5.47356E+01 -5.33865E+01 -5.22290E+01
  -5.15573E+01 -5.13187E+01 -5.12857E+01 -5.12615E+01 -5.11694E+01 -5.10082E+01 -5.07154E+01 -5.03540E+01 -5.00013E+01 -4.95967E+01
  -4.91325E+01 -4.86753E+01 -4.82726E+01 -4.78929E+01 -4.75641E+01 -4.74562E+01 -4.73744E+01 -4.67725E+01 -4.54662E+01 -4.38692E+01
  -4.25972E+01 -4.19104E+01 -4.16489E+01 -4.16000E+01 -4.16137E+01 -4.16370E+01 -4.15741E+01 -4.13219E+01 -4.10773E+01 -4.08716E+01
  -4.05900E+01 -4.02575E+01 -4.00063E+01 -3.97749E+01 -3.92109E+01 -3.81212E+01 -3.67673E+01 -3.56306E+01 -3.50238E+01 -3.48886E+01
  -3.49889E+01 -3.51577E+01 -3.52825E+01 -3.52611E+01 -3.50619E+01 -3.47401E+01 -3.43284E+01 -3.37858E+01 -3.30915E+01 -3.23406E+01
  -3.16942E+01 -3.12562E+01 -3.10272E+01 -3.09077E+01 -3.07956E+01 -3.06061E+01 -3.02914E+01 -2.99014E+01 -2.94644E+01 -2.89772E+01
  -2.84693E+01 -2.79983E+01 -2.75872E+01 -2.71897E+01 -2.67672E+01 -2.63538E+01 -2.59986E+01 -2.57463E+01 -2.55567E+01 -2.53535E+01
  -2.51054E+01 -2.48248E+01 -2.44872E+01 -2.40350E+01 -2.35134E+01 -2.30635E+01 -2.28021E+01 -2.27178E+01 -2.26715E+01 -2.25197E+01
  -2.22250E+01 -2.18502E+01 -2.14479E+01 -2.10225E+01 -2.06231E+01 -2.02991E+01 -2.00840E+01 -2.02573E+01 -2.09686E+01 -2.11069E+01
  -1.92971E+01 -1.57495E+01 -1.21575E+01 -1.01994E+01 -1.01848E+01 -1.12690E+01 -1.26318E+01 -1.39489E+01 -1.51736E+01 -1.59486E+01
  -1.60001E+01 -1.58095E+01 -1.55688E+01 -1.53144E+01 -1.50567E+01 -1.47851E+01 -1.45093E+01 -1.42513E+01 -1.40198E+01 -1.38092E+01
  -1.36181E+01 -1.35085E+01 -1.36569E+01 -1.37935E+01 -1.31851E+01 -1.15827E+01 -9.59703E+00 -8.16700E+00 -7.74710E+00 -8.04868E+00
  -8.51974E+00 -8.84688E+00 -9.09785E+00 -9.38932E+00 -9.61596E+00 -9.87366E+00 -1.01620E+01 -1.03298E+01 -1.02580E+01 -9.93357E+00
  -9.44095E+00 -8.92538E+00 -8.52880E+00 -8.26845E+00 -8.10686E+00 -8.01251E+00 -7.93658E+00 -7.85430E+00 -7.75173E+00 -7.62595E+00
  -7.49839E+00 -7.37798E+00 -7.26701E+00 -7.15244E+00 -7.01829E+00 -6.85284E+00 -6.64961E+00 -6.43306E+00 -6.25659E+00 -6.15633E+00
  -6.11839E+00 -6.07416E+00 -5.94522E+00 -5.71981E+00 -5.45921E+00 -5.23116E+00 -5.05782E+00 -4.91972E+00 -4.80276E+00 -4.69312E+00
  -4.57106E+00 -4.42432E+00 -4.25242E+00 -4.11697E+00 -4.06172E+00 -4.03492E+00 -3.94423E+00 -3.75260E+00 -3.53045E+00 -3.36573E+00
  -3.25230E+00 -3.12639E+00 -2.95481E+00 -2.78783E+00 -2.71272E+00 -2.72366E+00 -2.72711E+00 -2.59924E+00 -2.27425E+00 -1.79442E+00
  -1.28156E+00 -8.64657E-01 -6.05794E-01 -4.81194E-01 -4.94831E-01 -6.46145E-01 -8.33375E-01 -9.18725E-01 -8.24740E-01 -6.03779E-01
  -3.51537E-01 -8.52447E-02  2.22296E-01  5.59366E-01  8.45591E-01  1.02731E+00  1.14521E+00  1.22259E+00  1.26733E+00  1.26906E+00
   1.21390E+00  1.11837E+00  1.08920E+00  1.30230E+00  1.77916E+00  2.34679E+00  2.79259E+00  3.02226E+00  3.07178E+00  2.92906E+00
   2.57262E+00  2.15105E+00  1.92281E+00  2.05732E+00  2.46626E+00  2.97088E+00  3.48001E+00  3.93889E+00  4.23395E+00  4.26959E+00
   4.11615E+00  3.97640E+00  3.99059E+00  4.17658E+00  4.55737E+00  5.11303E+00  5.69640E+00  6.09174E+00  6.17112E+00  5.99848E+00
   5.72072E+00  5.44892E+00  5.30645E+00  5.40460E+00  5.77071E+00  6.30197E+00  6.82382E+00  7.22202E+00  7.44859E+00  7.50687E+00
   7.43741E+00  7.33007E+00  7.27808E+00  7.30817E+00  7.33018E+00  7.01679E+00  6.16640E+00  5.81237E+00  7.28416E+00  1.03887E+01
   1.35129E+01  1.50612E+01  1.47662E+01  1.34327E+01  1.18292E+01  1.02731E+01  8.82026E+00  7.79757E+00  7.46738E+00  7.35038E+00
   7.27175E+00  7.23350E+00  7.23808E+00  7.27635E+00  7.33979E+00  7.41063E+00  7.47335E+00  7.51770E+00  7.54142E+00  7.54743E+00
   7.54590E+00  7.54780E+00  7.55893E+00  7.58460E+00  7.62776E+00  7.68444E+00  7.74922E+00  7.81857E+00  7.88962E+00  7.96240E+00
   8.03655E+00  8.11088E+00  8.18566E+00  8.26175E+00  8.33892E+00  8.41650E+00  8.49423E+00  8.57165E+00  8.64723E+00  8.71961E+00
   8.78831E+00  8.85258E+00  8.91196E+00  8.96592E+00  9.01397E+00  9.05604E+00  9.09259E+00  9.12435E+00  9.15214E+00  9.17680E+00
   9.19933E+00  9.22079E+00  9.24231E+00  9.26500E+00  9.28989E+00  9.31786E+00  9.34967E+00  9.38591E+00  9.42697E+00  9.47285E+00
   9.52281E+00  9.57413E+00  9.62392E+00  9.69780E+00  9.83232E+00  1.00061E+01  1.01459E+01  1.01963E+01  1.01673E+01  1.01143E+01
   1.00603E+01  9.99137E+00  9.93344E+00  9.95385E+00  1.00891E+01  1.02824E+01  1.04476E+01  1.05487E+01  1.05922E+01  1.05973E+01
   1.05738E+01  1.05205E+01  1.04525E+01  1.04228E+01  1.04854E+01  1.06179E+01  1.07122E+01  1.06764E+01  1.05153E+01  1.03076E+01
   1.00891E+01  9.86543E+00  9.70131E+00  9.68648E+00  9.84693E+00  1.00808E+01  1.02626E+01  1.03600E+01  1.03932E+01  1.03896E+01
   1.03587E+01  1.03053E+01  1.02652E+01  1.02487E+01  1.02422E+01  1.02399E+01  1.02397E+01  1.02407E+01  1.02424E+01  1.02447E+01
   1.02478E+01  1.02518E+01  1.02573E+01  1.02648E+01  1.02750E+01  1.02885E+01  1.03060E+01  1.03281E+01  1.03557E+01  1.03895E+01
   1.04301E+01  1.04780E+01  1.05338E+01  1.05978E+01  1.06703E+01  1.07512E+01  1.08403E+01  1.09371E+01  1.10407E+01  1.11499E+01
   1.12634E+01  1.13793E+01  1.14953E+01  1.16091E+01  1.17179E+01  1.18190E+01  1.19097E+01  1.19872E+01  1.20490E+01  1.20929E+01
   1.21172E+01  1.21208E+01  1.21032E+01  1.20643E+01  1.20049E+01  1.19262E+01  1.18301E+01  1.17189E+01  1.15952E+01  1.14618E+01
   1.13216E+01  1.11775E+01  1.10320E+01  1.08878E+01  1.07468E+01  1.06110E+01  1.04816E+01  1.03597E+01  1.02460E+01  1.01408E+01
   1.00442E+01  9.95609E+00  9.87599E+00  9.80348E+00  9.73801E+00  9.67895E+00  9.62565E+00  9.57748E+00  9.53382E+00  9.49414E+00
   9.45791E+00  9.42465E+00  9.39394E+00  9.36539E+00  9.33870E+00  9.31361E+00  9.28985E+00  9.26723E+00  9.24554E+00  9.22464E+00
   9.20442E+00  9.18477E+00  9.16558E+00  9.14675E+00  9.12823E+00  9.10995E+00  9.09187E+00  9.07394E+00  9.05612E+00  9.03837E+00
   9.02064E+00  9.00294E+00  8.98523E+00  8.96750E+00  8.94972E+00  8.93188E+00  8.91399E+00  8.89604E+00  8.87804E+00  8.85996E+00
   8.84181E+00  8.82356E+00  8.80525E+00  8.78687E+00  8.76843E+00  8.74991E+00  8.73131E+00  8.71264E+00  8.69392E+00  8.67514E+00
   8.65631E+00  8.63742E+00  8.61848E+00  8.59949E+00  8.58048E+00  8.56144E+00  8.54237E+00  8.52327E+00  8.50416E+00  8.48503E+00
   8.46592E+00  8.44681E+00  8.42770E+00  8.40861E+00  8.38953E+00  8.37049E+00  8.35150E+00  8.33255E+00  8.31364E+00  8.29479E+00
   8.27600E+00  8.25730E+00  8.23868E+00  8.22014E+00  8.20169E+00  8.18335E+00  8.16513E+00  8.14703E+00
 NY background values follow
    -5.862E+01   -5.817E+01   -5.772E+01   -5.727E+01   -5.681E+01   -5.636E+01   -5.591E+01   -5.546E+01   -5.501E+01   -5.456E+01
    -5.411E+01   -5.366E+01   -5.321E+01   -5.276E+01   -5.231E+01   -5.186E+01   -5.142E+01   -5.097E+01   -5.052E+01   -5.008E+01
    -4.963E+01   -4.919E+01   -4.874E+01   -4.830E+01   -4.786E+01   -4.742E+01   -4.697E+01   -4.653E+01   -4.610E+01   -4.566E+01
    -4.522E+01   -4.479E+01   -4.435E+01   -4.392E+01   -4.349E+01   -4.305E+01   -4.263E+01   -4.220E+01   -4.177E+01   -4.134E+01
    -4.092E+01   -4.050E+01   -4.008E+01   -3.966E+01   -3.924E+01   -3.882E+01   -3.841E+01   -3.799E+01   -3.758E+01   -3.717E+01
    -3.677E+01   -3.636E+01   -3.596E+01   -3.555E+01   -3.515E+01   -3.476E+01   -3.436E+01   -3.396E+01   -3.357E+01   -3.318E+01
    -3.279E+01   -3.241E+01   -3.202E+01   -3.164E+01   -3.126E+01   -3.088E+01   -3.051E+01   -3.013E+01   -2.976E+01   -2.939E+01
    -2.902E+01   -2.866E+01   -2.830E+01   -2.794E+01   -2.758E+01   -2.723E+01   -2.687E+01   -2.652E+01   -2.617E+01   -2.583E+01
    -2.549E+01   -2.515E+01   -2.481E+01   -2.447E+01   -2.414E+01   -2.381E+01   -2.349E+01   -2.316E+01   -2.284E+01   -2.252E+01
    -2.221E+01   -2.189E+01   -2.158E+01   -2.128E+01   -2.097E+01   -2.067E+01   -2.037E+01   -2.008E+01   -1.978E+01   -1.949E+01
    -1.920E+01   -1.892E+01   -1.863E+01   -1.835E+01   -1.808E+01   -1.780E+01   -1.753E+01   -1.726E+01   -1.699E+01   -1.673E+01
    -1.646E+01   -1.620E+01   -1.595E+01   -1.569E+01   -1.544E+01   -1.519E+01   -1.494E+01   -1.470E+01   -1.445E+01   -1.421E+01
    -1.398E+01   -1.374E+01   -1.351E+01   -1.327E+01   -1.305E+01   -1.282E+01   -1.259E+01   -1.237E+01   -1.215E+01   -1.193E+01
    -1.172E+01   -1.150E+01   -1.129E+01   -1.108E+01   -1.088E+01   -1.067E+01   -1.047E+01   -1.027E+01   -1.007E+01   -9.869E+00
    -9.674E+00   -9.480E+00   -9.288E+00   -9.099E+00   -8.911E+00   -8.725E+00   -8.540E+00   -8.358E+00   -8.177E+00   -7.997E+00
    -7.820E+00   -7.644E+00   -7.469E+00   -7.296E+00   -7.125E+00   -6.955E+00   -6.787E+00   -6.620E+00   -6.454E+00   -6.290E+00
    -6.127E+00   -5.965E+00   -5.805E+00   -5.646E+00   -5.488E+00   -5.331E+00   -5.176E+00   -5.022E+00   -4.868E+00   -4.716E+00
    -4.565E+00   -4.415E+00   -4.266E+00   -4.117E+00   -3.970E+00   -3.824E+00   -3.678E+00   -3.533E+00   -3.389E+00   -3.246E+00
    -3.104E+00   -2.962E+00   -2.821E+00   -2.681E+00   -2.541E+00   -2.402E+00   -2.264E+00   -2.126E+00   -1.990E+00   -1.853E+00
    -1.718E+00   -1.584E+00   -1.450E+00   -1.317E+00   -1.184E+00   -1.053E+00   -9.220E-01   -7.920E-01   -6.628E-01   -5.344E-01
    -4.068E-01   -2.799E-01   -1.539E-01   -2.872E-02    9.567E-02    2.192E-01    3.420E-01    4.639E-01    5.849E-01    7.051E-01
     8.245E-01    9.429E-01    1.061E+00    1.177E+00    1.293E+00    1.408E+00    1.522E+00    1.635E+00    1.748E+00    1.859E+00
     1.970E+00    2.079E+00    2.188E+00    2.296E+00    2.402E+00    2.508E+00    2.613E+00    2.717E+00    2.820E+00    2.922E+00
     3.023E+00    3.123E+00    3.222E+00    3.320E+00    3.418E+00    3.514E+00    3.609E+00    3.704E+00    3.797E+00    3.890E+00
     3.981E+00    4.072E+00    4.162E+00    4.251E+00    4.339E+00    4.425E+00    4.511E+00    4.596E+00    4.681E+00    4.764E+00
     4.846E+00    4.927E+00    5.008E+00    5.087E+00    5.166E+00    5.243E+00    5.320E+00    5.396E+00    5.471E+00    5.544E+00
     5.617E+00    5.690E+00    5.761E+00    5.831E+00    5.900E+00    5.969E+00    6.036E+00    6.103E+00    6.168E+00    6.233E+00
     6.297E+00    6.360E+00    6.422E+00    6.483E+00    6.543E+00    6.603E+00    6.661E+00    6.719E+00    6.775E+00    6.831E+00
     6.886E+00    6.941E+00    6.994E+00    7.047E+00    7.099E+00    7.150E+00    7.200E+00    7.249E+00    7.298E+00    7.346E+00
     7.393E+00    7.440E+00    7.485E+00    7.530E+00    7.575E+00    7.618E+00    7.661E+00    7.704E+00    7.745E+00    7.786E+00
     7.826E+00    7.866E+00    7.905E+00    7.943E+00    7.981E+00    8.018E+00    8.055E+00    8.091E+00    8.126E+00    8.161E+00
     8.195E+00    8.229E+00    8.262E+00    8.295E+00    8.327E+00    8.359E+00    8.390E+00    8.420E+00    8.450E+00    8.480E+00
     8.509E+00    8.538E+00    8.566E+00    8.594E+00    8.621E+00    8.647E+00    8.674E+00    8.699E+00    8.725E+00    8.750E+00
     8.774E+00    8.798E+00    8.821E+00    8.844E+00    8.867E+00    8.889E+00    8.911E+00    8.932E+00    8.953E+00    8.973E+00
     8.993E+00    9.012E+00    9.031E+00    9.050E+00    9.068E+00    9.086E+00    9.103E+00    9.120E+00    9.136E+00    9.152E+00
     9.168E+00    9.183E+00    9.198E+00    9.213E+00    9.227E+00    9.240E+00    9.253E+00    9.266E+00    9.279E+00    9.291E+00
     9.302E+00    9.313E+00    9.324E+00    9.335E+00    9.345E+00    9.355E+00    9.364E+00    9.373E+00    9.382E+00    9.390E+00
     9.398E+00    9.405E+00    9.412E+00    9.419E+00    9.426E+00    9.432E+00    9.437E+00    9.443E+00    9.448E+00    9.453E+00
     9.457E+00    9.461E+00    9.465E+00    9.468E+00    9.471E+00    9.474E+00    9.476E+00    9.478E+00    9.480E+00    9.482E+00
     9.483E+00    9.484E+00    9.484E+00    9.484E+00    9.484E+00    9.484E+00    9.483E+00    9.482E+00    9.481E+00    9.479E+00
     9.478E+00    9.476E+00    9.473E+00    9.470E+00    9.468E+00    9.464E+00    9.461E+00    9.457E+00    9.453E+00    9.449E+00
     9.444E+00    9.439E+00    9.434E+00    9.429E+00    9.423E+00    9.418E+00    9.411E+00    9.405E+00    9.398E+00    9.392E+00
     9.384E+00    9.377E+00    9.369E+00    9.361E+00    9.353E+00    9.345E+00    9.336E+00    9.327E+00    9.318E+00    9.308E+00
     9.299E+00    9.289E+00    9.279E+00    9.268E+00    9.257E+00    9.246E+00    9.235E+00    9.224E+00    9.212E+00    9.200E+00
     9.188E+00    9.175E+00    9.163E+00    9.150E+00    9.136E+00    9.123E+00    9.109E+00    9.095E+00    9.081E+00    9.067E+00
     9.052E+00    9.037E+00    9.022E+00    9.007E+00    8.991E+00    8.975E+00    8.959E+00    8.943E+00    8.926E+00    8.910E+00
     8.893E+00    8.876E+00    8.859E+00    8.841E+00    8.824E+00    8.806E+00    8.788E+00    8.771E+00    8.753E+00    8.734E+00
     8.716E+00    8.698E+00    8.679E+00    8.661E+00    8.642E+00    8.623E+00    8.605E+00    8.586E+00    8.567E+00    8.548E+00
     8.529E+00    8.510E+00    8.491E+00    8.472E+00    8.453E+00    8.434E+00    8.415E+00    8.396E+00    8.377E+00    8.359E+00
     8.340E+00    8.321E+00    8.302E+00    8.284E+00    8.265E+00    8.246E+00    8.228E+00    8.210E+00
 Ala      Conc. = 1.13E+01
