 LCModel (Version 6.3-1L) Copyright: S.W. Provencher.          Ref.: Magn. Reson. Med. 30:672-679 (1993).                
 Slice#2 Row#9 Col#12  PD_24_press_1_raw_act
 36 lines in following concentration table = NCONC+1
    Conc.  %SD /Cr+PCr  Metabolite                                         
  250.472  37%   0.773 Ala                                                 
  185.148  61%   0.572 Asp                                                 
    0.000 999%   0.000 Cr                                                  
  323.876  11%   1.000 PCr                                                 
   14.001 525% 4.3E-02 GABA                                                
   87.806  77%   0.271 Glc                                                 
  479.687  41%   1.481 Gln                                                 
  922.791  25%   2.849 Glu                                                 
    0.000 999%   0.000 GPC                                                 
   94.077  14%   0.290 PCh                                                 
    0.000 999%   0.000 GSH                                                 
  375.568  45%   1.160 Ins                                                 
    0.000 999%   0.000 Lac                                                 
 1.67E+03   6%   5.156 NAA                                                 
   55.888 199%   0.173 NAAG                                                
   64.621  24%   0.200 Scyllo                                              
  268.382  40%   0.829 Tau                                                 
  155.642  37%   0.481 -CrCH2                                              
   94.077  14%   0.290 GPC+PCh                                             
 1.73E+03   4%   5.328 NAA+NAAG                                            
  323.876  11%   1.000 Cr+PCr                                              
 1.40E+03  25%   4.330 Glu+Gln                                             
 1.91E+04   9%  58.902 Lip13a                                              
  372.603  24%   1.150 Lip13b                                              
 2.82E+03  18%   8.702 Lip09                                               
    0.000 999%   0.000 MM09                                                
 1.39E+03  33%   4.285 Lip20                                               
 1.04E+03  37%   3.207 MM20                                                
    0.000 999%   0.000 MM12                                                
  792.619  63%   2.447 MM14                                                
 1.81E+03  20%   5.591 MM17                                                
 1.94E+04   9%  60.052 Lip13a+Lip13b                                       
 2.02E+04   8%  62.500 MM14+Lip13a+Lip13b+MM12                             
 2.82E+03  18%   8.702 MM09+Lip09                                          
 2.43E+03  15%   7.492 MM20+Lip20                                          
   6 lines in following misc. output table
  FWHM = 0.069 ppm    S/N =  14                                            
  Data shift =-0.008 ppm                                                   
  Ph:-130 deg     -55.5 deg/ppm                                            
  alphaB,S = 8.2E-01,   3.5E+02                                            
   14 spline knots.   Ns = 9(1)                                            
  (12) 2 infls.   (11) 1 extrs.                                            
  498 points on ppm-axis = NY
      4.000000     3.992357     3.984714     3.977070     3.969427     3.961784     3.954141     3.946497     3.938854     3.931211
      3.923568     3.915925     3.908281     3.900638     3.892995     3.885352     3.877708     3.870065     3.862422     3.854779
      3.847136     3.839492     3.831849     3.824206     3.816563     3.808919     3.801276     3.793633     3.785990     3.778347
      3.770703     3.763060     3.755417     3.747774     3.740130     3.732487     3.724844     3.717201     3.709558     3.701914
      3.694271     3.686628     3.678985     3.671341     3.663698     3.656055     3.648412     3.640769     3.633125     3.625482
      3.617839     3.610196     3.602552     3.594909     3.587266     3.579623     3.571980     3.564336     3.556693     3.549050
      3.541407     3.533763     3.526120     3.518477     3.510834     3.503191     3.495547     3.487904     3.480261     3.472618
      3.464974     3.457331     3.449688     3.442045     3.434402     3.426758     3.419115     3.411472     3.403829     3.396185
      3.388542     3.380899     3.373256     3.365613     3.357969     3.350326     3.342683     3.335040     3.327396     3.319753
      3.312110     3.304467     3.296824     3.289180     3.281537     3.273894     3.266251     3.258607     3.250964     3.243321
      3.235678     3.228034     3.220391     3.212748     3.205105     3.197462     3.189818     3.182175     3.174532     3.166889
      3.159245     3.151602     3.143959     3.136316     3.128673     3.121029     3.113386     3.105743     3.098100     3.090456
      3.082813     3.075170     3.067527     3.059884     3.052240     3.044597     3.036954     3.029311     3.021667     3.014024
      3.006381     2.998738     2.991095     2.983451     2.975808     2.968165     2.960522     2.952878     2.945235     2.937592
      2.929949     2.922306     2.914662     2.907019     2.899376     2.891733     2.884089     2.876446     2.868803     2.861160
      2.853517     2.845873     2.838230     2.830587     2.822944     2.815300     2.807657     2.800014     2.792371     2.784728
      2.777084     2.769441     2.761798     2.754155     2.746511     2.738868     2.731225     2.723582     2.715939     2.708295
      2.700652     2.693009     2.685366     2.677722     2.670079     2.662436     2.654793     2.647150     2.639506     2.631863
      2.624220     2.616577     2.608933     2.601290     2.593647     2.586004     2.578361     2.570717     2.563074     2.555431
      2.547788     2.540144     2.532501     2.524858     2.517215     2.509572     2.501928     2.494285     2.486642     2.478999
      2.471355     2.463712     2.456069     2.448426     2.440783     2.433139     2.425496     2.417853     2.410210     2.402566
      2.394923     2.387280     2.379637     2.371994     2.364350     2.356707     2.349064     2.341421     2.333777     2.326134
      2.318491     2.310848     2.303205     2.295561     2.287918     2.280275     2.272632     2.264988     2.257345     2.249702
      2.242059     2.234416     2.226772     2.219129     2.211486     2.203843     2.196199     2.188556     2.180913     2.173270
      2.165627     2.157983     2.150340     2.142697     2.135054     2.127410     2.119767     2.112124     2.104481     2.096838
      2.089194     2.081551     2.073908     2.066265     2.058621     2.050978     2.043335     2.035692     2.028049     2.020405
      2.012762     2.005119     1.997476     1.989833     1.982190     1.974546     1.966903     1.959260     1.951617     1.943974
      1.936331     1.928688     1.921045     1.913402     1.905759     1.898115     1.890472     1.882829     1.875186     1.867543
      1.859900     1.852257     1.844614     1.836971     1.829327     1.821684     1.814041     1.806398     1.798755     1.791112
      1.783469     1.775826     1.768183     1.760540     1.752896     1.745253     1.737610     1.729967     1.722324     1.714681
      1.707038     1.699395     1.691752     1.684108     1.676465     1.668822     1.661179     1.653536     1.645893     1.638250
      1.630607     1.622964     1.615321     1.607677     1.600034     1.592391     1.584748     1.577105     1.569462     1.561819
      1.554176     1.546533     1.538890     1.531246     1.523603     1.515960     1.508317     1.500674     1.493031     1.485388
      1.477745     1.470102     1.462458     1.454815     1.447172     1.439529     1.431886     1.424243     1.416600     1.408957
      1.401314     1.393671     1.386027     1.378384     1.370741     1.363098     1.355455     1.347812     1.340169     1.332526
      1.324883     1.317240     1.309596     1.301953     1.294310     1.286667     1.279024     1.271381     1.263738     1.256095
      1.248452     1.240808     1.233165     1.225522     1.217879     1.210236     1.202593     1.194950     1.187307     1.179664
      1.172021     1.164377     1.156734     1.149091     1.141448     1.133805     1.126162     1.118519     1.110876     1.103233
      1.095590     1.087946     1.080303     1.072660     1.065017     1.057374     1.049731     1.042088     1.034445     1.026802
      1.019158     1.011515     1.003872     0.996229     0.988586     0.980943     0.973300     0.965657     0.958014     0.950371
      0.942727     0.935084     0.927441     0.919798     0.912155     0.904512     0.896869     0.889226     0.881583     0.873940
      0.866296     0.858653     0.851010     0.843367     0.835724     0.828081     0.820438     0.812795     0.805152     0.797508
      0.789865     0.782222     0.774579     0.766936     0.759293     0.751650     0.744007     0.736364     0.728721     0.721077
      0.713434     0.705791     0.698148     0.690505     0.682862     0.675219     0.667576     0.659933     0.652290     0.644646
      0.637003     0.629360     0.621717     0.614074     0.606431     0.598788     0.591145     0.583502     0.575858     0.568215
      0.560572     0.552929     0.545286     0.537643     0.530000     0.522357     0.514714     0.507071     0.499427     0.491784
      0.484141     0.476498     0.468855     0.461212     0.453569     0.445925     0.438282     0.430639     0.422996     0.415353
      0.407710     0.400067     0.392424     0.384780     0.377137     0.369494     0.361851     0.354208     0.346565     0.338922
      0.331278     0.323635     0.315992     0.308349     0.300706     0.293063     0.285420     0.277777     0.270133     0.262490
      0.254847     0.247204     0.239561     0.231918     0.224275     0.216631     0.208988     0.201345
 NY phased data points follow
   1.05344E+01  1.41176E+01  1.11207E+01  1.22362E+01  1.00340E+01  1.04469E+01  1.14644E+01  1.17285E+01  1.23254E+01  1.06537E+01
   1.07825E+01  1.10154E+01  1.01172E+01  8.93530E+00  1.02081E+01  9.14266E+00  8.76893E+00  1.17133E+01  8.83723E+00  9.91700E+00
   9.90495E+00  9.85858E+00  1.13122E+01  1.11328E+01  7.96717E+00  1.13874E+01  8.05075E+00  1.01872E+01  9.37832E+00  9.71892E+00
   9.44673E+00  1.26282E+01  1.23820E+01  1.20843E+01  7.62672E+00  7.93595E+00  1.21397E+01  1.05451E+01  1.04420E+01  1.00262E+01
   1.06101E+01  9.63815E+00  9.94237E+00  1.24903E+01  1.06698E+01  1.07952E+01  1.32193E+01  1.07611E+01  1.22480E+01  9.46478E+00
   1.03042E+01  9.09151E+00  8.75647E+00  1.37186E+01  1.07289E+01  1.19587E+01  1.07123E+01  1.15532E+01  1.01493E+01  1.00612E+01
   9.56751E+00  1.02343E+01  1.16041E+01  1.05315E+01  1.08165E+01  1.33038E+01  9.74527E+00  1.20068E+01  1.15086E+01  1.08508E+01
   8.87359E+00  1.25150E+01  1.10225E+01  1.17067E+01  1.42835E+01  1.23663E+01  1.24664E+01  9.75175E+00  1.26360E+01  1.00545E+01
   1.35646E+01  1.33507E+01  1.40472E+01  1.05167E+01  1.13170E+01  1.32264E+01  1.18936E+01  1.33576E+01  1.39749E+01  1.28596E+01
   1.35172E+01  1.21309E+01  1.43374E+01  1.27093E+01  1.38882E+01  1.53083E+01  1.30287E+01  1.20452E+01  1.42741E+01  1.52583E+01
   1.38463E+01  1.50258E+01  1.81739E+01  1.78271E+01  2.12019E+01  1.81977E+01  1.17585E+01  1.24359E+01  1.44784E+01  1.27583E+01
   1.20219E+01  1.08016E+01  9.21367E+00  1.27224E+01  1.05589E+01  1.37688E+01  1.23698E+01  1.17657E+01  1.04856E+01  1.32424E+01
   1.18101E+01  1.43800E+01  1.68450E+01  1.62136E+01  1.80415E+01  1.87960E+01  1.91210E+01  2.07759E+01  2.20951E+01  1.56445E+01
   1.68187E+01  1.34765E+01  1.03923E+01  1.32028E+01  1.17800E+01  1.16304E+01  1.25106E+01  1.27293E+01  1.25285E+01  1.25610E+01
   1.17983E+01  1.22991E+01  1.22824E+01  1.18750E+01  1.12115E+01  1.09485E+01  1.07203E+01  1.07430E+01  1.34379E+01  1.24723E+01
   1.19553E+01  1.18137E+01  1.32199E+01  1.42248E+01  1.11812E+01  1.21643E+01  1.14261E+01  1.12194E+01  1.11481E+01  1.12448E+01
   1.40701E+01  1.04424E+01  1.16325E+01  1.42615E+01  1.00867E+01  7.02657E+00  1.19125E+01  1.05962E+01  1.05466E+01  8.73753E+00
   1.01985E+01  8.95586E+00  9.96782E+00  7.51237E+00  9.82559E+00  1.09430E+01  7.63620E+00  7.88881E+00  7.52994E+00  9.15588E+00
   1.29684E+01  8.39377E+00  1.03770E+01  1.01113E+01  1.04170E+01  1.21898E+01  1.24576E+01  1.32891E+01  9.50032E+00  1.13463E+01
   9.80985E+00  9.87582E+00  1.16015E+01  1.20649E+01  1.38125E+01  1.24936E+01  1.25885E+01  1.34702E+01  1.22229E+01  1.07410E+01
   1.24047E+01  1.50835E+01  1.41174E+01  1.48554E+01  1.39188E+01  1.64628E+01  1.31985E+01  1.51390E+01  1.76628E+01  1.61224E+01
   1.76456E+01  1.75325E+01  1.79712E+01  2.21091E+01  2.03019E+01  2.20348E+01  1.87355E+01  2.01906E+01  2.04897E+01  1.79231E+01
   2.00226E+01  1.57983E+01  1.58329E+01  1.88558E+01  1.78329E+01  1.91122E+01  2.10258E+01  2.26888E+01  2.05467E+01  2.02607E+01
   2.38641E+01  2.02936E+01  2.45478E+01  1.94565E+01  2.23505E+01  2.13115E+01  2.42592E+01  2.44865E+01  2.19608E+01  2.16963E+01
   2.27121E+01  2.20902E+01  2.44010E+01  2.40714E+01  2.34553E+01  2.64364E+01  2.39874E+01  2.54804E+01  2.83080E+01  2.85149E+01
   2.92541E+01  3.09116E+01  3.33761E+01  4.09567E+01  4.41286E+01  4.87585E+01  5.47612E+01  6.21785E+01  6.79336E+01  6.84841E+01
   7.22247E+01  6.99186E+01  6.72860E+01  6.10235E+01  5.38857E+01  4.67491E+01  4.18905E+01  3.61210E+01  3.57203E+01  3.18848E+01
   3.06670E+01  2.88707E+01  2.87885E+01  2.76173E+01  2.93886E+01  2.50193E+01  2.77236E+01  2.47507E+01  2.47577E+01  2.67499E+01
   2.65269E+01  2.43776E+01  2.78857E+01  2.54620E+01  2.62344E+01  2.67721E+01  2.92928E+01  2.89121E+01  2.87447E+01  3.12217E+01
   2.90302E+01  2.89229E+01  3.15834E+01  2.98105E+01  3.22878E+01  2.91344E+01  2.88864E+01  3.09179E+01  3.01391E+01  3.45132E+01
   3.45246E+01  3.44061E+01  3.72309E+01  3.77762E+01  3.84496E+01  3.75314E+01  4.04727E+01  4.11991E+01  4.15678E+01  3.99894E+01
   4.25403E+01  4.40982E+01  4.43435E+01  4.54226E+01  4.46275E+01  4.40732E+01  4.66529E+01  4.59666E+01  4.45128E+01  4.77749E+01
   4.86761E+01  4.72961E+01  4.79564E+01  4.73671E+01  4.78320E+01  4.67494E+01  4.61995E+01  4.53973E+01  4.86112E+01  4.75596E+01
   4.48429E+01  4.85680E+01  4.84374E+01  5.19327E+01  5.18936E+01  5.40759E+01  5.27160E+01  5.44249E+01  5.40433E+01  5.41323E+01
   5.83225E+01  5.56117E+01  5.88699E+01  5.87001E+01  6.07029E+01  6.01853E+01  6.16814E+01  6.48667E+01  6.45403E+01  6.71808E+01
   6.63401E+01  6.68741E+01  6.41992E+01  6.35457E+01  6.47669E+01  6.04245E+01  6.17665E+01  6.32722E+01  6.32576E+01  6.10357E+01
   5.89940E+01  5.62056E+01  5.67607E+01  5.60431E+01  5.60047E+01  5.58460E+01  5.75293E+01  5.48271E+01  5.69130E+01  5.12883E+01
   5.19646E+01  5.18836E+01  5.05518E+01  5.34478E+01  4.93669E+01  4.77569E+01  4.74557E+01  4.72691E+01  4.62453E+01  4.78234E+01
   4.62376E+01  4.38288E+01  4.26113E+01  4.46207E+01  4.28263E+01  4.12925E+01  4.17847E+01  4.30923E+01  4.18781E+01  4.05149E+01
   3.92398E+01  4.15344E+01  4.09763E+01  3.87651E+01  4.24947E+01  3.96795E+01  3.92691E+01  3.88233E+01  4.00821E+01  4.09983E+01
   3.82929E+01  3.92084E+01  3.62102E+01  3.75280E+01  3.54663E+01  3.70279E+01  3.69905E+01  3.60438E+01  3.66774E+01  3.73784E+01
   3.50251E+01  3.55016E+01  3.58402E+01  3.68452E+01  3.66972E+01  3.49045E+01  3.49520E+01  3.19251E+01  3.22797E+01  3.13208E+01
   3.15124E+01  3.21168E+01  2.95838E+01  2.94317E+01  2.72262E+01  2.81701E+01  2.46053E+01  2.68413E+01  2.76379E+01  2.36340E+01
   2.76149E+01  2.60010E+01  2.63578E+01  2.80374E+01  2.44243E+01  2.38045E+01  2.51015E+01  2.50842E+01  2.10642E+01  2.25634E+01
   2.25194E+01  2.05290E+01  2.10417E+01  1.98570E+01  2.15566E+01  2.13196E+01  1.93581E+01  2.19352E+01  1.89805E+01  1.99643E+01
   1.95387E+01  1.96887E+01  1.75940E+01  2.40771E+01  1.84827E+01  1.92450E+01  1.79782E+01  1.65778E+01  1.81154E+01  1.70733E+01
   1.70990E+01  1.58288E+01  1.90681E+01  1.57727E+01  1.63301E+01  1.60231E+01  1.65660E+01  1.58935E+01  1.68779E+01  1.80159E+01
   1.54625E+01  1.56090E+01  1.40667E+01  1.67151E+01  1.72746E+01  1.62892E+01  1.74880E+01  1.40771E+01  1.60292E+01  1.67430E+01
   1.55362E+01  1.68438E+01  1.27580E+01  1.53045E+01  1.54340E+01  1.42011E+01  1.42607E+01  1.18864E+01  1.43151E+01  1.47103E+01
   1.41662E+01  1.41394E+01  1.42894E+01  1.45962E+01  1.57001E+01  1.51146E+01  1.52896E+01  1.32072E+01
 NY points of the fit to the data follow
   1.01224E+01  1.02970E+01  1.05290E+01  1.08207E+01  1.11563E+01  1.14741E+01  1.17196E+01  1.18623E+01  1.18726E+01  1.17265E+01
   1.14355E+01  1.10462E+01  1.06326E+01  1.02648E+01  9.98339E+00  9.80932E+00  9.74340E+00  9.75365E+00  9.83210E+00  9.96547E+00
   1.00884E+01  1.01199E+01  1.00703E+01  9.97532E+00  9.86988E+00  9.79561E+00  9.79553E+00  9.88758E+00  1.00764E+01  1.03539E+01
   1.06807E+01  1.09944E+01  1.12284E+01  1.13168E+01  1.12270E+01  1.09877E+01  1.06682E+01  1.03516E+01  1.01442E+01  1.00975E+01
   1.02041E+01  1.04111E+01  1.06710E+01  1.09581E+01  1.12451E+01  1.14967E+01  1.16685E+01  1.17190E+01  1.16336E+01  1.14219E+01
   1.11252E+01  1.08211E+01  1.05769E+01  1.04246E+01  1.03625E+01  1.03687E+01  1.04136E+01  1.04833E+01  1.05833E+01  1.06992E+01
   1.08060E+01  1.08741E+01  1.08931E+01  1.08852E+01  1.08731E+01  1.08666E+01  1.08921E+01  1.09773E+01  1.11056E+01  1.12464E+01
   1.13860E+01  1.15126E+01  1.16109E+01  1.16731E+01  1.16874E+01  1.16436E+01  1.15485E+01  1.14591E+01  1.14638E+01  1.15654E+01
   1.17488E+01  1.19999E+01  1.23041E+01  1.26298E+01  1.29068E+01  1.30653E+01  1.30809E+01  1.29528E+01  1.26796E+01  1.23011E+01
   1.18954E+01  1.15164E+01  1.12064E+01  1.10392E+01  1.11670E+01  1.16159E+01  1.22968E+01  1.31588E+01  1.41556E+01  1.51757E+01
   1.60959E+01  1.68070E+01  1.72311E+01  1.73198E+01  1.70482E+01  1.64408E+01  1.55938E+01  1.46490E+01  1.37378E+01  1.29474E+01
   1.22996E+01  1.17518E+01  1.12781E+01  1.09130E+01  1.07218E+01  1.06560E+01  1.06791E+01  1.09388E+01  1.15493E+01  1.24280E+01
   1.34784E+01  1.46464E+01  1.58723E+01  1.70485E+01  1.80382E+01  1.87165E+01  1.89907E+01  1.88132E+01  1.82057E+01  1.72758E+01
   1.61975E+01  1.51444E+01  1.42303E+01  1.34846E+01  1.28742E+01  1.23613E+01  1.19624E+01  1.17593E+01  1.17255E+01  1.17428E+01
   1.17784E+01  1.18268E+01  1.18864E+01  1.19543E+01  1.20267E+01  1.20979E+01  1.21622E+01  1.22163E+01  1.22609E+01  1.23006E+01
   1.23418E+01  1.23803E+01  1.23874E+01  1.23389E+01  1.22436E+01  1.21214E+01  1.20022E+01  1.18971E+01  1.17968E+01  1.17060E+01
   1.16391E+01  1.16048E+01  1.16012E+01  1.16156E+01  1.16237E+01  1.15930E+01  1.14950E+01  1.13071E+01  1.10317E+01  1.07329E+01
   1.04644E+01  1.02341E+01  1.00100E+01  9.78403E+00  9.59721E+00  9.48575E+00  9.46895E+00  9.52237E+00  9.60067E+00  9.69076E+00
   9.81461E+00  9.98149E+00  1.01959E+01  1.04653E+01  1.07882E+01  1.11546E+01  1.15435E+01  1.19239E+01  1.23037E+01  1.26967E+01
   1.30700E+01  1.33926E+01  1.36591E+01  1.38913E+01  1.41291E+01  1.44305E+01  1.48206E+01  1.52653E+01  1.57040E+01  1.60918E+01
   1.63848E+01  1.65045E+01  1.64440E+01  1.62041E+01  1.57625E+01  1.51616E+01  1.45335E+01  1.40759E+01  1.39273E+01  1.40993E+01
   1.45785E+01  1.53279E+01  1.62334E+01  1.70860E+01  1.76903E+01  1.79900E+01  1.80020E+01  1.77480E+01  1.73011E+01  1.67973E+01
   1.63993E+01  1.62516E+01  1.64577E+01  1.69972E+01  1.77747E+01  1.86826E+01  1.95985E+01  2.04243E+01  2.10915E+01  2.15761E+01
   2.19312E+01  2.22252E+01  2.24970E+01  2.27292E+01  2.29113E+01  2.30966E+01  2.33206E+01  2.35582E+01  2.37747E+01  2.39546E+01
   2.41002E+01  2.42263E+01  2.43558E+01  2.45303E+01  2.48060E+01  2.52042E+01  2.57094E+01  2.63243E+01  2.70516E+01  2.78723E+01
   2.88862E+01  3.07174E+01  3.41813E+01  3.89382E+01  4.44093E+01  5.02790E+01  5.62783E+01  6.19242E+01  6.65792E+01  6.96484E+01
   7.06848E+01  6.94290E+01  6.59273E+01  6.06444E+01  5.44298E+01  4.82168E+01  4.26903E+01  3.81338E+01  3.44453E+01  3.13746E+01
   2.88857E+01  2.73038E+01  2.67114E+01  2.64883E+01  2.63722E+01  2.63079E+01  2.62673E+01  2.62350E+01  2.62171E+01  2.62185E+01
   2.62440E+01  2.62976E+01  2.63812E+01  2.64944E+01  2.66402E+01  2.68222E+01  2.70405E+01  2.72942E+01  2.75840E+01  2.79124E+01
   2.82816E+01  2.86933E+01  2.91487E+01  2.96508E+01  3.02016E+01  3.08022E+01  3.14527E+01  3.21524E+01  3.28990E+01  3.36884E+01
   3.45150E+01  3.53713E+01  3.62482E+01  3.71356E+01  3.80220E+01  3.88952E+01  3.97434E+01  4.05550E+01  4.13201E+01  4.20301E+01
   4.26788E+01  4.32628E+01  4.37819E+01  4.42396E+01  4.46432E+01  4.50052E+01  4.53453E+01  4.56993E+01  4.61062E+01  4.65176E+01
   4.68769E+01  4.71666E+01  4.73781E+01  4.74892E+01  4.74687E+01  4.73073E+01  4.70921E+01  4.69250E+01  4.68662E+01  4.69770E+01
   4.73277E+01  4.79631E+01  4.88685E+01  4.99743E+01  5.11843E+01  5.24022E+01  5.35561E+01  5.46095E+01  5.55473E+01  5.63484E+01
   5.70574E+01  5.77468E+01  5.84675E+01  5.92377E+01  6.00521E+01  6.09093E+01  6.18311E+01  6.27821E+01  6.36832E+01  6.44610E+01
   6.50499E+01  6.53988E+01  6.54783E+01  6.52852E+01  6.48430E+01  6.41967E+01  6.34040E+01  6.25254E+01  6.16149E+01  6.07135E+01
   5.98465E+01  5.90240E+01  5.82444E+01  5.74984E+01  5.67735E+01  5.60573E+01  5.53398E+01  5.46142E+01  5.38772E+01  5.31282E+01
   5.23692E+01  5.16031E+01  5.08342E+01  5.00669E+01  4.93059E+01  4.85557E+01  4.78205E+01  4.71042E+01  4.64105E+01  4.57426E+01
   4.51034E+01  4.44951E+01  4.39199E+01  4.33793E+01  4.28745E+01  4.24062E+01  4.19747E+01  4.15799E+01  4.12212E+01  4.08975E+01
   4.06074E+01  4.03488E+01  4.01194E+01  3.99162E+01  3.97359E+01  3.95747E+01  3.94286E+01  3.92932E+01  3.91636E+01  3.90352E+01
   3.89030E+01  3.87621E+01  3.86077E+01  3.84355E+01  3.82413E+01  3.80214E+01  3.77728E+01  3.74931E+01  3.71805E+01  3.68343E+01
   3.64542E+01  3.60408E+01  3.55955E+01  3.51202E+01  3.46177E+01  3.40909E+01  3.35435E+01  3.29792E+01  3.24019E+01  3.18157E+01
   3.12246E+01  3.06322E+01  3.00424E+01  2.94582E+01  2.88827E+01  2.83185E+01  2.77678E+01  2.72324E+01  2.67137E+01  2.62128E+01
   2.57304E+01  2.52669E+01  2.48225E+01  2.43970E+01  2.39903E+01  2.36018E+01  2.32311E+01  2.28774E+01  2.25400E+01  2.22181E+01
   2.19111E+01  2.16179E+01  2.13379E+01  2.10703E+01  2.08143E+01  2.05692E+01  2.03343E+01  2.01088E+01  1.98923E+01  1.96841E+01
   1.94837E+01  1.92906E+01  1.91042E+01  1.89242E+01  1.87501E+01  1.85815E+01  1.84182E+01  1.82597E+01  1.81059E+01  1.79563E+01
   1.78108E+01  1.76690E+01  1.75309E+01  1.73961E+01  1.72645E+01  1.71359E+01  1.70101E+01  1.68871E+01  1.67666E+01  1.66485E+01
   1.65327E+01  1.64191E+01  1.63076E+01  1.61980E+01  1.60904E+01  1.59845E+01  1.58804E+01  1.57780E+01  1.56771E+01  1.55778E+01
   1.54799E+01  1.53834E+01  1.52883E+01  1.51945E+01  1.51020E+01  1.50107E+01  1.49206E+01  1.48316E+01  1.47438E+01  1.46570E+01
   1.45714E+01  1.44868E+01  1.44032E+01  1.43206E+01  1.42391E+01  1.41585E+01  1.40790E+01  1.40004E+01
 NY background values follow
     9.100E+00    9.103E+00    9.106E+00    9.109E+00    9.112E+00    9.116E+00    9.119E+00    9.123E+00    9.126E+00    9.130E+00
     9.134E+00    9.137E+00    9.141E+00    9.145E+00    9.149E+00    9.153E+00    9.157E+00    9.161E+00    9.165E+00    9.169E+00
     9.174E+00    9.178E+00    9.182E+00    9.187E+00    9.191E+00    9.196E+00    9.200E+00    9.205E+00    9.209E+00    9.214E+00
     9.219E+00    9.224E+00    9.228E+00    9.233E+00    9.238E+00    9.243E+00    9.248E+00    9.253E+00    9.258E+00    9.263E+00
     9.268E+00    9.274E+00    9.279E+00    9.284E+00    9.289E+00    9.295E+00    9.300E+00    9.305E+00    9.311E+00    9.316E+00
     9.321E+00    9.327E+00    9.332E+00    9.337E+00    9.343E+00    9.348E+00    9.353E+00    9.358E+00    9.363E+00    9.369E+00
     9.373E+00    9.378E+00    9.383E+00    9.388E+00    9.392E+00    9.397E+00    9.401E+00    9.405E+00    9.409E+00    9.413E+00
     9.417E+00    9.421E+00    9.424E+00    9.427E+00    9.430E+00    9.433E+00    9.436E+00    9.438E+00    9.441E+00    9.443E+00
     9.444E+00    9.446E+00    9.447E+00    9.448E+00    9.449E+00    9.450E+00    9.450E+00    9.450E+00    9.449E+00    9.449E+00
     9.448E+00    9.446E+00    9.445E+00    9.443E+00    9.441E+00    9.438E+00    9.436E+00    9.433E+00    9.430E+00    9.427E+00
     9.423E+00    9.420E+00    9.416E+00    9.413E+00    9.409E+00    9.405E+00    9.402E+00    9.398E+00    9.394E+00    9.391E+00
     9.387E+00    9.384E+00    9.380E+00    9.377E+00    9.374E+00    9.371E+00    9.369E+00    9.366E+00    9.364E+00    9.362E+00
     9.360E+00    9.359E+00    9.358E+00    9.357E+00    9.357E+00    9.357E+00    9.357E+00    9.358E+00    9.359E+00    9.361E+00
     9.363E+00    9.366E+00    9.370E+00    9.373E+00    9.378E+00    9.383E+00    9.389E+00    9.395E+00    9.402E+00    9.410E+00
     9.418E+00    9.427E+00    9.437E+00    9.447E+00    9.458E+00    9.471E+00    9.483E+00    9.497E+00    9.511E+00    9.527E+00
     9.543E+00    9.560E+00    9.578E+00    9.596E+00    9.616E+00    9.637E+00    9.658E+00    9.681E+00    9.704E+00    9.729E+00
     9.754E+00    9.781E+00    9.808E+00    9.837E+00    9.867E+00    9.898E+00    9.930E+00    9.963E+00    9.997E+00    1.003E+01
     1.007E+01    1.011E+01    1.015E+01    1.019E+01    1.023E+01    1.027E+01    1.031E+01    1.036E+01    1.041E+01    1.045E+01
     1.050E+01    1.055E+01    1.061E+01    1.066E+01    1.071E+01    1.077E+01    1.083E+01    1.089E+01    1.094E+01    1.101E+01
     1.107E+01    1.113E+01    1.119E+01    1.126E+01    1.132E+01    1.139E+01    1.146E+01    1.153E+01    1.160E+01    1.167E+01
     1.174E+01    1.181E+01    1.188E+01    1.196E+01    1.203E+01    1.210E+01    1.218E+01    1.225E+01    1.233E+01    1.241E+01
     1.248E+01    1.256E+01    1.264E+01    1.272E+01    1.279E+01    1.287E+01    1.295E+01    1.303E+01    1.311E+01    1.319E+01
     1.327E+01    1.335E+01    1.343E+01    1.351E+01    1.359E+01    1.367E+01    1.375E+01    1.383E+01    1.391E+01    1.399E+01
     1.407E+01    1.414E+01    1.422E+01    1.430E+01    1.438E+01    1.446E+01    1.454E+01    1.461E+01    1.469E+01    1.477E+01
     1.485E+01    1.492E+01    1.500E+01    1.507E+01    1.515E+01    1.522E+01    1.530E+01    1.537E+01    1.545E+01    1.552E+01
     1.559E+01    1.567E+01    1.574E+01    1.581E+01    1.588E+01    1.595E+01    1.602E+01    1.609E+01    1.616E+01    1.623E+01
     1.630E+01    1.636E+01    1.643E+01    1.650E+01    1.656E+01    1.663E+01    1.669E+01    1.675E+01    1.682E+01    1.688E+01
     1.694E+01    1.700E+01    1.706E+01    1.712E+01    1.718E+01    1.723E+01    1.729E+01    1.734E+01    1.740E+01    1.745E+01
     1.751E+01    1.756E+01    1.761E+01    1.766E+01    1.771E+01    1.776E+01    1.781E+01    1.786E+01    1.791E+01    1.795E+01
     1.800E+01    1.804E+01    1.808E+01    1.813E+01    1.817E+01    1.821E+01    1.825E+01    1.829E+01    1.833E+01    1.837E+01
     1.840E+01    1.844E+01    1.848E+01    1.851E+01    1.854E+01    1.858E+01    1.861E+01    1.864E+01    1.867E+01    1.870E+01
     1.873E+01    1.876E+01    1.878E+01    1.881E+01    1.883E+01    1.886E+01    1.888E+01    1.890E+01    1.893E+01    1.895E+01
     1.897E+01    1.899E+01    1.900E+01    1.902E+01    1.904E+01    1.905E+01    1.907E+01    1.908E+01    1.910E+01    1.911E+01
     1.912E+01    1.913E+01    1.914E+01    1.915E+01    1.916E+01    1.916E+01    1.917E+01    1.918E+01    1.918E+01    1.919E+01
     1.919E+01    1.919E+01    1.920E+01    1.920E+01    1.920E+01    1.920E+01    1.920E+01    1.920E+01    1.920E+01    1.919E+01
     1.919E+01    1.919E+01    1.918E+01    1.918E+01    1.917E+01    1.916E+01    1.916E+01    1.915E+01    1.914E+01    1.913E+01
     1.912E+01    1.911E+01    1.910E+01    1.909E+01    1.907E+01    1.906E+01    1.905E+01    1.903E+01    1.902E+01    1.900E+01
     1.899E+01    1.897E+01    1.895E+01    1.893E+01    1.892E+01    1.890E+01    1.888E+01    1.886E+01    1.884E+01    1.882E+01
     1.879E+01    1.877E+01    1.875E+01    1.872E+01    1.870E+01    1.868E+01    1.865E+01    1.862E+01    1.860E+01    1.857E+01
     1.854E+01    1.851E+01    1.849E+01    1.846E+01    1.843E+01    1.840E+01    1.837E+01    1.833E+01    1.830E+01    1.827E+01
     1.824E+01    1.820E+01    1.817E+01    1.814E+01    1.810E+01    1.807E+01    1.803E+01    1.799E+01    1.796E+01    1.792E+01
     1.788E+01    1.784E+01    1.780E+01    1.776E+01    1.772E+01    1.768E+01    1.764E+01    1.760E+01    1.756E+01    1.752E+01
     1.747E+01    1.743E+01    1.739E+01    1.734E+01    1.730E+01    1.725E+01    1.721E+01    1.716E+01    1.712E+01    1.707E+01
     1.702E+01    1.698E+01    1.693E+01    1.688E+01    1.683E+01    1.679E+01    1.674E+01    1.669E+01    1.664E+01    1.659E+01
     1.654E+01    1.649E+01    1.644E+01    1.639E+01    1.634E+01    1.628E+01    1.623E+01    1.618E+01    1.613E+01    1.608E+01
     1.602E+01    1.597E+01    1.592E+01    1.586E+01    1.581E+01    1.576E+01    1.570E+01    1.565E+01    1.559E+01    1.554E+01
     1.548E+01    1.543E+01    1.537E+01    1.532E+01    1.526E+01    1.521E+01    1.515E+01    1.510E+01    1.504E+01    1.498E+01
     1.493E+01    1.487E+01    1.481E+01    1.476E+01    1.470E+01    1.465E+01    1.459E+01    1.453E+01    1.448E+01    1.442E+01
     1.436E+01    1.431E+01    1.425E+01    1.419E+01    1.414E+01    1.408E+01    1.402E+01    1.397E+01    1.391E+01    1.385E+01
     1.380E+01    1.374E+01    1.368E+01    1.363E+01    1.357E+01    1.351E+01    1.346E+01    1.340E+01
 Ala      Conc. = 2.50E+02
