 LCModel (Version 6.3-1L) Copyright: S.W. Provencher.          Ref.: Magn. Reson. Med. 30:672-679 (1993).                
 Slice#1 Row#13 Col#9  PD_24_press_1_raw_act
 36 lines in following concentration table = NCONC+1
    Conc.  %SD /Cr+PCr  Metabolite                                         
   73.123  79%   0.393 Ala                                                 
   16.537 303% 8.9E-02 Asp                                                 
    0.000 999%   0.000 Cr                                                  
  185.964  14%   1.000 PCr                                                 
   12.001 256% 6.5E-02 GABA                                                
   32.178  95%   0.173 Glc                                                 
    0.000 999%   0.000 Gln                                                 
  149.402  87%   0.803 Glu                                                 
    0.000 999%   0.000 GPC                                                 
   70.704  14%   0.380 PCh                                                 
   36.032 101%   0.194 GSH                                                 
   99.548 118%   0.535 Ins                                                 
    0.000 999%   0.000 Lac                                                 
  516.420  12%   2.777 NAA                                                 
   40.165 159%   0.216 NAAG                                                
   19.104  45%   0.103 Scyllo                                              
   90.768  54%   0.488 Tau                                                 
  147.009  26%   0.791 -CrCH2                                              
   70.704  14%   0.380 GPC+PCh                                             
  556.585   7%   2.993 NAA+NAAG                                            
  185.964  14%   1.000 Cr+PCr                                              
  149.402  87%   0.803 Glu+Gln                                             
    0.000 999%   0.000 Lip13a                                              
    0.000 999%   0.000 Lip13b                                              
    0.000 999%   0.000 Lip09                                               
  338.916  20%   1.822 MM09                                                
 1.73E-03 999% 9.3E-06 Lip20                                               
  851.824  17%   4.581 MM20                                                
   39.513 123%   0.212 MM12                                                
  139.263  68%   0.749 MM14                                                
  118.116  68%   0.635 MM17                                                
    0.000 999%   0.000 Lip13a+Lip13b                                       
  178.776  60%   0.961 MM14+Lip13a+Lip13b+MM12                             
  338.916  20%   1.822 MM09+Lip09                                          
  851.825  17%   4.581 MM20+Lip20                                          
   6 lines in following misc. output table
  FWHM = 0.054 ppm    S/N =   5                                            
  Data shift =-0.031 ppm                                                   
  Ph: -88 deg     -23.8 deg/ppm                                            
  alphaB,S = 2.7E+00,   5.1E+01                                            
   14 spline knots.   Ns = 7(1)                                            
  (10) 5 infls.   (12) 1 extrs.                                            
  498 points on ppm-axis = NY
      4.000000     3.992357     3.984714     3.977070     3.969427     3.961784     3.954141     3.946497     3.938854     3.931211
      3.923568     3.915925     3.908281     3.900638     3.892995     3.885352     3.877708     3.870065     3.862422     3.854779
      3.847136     3.839492     3.831849     3.824206     3.816563     3.808919     3.801276     3.793633     3.785990     3.778347
      3.770703     3.763060     3.755417     3.747774     3.740130     3.732487     3.724844     3.717201     3.709558     3.701914
      3.694271     3.686628     3.678985     3.671341     3.663698     3.656055     3.648412     3.640769     3.633125     3.625482
      3.617839     3.610196     3.602552     3.594909     3.587266     3.579623     3.571980     3.564336     3.556693     3.549050
      3.541407     3.533763     3.526120     3.518477     3.510834     3.503191     3.495547     3.487904     3.480261     3.472618
      3.464974     3.457331     3.449688     3.442045     3.434402     3.426758     3.419115     3.411472     3.403829     3.396185
      3.388542     3.380899     3.373256     3.365613     3.357969     3.350326     3.342683     3.335040     3.327396     3.319753
      3.312110     3.304467     3.296824     3.289180     3.281537     3.273894     3.266251     3.258607     3.250964     3.243321
      3.235678     3.228034     3.220391     3.212748     3.205105     3.197462     3.189818     3.182175     3.174532     3.166889
      3.159245     3.151602     3.143959     3.136316     3.128673     3.121029     3.113386     3.105743     3.098100     3.090456
      3.082813     3.075170     3.067527     3.059884     3.052240     3.044597     3.036954     3.029311     3.021667     3.014024
      3.006381     2.998738     2.991095     2.983451     2.975808     2.968165     2.960522     2.952878     2.945235     2.937592
      2.929949     2.922306     2.914662     2.907019     2.899376     2.891733     2.884089     2.876446     2.868803     2.861160
      2.853517     2.845873     2.838230     2.830587     2.822944     2.815300     2.807657     2.800014     2.792371     2.784728
      2.777084     2.769441     2.761798     2.754155     2.746511     2.738868     2.731225     2.723582     2.715939     2.708295
      2.700652     2.693009     2.685366     2.677722     2.670079     2.662436     2.654793     2.647150     2.639506     2.631863
      2.624220     2.616577     2.608933     2.601290     2.593647     2.586004     2.578361     2.570717     2.563074     2.555431
      2.547788     2.540144     2.532501     2.524858     2.517215     2.509572     2.501928     2.494285     2.486642     2.478999
      2.471355     2.463712     2.456069     2.448426     2.440783     2.433139     2.425496     2.417853     2.410210     2.402566
      2.394923     2.387280     2.379637     2.371994     2.364350     2.356707     2.349064     2.341421     2.333777     2.326134
      2.318491     2.310848     2.303205     2.295561     2.287918     2.280275     2.272632     2.264988     2.257345     2.249702
      2.242059     2.234416     2.226772     2.219129     2.211486     2.203843     2.196199     2.188556     2.180913     2.173270
      2.165627     2.157983     2.150340     2.142697     2.135054     2.127410     2.119767     2.112124     2.104481     2.096838
      2.089194     2.081551     2.073908     2.066265     2.058621     2.050978     2.043335     2.035692     2.028049     2.020405
      2.012762     2.005119     1.997476     1.989833     1.982190     1.974546     1.966903     1.959260     1.951617     1.943974
      1.936331     1.928688     1.921045     1.913402     1.905759     1.898115     1.890472     1.882829     1.875186     1.867543
      1.859900     1.852257     1.844614     1.836971     1.829327     1.821684     1.814041     1.806398     1.798755     1.791112
      1.783469     1.775826     1.768183     1.760540     1.752896     1.745253     1.737610     1.729967     1.722324     1.714681
      1.707038     1.699395     1.691752     1.684108     1.676465     1.668822     1.661179     1.653536     1.645893     1.638250
      1.630607     1.622964     1.615321     1.607677     1.600034     1.592391     1.584748     1.577105     1.569462     1.561819
      1.554176     1.546533     1.538890     1.531246     1.523603     1.515960     1.508317     1.500674     1.493031     1.485388
      1.477745     1.470102     1.462458     1.454815     1.447172     1.439529     1.431886     1.424243     1.416600     1.408957
      1.401314     1.393671     1.386027     1.378384     1.370741     1.363098     1.355455     1.347812     1.340169     1.332526
      1.324883     1.317240     1.309596     1.301953     1.294310     1.286667     1.279024     1.271381     1.263738     1.256095
      1.248452     1.240808     1.233165     1.225522     1.217879     1.210236     1.202593     1.194950     1.187307     1.179664
      1.172021     1.164377     1.156734     1.149091     1.141448     1.133805     1.126162     1.118519     1.110876     1.103233
      1.095590     1.087946     1.080303     1.072660     1.065017     1.057374     1.049731     1.042088     1.034445     1.026802
      1.019158     1.011515     1.003872     0.996229     0.988586     0.980943     0.973300     0.965657     0.958014     0.950371
      0.942727     0.935084     0.927441     0.919798     0.912155     0.904512     0.896869     0.889226     0.881583     0.873940
      0.866296     0.858653     0.851010     0.843367     0.835724     0.828081     0.820438     0.812795     0.805152     0.797508
      0.789865     0.782222     0.774579     0.766936     0.759293     0.751650     0.744007     0.736364     0.728721     0.721077
      0.713434     0.705791     0.698148     0.690505     0.682862     0.675219     0.667576     0.659933     0.652290     0.644646
      0.637003     0.629360     0.621717     0.614074     0.606431     0.598788     0.591145     0.583502     0.575858     0.568215
      0.560572     0.552929     0.545286     0.537643     0.530000     0.522357     0.514714     0.507071     0.499427     0.491784
      0.484141     0.476498     0.468855     0.461212     0.453569     0.445925     0.438282     0.430639     0.422996     0.415353
      0.407710     0.400067     0.392424     0.384780     0.377137     0.369494     0.361851     0.354208     0.346565     0.338922
      0.331278     0.323635     0.315992     0.308349     0.300706     0.293063     0.285420     0.277777     0.270133     0.262490
      0.254847     0.247204     0.239561     0.231918     0.224275     0.216631     0.208988     0.201345
 NY phased data points follow
  -1.09974E+01 -9.85386E+00 -5.04642E+00 -5.04225E+00 -9.20431E+00 -3.49762E+00 -6.97522E+00 -3.81735E+00 -3.83208E+00 -2.87378E+00
  -2.89834E+00 -4.60233E+00 -6.78313E+00 -1.81652E+00 -8.72364E+00 -4.06521E+00 -6.63162E+00 -4.86875E+00 -7.22167E+00 -5.48199E+00
  -6.79283E+00 -5.49618E+00 -5.81555E+00 -3.58712E+00 -6.20519E+00 -4.31924E+00 -6.18530E+00 -1.35153E+00 -4.78210E+00 -3.01194E+00
  -3.48134E+00 -1.41514E+00 -6.84622E+00 -6.42251E+00 -5.32416E+00 -2.56959E+00 -1.75488E+00 -5.19080E+00 -5.40775E+00 -2.97423E+00
  -3.34923E+00 -2.55469E+00 -3.22929E+00 -4.67190E-01 -5.07189E+00  8.37731E-02 -1.76434E+00 -5.59458E-01 -5.13717E+00 -3.78495E+00
  -3.46034E+00 -3.02338E+00 -4.69102E+00 -4.36312E+00 -2.74431E+00  4.55009E-01 -5.26883E+00 -1.07872E+00 -4.63052E+00 -3.40571E-01
  -4.96725E+00 -3.83541E-01 -4.85372E+00 -2.48007E+00 -7.10752E+00 -3.36901E+00 -3.37592E+00 -1.78758E+00 -4.22601E+00 -3.52660E+00
  -2.89127E+00 -5.10619E+00 -1.25913E+00  1.87538E+00 -1.42219E+00  7.48001E-01 -1.79255E+00 -1.95436E+00 -3.15650E+00 -3.75002E+00
  -3.41581E+00 -6.02860E+00 -5.99871E-01 -7.64424E-01 -1.93291E+00  1.20192E+00 -2.86820E+00 -1.02119E+00 -1.47658E+00 -2.66768E+00
  -2.54897E+00 -1.84944E+00 -2.55488E+00 -1.07441E+00 -3.08691E+00 -1.00348E+00 -3.88664E-01 -7.07285E-01 -2.32225E+00 -5.47444E-02
   7.68483E-01  4.26838E+00  4.29045E+00  3.48029E+00  4.61518E+00  4.62571E+00  1.04407E-02 -1.39003E-02 -3.84842E+00 -1.10783E+00
  -3.76066E+00  3.10158E-01 -1.90027E+00 -2.99904E+00 -6.99692E-01 -3.92659E+00  1.24043E+00  5.35345E-01 -3.00248E+00 -3.83715E-01
  -2.76113E+00  2.79620E-01 -1.53753E+00  2.37431E+00  1.68285E+00  1.67798E+00  4.61982E+00  3.18997E+00  6.36727E+00  6.53137E+00
   2.42875E+00 -2.15206E+00  5.79453E-01 -6.16756E-02 -1.77203E+00  1.56574E+00 -2.41151E+00  1.11805E-01 -3.48567E-01 -3.45989E+00
   3.03830E-01  5.26038E-01 -1.79614E+00 -3.41396E-01 -1.58018E+00 -3.12123E-01 -1.74400E+00  1.07559E+00 -4.74230E+00 -2.70085E+00
   3.53061E+00 -9.11326E-02 -3.34987E+00  1.57685E-01 -1.88892E+00 -1.83025E+00 -7.78956E-01 -1.74295E+00  1.41086E+00 -6.07486E-01
   3.04073E-01 -3.46727E-01 -1.62731E+00 -1.96901E+00 -2.64355E+00 -3.48037E+00 -1.74918E+00 -3.67618E+00 -2.34673E+00 -2.99640E+00
  -2.34554E+00 -1.83424E+00 -5.13739E+00 -4.45866E+00 -5.03815E+00 -4.25531E+00 -1.80326E+00 -3.08518E+00 -3.30801E+00 -4.36477E+00
  -3.21250E+00 -1.76964E+00 -1.55815E+00 -2.09328E-01 -2.09393E+00 -2.32484E+00 -7.07071E-01 -2.79783E-01 -8.09313E-01 -3.38332E+00
  -2.33351E+00  2.85733E-01 -1.70668E+00 -4.39974E+00 -1.44575E-01 -2.94332E+00 -2.62045E+00 -1.39082E+00 -4.02550E+00 -2.21764E+00
  -1.23980E+00 -1.15157E+00 -1.55935E+00  2.47677E-01 -3.86369E-02  3.39494E-01  8.63301E-01  2.67512E-01 -2.97771E+00  3.29909E+00
  -3.09529E+00  2.19488E+00 -6.09573E-01  1.21001E+00  2.10494E+00  5.67459E-02 -1.39573E-01  4.07565E+00  9.69525E-01 -1.31670E+00
   5.55985E-01 -6.22336E-01 -1.19600E+00 -7.26326E-01 -2.37911E-01  1.77242E+00  9.64325E-01  3.73531E+00  2.87266E+00  2.40745E+00
  -2.53189E-01  1.87639E+00  8.98579E-01 -5.13099E-01 -2.05136E+00  2.71143E+00  1.18143E+00 -3.78390E-01  1.71500E+00  7.52543E-01
  -2.93771E-01 -3.31408E-01 -1.39330E+00  1.18820E+00 -1.47351E-01  2.92884E+00  1.27066E+00  3.58326E+00  3.63166E+00  2.35308E+00
   5.07306E+00  1.17572E+00  3.41094E+00  3.74990E+00  7.45190E+00  1.09364E+01  1.07389E+01  1.49930E+01  1.41395E+01  1.58791E+01
   2.09217E+01  1.78635E+01  1.73252E+01  1.31639E+01  6.84819E+00  7.20622E+00  4.25402E+00  5.37190E+00  1.81755E+00  4.11982E+00
   2.07627E+00  3.27436E+00  4.15981E-01 -8.51737E-01  1.54571E+00 -1.10537E+00 -9.42454E-01  1.76149E-01  1.96712E-02 -2.83651E+00
   3.20327E+00 -2.43795E-01  1.43860E-01 -1.09260E-01  1.82812E+00 -7.35349E-01 -2.69630E-01  2.51472E+00 -2.07423E-01 -6.95061E-01
  -1.26271E+00 -1.16077E+00  2.46090E-01  2.46871E+00  2.04781E+00  2.31742E-01 -3.52040E-01  1.12282E+00 -1.08227E+00 -2.16314E+00
  -3.67304E+00 -6.62158E-01  1.58380E+00 -1.43827E+00  1.30181E+00  2.76114E+00  5.30952E-01 -5.63975E-01  1.55244E+00  7.95614E-01
  -3.27523E-01 -1.40790E+00  1.28734E+00  2.20819E+00  8.04274E-01 -5.44953E-01  7.91518E-01  2.03799E+00  2.09246E+00  2.56524E+00
   1.61091E+00  1.85549E+00 -6.82371E-01  6.13813E-01 -2.67257E+00  1.10450E-01 -1.31575E+00  1.69800E+00 -2.98598E-02 -1.80021E+00
   9.51254E-02  8.29913E-01  6.32469E-01 -1.89010E+00 -2.37037E-01  2.03492E+00  2.50457E+00  2.33022E+00  2.38825E+00  1.97206E+00
   1.73677E+00  1.93319E+00  5.56958E-01 -1.08101E+00 -8.09249E-01  7.48535E-01  7.32732E-01  2.41863E-01  1.52401E+00  1.21917E+00
  -6.07579E-01 -1.37914E+00 -6.29595E-02  1.75471E+00 -1.60471E-01  1.81551E+00  1.50803E+00 -2.75938E+00 -4.67971E-01 -2.23323E+00
  -5.99258E-01 -8.19426E-01  1.85346E+00 -2.45962E+00 -1.88310E+00 -4.90353E+00  3.93450E-01 -3.02302E+00 -5.82810E-01 -2.12209E-01
   1.77947E-01  5.52396E-01  1.75008E+00 -4.21608E-01 -2.53874E+00  2.04246E+00  9.49673E-01 -9.17293E-01  1.35992E+00  1.84218E+00
   1.45085E+00  2.15918E+00  9.82182E-02  4.02009E+00  3.68067E+00  1.42085E+00  1.41159E+00  1.59148E+00  2.47934E+00  1.64641E+00
   2.07453E+00  1.25168E+00  1.25098E+00  4.56867E-01  1.23438E+00  2.51899E+00  2.52090E+00 -1.33997E+00  3.00345E+00  4.63859E+00
   2.36962E+00  2.91182E+00  2.35730E+00  3.14464E+00  3.79634E+00  2.28513E+00  3.38150E+00  3.99648E+00  1.27858E+00  1.48060E+00
   3.50737E+00  3.19348E+00  9.68540E-01  1.49563E+00  1.53456E+00  6.13876E-01  1.90275E+00  6.51674E-01  3.23131E+00  2.24891E+00
   1.78770E+00  1.57866E+00  3.17658E+00  8.39366E-01  2.53027E+00  2.87330E+00  4.12541E+00  3.35575E+00  1.86889E+00  1.79872E+00
   1.84281E+00  1.12264E+00  3.16940E+00  4.72138E-01  2.59098E+00 -1.12139E+00 -1.48748E-01  5.48092E-01 -1.25947E+00  1.93512E+00
   1.94027E+00  3.20163E-01  2.68832E+00  2.95328E-01 -2.12996E-01  1.84817E-01  1.63357E+00  4.70291E+00  3.59171E+00  1.21650E+00
   4.27391E+00 -3.26573E+00  1.46326E+00 -7.14800E-01  2.36373E+00 -5.31805E-01  1.11860E+00  1.77944E+00  1.79445E+00 -1.07953E+00
   1.91359E+00  1.45311E+00  9.97173E-01 -1.38304E+00  1.97863E+00  1.25101E+00  1.04711E+00  4.50003E-01  1.24733E+00  8.01912E-01
   9.69680E-01  1.16300E-01 -3.08440E+00  5.10862E-01  6.56542E-02  8.63435E-01  9.62768E-02 -4.80884E-01  1.22561E+00 -1.59129E+00
  -3.29667E-01  2.27383E+00 -5.77170E-01  1.13106E+00  2.82939E+00 -2.55794E-01  1.18714E+00  6.98479E-01  1.44123E+00  9.25495E-01
   2.00631E+00  8.39708E-01 -1.44508E+00  8.53235E-01  2.08940E+00  1.31172E+00 -7.15488E-01  2.62331E-01
 NY points of the fit to the data follow
  -4.35162E+00 -4.40163E+00 -4.43362E+00 -4.37600E+00 -4.27571E+00 -4.16690E+00 -4.05185E+00 -3.92810E+00 -3.77342E+00 -3.59323E+00
  -3.45039E+00 -3.42448E+00 -3.56322E+00 -3.80859E+00 -4.02214E+00 -4.12674E+00 -4.15582E+00 -4.18023E+00 -4.19745E+00 -4.14675E+00
  -4.06126E+00 -3.97712E+00 -3.90612E+00 -3.82375E+00 -3.74329E+00 -3.68904E+00 -3.64167E+00 -3.57546E+00 -3.47040E+00 -3.32298E+00
  -3.15458E+00 -3.01758E+00 -2.97455E+00 -3.02651E+00 -3.11945E+00 -3.22993E+00 -3.37190E+00 -3.54492E+00 -3.70145E+00 -3.77974E+00
  -3.77594E+00 -3.71951E+00 -3.63281E+00 -3.53478E+00 -3.43581E+00 -3.32459E+00 -3.19694E+00 -3.09035E+00 -3.06186E+00 -3.13573E+00
  -3.28628E+00 -3.44364E+00 -3.53285E+00 -3.53297E+00 -3.48706E+00 -3.43939E+00 -3.39575E+00 -3.34322E+00 -3.27881E+00 -3.21104E+00
  -3.15167E+00 -3.11890E+00 -3.11474E+00 -3.13516E+00 -3.16061E+00 -3.15946E+00 -3.13054E+00 -3.09774E+00 -3.05773E+00 -2.99969E+00
  -2.93367E+00 -2.86286E+00 -2.78939E+00 -2.72041E+00 -2.66466E+00 -2.63260E+00 -2.64340E+00 -2.71641E+00 -2.82790E+00 -2.88965E+00
  -2.83860E+00 -2.69382E+00 -2.50206E+00 -2.30953E+00 -2.13124E+00 -1.97430E+00 -1.89106E+00 -1.93801E+00 -2.12902E+00 -2.40788E+00
  -2.66130E+00 -2.80133E+00 -2.84082E+00 -2.86755E+00 -2.90268E+00 -2.80957E+00 -2.29483E+00 -1.40233E+00 -4.06716E-01  5.86648E-01
   1.57879E+00  2.60568E+00  3.58936E+00  4.22098E+00  4.13545E+00  3.18287E+00  1.66274E+00  2.31611E-01 -6.65500E-01 -1.12621E+00
  -1.47921E+00 -1.85678E+00 -2.09163E+00 -2.17030E+00 -2.20072E+00 -2.21256E+00 -2.21564E+00 -2.20490E+00 -2.17171E+00 -2.05290E+00
  -1.61278E+00 -8.66047E-01 -3.02783E-02  8.41849E-01  1.77157E+00  2.76930E+00  3.73684E+00  4.36582E+00  4.30719E+00  3.43681E+00
   2.04446E+00  7.25681E-01 -1.18447E-01 -5.69929E-01 -9.32105E-01 -1.32887E+00 -1.59790E+00 -1.70141E+00 -1.72290E+00 -1.69320E+00
  -1.64504E+00 -1.60979E+00 -1.60160E+00 -1.61933E+00 -1.65624E+00 -1.69884E+00 -1.73881E+00 -1.77919E+00 -1.82201E+00 -1.86334E+00
  -1.89793E+00 -1.92220E+00 -1.93835E+00 -1.95327E+00 -1.98639E+00 -2.03790E+00 -2.08940E+00 -2.13280E+00 -2.16230E+00 -2.19966E+00
  -2.26261E+00 -2.32231E+00 -2.33666E+00 -2.28641E+00 -2.19850E+00 -2.14475E+00 -2.18350E+00 -2.30782E+00 -2.45832E+00 -2.58382E+00
  -2.67792E+00 -2.73650E+00 -2.77694E+00 -2.81939E+00 -2.87040E+00 -2.92466E+00 -2.94246E+00 -2.88861E+00 -2.77765E+00 -2.66895E+00
  -2.63429E+00 -2.66751E+00 -2.67712E+00 -2.59817E+00 -2.43966E+00 -2.26808E+00 -2.12451E+00 -1.96494E+00 -1.74087E+00 -1.45664E+00
  -1.17931E+00 -1.00348E+00 -9.51456E-01 -9.70868E-01 -1.00479E+00 -1.03027E+00 -1.05338E+00 -1.06470E+00 -1.06433E+00 -1.05698E+00
  -1.02561E+00 -9.50988E-01 -8.40288E-01 -7.35277E-01 -6.76907E-01 -6.96170E-01 -8.16509E-01 -1.00864E+00 -1.18438E+00 -1.26716E+00
  -1.26800E+00 -1.23115E+00 -1.15842E+00 -1.02247E+00 -8.34133E-01 -6.53599E-01 -5.65166E-01 -6.16721E-01 -7.94039E-01 -1.02437E+00
  -1.19279E+00 -1.23665E+00 -1.16144E+00 -9.74771E-01 -6.93077E-01 -3.60559E-01 -6.64483E-02  1.20291E-01  2.13754E-01  2.72324E-01
   3.37611E-01  4.16159E-01  5.10179E-01  6.33392E-01  7.82291E-01  9.23326E-01  1.02249E+00  1.07658E+00  1.10536E+00  1.13138E+00
   1.17224E+00  1.25767E+00  1.41124E+00  1.62520E+00  1.86955E+00  2.10982E+00  2.32003E+00  2.48246E+00  2.61397E+00  2.78531E+00
   3.01301E+00  3.29620E+00  3.73811E+00  4.81781E+00  6.85611E+00  9.20213E+00  1.14507E+01  1.35909E+01  1.56744E+01  1.76510E+01
   1.90004E+01  1.88397E+01  1.66126E+01  1.26913E+01  8.52922E+00  5.57383E+00  3.99711E+00  3.01853E+00  2.03866E+00  1.24370E+00
   9.22709E-01  7.75430E-01  6.78850E-01  6.09801E-01  5.50124E-01  4.86044E-01  4.14366E-01  3.36490E-01  2.58869E-01  1.88763E-01
   1.29781E-01  8.11031E-02  4.24454E-02  1.41056E-02 -5.60093E-03 -1.89342E-02 -2.76315E-02 -3.19213E-02 -3.08937E-02 -2.42813E-02
  -1.20439E-02  6.28129E-03  2.99556E-02  5.72697E-02  8.63739E-02  1.16314E-01  1.47160E-01  1.79189E-01  2.12366E-01  2.45986E-01
   2.79274E-01  3.11908E-01  3.42992E-01  3.70879E-01  3.94491E-01  4.13494E-01  4.28140E-01  4.38711E-01  4.45554E-01  4.49396E-01
   4.51108E-01  4.51471E-01  4.51576E-01  4.52672E-01  4.56308E-01  4.64208E-01  4.78564E-01  5.02403E-01  5.41219E-01  6.07506E-01
   7.16001E-01  8.20334E-01  8.80426E-01  9.02737E-01  8.91005E-01  8.33277E-01  6.95577E-01  4.40961E-01  1.21765E-01 -1.61040E-01
  -3.24680E-01 -3.07660E-01 -1.28455E-01  1.41778E-01  4.56675E-01  7.91506E-01  1.09930E+00  1.27594E+00  1.27052E+00  1.15109E+00
   1.02463E+00  9.40908E-01  8.78067E-01  8.01505E-01  7.27954E-01  6.77019E-01  6.38452E-01  6.06827E-01  5.80190E-01  5.57576E-01
   5.38504E-01  5.22630E-01  5.09823E-01  4.99942E-01  4.92903E-01  4.88480E-01  4.86468E-01  4.86598E-01  4.88706E-01  4.92564E-01
   4.97989E-01  5.04686E-01  5.12448E-01  5.21064E-01  5.30470E-01  5.40570E-01  5.51341E-01  5.62704E-01  5.74715E-01  5.87453E-01
   6.01141E-01  6.15953E-01  6.32133E-01  6.49880E-01  6.69535E-01  6.91442E-01  7.16056E-01  7.43756E-01  7.74987E-01  8.10156E-01
   8.49805E-01  8.94448E-01  9.44664E-01  1.00092E+00  1.06370E+00  1.13340E+00  1.21046E+00  1.29512E+00  1.38752E+00  1.48752E+00
   1.59477E+00  1.70864E+00  1.82827E+00  1.95237E+00  2.07935E+00  2.20720E+00  2.33366E+00  2.45621E+00  2.57223E+00  2.67893E+00
   2.77360E+00  2.85359E+00  2.91666E+00  2.96093E+00  2.98509E+00  2.98832E+00  2.97046E+00  2.93198E+00  2.87403E+00  2.79833E+00
   2.70709E+00  2.60282E+00  2.48833E+00  2.36648E+00  2.24026E+00  2.11242E+00  1.98555E+00  1.86183E+00  1.74315E+00  1.63098E+00
   1.52650E+00  1.43043E+00  1.34317E+00  1.26478E+00  1.19512E+00  1.13383E+00  1.08050E+00  1.03451E+00  9.95234E-01  9.61955E-01
   9.34059E-01  9.10911E-01  8.91984E-01  8.76697E-01  8.64577E-01  8.55145E-01  8.48073E-01  8.43028E-01  8.39771E-01  8.38006E-01
   8.37536E-01  8.38148E-01  8.39747E-01  8.42196E-01  8.45416E-01  8.49255E-01  8.53650E-01  8.58509E-01  8.63834E-01  8.69555E-01
   8.75646E-01  8.82012E-01  8.88646E-01  8.95507E-01  9.02626E-01  9.09949E-01  9.17467E-01  9.25111E-01  9.32902E-01  9.40820E-01
   9.48900E-01  9.57088E-01  9.65383E-01  9.73734E-01  9.82180E-01  9.90708E-01  9.99347E-01  1.00804E+00  1.01679E+00  1.02557E+00
   1.03443E+00  1.04334E+00  1.05233E+00  1.06134E+00  1.07039E+00  1.07946E+00  1.08859E+00  1.09777E+00  1.10701E+00  1.11624E+00
   1.12551E+00  1.13479E+00  1.14415E+00  1.15354E+00  1.16297E+00  1.17239E+00  1.18186E+00  1.19135E+00  1.20091E+00  1.21050E+00
   1.22014E+00  1.22977E+00  1.23946E+00  1.24920E+00  1.25903E+00  1.26889E+00  1.27881E+00  1.28876E+00
 NY background values follow
    -4.432E+00   -4.418E+00   -4.404E+00   -4.389E+00   -4.375E+00   -4.361E+00   -4.346E+00   -4.332E+00   -4.318E+00   -4.303E+00
    -4.289E+00   -4.275E+00   -4.260E+00   -4.246E+00   -4.232E+00   -4.217E+00   -4.203E+00   -4.189E+00   -4.174E+00   -4.160E+00
    -4.146E+00   -4.131E+00   -4.117E+00   -4.102E+00   -4.088E+00   -4.074E+00   -4.059E+00   -4.045E+00   -4.030E+00   -4.016E+00
    -4.002E+00   -3.987E+00   -3.973E+00   -3.958E+00   -3.944E+00   -3.930E+00   -3.915E+00   -3.901E+00   -3.886E+00   -3.872E+00
    -3.858E+00   -3.843E+00   -3.829E+00   -3.814E+00   -3.800E+00   -3.785E+00   -3.771E+00   -3.757E+00   -3.742E+00   -3.728E+00
    -3.713E+00   -3.699E+00   -3.685E+00   -3.670E+00   -3.656E+00   -3.641E+00   -3.627E+00   -3.613E+00   -3.598E+00   -3.584E+00
    -3.570E+00   -3.555E+00   -3.541E+00   -3.527E+00   -3.512E+00   -3.498E+00   -3.483E+00   -3.469E+00   -3.455E+00   -3.441E+00
    -3.426E+00   -3.412E+00   -3.398E+00   -3.383E+00   -3.369E+00   -3.355E+00   -3.340E+00   -3.326E+00   -3.312E+00   -3.298E+00
    -3.283E+00   -3.269E+00   -3.255E+00   -3.241E+00   -3.227E+00   -3.212E+00   -3.198E+00   -3.184E+00   -3.170E+00   -3.156E+00
    -3.141E+00   -3.127E+00   -3.113E+00   -3.099E+00   -3.085E+00   -3.071E+00   -3.057E+00   -3.043E+00   -3.029E+00   -3.015E+00
    -3.001E+00   -2.987E+00   -2.973E+00   -2.959E+00   -2.945E+00   -2.931E+00   -2.917E+00   -2.903E+00   -2.889E+00   -2.875E+00
    -2.861E+00   -2.847E+00   -2.833E+00   -2.819E+00   -2.805E+00   -2.792E+00   -2.778E+00   -2.764E+00   -2.750E+00   -2.736E+00
    -2.723E+00   -2.709E+00   -2.695E+00   -2.681E+00   -2.668E+00   -2.654E+00   -2.640E+00   -2.627E+00   -2.613E+00   -2.599E+00
    -2.586E+00   -2.572E+00   -2.558E+00   -2.545E+00   -2.531E+00   -2.518E+00   -2.504E+00   -2.491E+00   -2.477E+00   -2.464E+00
    -2.450E+00   -2.437E+00   -2.424E+00   -2.410E+00   -2.397E+00   -2.383E+00   -2.370E+00   -2.357E+00   -2.343E+00   -2.330E+00
    -2.317E+00   -2.304E+00   -2.290E+00   -2.277E+00   -2.264E+00   -2.251E+00   -2.238E+00   -2.224E+00   -2.211E+00   -2.198E+00
    -2.185E+00   -2.172E+00   -2.159E+00   -2.146E+00   -2.133E+00   -2.120E+00   -2.107E+00   -2.094E+00   -2.081E+00   -2.068E+00
    -2.055E+00   -2.042E+00   -2.029E+00   -2.016E+00   -2.004E+00   -1.991E+00   -1.978E+00   -1.965E+00   -1.952E+00   -1.940E+00
    -1.927E+00   -1.914E+00   -1.901E+00   -1.889E+00   -1.876E+00   -1.863E+00   -1.851E+00   -1.838E+00   -1.826E+00   -1.813E+00
    -1.801E+00   -1.788E+00   -1.776E+00   -1.763E+00   -1.751E+00   -1.738E+00   -1.726E+00   -1.713E+00   -1.701E+00   -1.688E+00
    -1.676E+00   -1.664E+00   -1.651E+00   -1.639E+00   -1.627E+00   -1.615E+00   -1.602E+00   -1.590E+00   -1.578E+00   -1.566E+00
    -1.554E+00   -1.541E+00   -1.529E+00   -1.517E+00   -1.505E+00   -1.493E+00   -1.481E+00   -1.469E+00   -1.457E+00   -1.445E+00
    -1.433E+00   -1.421E+00   -1.409E+00   -1.397E+00   -1.385E+00   -1.373E+00   -1.362E+00   -1.350E+00   -1.338E+00   -1.326E+00
    -1.314E+00   -1.302E+00   -1.291E+00   -1.279E+00   -1.267E+00   -1.256E+00   -1.244E+00   -1.232E+00   -1.221E+00   -1.209E+00
    -1.197E+00   -1.186E+00   -1.174E+00   -1.163E+00   -1.151E+00   -1.140E+00   -1.128E+00   -1.117E+00   -1.105E+00   -1.094E+00
    -1.082E+00   -1.071E+00   -1.060E+00   -1.048E+00   -1.037E+00   -1.025E+00   -1.014E+00   -1.003E+00   -9.915E-01   -9.803E-01
    -9.690E-01   -9.578E-01   -9.465E-01   -9.353E-01   -9.241E-01   -9.129E-01   -9.018E-01   -8.906E-01   -8.795E-01   -8.684E-01
    -8.573E-01   -8.462E-01   -8.351E-01   -8.241E-01   -8.130E-01   -8.020E-01   -7.910E-01   -7.800E-01   -7.690E-01   -7.581E-01
    -7.471E-01   -7.362E-01   -7.252E-01   -7.143E-01   -7.034E-01   -6.926E-01   -6.817E-01   -6.708E-01   -6.600E-01   -6.492E-01
    -6.384E-01   -6.276E-01   -6.168E-01   -6.060E-01   -5.953E-01   -5.845E-01   -5.738E-01   -5.631E-01   -5.524E-01   -5.417E-01
    -5.310E-01   -5.203E-01   -5.097E-01   -4.990E-01   -4.884E-01   -4.778E-01   -4.672E-01   -4.566E-01   -4.460E-01   -4.355E-01
    -4.249E-01   -4.144E-01   -4.038E-01   -3.933E-01   -3.828E-01   -3.723E-01   -3.618E-01   -3.513E-01   -3.409E-01   -3.304E-01
    -3.200E-01   -3.095E-01   -2.991E-01   -2.887E-01   -2.783E-01   -2.679E-01   -2.576E-01   -2.472E-01   -2.368E-01   -2.265E-01
    -2.161E-01   -2.058E-01   -1.955E-01   -1.852E-01   -1.749E-01   -1.646E-01   -1.543E-01   -1.441E-01   -1.338E-01   -1.235E-01
    -1.133E-01   -1.031E-01   -9.285E-02   -8.263E-02   -7.242E-02   -6.223E-02   -5.204E-02   -4.185E-02   -3.168E-02   -2.152E-02
    -1.136E-02   -1.210E-03    8.931E-03    1.906E-02    2.919E-02    3.931E-02    4.942E-02    5.952E-02    6.962E-02    7.970E-02
     8.979E-02    9.986E-02    1.099E-01    1.200E-01    1.300E-01    1.401E-01    1.501E-01    1.602E-01    1.702E-01    1.802E-01
     1.902E-01    2.002E-01    2.102E-01    2.202E-01    2.302E-01    2.402E-01    2.501E-01    2.601E-01    2.701E-01    2.800E-01
     2.900E-01    2.999E-01    3.098E-01    3.197E-01    3.297E-01    3.396E-01    3.495E-01    3.594E-01    3.692E-01    3.791E-01
     3.890E-01    3.989E-01    4.087E-01    4.186E-01    4.284E-01    4.383E-01    4.481E-01    4.579E-01    4.677E-01    4.775E-01
     4.873E-01    4.971E-01    5.069E-01    5.167E-01    5.265E-01    5.363E-01    5.460E-01    5.558E-01    5.655E-01    5.753E-01
     5.850E-01    5.947E-01    6.044E-01    6.141E-01    6.238E-01    6.335E-01    6.432E-01    6.529E-01    6.626E-01    6.723E-01
     6.819E-01    6.916E-01    7.012E-01    7.109E-01    7.205E-01    7.302E-01    7.398E-01    7.494E-01    7.590E-01    7.686E-01
     7.782E-01    7.878E-01    7.974E-01    8.070E-01    8.166E-01    8.261E-01    8.357E-01    8.452E-01    8.548E-01    8.643E-01
     8.739E-01    8.834E-01    8.929E-01    9.025E-01    9.120E-01    9.215E-01    9.310E-01    9.405E-01    9.500E-01    9.594E-01
     9.689E-01    9.784E-01    9.879E-01    9.973E-01    1.007E+00    1.016E+00    1.026E+00    1.035E+00    1.045E+00    1.054E+00
     1.063E+00    1.073E+00    1.082E+00    1.092E+00    1.101E+00    1.110E+00    1.120E+00    1.129E+00    1.139E+00    1.148E+00
     1.157E+00    1.167E+00    1.176E+00    1.185E+00    1.195E+00    1.204E+00    1.213E+00    1.223E+00    1.232E+00    1.241E+00
     1.251E+00    1.260E+00    1.269E+00    1.279E+00    1.288E+00    1.297E+00    1.307E+00    1.316E+00    1.325E+00    1.335E+00
     1.344E+00    1.353E+00    1.362E+00    1.372E+00    1.381E+00    1.390E+00    1.399E+00    1.409E+00
 Ala      Conc. = 7.31E+01
