 LCModel (Version 6.3-1L) Copyright: S.W. Provencher.          Ref.: Magn. Reson. Med. 30:672-679 (1993).                
 Slice#2 Row#4 Col#6  PD_24_press_1_raw_act
 36 lines in following concentration table = NCONC+1
    Conc.  %SD /Cr+PCr  Metabolite                                         
    0.000 999%   0.000 Ala                                                 
    0.000 999%   0.000 Asp                                                 
  738.151  37%   0.409 Cr                                                  
 1.07E+03  26%   0.591 PCr                                                 
    0.000 999%   0.000 GABA                                                
    0.000 999%   0.000 Glc                                                 
 1.24E+03  24%   0.684 Gln                                                 
 1.63E+03  20%   0.900 Glu                                                 
  944.018   3%   0.523 GPC                                                 
    0.000 999%   0.000 PCh                                                 
  523.845  16%   0.290 GSH                                                 
 1.20E+03  27%   0.664 Ins                                                 
   70.312 218% 3.9E-02 Lac                                                 
 2.71E+03   3%   1.500 NAA                                                 
    0.000 999%   0.000 NAAG                                                
  181.426  19%   0.100 Scyllo                                              
    0.000 999%   0.000 Tau                                                 
    0.000 999%   0.000 -CrCH2                                              
  944.018   3%   0.523 GPC+PCh                                             
 2.71E+03   3%   1.500 NAA+NAAG                                            
 1.81E+03   3%   1.000 Cr+PCr                                              
 2.86E+03  17%   1.585 Glu+Gln                                             
    0.000 999%   0.000 Lip13a                                              
    0.000 999%   0.000 Lip13b                                              
    0.000 999%   0.000 Lip09                                               
 2.72E+03  12%   1.504 MM09                                                
    0.000 999%   0.000 Lip20                                               
 5.55E+03  10%   3.071 MM20                                                
  779.364  36%   0.432 MM12                                                
 1.50E+03  26%   0.830 MM14                                                
 1.26E+03  30%   0.696 MM17                                                
    0.000 999%   0.000 Lip13a+Lip13b                                       
 2.28E+03  24%   1.261 MM14+Lip13a+Lip13b+MM12                             
 2.72E+03  12%   1.504 MM09+Lip09                                          
 5.55E+03  10%   3.071 MM20+Lip20                                          
   6 lines in following misc. output table
  FWHM = 0.061 ppm    S/N =  13                                            
  Data shift =-0.008 ppm                                                   
  Ph: -42 deg     -10.4 deg/ppm                                            
  alphaB,S = 5.8E-01,   2.0E+02                                            
   14 spline knots.   Ns = 8(1)                                            
  (15) 4 infls.   (11) 1 extrs.                                            
  498 points on ppm-axis = NY
      4.000000     3.992357     3.984714     3.977070     3.969427     3.961784     3.954141     3.946497     3.938854     3.931211
      3.923568     3.915925     3.908281     3.900638     3.892995     3.885352     3.877708     3.870065     3.862422     3.854779
      3.847136     3.839492     3.831849     3.824206     3.816563     3.808919     3.801276     3.793633     3.785990     3.778347
      3.770703     3.763060     3.755417     3.747774     3.740130     3.732487     3.724844     3.717201     3.709558     3.701914
      3.694271     3.686628     3.678985     3.671341     3.663698     3.656055     3.648412     3.640769     3.633125     3.625482
      3.617839     3.610196     3.602552     3.594909     3.587266     3.579623     3.571980     3.564336     3.556693     3.549050
      3.541407     3.533763     3.526120     3.518477     3.510834     3.503191     3.495547     3.487904     3.480261     3.472618
      3.464974     3.457331     3.449688     3.442045     3.434402     3.426758     3.419115     3.411472     3.403829     3.396185
      3.388542     3.380899     3.373256     3.365613     3.357969     3.350326     3.342683     3.335040     3.327396     3.319753
      3.312110     3.304467     3.296824     3.289180     3.281537     3.273894     3.266251     3.258607     3.250964     3.243321
      3.235678     3.228034     3.220391     3.212748     3.205105     3.197462     3.189818     3.182175     3.174532     3.166889
      3.159245     3.151602     3.143959     3.136316     3.128673     3.121029     3.113386     3.105743     3.098100     3.090456
      3.082813     3.075170     3.067527     3.059884     3.052240     3.044597     3.036954     3.029311     3.021667     3.014024
      3.006381     2.998738     2.991095     2.983451     2.975808     2.968165     2.960522     2.952878     2.945235     2.937592
      2.929949     2.922306     2.914662     2.907019     2.899376     2.891733     2.884089     2.876446     2.868803     2.861160
      2.853517     2.845873     2.838230     2.830587     2.822944     2.815300     2.807657     2.800014     2.792371     2.784728
      2.777084     2.769441     2.761798     2.754155     2.746511     2.738868     2.731225     2.723582     2.715939     2.708295
      2.700652     2.693009     2.685366     2.677722     2.670079     2.662436     2.654793     2.647150     2.639506     2.631863
      2.624220     2.616577     2.608933     2.601290     2.593647     2.586004     2.578361     2.570717     2.563074     2.555431
      2.547788     2.540144     2.532501     2.524858     2.517215     2.509572     2.501928     2.494285     2.486642     2.478999
      2.471355     2.463712     2.456069     2.448426     2.440783     2.433139     2.425496     2.417853     2.410210     2.402566
      2.394923     2.387280     2.379637     2.371994     2.364350     2.356707     2.349064     2.341421     2.333777     2.326134
      2.318491     2.310848     2.303205     2.295561     2.287918     2.280275     2.272632     2.264988     2.257345     2.249702
      2.242059     2.234416     2.226772     2.219129     2.211486     2.203843     2.196199     2.188556     2.180913     2.173270
      2.165627     2.157983     2.150340     2.142697     2.135054     2.127410     2.119767     2.112124     2.104481     2.096838
      2.089194     2.081551     2.073908     2.066265     2.058621     2.050978     2.043335     2.035692     2.028049     2.020405
      2.012762     2.005119     1.997476     1.989833     1.982190     1.974546     1.966903     1.959260     1.951617     1.943974
      1.936331     1.928688     1.921045     1.913402     1.905759     1.898115     1.890472     1.882829     1.875186     1.867543
      1.859900     1.852257     1.844614     1.836971     1.829327     1.821684     1.814041     1.806398     1.798755     1.791112
      1.783469     1.775826     1.768183     1.760540     1.752896     1.745253     1.737610     1.729967     1.722324     1.714681
      1.707038     1.699395     1.691752     1.684108     1.676465     1.668822     1.661179     1.653536     1.645893     1.638250
      1.630607     1.622964     1.615321     1.607677     1.600034     1.592391     1.584748     1.577105     1.569462     1.561819
      1.554176     1.546533     1.538890     1.531246     1.523603     1.515960     1.508317     1.500674     1.493031     1.485388
      1.477745     1.470102     1.462458     1.454815     1.447172     1.439529     1.431886     1.424243     1.416600     1.408957
      1.401314     1.393671     1.386027     1.378384     1.370741     1.363098     1.355455     1.347812     1.340169     1.332526
      1.324883     1.317240     1.309596     1.301953     1.294310     1.286667     1.279024     1.271381     1.263738     1.256095
      1.248452     1.240808     1.233165     1.225522     1.217879     1.210236     1.202593     1.194950     1.187307     1.179664
      1.172021     1.164377     1.156734     1.149091     1.141448     1.133805     1.126162     1.118519     1.110876     1.103233
      1.095590     1.087946     1.080303     1.072660     1.065017     1.057374     1.049731     1.042088     1.034445     1.026802
      1.019158     1.011515     1.003872     0.996229     0.988586     0.980943     0.973300     0.965657     0.958014     0.950371
      0.942727     0.935084     0.927441     0.919798     0.912155     0.904512     0.896869     0.889226     0.881583     0.873940
      0.866296     0.858653     0.851010     0.843367     0.835724     0.828081     0.820438     0.812795     0.805152     0.797508
      0.789865     0.782222     0.774579     0.766936     0.759293     0.751650     0.744007     0.736364     0.728721     0.721077
      0.713434     0.705791     0.698148     0.690505     0.682862     0.675219     0.667576     0.659933     0.652290     0.644646
      0.637003     0.629360     0.621717     0.614074     0.606431     0.598788     0.591145     0.583502     0.575858     0.568215
      0.560572     0.552929     0.545286     0.537643     0.530000     0.522357     0.514714     0.507071     0.499427     0.491784
      0.484141     0.476498     0.468855     0.461212     0.453569     0.445925     0.438282     0.430639     0.422996     0.415353
      0.407710     0.400067     0.392424     0.384780     0.377137     0.369494     0.361851     0.354208     0.346565     0.338922
      0.331278     0.323635     0.315992     0.308349     0.300706     0.293063     0.285420     0.277777     0.270133     0.262490
      0.254847     0.247204     0.239561     0.231918     0.224275     0.216631     0.208988     0.201345
 NY phased data points follow
  -1.13336E+01 -7.65372E+00 -2.84279E+00  4.89058E-02  2.38547E+00  9.08777E+00  1.86304E+01  2.92361E+01  2.70564E+01  3.38013E+01
   3.60944E+01  3.29402E+01  3.23080E+01  2.87790E+01  2.63945E+01  1.89199E+01  1.49298E+01  1.38429E+01  7.65329E+00  6.81765E+00
   3.97028E+00  2.44694E+00  3.18546E+00  1.46432E+00  4.11707E+00  2.66031E+00  2.55799E+00  9.84571E+00  6.22683E+00  1.10397E+01
   9.64701E+00  9.90448E+00  8.03143E+00  6.99225E+00  4.83417E+00  6.58503E+00  1.31724E+00  7.48007E+00  6.23250E+00  6.84321E+00
   3.22278E+00  8.91383E+00  5.21020E+00  8.15771E+00  1.36744E+01  1.05966E+01  1.23795E+01  1.47235E+01  9.34082E+00  9.86110E+00
   6.14484E+00  1.03582E+01  4.63405E+00  9.90112E+00  7.32795E+00  2.15677E+00  2.67757E+00  4.67198E+00 -3.29162E-01  2.18332E+00
  -1.87863E+00 -6.86082E-01 -7.90153E+00 -2.07759E+00 -5.75188E+00 -6.40086E+00 -6.04218E+00 -8.04981E+00 -8.47269E+00 -4.20049E+00
  -5.26693E+00  3.70878E-02 -1.77786E+00 -2.59448E+00 -1.81388E+00  2.38453E-01 -3.28294E+00  1.47305E-01 -1.28237E+00 -5.56240E+00
  -9.60380E-02 -1.21126E-01 -4.10541E-01  3.64823E+00  2.05687E+00  5.33180E+00  1.76853E+00  3.77441E+00 -1.58273E-01  5.26641E+00
   5.33035E+00  5.97827E+00  7.82725E+00  3.11056E+00  4.91553E+00  1.37850E+00  8.69816E+00  1.45217E+01  1.50149E+01  3.38132E+01
   4.62874E+01  6.47876E+01  7.27763E+01  7.42536E+01  6.61965E+01  5.33937E+01  4.67541E+01  4.22411E+01  3.47035E+01  2.94795E+01
   2.13091E+01  1.72733E+01  1.32059E+01  8.56615E+00  4.98066E+00  7.99831E+00  3.65484E+00  3.70736E+00  2.04482E+00  5.34978E+00
   3.47851E+00  5.62666E+00  1.09541E+01  2.26217E+01  3.17712E+01  4.29633E+01  4.72422E+01  5.53401E+01  5.03632E+01  4.22494E+01
   3.61709E+01  3.29978E+01  2.14055E+01  1.19698E+01  1.48039E+01  1.34919E+01  2.05020E+00  5.06674E+00  3.28937E-01  1.13056E+00
  -2.94905E+00  3.42368E+00 -3.00494E+00 -1.47014E+00 -3.15875E+00 -1.14074E+00 -2.35084E+00 -7.25415E+00 -6.18804E+00 -3.37859E+00
  -2.33183E+00 -4.59251E+00 -5.95859E+00  1.41468E-01 -2.58782E+00 -2.96751E+00 -4.83717E+00 -3.58078E+00 -5.45572E+00 -2.10265E+00
  -5.72892E+00 -7.35775E+00 -7.43929E+00 -9.33500E+00 -5.03984E+00 -5.94776E+00 -4.16912E+00 -3.71894E+00 -7.64070E+00 -1.08080E+01
  -9.90518E+00 -9.00343E+00 -7.83700E+00 -8.98826E+00 -1.14282E+01 -1.03174E+01 -1.58734E+01 -1.03277E+01 -8.26521E+00 -1.17097E+01
  -9.32112E+00 -1.94475E+01 -1.19294E+01 -1.24538E+01 -1.43992E+01 -9.92431E+00 -1.02055E+01 -1.07179E+01 -6.44464E+00 -2.50088E-01
  -1.13046E+00  4.79702E+00  3.18440E+00  4.81336E+00  4.43423E-01 -1.16420E+00 -1.09804E-02 -1.58007E+00  9.63932E-01 -1.45647E+00
   1.49718E+00  7.78714E+00  5.00302E+00  3.19023E+00  2.32333E+00  4.82495E+00  2.26290E+00  1.46333E+00 -1.24811E+00 -3.55576E+00
  -2.17648E-01  4.15885E-01  1.83615E+00  9.89981E+00  1.51233E+01  1.29765E+01  1.17013E+01  6.75606E+00  8.49325E+00  3.91049E+00
   6.84519E+00  2.44690E+00  4.34109E+00  6.85845E+00  9.72837E+00  6.23348E+00  5.92316E+00  1.29018E+01  1.13354E+01  1.41106E+01
   1.46983E+01  1.10162E+01  1.06509E+01  9.77412E+00  9.88077E+00  1.35326E+01  1.40211E+01  1.56998E+01  9.59380E+00  1.34191E+01
   1.04631E+01  9.30365E+00  1.00428E+01  1.05629E+01  8.73559E+00  1.36651E+01  1.23392E+01  2.48397E+01  1.86986E+01  2.01952E+01
   1.61254E+01  1.98837E+01  2.05307E+01  2.19178E+01  2.44609E+01  3.25690E+01  4.45707E+01  6.46462E+01  7.48541E+01  9.16760E+01
   9.42327E+01  9.02325E+01  8.00367E+01  7.10699E+01  5.78694E+01  5.46643E+01  4.28340E+01  3.80944E+01  2.58844E+01  2.23969E+01
   1.77399E+01  1.67562E+01  1.07825E+01  1.56075E+01  1.12633E+01  1.12894E+01  5.98816E+00  7.58791E+00  7.58983E+00  6.40622E+00
   5.12768E+00  1.29887E+00  7.03950E+00  4.33933E+00  1.73558E+00  3.53171E+00  5.93604E-01 -1.66160E+00  6.72120E-01  1.04875E+00
   6.91161E-02  6.61986E+00 -1.37277E+00  2.30348E+00  1.59806E+00  6.39653E+00  5.27885E+00  5.46644E+00  1.29488E+00  6.99828E+00
   4.37162E+00  4.82770E+00  6.58967E+00  6.92407E+00  3.15583E+00  6.77976E+00  5.08048E+00  4.19344E+00  7.74074E+00  9.41903E+00
   1.12820E+01  1.08561E+01  7.54336E+00  8.20486E+00  6.37815E+00  7.15763E+00  1.16333E+01  7.48594E+00  9.27933E+00  9.63093E+00
   5.75444E+00  6.74617E+00  1.18474E+01  9.94880E+00  9.02277E+00  1.14826E+01  1.04957E+01  1.50738E+01  6.65762E+00  1.00598E+01
   8.92512E+00  9.70113E+00  8.32896E+00  1.08320E+01  8.21051E+00  1.00894E+01  6.75871E+00  1.07537E+01  8.21917E+00  5.35086E+00
   4.36970E+00  1.72214E+00  4.76825E+00  3.21960E+00  6.04497E-01  1.16072E+00  5.38210E+00  3.13306E+00 -7.76733E-01 -1.99135E+00
  -5.78591E+00 -8.82948E-01 -6.59527E+00 -1.69562E+00 -8.89983E+00 -7.06256E-01 -6.51096E-01 -4.89323E+00  9.48507E-01  5.54953E-02
   1.07526E+00 -4.05719E+00  1.90734E+00 -1.09394E+00  1.50852E+00 -1.56299E+00  3.62194E+00  4.47795E+00  5.55271E+00  8.93687E+00
   8.02626E+00  6.09126E+00  9.61134E+00  8.45155E+00  8.07134E+00  9.67022E+00  6.68660E+00  6.29993E+00  8.24657E+00  6.62353E+00
   7.57164E+00  5.94632E+00  9.49730E+00  1.04979E+01  8.76060E+00  9.72921E+00  4.10054E+00  4.82838E+00  6.84165E+00  9.18896E+00
   7.45637E+00  8.68570E+00  8.11506E+00  1.19908E+01  1.22113E+01  1.22169E+01  9.72511E+00  1.32645E+01  1.90721E+01  1.37508E+01
   1.71244E+01  1.69458E+01  1.76422E+01  2.30740E+01  2.31271E+01  1.89151E+01  2.22055E+01  2.08564E+01  1.82257E+01  2.33784E+01
   1.73890E+01  2.11677E+01  1.76387E+01  1.69808E+01  1.42726E+01  1.54336E+01  1.58492E+01  1.40592E+01  1.48283E+01  1.27960E+01
   1.23212E+01  1.03384E+01  8.41298E+00  1.10876E+01  1.44037E+01  1.08235E+01  4.95732E+00  4.20803E+00  1.05017E+01  7.29880E+00
   6.78596E+00  8.66942E+00  3.53518E+00  9.89055E+00  4.48865E+00  4.37750E+00  6.71596E+00  6.02987E+00  6.85718E+00  4.46523E+00
   5.25864E+00  5.18005E+00  6.06381E+00  7.83866E+00  5.73449E+00  1.02191E+01  5.62444E+00  8.50174E+00  7.37518E+00  4.17585E+00
   7.39832E+00  9.31679E+00  1.07424E+01  6.32268E+00  1.28645E+00  7.08389E+00  7.93988E+00  7.94711E+00  5.33943E+00  1.89663E+00
   5.53682E+00  9.22941E+00  4.84469E+00  2.95575E+00  7.38132E+00  8.36715E+00  1.77614E+00  4.05985E+00  1.21199E+01  8.76240E+00
   5.48615E+00  7.13656E+00  8.79352E+00  1.03964E+01  4.03114E+00  9.34514E+00  8.76610E+00  7.68932E+00  6.65404E+00  1.23938E+01
   4.14192E+00  4.85822E+00  1.04052E+01  5.79128E+00  6.29328E+00  5.00271E+00  5.24782E+00  3.96701E+00  7.94326E+00  1.03571E+01
   5.51461E+00  7.18294E+00  7.23360E+00  4.75016E+00  4.21950E+00  7.79880E+00  5.01168E+00  4.86081E+00
 NY points of the fit to the data follow
  -1.90715E+00 -1.68922E+00 -6.78389E-01  1.44263E+00  4.96135E+00  1.01061E+01  1.66193E+01  2.35668E+01  2.96102E+01  3.34816E+01
   3.45426E+01  3.30622E+01  2.99821E+01  2.63249E+01  2.27635E+01  1.95151E+01  1.64718E+01  1.33614E+01  1.00272E+01  6.85064E+00
   4.45480E+00  2.72885E+00  1.73332E+00  1.13684E+00  1.03361E+00  1.73605E+00  3.41561E+00  5.91044E+00  8.65977E+00  1.09088E+01
   1.20545E+01  1.19130E+01  1.07475E+01  8.99929E+00  7.13262E+00  5.59924E+00  4.56454E+00  3.89309E+00  3.29284E+00  2.90445E+00
   3.09162E+00  3.72836E+00  4.88193E+00  6.43730E+00  8.05669E+00  9.30653E+00  9.78908E+00  9.40424E+00  8.32644E+00  6.95753E+00
   5.71230E+00  4.63021E+00  3.67675E+00  2.96014E+00  2.45502E+00  1.96791E+00  1.59356E+00  1.55325E+00  1.63044E+00  1.45500E+00
   9.65637E-01  3.28152E-01 -3.14021E-01 -8.34394E-01 -1.16353E+00 -1.27553E+00 -1.20765E+00 -1.07800E+00 -9.59130E-01 -8.40619E-01
  -7.44393E-01 -6.90405E-01 -7.00669E-01 -7.78394E-01 -8.94952E-01 -1.03449E+00 -1.18375E+00 -1.31042E+00 -1.37643E+00 -1.26936E+00
  -9.25719E-01 -2.15568E-01  9.44970E-01  2.39079E+00  3.77192E+00  4.70487E+00  4.93906E+00  4.48022E+00  3.61550E+00  2.72364E+00
   2.02620E+00  1.53635E+00  1.17517E+00  8.84538E-01  7.31393E-01  1.36863E+00  4.01922E+00  9.94389E+00  1.98766E+01  3.35384E+01
   4.89212E+01  6.26382E+01  7.12965E+01  7.29792E+01  6.82425E+01  5.97345E+01  5.03959E+01  4.18014E+01  3.42595E+01  2.75558E+01
   2.11177E+01  1.41620E+01  6.96449E+00  1.92932E+00  1.54251E-01 -3.95504E-01 -5.88404E-01 -5.85577E-01 -3.39590E-01  5.75402E-01
   2.86093E+00  7.05519E+00  1.38026E+01  2.31522E+01  3.38232E+01  4.35251E+01  4.99037E+01  5.15456E+01  4.87391E+01  4.32460E+01
   3.70095E+01  3.10353E+01  2.54668E+01  2.02181E+01  1.51209E+01  9.83329E+00  4.58195E+00  1.08863E+00  2.76588E-01  3.22697E-01
   3.96527E-01  2.92635E-01  3.18576E-02 -2.25951E-01 -4.00269E-01 -5.70588E-01 -7.86790E-01 -1.07846E+00 -1.46881E+00 -1.90896E+00
  -2.34240E+00 -2.69611E+00 -2.92410E+00 -3.07676E+00 -3.21086E+00 -3.37779E+00 -3.63978E+00 -4.01874E+00 -4.45239E+00 -4.82682E+00
  -5.02033E+00 -4.97623E+00 -4.76863E+00 -4.57603E+00 -4.57510E+00 -4.82933E+00 -5.25900E+00 -5.73444E+00 -6.16395E+00 -6.52812E+00
  -6.85478E+00 -7.25788E+00 -7.81431E+00 -8.40197E+00 -8.86044E+00 -9.01844E+00 -8.88052E+00 -8.66818E+00 -8.51673E+00 -8.47931E+00
  -8.52595E+00 -8.55777E+00 -8.50428E+00 -8.30870E+00 -7.86196E+00 -7.05497E+00 -5.90595E+00 -4.57531E+00 -3.20642E+00 -2.03199E+00
  -1.30233E+00 -1.13637E+00 -1.44466E+00 -1.88267E+00 -2.14907E+00 -2.06331E+00 -1.52611E+00 -5.97500E-01  5.88546E-01  2.00605E+00
   3.48836E+00  4.75595E+00  5.46396E+00  5.34660E+00  4.27229E+00  2.36620E+00  3.09416E-02 -2.07199E+00 -3.36116E+00 -3.52454E+00
  -2.51536E+00 -5.22168E-01  1.96676E+00  4.34835E+00  6.16961E+00  7.07343E+00  6.84079E+00  5.65618E+00  3.98342E+00  2.25942E+00
   8.31626E-01  3.49253E-01  9.98936E-01  2.35391E+00  3.85729E+00  5.25196E+00  6.56146E+00  7.62168E+00  8.31755E+00  8.83825E+00
   9.40488E+00  1.00975E+01  1.08055E+01  1.14932E+01  1.23019E+01  1.32491E+01  1.40935E+01  1.45860E+01  1.45895E+01  1.42086E+01
   1.37105E+01  1.33005E+01  1.31751E+01  1.35212E+01  1.42439E+01  1.50053E+01  1.55979E+01  1.61876E+01  1.68560E+01  1.75861E+01
   1.84321E+01  1.94704E+01  2.08702E+01  2.34361E+01  2.80658E+01  3.59271E+01  4.78243E+01  6.27165E+01  7.76213E+01  8.87613E+01
   9.31625E+01  9.01405E+01  8.17300E+01  7.12956E+01  6.12368E+01  5.23327E+01  4.44998E+01  3.73270E+01  2.98556E+01  2.15744E+01
   1.42207E+01  1.07589E+01  9.48878E+00  8.70627E+00  8.09677E+00  7.54144E+00  6.97316E+00  6.42351E+00  5.90389E+00  5.42270E+00
   4.98730E+00  4.59115E+00  4.21458E+00  3.86354E+00  3.55800E+00  3.30221E+00  3.09227E+00  2.92790E+00  2.81286E+00  2.75008E+00
   2.73522E+00  2.76173E+00  2.83375E+00  2.95338E+00  3.11988E+00  3.33149E+00  3.58583E+00  3.87907E+00  4.20481E+00  4.55580E+00
   4.92513E+00  5.30380E+00  5.68168E+00  6.04931E+00  6.39782E+00  6.71947E+00  7.00827E+00  7.26027E+00  7.47368E+00  7.64902E+00
   7.78924E+00  7.89944E+00  7.98678E+00  8.06024E+00  8.12929E+00  8.20298E+00  8.28961E+00  8.39589E+00  8.52628E+00  8.68247E+00
   8.86302E+00  9.06332E+00  9.27584E+00  9.49050E+00  9.69525E+00  9.87676E+00  1.00213E+01  1.01157E+01  1.01481E+01  1.01090E+01
   9.99168E+00  9.79250E+00  9.51143E+00  9.15199E+00  8.72116E+00  8.22902E+00  7.68839E+00  7.11456E+00  6.52579E+00  5.94495E+00
   5.39104E+00  4.87422E+00  4.39847E+00  3.94799E+00  3.48928E+00  2.99183E+00  2.44757E+00  1.88727E+00  1.37122E+00  9.64759E-01
   7.18067E-01  6.47966E-01  7.36752E-01  9.40372E-01  1.19658E+00  1.44759E+00  1.67679E+00  1.91268E+00  2.15848E+00  2.38893E+00
   2.60950E+00  2.82448E+00  3.02706E+00  3.19765E+00  3.32540E+00  3.44516E+00  3.57757E+00  3.70713E+00  3.82605E+00  3.93167E+00
   4.02367E+00  4.10326E+00  4.17283E+00  4.23577E+00  4.29624E+00  4.35901E+00  4.42931E+00  4.51273E+00  4.61507E+00  4.74224E+00
   4.90010E+00  5.09432E+00  5.33038E+00  5.61339E+00  5.94803E+00  6.33840E+00  6.78786E+00  7.29883E+00  7.87264E+00  8.50931E+00
   9.20730E+00  9.96330E+00  1.07720E+01  1.16260E+01  1.25155E+01  1.34287E+01  1.43516E+01  1.52684E+01  1.61619E+01  1.70137E+01
   1.78053E+01  1.85186E+01  1.91366E+01  1.96442E+01  2.00290E+01  2.02815E+01  2.03962E+01  2.03715E+01  2.02097E+01  1.99171E+01
   1.95035E+01  1.89818E+01  1.83671E+01  1.76765E+01  1.69279E+01  1.61391E+01  1.53277E+01  1.45099E+01  1.37005E+01  1.29120E+01
   1.21552E+01  1.14380E+01  1.07667E+01  1.01452E+01  9.57568E+00  9.05855E+00  8.59304E+00  8.17731E+00  7.80874E+00  7.48423E+00
   7.20034E+00  6.95352E+00  6.74018E+00  6.55688E+00  6.40037E+00  6.26762E+00  6.15587E+00  6.06262E+00  5.98561E+00  5.92287E+00
   5.87264E+00  5.83340E+00  5.80380E+00  5.78264E+00  5.76889E+00  5.76166E+00  5.76015E+00  5.76370E+00  5.77169E+00  5.78357E+00
   5.79888E+00  5.81721E+00  5.83821E+00  5.86156E+00  5.88698E+00  5.91424E+00  5.94312E+00  5.97347E+00  6.00512E+00  6.03792E+00
   6.07174E+00  6.10646E+00  6.14199E+00  6.17825E+00  6.21516E+00  6.25262E+00  6.29057E+00  6.32895E+00  6.36773E+00  6.40685E+00
   6.44629E+00  6.48598E+00  6.52590E+00  6.56603E+00  6.60634E+00  6.64682E+00  6.68744E+00  6.72818E+00  6.76902E+00  6.80995E+00
   6.85099E+00  6.89210E+00  6.93329E+00  6.97454E+00  7.01584E+00  7.05722E+00  7.09868E+00  7.14020E+00  7.18178E+00  7.22344E+00
   7.26517E+00  7.30700E+00  7.34893E+00  7.39096E+00  7.43311E+00  7.47538E+00  7.51781E+00  7.56042E+00
 NY background values follow
    -6.489E+00   -6.443E+00   -6.398E+00   -6.353E+00   -6.309E+00   -6.265E+00   -6.221E+00   -6.178E+00   -6.135E+00   -6.093E+00
    -6.051E+00   -6.009E+00   -5.968E+00   -5.928E+00   -5.887E+00   -5.848E+00   -5.808E+00   -5.770E+00   -5.731E+00   -5.694E+00
    -5.657E+00   -5.620E+00   -5.584E+00   -5.548E+00   -5.513E+00   -5.479E+00   -5.445E+00   -5.411E+00   -5.379E+00   -5.347E+00
    -5.315E+00   -5.284E+00   -5.254E+00   -5.224E+00   -5.195E+00   -5.167E+00   -5.140E+00   -5.113E+00   -5.087E+00   -5.061E+00
    -5.036E+00   -5.012E+00   -4.989E+00   -4.966E+00   -4.945E+00   -4.923E+00   -4.903E+00   -4.884E+00   -4.865E+00   -4.847E+00
    -4.830E+00   -4.813E+00   -4.797E+00   -4.783E+00   -4.768E+00   -4.755E+00   -4.742E+00   -4.730E+00   -4.719E+00   -4.708E+00
    -4.699E+00   -4.690E+00   -4.681E+00   -4.674E+00   -4.667E+00   -4.661E+00   -4.655E+00   -4.650E+00   -4.646E+00   -4.643E+00
    -4.640E+00   -4.638E+00   -4.637E+00   -4.637E+00   -4.637E+00   -4.638E+00   -4.639E+00   -4.641E+00   -4.644E+00   -4.648E+00
    -4.652E+00   -4.657E+00   -4.662E+00   -4.669E+00   -4.676E+00   -4.683E+00   -4.691E+00   -4.700E+00   -4.710E+00   -4.720E+00
    -4.730E+00   -4.742E+00   -4.754E+00   -4.766E+00   -4.779E+00   -4.793E+00   -4.807E+00   -4.822E+00   -4.837E+00   -4.852E+00
    -4.868E+00   -4.884E+00   -4.900E+00   -4.916E+00   -4.933E+00   -4.949E+00   -4.966E+00   -4.983E+00   -5.000E+00   -5.017E+00
    -5.034E+00   -5.051E+00   -5.068E+00   -5.085E+00   -5.101E+00   -5.117E+00   -5.133E+00   -5.149E+00   -5.165E+00   -5.180E+00
    -5.195E+00   -5.209E+00   -5.223E+00   -5.236E+00   -5.249E+00   -5.261E+00   -5.273E+00   -5.284E+00   -5.294E+00   -5.304E+00
    -5.313E+00   -5.321E+00   -5.329E+00   -5.335E+00   -5.341E+00   -5.346E+00   -5.349E+00   -5.352E+00   -5.354E+00   -5.355E+00
    -5.355E+00   -5.353E+00   -5.351E+00   -5.348E+00   -5.343E+00   -5.338E+00   -5.331E+00   -5.323E+00   -5.314E+00   -5.304E+00
    -5.293E+00   -5.281E+00   -5.267E+00   -5.252E+00   -5.236E+00   -5.219E+00   -5.200E+00   -5.180E+00   -5.159E+00   -5.137E+00
    -5.113E+00   -5.088E+00   -5.062E+00   -5.034E+00   -5.005E+00   -4.974E+00   -4.942E+00   -4.909E+00   -4.874E+00   -4.838E+00
    -4.800E+00   -4.761E+00   -4.721E+00   -4.678E+00   -4.635E+00   -4.590E+00   -4.543E+00   -4.494E+00   -4.445E+00   -4.393E+00
    -4.340E+00   -4.285E+00   -4.229E+00   -4.171E+00   -4.112E+00   -4.051E+00   -3.990E+00   -3.927E+00   -3.863E+00   -3.798E+00
    -3.732E+00   -3.665E+00   -3.598E+00   -3.530E+00   -3.462E+00   -3.393E+00   -3.324E+00   -3.255E+00   -3.185E+00   -3.116E+00
    -3.046E+00   -2.977E+00   -2.908E+00   -2.840E+00   -2.771E+00   -2.704E+00   -2.637E+00   -2.570E+00   -2.505E+00   -2.440E+00
    -2.377E+00   -2.314E+00   -2.253E+00   -2.193E+00   -2.134E+00   -2.077E+00   -2.021E+00   -1.967E+00   -1.915E+00   -1.864E+00
    -1.816E+00   -1.769E+00   -1.725E+00   -1.682E+00   -1.642E+00   -1.605E+00   -1.570E+00   -1.537E+00   -1.507E+00   -1.480E+00
    -1.454E+00   -1.432E+00   -1.411E+00   -1.393E+00   -1.377E+00   -1.363E+00   -1.352E+00   -1.342E+00   -1.334E+00   -1.329E+00
    -1.325E+00   -1.323E+00   -1.323E+00   -1.325E+00   -1.328E+00   -1.334E+00   -1.341E+00   -1.349E+00   -1.359E+00   -1.370E+00
    -1.383E+00   -1.397E+00   -1.413E+00   -1.430E+00   -1.448E+00   -1.467E+00   -1.488E+00   -1.509E+00   -1.532E+00   -1.556E+00
    -1.580E+00   -1.606E+00   -1.632E+00   -1.659E+00   -1.687E+00   -1.715E+00   -1.745E+00   -1.774E+00   -1.805E+00   -1.836E+00
    -1.867E+00   -1.899E+00   -1.931E+00   -1.963E+00   -1.996E+00   -2.029E+00   -2.063E+00   -2.096E+00   -2.130E+00   -2.163E+00
    -2.197E+00   -2.231E+00   -2.265E+00   -2.299E+00   -2.333E+00   -2.366E+00   -2.400E+00   -2.434E+00   -2.467E+00   -2.500E+00
    -2.533E+00   -2.566E+00   -2.598E+00   -2.630E+00   -2.661E+00   -2.693E+00   -2.723E+00   -2.754E+00   -2.783E+00   -2.813E+00
    -2.841E+00   -2.869E+00   -2.897E+00   -2.923E+00   -2.949E+00   -2.974E+00   -2.999E+00   -3.023E+00   -3.045E+00   -3.067E+00
    -3.088E+00   -3.108E+00   -3.127E+00   -3.145E+00   -3.162E+00   -3.178E+00   -3.193E+00   -3.207E+00   -3.219E+00   -3.231E+00
    -3.241E+00   -3.250E+00   -3.257E+00   -3.264E+00   -3.269E+00   -3.273E+00   -3.276E+00   -3.277E+00   -3.277E+00   -3.276E+00
    -3.273E+00   -3.269E+00   -3.264E+00   -3.258E+00   -3.250E+00   -3.240E+00   -3.230E+00   -3.217E+00   -3.204E+00   -3.189E+00
    -3.172E+00   -3.154E+00   -3.135E+00   -3.114E+00   -3.092E+00   -3.068E+00   -3.042E+00   -3.015E+00   -2.986E+00   -2.956E+00
    -2.925E+00   -2.891E+00   -2.856E+00   -2.820E+00   -2.781E+00   -2.742E+00   -2.700E+00   -2.657E+00   -2.612E+00   -2.565E+00
    -2.517E+00   -2.467E+00   -2.415E+00   -2.362E+00   -2.306E+00   -2.250E+00   -2.191E+00   -2.131E+00   -2.070E+00   -2.007E+00
    -1.942E+00   -1.876E+00   -1.809E+00   -1.741E+00   -1.671E+00   -1.600E+00   -1.528E+00   -1.454E+00   -1.380E+00   -1.304E+00
    -1.228E+00   -1.150E+00   -1.072E+00   -9.926E-01   -9.123E-01   -8.313E-01   -7.495E-01   -6.669E-01   -5.836E-01   -4.997E-01
    -4.151E-01   -3.300E-01   -2.444E-01   -1.582E-01   -7.164E-02    1.536E-02    1.027E-01    1.904E-01    2.784E-01    3.666E-01
     4.551E-01    5.437E-01    6.324E-01    7.212E-01    8.100E-01    8.989E-01    9.877E-01    1.076E+00    1.165E+00    1.253E+00
     1.342E+00    1.430E+00    1.518E+00    1.606E+00    1.693E+00    1.781E+00    1.868E+00    1.955E+00    2.041E+00    2.128E+00
     2.214E+00    2.300E+00    2.385E+00    2.470E+00    2.555E+00    2.639E+00    2.723E+00    2.807E+00    2.890E+00    2.973E+00
     3.055E+00    3.137E+00    3.218E+00    3.299E+00    3.379E+00    3.459E+00    3.538E+00    3.617E+00    3.695E+00    3.773E+00
     3.850E+00    3.927E+00    4.002E+00    4.077E+00    4.152E+00    4.226E+00    4.299E+00    4.371E+00    4.443E+00    4.514E+00
     4.584E+00    4.654E+00    4.723E+00    4.791E+00    4.858E+00    4.924E+00    4.990E+00    5.055E+00    5.119E+00    5.183E+00
     5.246E+00    5.308E+00    5.370E+00    5.431E+00    5.491E+00    5.551E+00    5.610E+00    5.668E+00    5.726E+00    5.784E+00
     5.841E+00    5.897E+00    5.953E+00    6.009E+00    6.064E+00    6.118E+00    6.172E+00    6.226E+00    6.279E+00    6.332E+00
     6.384E+00    6.437E+00    6.488E+00    6.540E+00    6.591E+00    6.642E+00    6.692E+00    6.742E+00    6.792E+00    6.842E+00
     6.892E+00    6.941E+00    6.990E+00    7.039E+00    7.088E+00    7.136E+00    7.185E+00    7.233E+00
 Cr       Conc. = 7.38E+02
