 LCModel (Version 6.3-1L) Copyright: S.W. Provencher.          Ref.: Magn. Reson. Med. 30:672-679 (1993).                
 Slice#2 Row#9 Col#7  PD_24_press_1_raw_act
 36 lines in following concentration table = NCONC+1
    Conc.  %SD /Cr+PCr  Metabolite                                         
    0.000 999%   0.000 Ala                                                 
   99.370 270% 6.1E-02 Asp                                                 
 1.21E+03  19%   0.745 Cr                                                  
  414.829  56%   0.255 PCr                                                 
    0.000 999%   0.000 GABA                                                
    0.000 999%   0.000 Glc                                                 
  777.909  34%   0.479 Gln                                                 
 2.14E+03  14%   1.319 Glu                                                 
  707.265   4%   0.435 GPC                                                 
    0.000 999%   0.000 PCh                                                 
  484.398  18%   0.298 GSH                                                 
 1.90E+03  15%   1.172 Ins                                                 
   18.430 751% 1.1E-02 Lac                                                 
 2.21E+03   5%   1.358 NAA                                                 
  418.293  28%   0.257 NAAG                                                
   44.771  69% 2.8E-02 Scyllo                                              
    0.000 999%   0.000 Tau                                                 
    0.000 999%   0.000 -CrCH2                                              
  707.265   4%   0.435 GPC+PCh                                             
 2.62E+03   4%   1.615 NAA+NAAG                                            
 1.62E+03   4%   1.000 Cr+PCr                                              
 2.92E+03  14%   1.797 Glu+Gln                                             
 1.58E+03  34%   0.973 Lip13a                                              
    0.000 999%   0.000 Lip13b                                              
  104.326 256% 6.4E-02 Lip09                                               
 1.67E+03  19%   1.027 MM09                                                
  231.013  81%   0.142 Lip20                                               
 3.31E+03  14%   2.039 MM20                                                
  599.689  33%   0.369 MM12                                                
 1.63E+03  26%   1.006 MM14                                                
 1.42E+03  21%   0.876 MM17                                                
 1.58E+03  34%   0.973 Lip13a+Lip13b                                       
 3.82E+03  12%   2.348 MM14+Lip13a+Lip13b+MM12                             
 1.77E+03  13%   1.091 MM09+Lip09                                          
 3.54E+03  13%   2.181 MM20+Lip20                                          
   6 lines in following misc. output table
  FWHM = 0.046 ppm    S/N =  11                                            
  Data shift = 0.008 ppm                                                   
  Ph:  -5 deg       2.1 deg/ppm                                            
  alphaB,S = 2.3E+00,   9.7E+01                                            
   14 spline knots.   Ns = 6(1)                                            
  (11) 4 infls.   ( 3) 1 extrs.                                            
  498 points on ppm-axis = NY
      4.000000     3.992357     3.984714     3.977070     3.969427     3.961784     3.954141     3.946497     3.938854     3.931211
      3.923568     3.915925     3.908281     3.900638     3.892995     3.885352     3.877708     3.870065     3.862422     3.854779
      3.847136     3.839492     3.831849     3.824206     3.816563     3.808919     3.801276     3.793633     3.785990     3.778347
      3.770703     3.763060     3.755417     3.747774     3.740130     3.732487     3.724844     3.717201     3.709558     3.701914
      3.694271     3.686628     3.678985     3.671341     3.663698     3.656055     3.648412     3.640769     3.633125     3.625482
      3.617839     3.610196     3.602552     3.594909     3.587266     3.579623     3.571980     3.564336     3.556693     3.549050
      3.541407     3.533763     3.526120     3.518477     3.510834     3.503191     3.495547     3.487904     3.480261     3.472618
      3.464974     3.457331     3.449688     3.442045     3.434402     3.426758     3.419115     3.411472     3.403829     3.396185
      3.388542     3.380899     3.373256     3.365613     3.357969     3.350326     3.342683     3.335040     3.327396     3.319753
      3.312110     3.304467     3.296824     3.289180     3.281537     3.273894     3.266251     3.258607     3.250964     3.243321
      3.235678     3.228034     3.220391     3.212748     3.205105     3.197462     3.189818     3.182175     3.174532     3.166889
      3.159245     3.151602     3.143959     3.136316     3.128673     3.121029     3.113386     3.105743     3.098100     3.090456
      3.082813     3.075170     3.067527     3.059884     3.052240     3.044597     3.036954     3.029311     3.021667     3.014024
      3.006381     2.998738     2.991095     2.983451     2.975808     2.968165     2.960522     2.952878     2.945235     2.937592
      2.929949     2.922306     2.914662     2.907019     2.899376     2.891733     2.884089     2.876446     2.868803     2.861160
      2.853517     2.845873     2.838230     2.830587     2.822944     2.815300     2.807657     2.800014     2.792371     2.784728
      2.777084     2.769441     2.761798     2.754155     2.746511     2.738868     2.731225     2.723582     2.715939     2.708295
      2.700652     2.693009     2.685366     2.677722     2.670079     2.662436     2.654793     2.647150     2.639506     2.631863
      2.624220     2.616577     2.608933     2.601290     2.593647     2.586004     2.578361     2.570717     2.563074     2.555431
      2.547788     2.540144     2.532501     2.524858     2.517215     2.509572     2.501928     2.494285     2.486642     2.478999
      2.471355     2.463712     2.456069     2.448426     2.440783     2.433139     2.425496     2.417853     2.410210     2.402566
      2.394923     2.387280     2.379637     2.371994     2.364350     2.356707     2.349064     2.341421     2.333777     2.326134
      2.318491     2.310848     2.303205     2.295561     2.287918     2.280275     2.272632     2.264988     2.257345     2.249702
      2.242059     2.234416     2.226772     2.219129     2.211486     2.203843     2.196199     2.188556     2.180913     2.173270
      2.165627     2.157983     2.150340     2.142697     2.135054     2.127410     2.119767     2.112124     2.104481     2.096838
      2.089194     2.081551     2.073908     2.066265     2.058621     2.050978     2.043335     2.035692     2.028049     2.020405
      2.012762     2.005119     1.997476     1.989833     1.982190     1.974546     1.966903     1.959260     1.951617     1.943974
      1.936331     1.928688     1.921045     1.913402     1.905759     1.898115     1.890472     1.882829     1.875186     1.867543
      1.859900     1.852257     1.844614     1.836971     1.829327     1.821684     1.814041     1.806398     1.798755     1.791112
      1.783469     1.775826     1.768183     1.760540     1.752896     1.745253     1.737610     1.729967     1.722324     1.714681
      1.707038     1.699395     1.691752     1.684108     1.676465     1.668822     1.661179     1.653536     1.645893     1.638250
      1.630607     1.622964     1.615321     1.607677     1.600034     1.592391     1.584748     1.577105     1.569462     1.561819
      1.554176     1.546533     1.538890     1.531246     1.523603     1.515960     1.508317     1.500674     1.493031     1.485388
      1.477745     1.470102     1.462458     1.454815     1.447172     1.439529     1.431886     1.424243     1.416600     1.408957
      1.401314     1.393671     1.386027     1.378384     1.370741     1.363098     1.355455     1.347812     1.340169     1.332526
      1.324883     1.317240     1.309596     1.301953     1.294310     1.286667     1.279024     1.271381     1.263738     1.256095
      1.248452     1.240808     1.233165     1.225522     1.217879     1.210236     1.202593     1.194950     1.187307     1.179664
      1.172021     1.164377     1.156734     1.149091     1.141448     1.133805     1.126162     1.118519     1.110876     1.103233
      1.095590     1.087946     1.080303     1.072660     1.065017     1.057374     1.049731     1.042088     1.034445     1.026802
      1.019158     1.011515     1.003872     0.996229     0.988586     0.980943     0.973300     0.965657     0.958014     0.950371
      0.942727     0.935084     0.927441     0.919798     0.912155     0.904512     0.896869     0.889226     0.881583     0.873940
      0.866296     0.858653     0.851010     0.843367     0.835724     0.828081     0.820438     0.812795     0.805152     0.797508
      0.789865     0.782222     0.774579     0.766936     0.759293     0.751650     0.744007     0.736364     0.728721     0.721077
      0.713434     0.705791     0.698148     0.690505     0.682862     0.675219     0.667576     0.659933     0.652290     0.644646
      0.637003     0.629360     0.621717     0.614074     0.606431     0.598788     0.591145     0.583502     0.575858     0.568215
      0.560572     0.552929     0.545286     0.537643     0.530000     0.522357     0.514714     0.507071     0.499427     0.491784
      0.484141     0.476498     0.468855     0.461212     0.453569     0.445925     0.438282     0.430639     0.422996     0.415353
      0.407710     0.400067     0.392424     0.384780     0.377137     0.369494     0.361851     0.354208     0.346565     0.338922
      0.331278     0.323635     0.315992     0.308349     0.300706     0.293063     0.285420     0.277777     0.270133     0.262490
      0.254847     0.247204     0.239561     0.231918     0.224275     0.216631     0.208988     0.201345
 NY phased data points follow
   2.34464E+01  3.50279E+01  2.91623E+01  3.47851E+01  3.62427E+01  4.11620E+01  4.30537E+01  5.21933E+01  5.67813E+01  6.96655E+01
   6.87373E+01  7.68664E+01  6.43050E+01  6.72155E+01  5.34732E+01  5.46388E+01  4.17370E+01  4.50777E+01  4.03438E+01  4.00818E+01
   2.96245E+01  3.48833E+01  3.15169E+01  3.66019E+01  3.09034E+01  3.51787E+01  3.69070E+01  4.07843E+01  2.95988E+01  3.95455E+01
   3.68276E+01  4.52946E+01  4.28523E+01  3.76282E+01  3.26782E+01  3.72348E+01  3.55147E+01  3.22727E+01  2.56407E+01  3.66016E+01
   2.81332E+01  3.63745E+01  2.58420E+01  3.52875E+01  3.48794E+01  4.48318E+01  3.41735E+01  4.87599E+01  4.05959E+01  4.28249E+01
   3.63808E+01  3.50228E+01  3.08620E+01  3.31888E+01  2.98006E+01  2.57128E+01  3.25262E+01  3.56291E+01  3.06037E+01  3.42375E+01
   2.90152E+01  2.86256E+01  2.36610E+01  2.10705E+01  1.72823E+01  2.41930E+01  1.79856E+01  1.96966E+01  1.70804E+01  1.75449E+01
   1.57511E+01  1.71451E+01  1.61902E+01  2.01959E+01  1.50553E+01  2.81270E+01  2.01919E+01  2.35953E+01  1.14015E+01  1.56383E+01
   1.43159E+01  1.72864E+01  1.53282E+01  1.94339E+01  1.61583E+01  1.74841E+01  1.47735E+01  2.24132E+01  1.75191E+01  2.12440E+01
   1.58548E+01  2.01316E+01  2.01687E+01  1.86856E+01  1.37359E+01  2.46128E+01  2.04920E+01  2.33663E+01  2.11308E+01  3.45348E+01
   4.52020E+01  6.47958E+01  8.05113E+01  8.86738E+01  8.16503E+01  7.36290E+01  6.00067E+01  5.16690E+01  3.50936E+01  3.78089E+01
   2.11389E+01  3.20764E+01  2.41186E+01  2.30428E+01  1.82212E+01  1.96681E+01  1.13652E+01  1.47108E+01  1.46002E+01  1.62522E+01
   1.10877E+01  1.86217E+01  1.99385E+01  2.97834E+01  4.12030E+01  4.97413E+01  6.64901E+01  7.03485E+01  6.61317E+01  6.13393E+01
   5.21157E+01  4.24118E+01  3.68375E+01  3.23950E+01  2.57481E+01  2.68688E+01  2.09620E+01  1.59238E+01  1.42509E+01  1.49213E+01
   1.60155E+01  9.40023E+00  8.51541E+00  1.59012E+01  1.02413E+01  1.35463E+01  7.51438E+00  1.37755E+01  4.68378E+00  1.71026E+01
   8.13073E+00  1.19157E+01  8.59795E+00  1.58713E+01  2.98429E+00  1.88217E+01  7.82000E+00  1.27815E+01  8.08779E+00  1.12862E+01
   7.38540E+00  4.42573E+00  3.35626E+00  9.05405E+00  6.32385E+00  1.41028E+01  1.12082E+01  1.40193E+01  7.42035E-01  1.56963E+01
  -4.91151E+00  4.21655E+00  2.77529E-01  7.89669E+00  5.89889E-01 -1.82320E+00 -1.81144E+00  1.16934E+00 -4.10314E+00 -2.16847E+00
   3.77600E-02 -2.81710E+00 -6.19002E+00 -6.14737E-01  3.51901E+00 -4.88306E+00  2.77070E+00  7.08853E+00  5.76314E+00  3.96178E+00
   6.63700E+00  1.36201E+01  7.37787E+00  1.45922E+01  1.48474E+01  1.39370E+01  8.30788E+00  1.00698E+01  4.57028E+00  7.90740E+00
   3.92704E+00  9.31598E+00  8.78611E+00  1.06485E+01  4.76425E+00  1.54827E+01  8.36455E+00  1.12872E+01  6.53092E+00  7.92769E-01
  -2.56803E+00  4.39489E+00  3.66164E+00  1.59778E+01  1.96657E+01  2.26485E+01  2.71932E+01  2.20057E+01  1.54337E+01  1.52291E+01
   1.03384E+01 -3.59890E-01 -6.51433E-01  3.83245E+00  9.45964E+00  1.72217E+01  1.03437E+01  1.91945E+01  1.73911E+01  1.41995E+01
   1.35921E+01  1.36595E+01  1.58502E+01  1.99380E+01  1.50487E+01  1.28515E+01  1.73439E+01  2.02036E+01  1.05610E+01  1.42419E+01
   1.16324E+01  1.56328E+01  6.28394E+00  1.52090E+01  1.30593E+01  2.70973E+01  1.04367E+01  2.02371E+01  1.70024E+01  2.22933E+01
   1.89039E+01  2.49766E+01  2.65267E+01  3.34372E+01  3.40039E+01  4.77085E+01  4.31660E+01  5.14867E+01  7.72861E+01  9.66578E+01
   1.12213E+02  1.01262E+02  8.34193E+01  6.54864E+01  5.14639E+01  4.40985E+01  3.56764E+01  3.75048E+01  2.05706E+01  1.79556E+01
   2.29567E+01  1.84764E+01  1.35623E+01  1.58450E+01  5.10141E+00  1.32247E+01  1.14794E+01  1.42894E+01  1.15454E+01  1.38942E+01
   8.12956E-01  1.16144E+01  7.31788E+00  9.87022E+00  1.03146E+01  7.08993E+00 -5.13189E-01  1.26916E+01  7.96070E+00  1.30420E+01
   4.96041E+00  6.74105E+00  5.17204E+00  1.26370E+01  4.52211E+00  1.23505E+01  1.00764E+01  1.10595E+01  1.10666E+01  1.32715E+01
   1.23048E+01  1.08600E+01  1.63682E+01  1.26927E+01  1.22166E+01  1.24399E+01  1.45659E+01  1.27496E+01  1.64771E+01  1.67519E+01
   1.58954E+01  1.80048E+01  1.20623E+01  2.18382E+01  1.67254E+01  1.74711E+01  1.03088E+01  1.59049E+01  1.51973E+01  1.61164E+01
   1.66210E+01  1.15733E+01  1.68906E+01  1.31929E+01  9.35877E+00  1.60829E+01  1.04896E+01  1.53084E+01  9.77964E+00  1.34732E+01
   1.41522E+01  1.21044E+01  1.08297E+01  1.59983E+01  1.80583E+01  1.55684E+01  1.71010E+01  1.50523E+01  1.30515E+01  1.82853E+01
   7.94632E+00  1.26361E+01  5.34281E+00  1.16792E+01  1.51711E+01  1.47784E+01  1.62643E+01  1.80871E+01  1.12154E+01  1.49993E+01
   1.44271E+01  1.30471E+01  1.82558E+01  1.15866E+01  9.14919E+00  1.94770E+01  1.93501E+01  1.27468E+01  9.14053E+00  1.77344E+01
   1.25051E+01  1.82829E+01  7.38128E+00  1.79078E+01  1.62351E+01  1.12240E+01  1.35742E+01  1.44790E+01  9.66676E+00  1.60916E+01
   1.35257E+01  1.61426E+01  1.54867E+01  9.97821E+00  7.74627E+00  1.30440E+01  1.06313E+01  7.17781E+00  1.33325E+01  1.06707E+01
   6.13935E+00  1.17837E+01  8.00511E+00  1.22265E+01  4.85855E+00  9.36341E+00  7.70737E+00  7.49414E+00  3.85031E+00  1.06799E+01
   6.71459E+00  1.22793E+01  7.79433E+00  1.48452E+01  5.19733E+00  1.23916E+01  8.93299E+00  1.08813E+01  1.25844E+01  1.50191E+01
   1.28111E+01  1.92348E+01  1.53493E+01  1.27411E+01  1.42867E+01  1.82740E+01  1.57837E+01  1.25957E+01  1.58166E+01  1.74095E+01
   1.92979E+01  1.60043E+01  1.57740E+01  1.12827E+01  1.11689E+01  1.01506E+01  1.01848E+01  9.62994E+00  6.70883E+00  9.20746E+00
   1.12065E+01  6.54553E+00  3.66978E+00  1.07193E+01  5.59792E+00  9.33892E+00  4.99393E-01  5.04869E+00  2.22090E+00  7.09826E+00
   1.54644E+00  5.86308E+00  5.07367E+00  6.02408E+00  2.04684E+00 -1.72631E+00  5.65344E-01  9.66222E-01  2.19709E+00  6.60161E+00
   4.06387E-01  6.62729E+00  3.36968E+00  4.35745E+00  4.78991E+00  1.87419E+00 -1.14686E+00  5.18791E+00  5.65628E+00  5.08405E+00
   6.66626E-01  6.04959E+00 -2.52954E+00  5.90060E-01  5.18160E+00  7.28156E+00  4.79891E+00  5.67101E+00  6.52110E+00  1.51856E+00
  -2.32109E+00  3.14672E+00 -1.40197E+00  7.76148E+00 -2.80774E-01  7.87764E+00  1.64484E-01  3.46460E+00  6.05932E+00  6.40341E+00
   5.52493E+00  6.62685E-01 -4.23511E-01  3.98793E+00 -1.31042E+00  1.30886E+00  9.08396E+00 -1.94847E+00 -1.70642E+00  7.24257E+00
   4.20903E+00  3.31907E+00  3.92661E+00  7.16489E+00  1.36387E+00  2.37752E+00  1.57524E+00  5.05537E+00  9.59366E-01  2.36716E+00
   2.10138E+00 -1.63726E-01  7.08898E+00  4.67051E+00  3.17842E+00  1.75505E+00  2.64847E+00  1.77111E+00
 NY points of the fit to the data follow
   3.28796E+01  3.24213E+01  3.23954E+01  3.29165E+01  3.44045E+01  3.70739E+01  4.14889E+01  4.74739E+01  5.44593E+01  6.14427E+01
   6.66460E+01  6.82503E+01  6.56776E+01  6.02910E+01  5.42007E+01  4.87624E+01  4.42762E+01  4.06749E+01  3.72550E+01  3.38535E+01
   3.21330E+01  3.15610E+01  3.11125E+01  3.05853E+01  3.02013E+01  3.00866E+01  3.07146E+01  3.25855E+01  3.55112E+01  3.86866E+01
   4.11149E+01  4.22552E+01  4.18555E+01  4.00504E+01  3.74412E+01  3.45922E+01  3.15708E+01  2.89510E+01  2.77700E+01  2.74903E+01
   2.76296E+01  2.84473E+01  3.00652E+01  3.25862E+01  3.58290E+01  3.93885E+01  4.19356E+01  4.20384E+01  3.98076E+01  3.63602E+01
   3.27759E+01  2.99236E+01  2.80444E+01  2.65785E+01  2.52169E+01  2.46167E+01  2.52205E+01  2.64777E+01  2.76646E+01  2.83579E+01
   2.82057E+01  2.71972E+01  2.56405E+01  2.40830E+01  2.30215E+01  2.25451E+01  2.24683E+01  2.26855E+01  2.31430E+01  2.37326E+01
   2.43431E+01  2.47078E+01  2.46840E+01  2.43057E+01  2.37157E+01  2.31191E+01  2.26199E+01  2.22238E+01  2.18285E+01  2.14137E+01
   2.11525E+01  2.10084E+01  2.08713E+01  2.06294E+01  2.01215E+01  1.91985E+01  1.79278E+01  1.66859E+01  1.59210E+01  1.58390E+01
   1.63592E+01  1.71989E+01  1.80282E+01  1.86681E+01  1.91527E+01  1.94707E+01  1.96945E+01  2.09655E+01  2.54069E+01  3.40471E+01
   4.78561E+01  6.53292E+01  8.09341E+01  8.82055E+01  8.47664E+01  7.39364E+01  6.10748E+01  5.00934E+01  4.20221E+01  3.52262E+01
   2.73948E+01  2.01451E+01  1.73500E+01  1.66617E+01  1.64170E+01  1.63032E+01  1.62484E+01  1.62332E+01  1.62893E+01  1.65043E+01
   1.70966E+01  1.88813E+01  2.31833E+01  3.06444E+01  4.18876E+01  5.56977E+01  6.78609E+01  7.35672E+01  7.10781E+01  6.29572E+01
   5.33381E+01  4.50292E+01  3.84712E+01  3.22246E+01  2.47695E+01  1.78873E+01  1.48155E+01  1.41002E+01  1.43208E+01  1.48665E+01
   1.52975E+01  1.55011E+01  1.55467E+01  1.54081E+01  1.51369E+01  1.48011E+01  1.43726E+01  1.38735E+01  1.33326E+01  1.27836E+01
   1.23092E+01  1.18677E+01  1.14812E+01  1.12160E+01  1.11120E+01  1.10854E+01  1.09815E+01  1.06725E+01  1.00659E+01  9.29549E+00
   8.67927E+00  8.49368E+00  8.75350E+00  9.14673E+00  9.28225E+00  8.95307E+00  8.28581E+00  7.62967E+00  7.23233E+00  7.01060E+00
   6.73842E+00  6.27256E+00  5.57113E+00  4.81206E+00  4.20258E+00  3.88056E+00  3.96104E+00  4.27431E+00  4.43327E+00  4.27605E+00
   3.98573E+00  3.85163E+00  4.00110E+00  4.31887E+00  4.54650E+00  4.71030E+00  5.35855E+00  6.77130E+00  8.72255E+00  1.05347E+01
   1.15486E+01  1.16427E+01  1.10327E+01  1.00803E+01  9.11596E+00  8.23076E+00  7.57353E+00  7.49796E+00  8.11926E+00  9.37751E+00
   1.11093E+01  1.29792E+01  1.45472E+01  1.54604E+01  1.52795E+01  1.37907E+01  1.10957E+01  7.66562E+00  4.34991E+00  2.09903E+00
   1.68018E+00  3.26128E+00  6.55123E+00  1.10411E+01  1.56538E+01  1.88214E+01  1.93597E+01  1.72563E+01  1.29907E+01  7.70183E+00
   2.84217E+00 -5.52673E-01 -1.73283E+00 -5.13645E-01  2.71919E+00  6.83961E+00  1.02614E+01  1.25133E+01  1.37908E+01  1.45344E+01
   1.48427E+01  1.46570E+01  1.44452E+01  1.46793E+01  1.52179E+01  1.58422E+01  1.64032E+01  1.66155E+01  1.63922E+01  1.56884E+01
   1.45698E+01  1.35062E+01  1.31311E+01  1.37198E+01  1.48353E+01  1.60196E+01  1.70208E+01  1.76043E+01  1.78195E+01  1.81618E+01
   1.94465E+01  2.16969E+01  2.50523E+01  2.93936E+01  3.45427E+01  4.10481E+01  4.93796E+01  6.19130E+01  7.88671E+01  9.51089E+01
   1.03164E+02  9.92959E+01  8.63101E+01  7.04632E+01  5.72319E+01  4.76601E+01  3.96028E+01  2.99862E+01  2.05500E+01  1.63943E+01
   1.47710E+01  1.38060E+01  1.32586E+01  1.29855E+01  1.26764E+01  1.22710E+01  1.17955E+01  1.12932E+01  1.08089E+01  1.03798E+01
   9.98800E+00  9.62337E+00  9.32246E+00  9.09947E+00  8.91233E+00  8.72711E+00  8.55436E+00  8.42460E+00  8.35887E+00  8.35067E+00
   8.40791E+00  8.54003E+00  8.73103E+00  8.96002E+00  9.22425E+00  9.52642E+00  9.87047E+00  1.02585E+01  1.06882E+01  1.11589E+01
   1.16707E+01  1.22090E+01  1.27533E+01  1.32835E+01  1.37841E+01  1.42446E+01  1.46523E+01  1.49907E+01  1.52542E+01  1.54386E+01
   1.55412E+01  1.55640E+01  1.55131E+01  1.53959E+01  1.52222E+01  1.50037E+01  1.47539E+01  1.44871E+01  1.42171E+01  1.39562E+01
   1.37149E+01  1.35022E+01  1.33248E+01  1.31873E+01  1.30916E+01  1.30368E+01  1.30201E+01  1.30374E+01  1.30838E+01  1.31536E+01
   1.32404E+01  1.33375E+01  1.34390E+01  1.35400E+01  1.36371E+01  1.37276E+01  1.38095E+01  1.38823E+01  1.39468E+01  1.40057E+01
   1.40636E+01  1.41279E+01  1.42016E+01  1.42829E+01  1.43661E+01  1.44320E+01  1.44584E+01  1.44407E+01  1.43994E+01  1.43693E+01
   1.43730E+01  1.44180E+01  1.45044E+01  1.46184E+01  1.47359E+01  1.48366E+01  1.48919E+01  1.48801E+01  1.48109E+01  1.46983E+01
   1.45491E+01  1.43564E+01  1.41105E+01  1.38280E+01  1.35232E+01  1.31943E+01  1.28429E+01  1.24732E+01  1.20901E+01  1.16987E+01
   1.13042E+01  1.09123E+01  1.05283E+01  1.01580E+01  9.80638E+00  9.47787E+00  9.17667E+00  8.90684E+00  8.67238E+00  8.47697E+00
   8.32378E+00  8.21563E+00  8.15524E+00  8.14540E+00  8.18874E+00  8.28742E+00  8.44291E+00  8.65603E+00  8.92705E+00  9.25544E+00
   9.63948E+00  1.00758E+01  1.05591E+01  1.10827E+01  1.16381E+01  1.22151E+01  1.28019E+01  1.33851E+01  1.39500E+01  1.44816E+01
   1.49654E+01  1.53873E+01  1.57343E+01  1.59952E+01  1.61613E+01  1.62269E+01  1.61895E+01  1.60498E+01  1.58113E+01  1.54805E+01
   1.50664E+01  1.45802E+01  1.40348E+01  1.34434E+01  1.28195E+01  1.21761E+01  1.15256E+01  1.08793E+01  1.02470E+01  9.63655E+00
   9.05397E+00  8.50372E+00  7.98891E+00  7.51129E+00  7.07127E+00  6.66809E+00  6.30024E+00  5.96579E+00  5.66265E+00  5.38846E+00
   5.14061E+00  4.91641E+00  4.71331E+00  4.52911E+00  4.36186E+00  4.20972E+00  4.07083E+00  3.94350E+00  3.82637E+00  3.71839E+00
   3.61867E+00  3.52628E+00  3.44028E+00  3.35987E+00  3.28451E+00  3.21385E+00  3.14749E+00  3.08495E+00  3.02572E+00  2.96943E+00
   2.91594E+00  2.86517E+00  2.81688E+00  2.77076E+00  2.72650E+00  2.68400E+00  2.64327E+00  2.60427E+00  2.56680E+00  2.53062E+00
   2.49556E+00  2.46164E+00  2.42895E+00  2.39743E+00  2.36688E+00  2.33711E+00  2.30808E+00  2.27988E+00  2.25257E+00  2.22604E+00
   2.20011E+00  2.17466E+00  2.14975E+00  2.12550E+00  2.10190E+00  2.07882E+00  2.05609E+00  2.03367E+00  2.01168E+00  1.99020E+00
   1.96918E+00  1.94844E+00  1.92789E+00  1.90756E+00  1.88757E+00  1.86798E+00  1.84865E+00  1.82944E+00  1.81030E+00  1.79132E+00
   1.77262E+00  1.75415E+00  1.73577E+00  1.71735E+00  1.69892E+00  1.68059E+00  1.66241E+00  1.64428E+00
 NY background values follow
     2.637E+01    2.625E+01    2.613E+01    2.602E+01    2.590E+01    2.579E+01    2.567E+01    2.555E+01    2.544E+01    2.532E+01
     2.520E+01    2.509E+01    2.497E+01    2.486E+01    2.474E+01    2.462E+01    2.451E+01    2.439E+01    2.427E+01    2.416E+01
     2.404E+01    2.392E+01    2.381E+01    2.369E+01    2.358E+01    2.346E+01    2.334E+01    2.323E+01    2.311E+01    2.299E+01
     2.288E+01    2.276E+01    2.265E+01    2.253E+01    2.241E+01    2.230E+01    2.218E+01    2.207E+01    2.195E+01    2.184E+01
     2.172E+01    2.160E+01    2.149E+01    2.137E+01    2.126E+01    2.114E+01    2.103E+01    2.091E+01    2.080E+01    2.068E+01
     2.057E+01    2.046E+01    2.034E+01    2.023E+01    2.011E+01    2.000E+01    1.988E+01    1.977E+01    1.966E+01    1.954E+01
     1.943E+01    1.932E+01    1.921E+01    1.909E+01    1.898E+01    1.887E+01    1.876E+01    1.864E+01    1.853E+01    1.842E+01
     1.831E+01    1.820E+01    1.809E+01    1.798E+01    1.787E+01    1.776E+01    1.765E+01    1.754E+01    1.743E+01    1.732E+01
     1.721E+01    1.710E+01    1.700E+01    1.689E+01    1.678E+01    1.667E+01    1.657E+01    1.646E+01    1.635E+01    1.625E+01
     1.614E+01    1.604E+01    1.593E+01    1.583E+01    1.572E+01    1.562E+01    1.552E+01    1.541E+01    1.531E+01    1.521E+01
     1.511E+01    1.500E+01    1.490E+01    1.480E+01    1.470E+01    1.460E+01    1.450E+01    1.440E+01    1.430E+01    1.421E+01
     1.411E+01    1.401E+01    1.391E+01    1.381E+01    1.372E+01    1.362E+01    1.353E+01    1.343E+01    1.334E+01    1.324E+01
     1.315E+01    1.305E+01    1.296E+01    1.287E+01    1.277E+01    1.268E+01    1.259E+01    1.250E+01    1.241E+01    1.232E+01
     1.223E+01    1.214E+01    1.205E+01    1.196E+01    1.187E+01    1.179E+01    1.170E+01    1.161E+01    1.153E+01    1.144E+01
     1.136E+01    1.127E+01    1.119E+01    1.110E+01    1.102E+01    1.094E+01    1.085E+01    1.077E+01    1.069E+01    1.061E+01
     1.053E+01    1.045E+01    1.037E+01    1.029E+01    1.021E+01    1.013E+01    1.006E+01    9.980E+00    9.903E+00    9.827E+00
     9.751E+00    9.676E+00    9.601E+00    9.527E+00    9.453E+00    9.380E+00    9.307E+00    9.235E+00    9.163E+00    9.092E+00
     9.021E+00    8.950E+00    8.881E+00    8.811E+00    8.743E+00    8.674E+00    8.606E+00    8.539E+00    8.472E+00    8.406E+00
     8.340E+00    8.275E+00    8.210E+00    8.146E+00    8.082E+00    8.019E+00    7.956E+00    7.893E+00    7.832E+00    7.770E+00
     7.709E+00    7.649E+00    7.589E+00    7.529E+00    7.470E+00    7.412E+00    7.353E+00    7.296E+00    7.238E+00    7.181E+00
     7.125E+00    7.069E+00    7.013E+00    6.958E+00    6.903E+00    6.849E+00    6.795E+00    6.741E+00    6.688E+00    6.635E+00
     6.583E+00    6.531E+00    6.479E+00    6.428E+00    6.377E+00    6.326E+00    6.276E+00    6.226E+00    6.177E+00    6.128E+00
     6.079E+00    6.030E+00    5.982E+00    5.934E+00    5.887E+00    5.840E+00    5.793E+00    5.746E+00    5.700E+00    5.654E+00
     5.608E+00    5.563E+00    5.518E+00    5.473E+00    5.429E+00    5.384E+00    5.341E+00    5.297E+00    5.254E+00    5.211E+00
     5.168E+00    5.126E+00    5.084E+00    5.042E+00    5.000E+00    4.959E+00    4.918E+00    4.877E+00    4.837E+00    4.797E+00
     4.757E+00    4.718E+00    4.678E+00    4.639E+00    4.600E+00    4.562E+00    4.524E+00    4.486E+00    4.448E+00    4.411E+00
     4.374E+00    4.337E+00    4.300E+00    4.264E+00    4.228E+00    4.192E+00    4.156E+00    4.121E+00    4.086E+00    4.051E+00
     4.016E+00    3.982E+00    3.948E+00    3.914E+00    3.881E+00    3.847E+00    3.814E+00    3.781E+00    3.749E+00    3.716E+00
     3.684E+00    3.652E+00    3.620E+00    3.589E+00    3.558E+00    3.527E+00    3.496E+00    3.466E+00    3.435E+00    3.405E+00
     3.375E+00    3.346E+00    3.316E+00    3.287E+00    3.258E+00    3.229E+00    3.201E+00    3.172E+00    3.144E+00    3.116E+00
     3.089E+00    3.061E+00    3.034E+00    3.007E+00    2.980E+00    2.953E+00    2.927E+00    2.900E+00    2.874E+00    2.848E+00
     2.823E+00    2.797E+00    2.772E+00    2.747E+00    2.722E+00    2.697E+00    2.672E+00    2.648E+00    2.624E+00    2.600E+00
     2.576E+00    2.552E+00    2.529E+00    2.506E+00    2.483E+00    2.460E+00    2.437E+00    2.414E+00    2.392E+00    2.370E+00
     2.348E+00    2.326E+00    2.304E+00    2.283E+00    2.261E+00    2.240E+00    2.219E+00    2.198E+00    2.177E+00    2.157E+00
     2.136E+00    2.116E+00    2.096E+00    2.076E+00    2.057E+00    2.037E+00    2.017E+00    1.998E+00    1.979E+00    1.960E+00
     1.941E+00    1.923E+00    1.904E+00    1.886E+00    1.867E+00    1.849E+00    1.831E+00    1.814E+00    1.796E+00    1.778E+00
     1.761E+00    1.744E+00    1.727E+00    1.710E+00    1.693E+00    1.676E+00    1.660E+00    1.643E+00    1.627E+00    1.611E+00
     1.595E+00    1.579E+00    1.563E+00    1.548E+00    1.532E+00    1.517E+00    1.502E+00    1.487E+00    1.472E+00    1.457E+00
     1.442E+00    1.428E+00    1.414E+00    1.399E+00    1.385E+00    1.371E+00    1.357E+00    1.344E+00    1.330E+00    1.317E+00
     1.303E+00    1.290E+00    1.277E+00    1.264E+00    1.252E+00    1.239E+00    1.226E+00    1.214E+00    1.202E+00    1.190E+00
     1.178E+00    1.166E+00    1.154E+00    1.143E+00    1.131E+00    1.120E+00    1.109E+00    1.098E+00    1.087E+00    1.076E+00
     1.065E+00    1.055E+00    1.044E+00    1.034E+00    1.024E+00    1.013E+00    1.003E+00    9.936E-01    9.839E-01    9.742E-01
     9.647E-01    9.553E-01    9.460E-01    9.368E-01    9.277E-01    9.187E-01    9.098E-01    9.010E-01    8.923E-01    8.836E-01
     8.751E-01    8.667E-01    8.584E-01    8.501E-01    8.419E-01    8.339E-01    8.259E-01    8.179E-01    8.101E-01    8.023E-01
     7.947E-01    7.871E-01    7.795E-01    7.721E-01    7.647E-01    7.573E-01    7.501E-01    7.429E-01    7.358E-01    7.287E-01
     7.217E-01    7.148E-01    7.079E-01    7.010E-01    6.943E-01    6.875E-01    6.809E-01    6.742E-01    6.676E-01    6.611E-01
     6.546E-01    6.482E-01    6.418E-01    6.354E-01    6.291E-01    6.228E-01    6.166E-01    6.104E-01    6.042E-01    5.980E-01
     5.919E-01    5.858E-01    5.797E-01    5.737E-01    5.677E-01    5.617E-01    5.557E-01    5.498E-01    5.438E-01    5.379E-01
     5.320E-01    5.261E-01    5.202E-01    5.144E-01    5.085E-01    5.027E-01    4.968E-01    4.910E-01    4.851E-01    4.793E-01
     4.734E-01    4.676E-01    4.618E-01    4.559E-01    4.501E-01    4.442E-01    4.383E-01    4.324E-01
 Asp      Conc. = 9.94E+01
