 LCModel (Version 6.3-1L) Copyright: S.W. Provencher.          Ref.: Magn. Reson. Med. 30:672-679 (1993).                
 Slice#1 Row#1 Col#6  PD_24_press_1_raw_act
 36 lines in following concentration table = NCONC+1
    Conc.  %SD /Cr+PCr  Metabolite                                         
    0.000 999%   0.000 Ala                                                 
   19.172  41%   0.182 Asp                                                 
   52.556  93%   0.498 Cr                                                  
   52.982  93%   0.502 PCr                                                 
   11.100  42%   0.105 GABA                                                
   11.606  40%   0.110 Glc                                                 
    0.000 999%   0.000 Gln                                                 
    0.000 999%   0.000 Glu                                                 
   50.463  22%   0.478 GPC                                                 
    0.000 999%   0.000 PCh                                                 
   14.295 170%   0.135 GSH                                                 
    0.000 999%   0.000 Ins                                                 
   33.161 102%   0.314 Lac                                                 
   97.310  29%   0.922 NAA                                                 
   22.215 121%   0.210 NAAG                                                
    4.061  38% 3.8E-02 Scyllo                                              
   19.632  39%   0.186 Tau                                                 
    8.763  94% 8.3E-02 -CrCH2                                              
   50.463  22%   0.478 GPC+PCh                                             
  119.525  27%   1.133 NAA+NAAG                                            
  105.538  24%   1.000 Cr+PCr                                              
    0.000 999%   0.000 Glu+Gln                                             
  116.658 115%   1.105 Lip13a                                              
    0.000 999%   0.000 Lip13b                                              
   56.038  89%   0.531 Lip09                                               
 4.65E-03 999% 4.4E-05 MM09                                                
    8.025 453% 7.6E-02 Lip20                                               
    0.000 999%   0.000 MM20                                                
 2.24E-03 999% 2.1E-05 MM12                                                
    0.000 999%   0.000 MM14                                                
    0.000 999%   0.000 MM17                                                
  116.658 115%   1.105 Lip13a+Lip13b                                       
  116.660 115%   1.105 MM14+Lip13a+Lip13b+MM12                             
   56.043  89%   0.531 MM09+Lip09                                          
    8.025 453% 7.6E-02 MM20+Lip20                                          
   6 lines in following misc. output table
  FWHM = 0.038 ppm    S/N =   2                                            
  Data shift =-0.008 ppm                                                   
  Ph: -83 deg      24.0 deg/ppm                                            
  alphaB,S = 8.5E+01,   8.9E+00                                            
   14 spline knots.   Ns = 5(1)                                            
   2 inflections.     2 extrema                                            
  498 points on ppm-axis = NY
      4.000000     3.992357     3.984714     3.977070     3.969427     3.961784     3.954141     3.946497     3.938854     3.931211
      3.923568     3.915925     3.908281     3.900638     3.892995     3.885352     3.877708     3.870065     3.862422     3.854779
      3.847136     3.839492     3.831849     3.824206     3.816563     3.808919     3.801276     3.793633     3.785990     3.778347
      3.770703     3.763060     3.755417     3.747774     3.740130     3.732487     3.724844     3.717201     3.709558     3.701914
      3.694271     3.686628     3.678985     3.671341     3.663698     3.656055     3.648412     3.640769     3.633125     3.625482
      3.617839     3.610196     3.602552     3.594909     3.587266     3.579623     3.571980     3.564336     3.556693     3.549050
      3.541407     3.533763     3.526120     3.518477     3.510834     3.503191     3.495547     3.487904     3.480261     3.472618
      3.464974     3.457331     3.449688     3.442045     3.434402     3.426758     3.419115     3.411472     3.403829     3.396185
      3.388542     3.380899     3.373256     3.365613     3.357969     3.350326     3.342683     3.335040     3.327396     3.319753
      3.312110     3.304467     3.296824     3.289180     3.281537     3.273894     3.266251     3.258607     3.250964     3.243321
      3.235678     3.228034     3.220391     3.212748     3.205105     3.197462     3.189818     3.182175     3.174532     3.166889
      3.159245     3.151602     3.143959     3.136316     3.128673     3.121029     3.113386     3.105743     3.098100     3.090456
      3.082813     3.075170     3.067527     3.059884     3.052240     3.044597     3.036954     3.029311     3.021667     3.014024
      3.006381     2.998738     2.991095     2.983451     2.975808     2.968165     2.960522     2.952878     2.945235     2.937592
      2.929949     2.922306     2.914662     2.907019     2.899376     2.891733     2.884089     2.876446     2.868803     2.861160
      2.853517     2.845873     2.838230     2.830587     2.822944     2.815300     2.807657     2.800014     2.792371     2.784728
      2.777084     2.769441     2.761798     2.754155     2.746511     2.738868     2.731225     2.723582     2.715939     2.708295
      2.700652     2.693009     2.685366     2.677722     2.670079     2.662436     2.654793     2.647150     2.639506     2.631863
      2.624220     2.616577     2.608933     2.601290     2.593647     2.586004     2.578361     2.570717     2.563074     2.555431
      2.547788     2.540144     2.532501     2.524858     2.517215     2.509572     2.501928     2.494285     2.486642     2.478999
      2.471355     2.463712     2.456069     2.448426     2.440783     2.433139     2.425496     2.417853     2.410210     2.402566
      2.394923     2.387280     2.379637     2.371994     2.364350     2.356707     2.349064     2.341421     2.333777     2.326134
      2.318491     2.310848     2.303205     2.295561     2.287918     2.280275     2.272632     2.264988     2.257345     2.249702
      2.242059     2.234416     2.226772     2.219129     2.211486     2.203843     2.196199     2.188556     2.180913     2.173270
      2.165627     2.157983     2.150340     2.142697     2.135054     2.127410     2.119767     2.112124     2.104481     2.096838
      2.089194     2.081551     2.073908     2.066265     2.058621     2.050978     2.043335     2.035692     2.028049     2.020405
      2.012762     2.005119     1.997476     1.989833     1.982190     1.974546     1.966903     1.959260     1.951617     1.943974
      1.936331     1.928688     1.921045     1.913402     1.905759     1.898115     1.890472     1.882829     1.875186     1.867543
      1.859900     1.852257     1.844614     1.836971     1.829327     1.821684     1.814041     1.806398     1.798755     1.791112
      1.783469     1.775826     1.768183     1.760540     1.752896     1.745253     1.737610     1.729967     1.722324     1.714681
      1.707038     1.699395     1.691752     1.684108     1.676465     1.668822     1.661179     1.653536     1.645893     1.638250
      1.630607     1.622964     1.615321     1.607677     1.600034     1.592391     1.584748     1.577105     1.569462     1.561819
      1.554176     1.546533     1.538890     1.531246     1.523603     1.515960     1.508317     1.500674     1.493031     1.485388
      1.477745     1.470102     1.462458     1.454815     1.447172     1.439529     1.431886     1.424243     1.416600     1.408957
      1.401314     1.393671     1.386027     1.378384     1.370741     1.363098     1.355455     1.347812     1.340169     1.332526
      1.324883     1.317240     1.309596     1.301953     1.294310     1.286667     1.279024     1.271381     1.263738     1.256095
      1.248452     1.240808     1.233165     1.225522     1.217879     1.210236     1.202593     1.194950     1.187307     1.179664
      1.172021     1.164377     1.156734     1.149091     1.141448     1.133805     1.126162     1.118519     1.110876     1.103233
      1.095590     1.087946     1.080303     1.072660     1.065017     1.057374     1.049731     1.042088     1.034445     1.026802
      1.019158     1.011515     1.003872     0.996229     0.988586     0.980943     0.973300     0.965657     0.958014     0.950371
      0.942727     0.935084     0.927441     0.919798     0.912155     0.904512     0.896869     0.889226     0.881583     0.873940
      0.866296     0.858653     0.851010     0.843367     0.835724     0.828081     0.820438     0.812795     0.805152     0.797508
      0.789865     0.782222     0.774579     0.766936     0.759293     0.751650     0.744007     0.736364     0.728721     0.721077
      0.713434     0.705791     0.698148     0.690505     0.682862     0.675219     0.667576     0.659933     0.652290     0.644646
      0.637003     0.629360     0.621717     0.614074     0.606431     0.598788     0.591145     0.583502     0.575858     0.568215
      0.560572     0.552929     0.545286     0.537643     0.530000     0.522357     0.514714     0.507071     0.499427     0.491784
      0.484141     0.476498     0.468855     0.461212     0.453569     0.445925     0.438282     0.430639     0.422996     0.415353
      0.407710     0.400067     0.392424     0.384780     0.377137     0.369494     0.361851     0.354208     0.346565     0.338922
      0.331278     0.323635     0.315992     0.308349     0.300706     0.293063     0.285420     0.277777     0.270133     0.262490
      0.254847     0.247204     0.239561     0.231918     0.224275     0.216631     0.208988     0.201345
 NY phased data points follow
   8.36817E-01  6.69426E+00  6.73771E-01  6.86983E+00  2.65091E+00  3.33143E+00  3.47841E+00  5.07195E+00  1.02583E+00  6.83509E+00
   8.82347E+00  3.73214E+00  9.86519E+00  6.08971E+00  5.19381E+00  4.17770E+00  7.54078E+00  6.16146E+00  2.28473E+00  2.75568E+00
   3.94428E+00  4.05351E-01  4.70554E+00  2.63451E+00  5.77632E+00  2.00317E+00  2.39721E+00  2.75706E+00  2.98223E+00  2.54802E+00
   2.10256E+00  2.43997E+00  3.54836E+00  5.04378E+00  4.93777E-01  2.30262E+00  9.84450E-02  2.80538E+00  1.45928E+00  4.19879E+00
   7.14477E+00  2.81260E+00  4.10667E+00  5.44176E+00  7.57844E-01  4.60490E+00  1.36595E+00  3.55749E+00  3.40238E+00  5.89263E+00
  -2.21490E+00 -2.28435E-01 -5.18367E-01  2.30127E+00  2.35444E+00  2.81300E+00  5.46515E-01  4.81105E+00  5.21825E+00  2.23298E+00
   3.02588E+00  4.25936E-02  4.83750E-01  6.62504E-01  3.75757E-01  3.95175E+00  3.95960E+00 -1.43191E-01  6.60137E-01 -1.04685E+00
   1.93604E+00  1.14928E+00  2.10923E+00  1.06830E+00  3.32475E+00  6.35027E-01  4.94036E+00  3.39786E+00  1.33079E+00  3.21864E+00
   6.26112E+00  3.08789E+00  3.66086E+00  1.29767E+00  6.46859E+00  4.86316E+00  5.34201E+00  1.91821E+00  3.56161E+00  3.87520E+00
   4.98729E+00  4.06539E+00  9.41316E+00  2.10053E+00 -2.15824E-01  2.69410E+00 -2.10570E+00 -4.94724E+00 -4.72142E+00 -2.88667E+00
   1.02628E+00  5.42806E+00  4.84074E+00  8.33753E+00  9.84836E+00  8.12024E+00  7.70884E+00  8.62529E+00  3.96076E+00  2.30758E+00
   3.53463E+00  3.73613E-01  2.35904E+00  1.48558E+00 -1.63234E+00  5.41145E+00  1.08701E+00  3.05313E+00  2.26119E+00  2.39951E+00
   4.92483E-01  2.39605E+00  1.41386E+00  1.46195E+00  1.12701E+00  1.92915E+00  4.82621E+00  7.22774E+00  7.15411E+00  7.14812E+00
   4.24334E+00  4.69637E+00  5.56246E+00 -2.05092E+00  3.72859E-01  5.81901E+00  3.67753E+00  2.25588E+00  1.21928E+00 -6.61791E-01
   2.48129E+00  3.66753E+00  2.88252E+00  2.18977E+00  1.72285E+00 -1.27795E-01  4.35891E+00  4.73137E+00  5.07574E+00  2.43780E+00
   8.21404E-01  1.63684E+00  1.83937E+00 -2.88563E-02  3.45182E-01  4.88016E+00 -1.02149E+00  1.74848E+00  2.02095E+00  8.31172E-01
   1.00212E+00  1.02376E+00  2.37033E+00  2.72326E+00 -3.86880E+00  1.41141E+00  1.09948E+00  1.56290E+00  2.80041E+00  2.18346E+00
   2.01422E+00  6.57739E+00  5.18338E+00  6.13130E+00 -1.01759E+00  8.53167E-01  4.21166E+00  3.78193E+00  8.31307E-02  4.25286E+00
   2.21455E+00 -1.00866E+00  2.96016E+00  3.19542E+00  2.51399E-01  6.38826E-01  2.47050E-01  1.01364E+00  3.01063E+00 -8.14348E-01
   1.84940E+00  2.65970E+00  5.66619E+00  1.90230E+00  2.17400E-02  2.32514E+00 -2.47980E+00  3.92617E+00  4.75111E+00  1.89650E+00
  -4.70077E-01 -8.84096E-01 -1.08024E+00  3.49278E-01 -1.07397E+00  2.65596E-01 -2.73515E+00  2.53165E+00 -6.23946E+00  1.86469E-01
   1.59837E+00  4.17577E+00  2.49267E+00  2.55316E+00  4.59674E+00 -3.24057E+00  1.64985E-01  1.87674E+00 -1.25041E+00  1.11436E+00
   2.44234E+00  2.06901E+00  1.59500E+00 -4.46510E-01  7.41571E-01  2.52343E+00  2.80016E+00  3.65712E+00  2.03269E+00 -1.46605E+00
   1.02797E+00  3.60698E-01 -1.41993E+00  1.98914E+00 -8.87172E-01  3.02832E+00 -2.10536E+00 -6.69366E-01 -2.71019E+00 -2.03011E+00
  -1.85777E+00 -3.07285E+00  8.37478E-02  1.02016E+00 -3.51638E+00 -1.14528E+00 -3.71484E+00 -7.03050E-01  2.21046E+00 -1.58300E+00
   1.94245E+00  1.93985E+00 -2.43373E+00 -3.67939E+00 -1.42235E+00 -1.39722E+00 -1.25903E+00  4.50720E+00 -1.74107E+00  4.43702E+00
   5.53668E+00  7.10938E+00  7.49185E+00  8.46500E+00  7.97029E-01  3.80140E-01  8.45315E-01 -3.00736E+00  2.89955E-02  1.79306E+00
  -1.65902E+00 -5.71101E-02 -1.81713E+00 -9.23540E-01 -2.15223E+00  4.40265E-01  3.26893E+00 -8.33708E-01 -1.35474E+00 -9.98171E-01
  -1.39570E+00  9.69848E-01  1.08567E+00 -1.71666E+00 -1.34284E-01  3.33443E-01 -3.39688E+00 -1.22834E+00  2.40933E+00 -4.12819E-01
   2.40758E-01  1.12162E+00 -3.24338E-01 -3.39936E+00 -4.54025E+00  1.07493E+00  1.36146E+00 -2.77023E+00 -2.53459E+00 -2.07695E+00
  -1.44190E+00 -1.91556E-01 -1.65810E+00 -2.98347E+00 -1.17975E+00  1.19865E+00 -1.81673E-01 -4.04099E+00  1.85930E-01  1.50611E+00
  -2.29854E+00 -3.32150E+00 -3.84472E+00  7.73452E-01 -4.29751E+00 -3.58197E+00 -3.22071E+00 -4.75310E-01 -3.87806E+00 -1.01796E+00
   4.03004E-01 -3.25173E-01 -2.28408E+00 -1.21625E+00 -2.61503E+00 -1.45203E+00 -5.37117E+00 -1.12115E+00 -4.34358E+00 -3.74035E+00
  -4.67398E+00 -1.60905E+00 -2.08240E+00 -5.31478E+00 -2.06386E+00  1.67255E+00  7.18936E-01 -2.69674E+00  1.18928E+00 -4.36799E+00
  -3.34555E+00 -2.84884E+00 -6.39021E-01 -1.70667E+00 -4.23482E+00  1.50216E+00  2.69712E-01 -2.46010E+00  2.40724E+00 -4.34619E+00
   1.60928E+00 -2.94529E+00 -4.33416E+00 -2.86170E-01 -1.13472E+00 -2.07153E+00 -1.60322E+00  2.12030E-02  6.74292E-01 -2.57127E+00
   1.57220E+00 -1.06721E+00  2.14022E+00  2.17527E+00  2.91933E+00 -2.83444E-01  5.81257E+00  3.61255E+00  5.84479E-01  2.06224E+00
   1.72201E+00  7.69147E+00  3.37779E+00  4.38380E+00  4.68181E+00  6.33875E+00  2.79726E+00  4.76791E+00 -3.06294E+00  2.99174E+00
   2.04471E+00 -2.05434E+00  3.36159E+00 -5.08097E-01 -3.76495E+00 -1.27248E+00  2.20280E+00  2.81934E+00 -2.94517E-01 -1.67785E+00
  -2.25674E+00 -1.69937E+00 -1.21631E+00  9.10080E-01 -1.60186E+00  1.49966E-02  3.47629E+00 -3.29313E+00 -1.40395E+00  3.02557E+00
   3.06978E+00  2.08223E+00  1.48723E+00  2.55113E+00  2.09564E+00 -1.26565E+00 -2.83511E+00  1.28429E+00  2.24934E+00 -6.77676E-01
  -2.10226E+00 -2.92099E-01 -2.62243E+00  2.23185E-01 -4.34343E-01 -5.15545E+00 -1.71860E+00 -1.13739E+00 -1.51150E+00 -1.09448E+00
   2.99037E+00 -1.61909E+00  1.10090E+00 -2.34591E+00 -2.04068E+00  4.11212E-01  3.18362E-01 -1.62106E+00 -1.00141E+00 -1.28501E+00
   1.12425E-01 -1.64985E+00 -6.32147E-02  2.50130E-01  2.70209E+00 -1.85168E+00 -2.91097E+00  2.06151E+00  7.43058E-01 -3.94255E+00
  -2.70674E+00 -8.19704E-01 -2.91510E+00 -3.53814E+00 -6.10678E-01 -7.36848E-01 -4.88154E+00 -2.69849E+00 -2.71527E-01 -3.62130E+00
  -4.55895E-01 -3.01606E+00  1.55884E+00  1.50873E+00  4.90801E-01 -6.34659E-01  2.37506E+00  1.79651E+00 -3.21646E-02 -2.44260E+00
   2.51066E-01 -6.88761E-01  1.95499E+00 -4.26912E-01  1.56879E+00 -5.38391E-01  6.06604E-01 -9.74176E-01  3.45583E+00 -2.52237E+00
  -2.48406E+00 -9.40596E-01  1.36452E+00 -2.46710E+00 -2.92936E-01  1.19339E+00 -9.92960E-02 -2.93812E+00 -3.40520E-01  2.66750E+00
   1.19205E+00  1.69360E+00  2.73534E+00 -3.28555E-01 -2.15381E+00 -2.69724E+00  1.49440E+00  1.12358E+00 -3.67470E+00 -1.52081E+00
   1.58499E+00  2.34044E+00  3.02658E-01  1.32854E+00 -9.26299E-01  9.34411E-02  2.19663E-01 -2.53723E+00
 NY points of the fit to the data follow
   2.45861E+00  2.43307E+00  2.41322E+00  2.34475E+00  2.11784E+00  2.04935E+00  2.13285E+00  2.46232E+00  3.28515E+00  4.39948E+00
   5.37495E+00  5.92526E+00  6.01971E+00  5.70805E+00  5.08811E+00  4.39009E+00  3.79341E+00  3.28482E+00  2.96029E+00  2.81629E+00
   2.72241E+00  2.63729E+00  2.56049E+00  2.50132E+00  2.43123E+00  2.28125E+00  2.18509E+00  2.26782E+00  2.47930E+00  2.72281E+00
   2.93302E+00  3.05167E+00  3.02330E+00  2.86460E+00  2.64855E+00  2.48534E+00  2.44169E+00  2.46641E+00  2.47233E+00  2.51032E+00
   2.56325E+00  2.53882E+00  2.50981E+00  2.54574E+00  2.55802E+00  2.47525E+00  2.39779E+00  2.36410E+00  2.34836E+00  2.36343E+00
   2.42341E+00  2.48065E+00  2.51033E+00  2.52990E+00  2.51659E+00  2.45517E+00  2.37387E+00  2.30656E+00  2.25077E+00  2.20384E+00
   2.16319E+00  2.12760E+00  2.10203E+00  2.10018E+00  2.10457E+00  2.11633E+00  2.13364E+00  2.13700E+00  2.11727E+00  2.08478E+00
   2.02428E+00  1.94538E+00  1.91978E+00  1.97056E+00  2.06185E+00  2.15390E+00  2.21872E+00  2.21212E+00  2.13634E+00  2.03917E+00
   1.94179E+00  1.81010E+00  1.72782E+00  1.79566E+00  1.96085E+00  2.13979E+00  2.28339E+00  2.35690E+00  2.35296E+00  2.30243E+00
   2.22493E+00  2.11742E+00  1.99003E+00  1.86257E+00  1.72957E+00  1.62003E+00  1.46348E+00  6.54061E-01 -9.53589E-01 -1.00740E+00
   1.05254E+00  4.14026E+00  7.18082E+00  9.54566E+00  1.05565E+01  9.93932E+00  8.26305E+00  6.19012E+00  4.10318E+00  2.60275E+00
   2.07170E+00  1.91350E+00  1.83284E+00  1.77829E+00  1.73879E+00  1.72000E+00  1.70486E+00  1.68060E+00  1.65228E+00  1.60948E+00
   1.50185E+00  1.05115E+00 -1.06119E-01 -5.96554E-01  4.53824E-01  2.49176E+00  4.68894E+00  6.54273E+00  7.57357E+00  7.45682E+00
   6.47674E+00  5.12707E+00  3.68744E+00  2.50326E+00  1.93724E+00  1.69699E+00  1.51695E+00  1.38327E+00  1.31742E+00  1.30820E+00
   1.34155E+00  1.39146E+00  1.43879E+00  1.47993E+00  1.50099E+00  1.49837E+00  1.48285E+00  1.46049E+00  1.43234E+00  1.40660E+00
   1.38271E+00  1.35040E+00  1.31034E+00  1.27353E+00  1.24598E+00  1.24823E+00  1.29084E+00  1.32129E+00  1.30012E+00  1.23139E+00
   1.13064E+00  1.05521E+00  1.02619E+00  1.03985E+00  1.08181E+00  1.13622E+00  1.17345E+00  1.16675E+00  1.12578E+00  1.08078E+00
   1.05406E+00  1.06584E+00  1.07909E+00  1.02911E+00  9.47277E-01  8.86094E-01  8.76314E-01  8.88712E-01  8.97899E-01  8.84073E-01
   8.53831E-01  8.41339E-01  8.61301E-01  8.58408E-01  8.17225E-01  7.79782E-01  7.65835E-01  7.83369E-01  8.49117E-01  9.58072E-01
   1.06995E+00  1.15158E+00  1.19465E+00  1.22346E+00  1.20313E+00  1.13234E+00  1.05502E+00  9.95530E-01  9.37964E-01  8.73214E-01
   8.50339E-01  8.80578E-01  9.39121E-01  1.00949E+00  1.07953E+00  1.10874E+00  1.09234E+00  1.05945E+00  1.03705E+00  9.88438E-01
   9.04480E-01  8.18075E-01  7.43581E-01  6.85099E-01  6.48357E-01  6.40878E-01  6.54054E-01  6.74160E-01  6.90357E-01  6.97118E-01
   6.99410E-01  7.21642E-01  7.67558E-01  8.25419E-01  8.78668E-01  9.17980E-01  9.43102E-01  9.26968E-01  8.43662E-01  7.18198E-01
   5.90910E-01  4.95018E-01  4.51066E-01  4.72248E-01  5.66211E-01  6.99645E-01  8.22100E-01  8.98772E-01  9.03862E-01  8.35991E-01
   7.17891E-01  5.82346E-01  4.75450E-01  4.25264E-01  4.36985E-01  4.92527E-01  5.61176E-01  6.18556E-01  6.47714E-01  6.39021E-01
   5.46970E-01  2.75669E-01  9.89121E-02  2.26250E-01  4.33013E-01  2.94796E-02 -4.59233E-01  2.34209E-01  1.87960E+00  3.72393E+00
   5.30339E+00  6.27730E+00  6.29765E+00  5.47828E+00  4.23371E+00  2.85153E+00  1.57310E+00  8.22379E-01  5.86542E-01  4.83088E-01
   4.15469E-01  3.71550E-01  3.52412E-01  3.54954E-01  3.68109E-01  3.80305E-01  3.85652E-01  3.79508E-01  3.61072E-01  3.34863E-01
   3.06896E-01  2.78732E-01  2.55037E-01  2.40746E-01  2.33887E-01  2.30601E-01  2.29981E-01  2.27669E-01  2.20798E-01  2.12660E-01
   2.05870E-01  1.99757E-01  1.94023E-01  1.90207E-01  1.87520E-01  1.82460E-01  1.73849E-01  1.62395E-01  1.48938E-01  1.35883E-01
   1.24736E-01  1.15704E-01  1.08544E-01  1.02621E-01  9.74149E-02  9.22514E-02  8.62128E-02  7.95368E-02  7.26831E-02  6.58761E-02
   5.92211E-02  5.26967E-02  4.62478E-02  3.98913E-02  3.36311E-02  2.75014E-02  2.15313E-02  1.57564E-02  1.01910E-02  4.91458E-03
  -3.93566E-05 -4.66381E-03 -8.96001E-03 -1.28847E-02 -1.63856E-02 -1.93611E-02 -2.17450E-02 -2.34829E-02 -2.45567E-02 -2.48809E-02
  -2.43519E-02 -2.28424E-02 -2.02724E-02 -1.65821E-02 -1.17708E-02 -5.80001E-03  1.30865E-03  9.37323E-03  1.77631E-02  2.49307E-02
   2.66144E-02  8.16799E-03 -5.45890E-02 -3.74169E-03  2.88537E-01  6.42143E-01  8.84608E-01  9.63055E-01  8.77592E-01  6.22754E-01
   1.33079E-01 -4.31446E-01 -7.96182E-01 -8.58883E-01 -6.39509E-01 -2.56141E-01  1.43938E-01  4.53341E-01  6.15082E-01  6.46274E-01
   5.69608E-01  4.16237E-01  2.79916E-01  1.95491E-01  1.34316E-01  8.36333E-02  3.87012E-02 -2.58005E-03 -4.12453E-02 -7.77613E-02
  -1.12329E-01 -1.44988E-01 -1.75760E-01 -2.04641E-01 -2.31640E-01 -2.56726E-01 -2.79883E-01 -3.01093E-01 -3.20396E-01 -3.37826E-01
  -3.53435E-01 -3.67228E-01 -3.79226E-01 -3.89439E-01 -3.97921E-01 -4.04698E-01 -4.09801E-01 -4.13224E-01 -4.14996E-01 -4.15155E-01
  -4.13796E-01 -4.11003E-01 -4.06896E-01 -4.01598E-01 -3.95308E-01 -3.88263E-01 -3.80766E-01 -3.73118E-01 -3.65664E-01 -3.58748E-01
  -3.52768E-01 -3.48112E-01 -3.45172E-01 -3.44262E-01 -3.45672E-01 -3.49613E-01 -3.56271E-01 -3.65734E-01 -3.78017E-01 -3.93015E-01
  -4.10570E-01 -4.30446E-01 -4.52389E-01 -4.76074E-01 -5.01151E-01 -5.27228E-01 -5.53946E-01 -5.80954E-01 -6.07962E-01 -6.34678E-01
  -6.60865E-01 -6.86301E-01 -7.10850E-01 -7.34405E-01 -7.56927E-01 -7.78369E-01 -7.98728E-01 -8.18010E-01 -8.36277E-01 -8.53591E-01
  -8.70034E-01 -8.85657E-01 -9.00531E-01 -9.14711E-01 -9.28292E-01 -9.41337E-01 -9.53916E-01 -9.66057E-01 -9.77811E-01 -9.89215E-01
  -1.00033E+00 -1.01120E+00 -1.02184E+00 -1.03225E+00 -1.04248E+00 -1.05254E+00 -1.06246E+00 -1.07226E+00 -1.08194E+00 -1.09150E+00
  -1.10096E+00 -1.11033E+00 -1.11964E+00 -1.12888E+00 -1.13805E+00 -1.14714E+00 -1.15618E+00 -1.16517E+00 -1.17413E+00 -1.18304E+00
  -1.19191E+00 -1.20072E+00 -1.20951E+00 -1.21827E+00 -1.22702E+00 -1.23572E+00 -1.24440E+00 -1.25304E+00 -1.26167E+00 -1.27029E+00
  -1.27889E+00 -1.28746E+00 -1.29600E+00 -1.30453E+00 -1.31306E+00 -1.32157E+00 -1.33007E+00 -1.33854E+00 -1.34700E+00 -1.35545E+00
  -1.36390E+00 -1.37234E+00 -1.38077E+00 -1.38916E+00 -1.39756E+00 -1.40595E+00 -1.41435E+00 -1.42273E+00 -1.43110E+00 -1.43945E+00
  -1.44780E+00 -1.45615E+00 -1.46450E+00 -1.47283E+00 -1.48115E+00 -1.48946E+00 -1.49778E+00 -1.50609E+00
 NY background values follow
     2.522E+00    2.514E+00    2.506E+00    2.497E+00    2.489E+00    2.481E+00    2.473E+00    2.465E+00    2.457E+00    2.449E+00
     2.440E+00    2.432E+00    2.424E+00    2.416E+00    2.408E+00    2.400E+00    2.392E+00    2.384E+00    2.375E+00    2.367E+00
     2.359E+00    2.351E+00    2.343E+00    2.335E+00    2.327E+00    2.319E+00    2.310E+00    2.302E+00    2.294E+00    2.286E+00
     2.278E+00    2.270E+00    2.262E+00    2.253E+00    2.245E+00    2.237E+00    2.229E+00    2.221E+00    2.213E+00    2.205E+00
     2.197E+00    2.188E+00    2.180E+00    2.172E+00    2.164E+00    2.156E+00    2.148E+00    2.140E+00    2.132E+00    2.123E+00
     2.115E+00    2.107E+00    2.099E+00    2.091E+00    2.083E+00    2.075E+00    2.066E+00    2.058E+00    2.050E+00    2.042E+00
     2.034E+00    2.026E+00    2.018E+00    2.010E+00    2.001E+00    1.993E+00    1.985E+00    1.977E+00    1.969E+00    1.961E+00
     1.953E+00    1.945E+00    1.936E+00    1.928E+00    1.920E+00    1.912E+00    1.904E+00    1.896E+00    1.888E+00    1.879E+00
     1.871E+00    1.863E+00    1.855E+00    1.847E+00    1.839E+00    1.831E+00    1.823E+00    1.814E+00    1.806E+00    1.798E+00
     1.790E+00    1.782E+00    1.774E+00    1.766E+00    1.758E+00    1.749E+00    1.741E+00    1.733E+00    1.725E+00    1.717E+00
     1.709E+00    1.701E+00    1.693E+00    1.684E+00    1.676E+00    1.668E+00    1.660E+00    1.652E+00    1.644E+00    1.636E+00
     1.627E+00    1.619E+00    1.611E+00    1.603E+00    1.595E+00    1.587E+00    1.579E+00    1.571E+00    1.562E+00    1.554E+00
     1.546E+00    1.538E+00    1.530E+00    1.522E+00    1.514E+00    1.506E+00    1.497E+00    1.489E+00    1.481E+00    1.473E+00
     1.465E+00    1.457E+00    1.449E+00    1.440E+00    1.432E+00    1.424E+00    1.416E+00    1.408E+00    1.400E+00    1.392E+00
     1.384E+00    1.375E+00    1.367E+00    1.359E+00    1.351E+00    1.343E+00    1.335E+00    1.327E+00    1.319E+00    1.310E+00
     1.302E+00    1.294E+00    1.286E+00    1.278E+00    1.270E+00    1.262E+00    1.253E+00    1.245E+00    1.237E+00    1.229E+00
     1.221E+00    1.213E+00    1.205E+00    1.197E+00    1.188E+00    1.180E+00    1.172E+00    1.164E+00    1.156E+00    1.148E+00
     1.140E+00    1.132E+00    1.123E+00    1.115E+00    1.107E+00    1.099E+00    1.091E+00    1.083E+00    1.075E+00    1.067E+00
     1.058E+00    1.050E+00    1.042E+00    1.034E+00    1.026E+00    1.018E+00    1.010E+00    1.001E+00    9.933E-01    9.852E-01
     9.771E-01    9.689E-01    9.608E-01    9.527E-01    9.446E-01    9.364E-01    9.283E-01    9.202E-01    9.120E-01    9.039E-01
     8.958E-01    8.876E-01    8.795E-01    8.714E-01    8.633E-01    8.551E-01    8.470E-01    8.389E-01    8.307E-01    8.226E-01
     8.145E-01    8.064E-01    7.982E-01    7.901E-01    7.820E-01    7.738E-01    7.657E-01    7.576E-01    7.494E-01    7.413E-01
     7.332E-01    7.251E-01    7.169E-01    7.088E-01    7.007E-01    6.925E-01    6.844E-01    6.763E-01    6.682E-01    6.600E-01
     6.519E-01    6.438E-01    6.356E-01    6.275E-01    6.194E-01    6.112E-01    6.031E-01    5.950E-01    5.869E-01    5.787E-01
     5.706E-01    5.625E-01    5.543E-01    5.462E-01    5.381E-01    5.300E-01    5.218E-01    5.137E-01    5.056E-01    4.974E-01
     4.893E-01    4.812E-01    4.731E-01    4.649E-01    4.568E-01    4.487E-01    4.405E-01    4.324E-01    4.243E-01    4.161E-01
     4.080E-01    3.999E-01    3.918E-01    3.836E-01    3.755E-01    3.674E-01    3.592E-01    3.511E-01    3.430E-01    3.349E-01
     3.267E-01    3.186E-01    3.105E-01    3.023E-01    2.942E-01    2.861E-01    2.780E-01    2.698E-01    2.617E-01    2.536E-01
     2.454E-01    2.373E-01    2.292E-01    2.211E-01    2.129E-01    2.048E-01    1.967E-01    1.885E-01    1.804E-01    1.723E-01
     1.642E-01    1.560E-01    1.479E-01    1.398E-01    1.316E-01    1.235E-01    1.154E-01    1.073E-01    9.913E-02    9.100E-02
     8.288E-02    7.475E-02    6.662E-02    5.849E-02    5.036E-02    4.223E-02    3.411E-02    2.598E-02    1.785E-02    9.722E-03
     1.594E-03   -6.534E-03   -1.466E-02   -2.279E-02   -3.092E-02   -3.905E-02   -4.717E-02   -5.530E-02   -6.343E-02   -7.156E-02
    -7.969E-02   -8.781E-02   -9.594E-02   -1.041E-01   -1.122E-01   -1.203E-01   -1.285E-01   -1.366E-01   -1.447E-01   -1.528E-01
    -1.610E-01   -1.691E-01   -1.772E-01   -1.853E-01   -1.935E-01   -2.016E-01   -2.097E-01   -2.179E-01   -2.260E-01   -2.341E-01
    -2.422E-01   -2.504E-01   -2.585E-01   -2.666E-01   -2.748E-01   -2.829E-01   -2.910E-01   -2.991E-01   -3.073E-01   -3.154E-01
    -3.235E-01   -3.316E-01   -3.398E-01   -3.479E-01   -3.560E-01   -3.642E-01   -3.723E-01   -3.804E-01   -3.885E-01   -3.967E-01
    -4.048E-01   -4.129E-01   -4.211E-01   -4.292E-01   -4.373E-01   -4.454E-01   -4.536E-01   -4.617E-01   -4.698E-01   -4.779E-01
    -4.861E-01   -4.942E-01   -5.023E-01   -5.105E-01   -5.186E-01   -5.267E-01   -5.348E-01   -5.430E-01   -5.511E-01   -5.592E-01
    -5.673E-01   -5.755E-01   -5.836E-01   -5.917E-01   -5.999E-01   -6.080E-01   -6.161E-01   -6.242E-01   -6.324E-01   -6.405E-01
    -6.486E-01   -6.567E-01   -6.649E-01   -6.730E-01   -6.811E-01   -6.893E-01   -6.974E-01   -7.055E-01   -7.136E-01   -7.218E-01
    -7.299E-01   -7.380E-01   -7.461E-01   -7.543E-01   -7.624E-01   -7.705E-01   -7.787E-01   -7.868E-01   -7.949E-01   -8.030E-01
    -8.112E-01   -8.193E-01   -8.274E-01   -8.355E-01   -8.437E-01   -8.518E-01   -8.599E-01   -8.680E-01   -8.762E-01   -8.843E-01
    -8.924E-01   -9.006E-01   -9.087E-01   -9.168E-01   -9.249E-01   -9.331E-01   -9.412E-01   -9.493E-01   -9.574E-01   -9.656E-01
    -9.737E-01   -9.818E-01   -9.900E-01   -9.981E-01   -1.006E+00   -1.014E+00   -1.022E+00   -1.031E+00   -1.039E+00   -1.047E+00
    -1.055E+00   -1.063E+00   -1.071E+00   -1.079E+00   -1.087E+00   -1.096E+00   -1.104E+00   -1.112E+00   -1.120E+00   -1.128E+00
    -1.136E+00   -1.144E+00   -1.152E+00   -1.161E+00   -1.169E+00   -1.177E+00   -1.185E+00   -1.193E+00   -1.201E+00   -1.209E+00
    -1.218E+00   -1.226E+00   -1.234E+00   -1.242E+00   -1.250E+00   -1.258E+00   -1.266E+00   -1.274E+00   -1.283E+00   -1.291E+00
    -1.299E+00   -1.307E+00   -1.315E+00   -1.323E+00   -1.331E+00   -1.339E+00   -1.348E+00   -1.356E+00   -1.364E+00   -1.372E+00
    -1.380E+00   -1.388E+00   -1.396E+00   -1.404E+00   -1.413E+00   -1.421E+00   -1.429E+00   -1.437E+00   -1.445E+00   -1.453E+00
    -1.461E+00   -1.469E+00   -1.478E+00   -1.486E+00   -1.494E+00   -1.502E+00   -1.510E+00   -1.518E+00
 Asp      Conc. = 1.92E+01
