 LCModel (Version 6.3-1L) Copyright: S.W. Provencher.          Ref.: Magn. Reson. Med. 30:672-679 (1993).                
 Slice#1 Row#4 Col#2  PD_24_press_1_raw_act
 36 lines in following concentration table = NCONC+1
    Conc.  %SD /Cr+PCr  Metabolite                                         
   44.295  78%   0.656 Ala                                                 
    7.735 146%   0.114 Asp                                                 
    0.000 999%   0.000 Cr                                                  
   67.564  32%   1.000 PCr                                                 
    4.504 150% 6.7E-02 GABA                                                
    5.277 129% 7.8E-02 Glc                                                 
  102.320  67%   1.514 Gln                                                 
    1.552 999% 2.3E-02 Glu                                                 
   24.067  35%   0.356 GPC                                                 
    0.000 999%   0.000 PCh                                                 
   22.898 111%   0.339 GSH                                                 
    0.000 999%   0.000 Ins                                                 
   45.950  87%   0.680 Lac                                                 
   13.182 160%   0.195 NAA                                                 
    0.000 999%   0.000 NAAG                                                
    1.833 121% 2.7E-02 Scyllo                                              
    7.435 150%   0.110 Tau                                                 
    0.000 999%   0.000 -CrCH2                                              
   24.067  35%   0.356 GPC+PCh                                             
   13.182 160%   0.195 NAA+NAAG                                            
   67.564  32%   1.000 Cr+PCr                                              
  103.872  85%   1.537 Glu+Gln                                             
  283.395  96%   4.194 Lip13a                                              
  157.297 119%   2.328 Lip13b                                              
  117.665  32%   1.742 Lip09                                               
 2.40E-03 999% 3.5E-05 MM09                                                
   66.103  32%   0.978 Lip20                                               
    0.000 999%   0.000 MM20                                                
 6.59E-04 999% 9.8E-06 MM12                                                
 7.77E-03 999% 1.1E-04 MM14                                                
 2.58E-03 999% 3.8E-05 MM17                                                
  440.692  32%   6.523 Lip13a+Lip13b                                       
  440.700  32%   6.523 MM14+Lip13a+Lip13b+MM12                             
  117.667  32%   1.742 MM09+Lip09                                          
   66.103  32%   0.978 MM20+Lip20                                          
   6 lines in following misc. output table
  FWHM = 0.031 ppm    S/N =   1                                            
  Data shift = 0.000 ppm                                                   
  Ph:-167 deg     -22.8 deg/ppm                                            
  alphaB,S = 8.5E+01,   9.6E+00                                            
   14 spline knots.   Ns = 5(1)                                            
  (10) 8 infls.   ( 8) 5 extrs.                                            
  498 points on ppm-axis = NY
      4.000000     3.992357     3.984714     3.977070     3.969427     3.961784     3.954141     3.946497     3.938854     3.931211
      3.923568     3.915925     3.908281     3.900638     3.892995     3.885352     3.877708     3.870065     3.862422     3.854779
      3.847136     3.839492     3.831849     3.824206     3.816563     3.808919     3.801276     3.793633     3.785990     3.778347
      3.770703     3.763060     3.755417     3.747774     3.740130     3.732487     3.724844     3.717201     3.709558     3.701914
      3.694271     3.686628     3.678985     3.671341     3.663698     3.656055     3.648412     3.640769     3.633125     3.625482
      3.617839     3.610196     3.602552     3.594909     3.587266     3.579623     3.571980     3.564336     3.556693     3.549050
      3.541407     3.533763     3.526120     3.518477     3.510834     3.503191     3.495547     3.487904     3.480261     3.472618
      3.464974     3.457331     3.449688     3.442045     3.434402     3.426758     3.419115     3.411472     3.403829     3.396185
      3.388542     3.380899     3.373256     3.365613     3.357969     3.350326     3.342683     3.335040     3.327396     3.319753
      3.312110     3.304467     3.296824     3.289180     3.281537     3.273894     3.266251     3.258607     3.250964     3.243321
      3.235678     3.228034     3.220391     3.212748     3.205105     3.197462     3.189818     3.182175     3.174532     3.166889
      3.159245     3.151602     3.143959     3.136316     3.128673     3.121029     3.113386     3.105743     3.098100     3.090456
      3.082813     3.075170     3.067527     3.059884     3.052240     3.044597     3.036954     3.029311     3.021667     3.014024
      3.006381     2.998738     2.991095     2.983451     2.975808     2.968165     2.960522     2.952878     2.945235     2.937592
      2.929949     2.922306     2.914662     2.907019     2.899376     2.891733     2.884089     2.876446     2.868803     2.861160
      2.853517     2.845873     2.838230     2.830587     2.822944     2.815300     2.807657     2.800014     2.792371     2.784728
      2.777084     2.769441     2.761798     2.754155     2.746511     2.738868     2.731225     2.723582     2.715939     2.708295
      2.700652     2.693009     2.685366     2.677722     2.670079     2.662436     2.654793     2.647150     2.639506     2.631863
      2.624220     2.616577     2.608933     2.601290     2.593647     2.586004     2.578361     2.570717     2.563074     2.555431
      2.547788     2.540144     2.532501     2.524858     2.517215     2.509572     2.501928     2.494285     2.486642     2.478999
      2.471355     2.463712     2.456069     2.448426     2.440783     2.433139     2.425496     2.417853     2.410210     2.402566
      2.394923     2.387280     2.379637     2.371994     2.364350     2.356707     2.349064     2.341421     2.333777     2.326134
      2.318491     2.310848     2.303205     2.295561     2.287918     2.280275     2.272632     2.264988     2.257345     2.249702
      2.242059     2.234416     2.226772     2.219129     2.211486     2.203843     2.196199     2.188556     2.180913     2.173270
      2.165627     2.157983     2.150340     2.142697     2.135054     2.127410     2.119767     2.112124     2.104481     2.096838
      2.089194     2.081551     2.073908     2.066265     2.058621     2.050978     2.043335     2.035692     2.028049     2.020405
      2.012762     2.005119     1.997476     1.989833     1.982190     1.974546     1.966903     1.959260     1.951617     1.943974
      1.936331     1.928688     1.921045     1.913402     1.905759     1.898115     1.890472     1.882829     1.875186     1.867543
      1.859900     1.852257     1.844614     1.836971     1.829327     1.821684     1.814041     1.806398     1.798755     1.791112
      1.783469     1.775826     1.768183     1.760540     1.752896     1.745253     1.737610     1.729967     1.722324     1.714681
      1.707038     1.699395     1.691752     1.684108     1.676465     1.668822     1.661179     1.653536     1.645893     1.638250
      1.630607     1.622964     1.615321     1.607677     1.600034     1.592391     1.584748     1.577105     1.569462     1.561819
      1.554176     1.546533     1.538890     1.531246     1.523603     1.515960     1.508317     1.500674     1.493031     1.485388
      1.477745     1.470102     1.462458     1.454815     1.447172     1.439529     1.431886     1.424243     1.416600     1.408957
      1.401314     1.393671     1.386027     1.378384     1.370741     1.363098     1.355455     1.347812     1.340169     1.332526
      1.324883     1.317240     1.309596     1.301953     1.294310     1.286667     1.279024     1.271381     1.263738     1.256095
      1.248452     1.240808     1.233165     1.225522     1.217879     1.210236     1.202593     1.194950     1.187307     1.179664
      1.172021     1.164377     1.156734     1.149091     1.141448     1.133805     1.126162     1.118519     1.110876     1.103233
      1.095590     1.087946     1.080303     1.072660     1.065017     1.057374     1.049731     1.042088     1.034445     1.026802
      1.019158     1.011515     1.003872     0.996229     0.988586     0.980943     0.973300     0.965657     0.958014     0.950371
      0.942727     0.935084     0.927441     0.919798     0.912155     0.904512     0.896869     0.889226     0.881583     0.873940
      0.866296     0.858653     0.851010     0.843367     0.835724     0.828081     0.820438     0.812795     0.805152     0.797508
      0.789865     0.782222     0.774579     0.766936     0.759293     0.751650     0.744007     0.736364     0.728721     0.721077
      0.713434     0.705791     0.698148     0.690505     0.682862     0.675219     0.667576     0.659933     0.652290     0.644646
      0.637003     0.629360     0.621717     0.614074     0.606431     0.598788     0.591145     0.583502     0.575858     0.568215
      0.560572     0.552929     0.545286     0.537643     0.530000     0.522357     0.514714     0.507071     0.499427     0.491784
      0.484141     0.476498     0.468855     0.461212     0.453569     0.445925     0.438282     0.430639     0.422996     0.415353
      0.407710     0.400067     0.392424     0.384780     0.377137     0.369494     0.361851     0.354208     0.346565     0.338922
      0.331278     0.323635     0.315992     0.308349     0.300706     0.293063     0.285420     0.277777     0.270133     0.262490
      0.254847     0.247204     0.239561     0.231918     0.224275     0.216631     0.208988     0.201345
 NY phased data points follow
   8.95576E+00  6.77057E+00  1.06847E+01  1.15009E+01  9.47378E+00  9.97148E+00  1.12716E+01  6.68945E+00  9.30643E+00  1.10779E+01
   1.21627E+01  1.08850E+01  1.03749E+01  5.79565E+00  4.46983E+00  7.59815E+00  9.14727E+00  4.29357E+00  5.41217E+00  7.59712E+00
   5.26922E+00  4.74372E+00  6.03135E+00  8.34172E+00  7.74980E+00  7.25735E+00  5.08982E+00  5.57900E+00  7.83347E+00  7.58815E+00
   6.26446E+00  6.04798E+00  7.19887E+00  6.89872E+00  6.92918E+00  8.91513E+00  1.99833E+00  7.51060E+00  7.17662E+00  4.63584E+00
   3.65349E+00  6.28095E+00  2.85454E+00  2.78182E+00  9.17448E+00  5.74294E+00  5.90324E+00  6.04750E+00  6.83785E+00  6.34659E+00
   4.82483E+00  4.72882E+00  6.58677E+00  6.00667E+00  6.34534E+00  6.18927E+00  5.77720E+00  8.13691E+00  1.72671E+00  3.93052E+00
   6.11848E+00  3.50061E+00  3.43713E+00  5.31002E+00  7.01551E+00  6.20238E+00  5.10498E+00  6.49420E+00  7.16025E+00  5.01840E+00
   5.32503E+00  3.52849E+00  8.22894E+00  6.30911E+00  8.86971E+00  4.76999E+00  5.25759E+00  4.34494E+00  4.13058E+00  4.49709E+00
   7.15022E+00  4.03143E+00  5.52209E+00  3.16615E+00  5.26110E+00  4.56818E+00  2.70057E+00  7.07936E+00  3.99839E+00  4.89288E+00
   5.18400E+00  1.39210E+00  2.75107E+00  2.40472E+00  4.16739E+00  3.55895E+00  3.41427E+00  2.83753E+00  2.29609E+00  4.06379E+00
   6.35531E+00  6.17379E+00  6.10322E+00  8.36377E+00  7.15763E+00  4.43351E+00  6.35625E+00  2.09498E+00 -1.08419E+00  9.82531E-01
   3.42505E+00  2.99047E+00  4.11221E+00  1.85025E+00  5.27619E+00  2.24689E+00  5.75527E+00  3.47302E-01  2.70363E+00  5.03969E+00
   3.05205E+00  3.71714E+00  3.60786E+00  1.19186E+00  5.27956E+00  5.66835E+00  4.55172E+00  4.29812E+00  6.09524E+00  3.29663E+00
  -2.70439E-01  7.16230E+00  1.88508E+00 -3.37994E+00  1.23982E+00  3.21235E+00 -2.19658E+00  3.16890E+00  1.68504E+00  2.67411E+00
   4.32972E+00  2.77506E+00  1.65948E+00  3.97685E+00  3.48755E+00 -1.17576E+00  7.85845E-01  2.47987E+00  1.66894E+00  2.04389E+00
   3.18428E+00 -3.52727E-01  5.40868E+00 -1.27257E+00  4.09967E+00  9.38463E-01  3.36349E+00  1.87762E+00  6.97649E+00  3.07830E+00
   6.64198E-02  1.25647E+00  2.81848E+00 -1.30500E+00  6.32575E-01  2.49297E+00  4.12688E+00  2.96630E+00  1.86894E+00  4.34300E-01
   4.28536E-01  2.09002E+00  4.52528E+00  2.77349E+00  7.99040E-02  9.45604E-01  5.44226E+00  4.10767E+00  2.36862E+00  3.79912E+00
   2.34427E+00  9.15771E-01  4.62522E-02  5.43467E+00  3.31817E+00  1.70116E+00  5.68468E+00  1.24502E+00 -3.14884E-03  2.46762E+00
   2.12487E+00  1.69920E+00  9.02316E-01  2.40404E+00  2.90161E+00 -9.98788E-01 -7.58965E-01 -1.74934E+00 -1.65194E+00  9.74624E-01
  -1.10731E+00  1.21975E+00  3.28789E+00  1.36415E-01 -4.02363E-01  7.89525E-01  2.65370E+00 -8.68232E-01 -1.83709E+00 -3.23416E+00
  -1.37777E+00 -4.21582E+00  2.47454E+00  3.44843E-01 -3.26075E+00  5.07764E-01  1.51192E+00  9.54567E-01  2.10601E+00 -2.32876E+00
  -1.68766E+00  2.31956E+00 -2.29421E+00 -1.02904E+00 -9.38995E-01 -1.31414E+00  1.38753E+00 -3.62762E+00 -1.08224E+00 -3.52574E+00
   1.38428E-01  8.78832E-01 -8.29290E-01 -1.40596E+00 -2.38684E+00  2.86824E+00 -1.16725E+00  8.16908E-01  7.64319E-02  2.02734E+00
  -1.00422E+00  1.38342E+00 -1.88935E+00 -1.12630E+00 -4.77656E-01 -9.42207E-01  6.78408E-02  2.28689E+00  9.83301E-01  3.79752E-01
  -5.00580E-01  4.97822E+00 -1.79262E+00  8.15769E-01  4.97020E-01  9.24000E-01 -5.40285E-01  6.83645E-01  4.32517E+00  3.45394E+00
   4.71188E+00  4.33383E+00  1.46446E+00  1.98072E+00  1.11123E+00 -9.28763E-03  2.02331E+00  2.28657E+00  4.03865E+00  6.51612E-02
   9.40632E-02  2.59311E+00 -1.92526E-02  1.62804E+00  2.44109E+00  2.33402E+00  4.85483E-01  1.94378E+00 -2.04186E-01  1.20665E+00
   6.78945E-01  1.08833E+00  1.86227E+00  1.41108E+00  8.50234E-02  1.59246E+00  1.93295E+00  3.00033E+00  2.36064E+00  2.90856E+00
   2.49749E+00  1.93155E+00  2.41753E+00 -6.93252E-01 -1.92807E-01  1.98069E+00  4.53726E+00  8.75739E-01  1.67393E+00  1.24856E+00
   4.91583E-01 -7.94938E-01  1.13296E+00  2.85443E+00  2.85129E+00  1.36705E+00  3.32805E+00  2.30486E+00  2.74804E+00  6.31936E-02
   3.80525E+00  2.63709E+00  4.03511E-01 -6.41153E-01 -7.18851E-01  3.46915E-01  5.22933E+00  2.36669E+00  4.76343E+00 -5.36375E-01
   4.63309E+00 -7.14659E-01 -2.17525E+00  1.43437E-01  5.28192E+00  3.52113E+00  1.48998E+00 -2.86306E+00  1.94023E+00  9.82197E-01
   1.42991E-01  3.54881E+00  1.91406E+00  2.45682E+00  9.02752E-01  3.65938E+00  2.24565E+00  1.47935E-01  4.82001E+00  3.32317E+00
   1.08932E+00  1.40919E+00  3.54638E+00 -2.26510E+00  8.55930E-01  3.70115E+00  2.18309E+00  3.73105E+00  1.96973E+00 -1.13678E+00
  -2.38480E+00  1.83010E-01  8.19251E-01  2.94716E+00  7.15678E-01 -1.29789E-01 -3.08656E-01 -2.53284E+00  8.37361E-01 -2.62846E+00
  -5.61207E-01 -2.98281E+00  1.89728E+00 -2.23641E+00  3.28165E-01 -6.00992E+00 -1.49867E+00 -1.63756E+00 -1.43181E+00  1.88728E-01
   3.79620E+00 -2.07261E-01  3.84377E-01 -2.24480E-01  3.19569E+00  5.90935E-01  6.95154E-01 -4.15934E-01  5.02786E-01  1.77264E+00
  -1.53867E+00 -1.02616E+00 -2.61670E+00  6.26888E-01  5.18035E-01  1.22220E+00 -2.11456E+00 -8.85244E-01  1.52415E+00  1.17882E+00
   2.75329E+00  6.50114E+00  5.34519E+00  4.68327E+00  2.21489E+00  2.26994E+00  1.75421E+00  2.71255E+00  2.30241E+00  2.43185E+00
  -4.49377E-01  2.18019E+00  2.66974E-01  7.28637E-01 -2.40579E+00 -2.60203E-01  3.93424E+00  8.91140E-01 -1.25321E+00  2.78341E+00
  -2.07960E-01  2.50239E-01  3.54617E+00  1.49532E-01  2.05060E+00  1.84213E+00  3.39451E+00  1.79724E+00  2.65889E+00  1.52044E+00
   1.31824E+00  3.84572E+00  3.18560E+00  4.54615E+00  4.43157E+00  2.47822E+00 -7.40110E-01  5.25288E+00  1.88971E+00  2.86340E+00
   6.44572E-01 -1.26590E-01  1.11358E+00  1.83074E+00  2.67665E+00  1.49261E+00  1.84099E+00  1.75362E+00  3.98561E+00  6.96653E-01
   1.75061E+00  1.64789E+00  2.15786E+00  1.35615E+00  1.74382E+00  4.38917E+00  1.59122E+00  1.22368E+00  6.10114E-01  2.97567E+00
   6.73488E-01  6.31317E-01  3.02734E+00  4.38744E+00  3.57917E-01  1.55451E+00  2.59772E+00  2.37023E+00  4.54635E+00  2.85165E+00
   1.69328E+00  4.92268E+00  5.26856E+00  1.06008E+00  7.35513E-01  4.54255E+00  3.05634E+00  3.03482E+00  3.72487E+00  2.48747E+00
   8.73353E+00  4.21774E+00  4.20081E+00 -1.55960E+00  6.74924E+00 -5.41636E-01 -4.19778E+00  2.62524E-01  2.25017E+00  3.88888E-01
   6.43181E+00  3.16538E+00  4.98726E+00  2.42424E+00  3.64350E+00  8.55497E-01  4.34645E+00  5.57935E-01  3.11226E+00 -1.43700E-01
   2.46047E+00  1.74522E+00  2.53202E+00  3.55582E-01  8.40582E-01 -1.03885E+00 -2.55984E-01 -4.96053E-02
 NY points of the fit to the data follow
   7.77780E+00  7.78677E+00  7.79989E+00  7.78021E+00  7.68969E+00  7.71392E+00  8.09118E+00  8.74093E+00  9.39245E+00  9.82398E+00
   9.82569E+00  9.31856E+00  8.52559E+00  7.73654E+00  7.13949E+00  6.86064E+00  6.80466E+00  6.78903E+00  6.76552E+00  6.75325E+00
   6.76538E+00  6.82803E+00  6.93367E+00  6.98702E+00  6.88972E+00  6.63773E+00  6.35483E+00  6.19431E+00  6.25206E+00  6.54284E+00
   6.97068E+00  7.33923E+00  7.45761E+00  7.27492E+00  6.84792E+00  6.33831E+00  5.95802E+00  5.76178E+00  5.71422E+00  5.79026E+00
   5.91034E+00  5.97918E+00  5.98595E+00  5.96322E+00  5.91144E+00  5.84099E+00  5.77469E+00  5.71420E+00  5.66558E+00  5.64261E+00
   5.63333E+00  5.61486E+00  5.58287E+00  5.53562E+00  5.46996E+00  5.39754E+00  5.33379E+00  5.27979E+00  5.23188E+00  5.18923E+00
   5.15219E+00  5.12042E+00  5.09221E+00  5.06680E+00  5.04221E+00  5.01745E+00  4.99180E+00  4.96133E+00  4.92435E+00  4.88494E+00
   4.84547E+00  4.81092E+00  4.79308E+00  4.79220E+00  4.79438E+00  4.78832E+00  4.76386E+00  4.71476E+00  4.65155E+00  4.59230E+00
   4.54625E+00  4.51614E+00  4.51238E+00  4.53963E+00  4.58025E+00  4.60974E+00  4.61285E+00  4.58027E+00  4.51573E+00  4.44062E+00
   4.37242E+00  4.31940E+00  4.28901E+00  4.27314E+00  4.26265E+00  4.26487E+00  4.27173E+00  4.22138E+00  4.15442E+00  4.44328E+00
   5.28041E+00  6.32113E+00  7.11369E+00  7.35008E+00  6.80629E+00  5.60166E+00  4.23144E+00  3.10755E+00  2.47624E+00  2.39854E+00
   2.56695E+00  2.71442E+00  2.81374E+00  2.88488E+00  2.94114E+00  2.98864E+00  3.02731E+00  3.05665E+00  3.07898E+00  3.09395E+00
   3.09171E+00  3.03424E+00  2.98291E+00  3.28834E+00  4.11087E+00  5.09930E+00  5.81370E+00  5.97343E+00  5.39266E+00  4.22211E+00
   2.96220E+00  1.98417E+00  1.46133E+00  1.40277E+00  1.50110E+00  1.52484E+00  1.50741E+00  1.52607E+00  1.61438E+00  1.76330E+00
   1.92476E+00  2.03900E+00  2.08261E+00  2.06328E+00  2.00333E+00  1.93626E+00  1.88243E+00  1.84519E+00  1.81981E+00  1.79817E+00
   1.77575E+00  1.75162E+00  1.72838E+00  1.70894E+00  1.69463E+00  1.68509E+00  1.67596E+00  1.66098E+00  1.63750E+00  1.60861E+00
   1.57933E+00  1.55481E+00  1.53786E+00  1.52665E+00  1.51732E+00  1.50632E+00  1.49082E+00  1.47069E+00  1.44797E+00  1.42432E+00
   1.40150E+00  1.37992E+00  1.35614E+00  1.32819E+00  1.29825E+00  1.26980E+00  1.24548E+00  1.22547E+00  1.20819E+00  1.19196E+00
   1.17852E+00  1.16727E+00  1.15352E+00  1.13578E+00  1.11591E+00  1.09700E+00  1.08898E+00  1.10533E+00  1.14967E+00  1.20431E+00
   1.22998E+00  1.19799E+00  1.10060E+00  9.39563E-01  7.43726E-01  5.80883E-01  5.10223E-01  5.66477E-01  7.70131E-01  1.08066E+00
   1.39027E+00  1.61587E+00  1.70957E+00  1.63836E+00  1.42551E+00  1.12207E+00  7.05175E-01  2.18188E-01 -1.40655E-01 -2.27326E-01
  -3.49589E-02  3.97126E-01  9.33386E-01  1.36067E+00  1.56838E+00  1.56096E+00  1.39536E+00  1.20104E+00  1.06464E+00  9.74543E-01
   9.11840E-01  8.72253E-01  8.46086E-01  8.21911E-01  7.92478E-01  7.55019E-01  7.10660E-01  6.54892E-01  5.80444E-01  5.02997E-01
   4.57299E-01  4.46169E-01  4.17341E-01  3.62435E-01  3.41005E-01  3.81200E-01  4.79061E-01  6.60053E-01  8.84021E-01  1.00447E+00
   9.33532E-01  6.90137E-01  3.38846E-01  1.41123E-02 -1.54524E-01 -1.52194E-01 -2.24100E-02  2.00564E-01  4.48603E-01  6.49450E-01
   7.88217E-01  8.64398E-01  8.60003E-01  7.76924E-01  6.45196E-01  4.97446E-01  4.17397E-01  4.76264E-01  6.18963E-01  7.36552E-01
   7.65539E-01  6.70129E-01  4.56378E-01  2.11502E-01  2.23134E-02 -7.66629E-02 -7.57415E-02 -2.41621E-02  1.82185E-02  4.39604E-02
   6.42769E-02  8.42897E-02  1.04856E-01  1.25522E-01  1.44309E-01  1.58325E-01  1.67122E-01  1.71994E-01  1.74022E-01  1.75289E-01
   1.77997E-01  1.83580E-01  1.93455E-01  2.07374E-01  2.23237E-01  2.39641E-01  2.55737E-01  2.70130E-01  2.82346E-01  2.93088E-01
   3.02998E-01  3.12677E-01  3.22758E-01  3.33487E-01  3.44995E-01  3.57617E-01  3.71405E-01  3.85964E-01  4.01103E-01  4.16708E-01
   4.32592E-01  4.48785E-01  4.65454E-01  4.82717E-01  5.00626E-01  5.19208E-01  5.38475E-01  5.58404E-01  5.78996E-01  6.00305E-01
   6.22404E-01  6.45393E-01  6.69375E-01  6.94415E-01  7.20574E-01  7.47938E-01  7.76595E-01  8.06645E-01  8.38211E-01  8.71485E-01
   9.06992E-01  9.48740E-01  1.02884E+00  1.18242E+00  1.31242E+00  1.26801E+00  1.02884E+00  6.74263E-01  3.05918E-01  5.47408E-02
   1.40072E-02  2.47113E-01  7.74934E-01  1.44687E+00  2.02390E+00  2.39870E+00  2.52365E+00  2.38702E+00  2.10206E+00  1.80658E+00
   1.60391E+00  1.56846E+00  1.67902E+00  1.89279E+00  2.09515E+00  2.11112E+00  1.89082E+00  1.50337E+00  1.04042E+00  6.24277E-01
   3.82746E-01  4.06660E-01  6.79316E-01  1.01339E+00  1.16523E+00  1.04048E+00  6.38942E-01  2.58926E-02 -6.34544E-01 -1.19640E+00
  -1.56080E+00 -1.68879E+00 -1.66687E+00 -1.58930E+00 -1.48554E+00 -1.36714E+00 -1.24333E+00 -1.12085E+00 -1.00378E+00 -8.93992E-01
  -7.91779E-01 -6.96521E-01 -6.07203E-01 -5.22748E-01 -4.42197E-01 -3.64797E-01 -2.90011E-01 -2.17493E-01 -1.47042E-01 -7.85494E-02
  -1.19664E-02  5.27071E-02  1.15429E-01  1.76124E-01  2.34690E-01  2.91003E-01  3.44917E-01  3.96250E-01  4.44784E-01  4.90273E-01
   5.32450E-01  5.71040E-01  6.05758E-01  6.36327E-01  6.62485E-01  6.84019E-01  7.00778E-01  7.12696E-01  7.19805E-01  7.22245E-01
   7.20281E-01  7.14313E-01  7.04872E-01  6.92612E-01  6.78289E-01  6.62739E-01  6.46852E-01  6.31548E-01  6.17733E-01  6.06266E-01
   5.97924E-01  5.93374E-01  5.93156E-01  5.97670E-01  6.07161E-01  6.21723E-01  6.41302E-01  6.65718E-01  6.94683E-01  7.27824E-01
   7.64704E-01  8.04845E-01  8.47749E-01  8.92924E-01  9.39902E-01  9.88247E-01  1.03757E+00  1.08751E+00  1.13778E+00  1.18813E+00
   1.23836E+00  1.28833E+00  1.33791E+00  1.38703E+00  1.43562E+00  1.48367E+00  1.53116E+00  1.57809E+00  1.62448E+00  1.67035E+00
   1.71572E+00  1.76063E+00  1.80510E+00  1.84918E+00  1.89288E+00  1.93624E+00  1.97929E+00  2.02205E+00  2.06456E+00  2.10683E+00
   2.14890E+00  2.19077E+00  2.23248E+00  2.27403E+00  2.31546E+00  2.35676E+00  2.39796E+00  2.43907E+00  2.48010E+00  2.52106E+00
   2.56197E+00  2.60284E+00  2.64366E+00  2.68446E+00  2.72524E+00  2.76601E+00  2.80677E+00  2.84752E+00  2.88829E+00  2.92906E+00
   2.96986E+00  3.01067E+00  3.05152E+00  3.09239E+00  3.13330E+00  3.17425E+00  3.21524E+00  3.25628E+00  3.29737E+00  3.33851E+00
   3.37971E+00  3.42097E+00  3.46229E+00  3.50367E+00  3.54512E+00  3.58664E+00  3.62823E+00  3.66989E+00  3.71163E+00  3.75345E+00
   3.79535E+00  3.83733E+00  3.87940E+00  3.92156E+00  3.96380E+00  4.00614E+00  4.04858E+00  4.09112E+00
 NY background values follow
     7.443E+00    7.401E+00    7.359E+00    7.317E+00    7.275E+00    7.233E+00    7.191E+00    7.148E+00    7.106E+00    7.064E+00
     7.022E+00    6.981E+00    6.939E+00    6.897E+00    6.855E+00    6.813E+00    6.771E+00    6.730E+00    6.688E+00    6.646E+00
     6.605E+00    6.563E+00    6.522E+00    6.480E+00    6.439E+00    6.398E+00    6.356E+00    6.315E+00    6.274E+00    6.233E+00
     6.192E+00    6.151E+00    6.110E+00    6.069E+00    6.028E+00    5.987E+00    5.946E+00    5.906E+00    5.865E+00    5.824E+00
     5.784E+00    5.744E+00    5.703E+00    5.663E+00    5.623E+00    5.583E+00    5.542E+00    5.502E+00    5.462E+00    5.423E+00
     5.383E+00    5.343E+00    5.304E+00    5.264E+00    5.224E+00    5.185E+00    5.146E+00    5.107E+00    5.067E+00    5.028E+00
     4.989E+00    4.950E+00    4.912E+00    4.873E+00    4.834E+00    4.796E+00    4.757E+00    4.719E+00    4.681E+00    4.643E+00
     4.604E+00    4.566E+00    4.529E+00    4.491E+00    4.453E+00    4.416E+00    4.378E+00    4.341E+00    4.303E+00    4.266E+00
     4.229E+00    4.192E+00    4.155E+00    4.119E+00    4.082E+00    4.045E+00    4.009E+00    3.973E+00    3.937E+00    3.900E+00
     3.864E+00    3.829E+00    3.793E+00    3.757E+00    3.722E+00    3.686E+00    3.651E+00    3.616E+00    3.581E+00    3.546E+00
     3.511E+00    3.477E+00    3.442E+00    3.408E+00    3.373E+00    3.339E+00    3.305E+00    3.271E+00    3.238E+00    3.204E+00
     3.171E+00    3.137E+00    3.104E+00    3.071E+00    3.038E+00    3.005E+00    2.972E+00    2.940E+00    2.907E+00    2.875E+00
     2.843E+00    2.811E+00    2.779E+00    2.747E+00    2.716E+00    2.684E+00    2.653E+00    2.622E+00    2.591E+00    2.560E+00
     2.530E+00    2.499E+00    2.469E+00    2.438E+00    2.408E+00    2.378E+00    2.349E+00    2.319E+00    2.289E+00    2.260E+00
     2.231E+00    2.202E+00    2.173E+00    2.144E+00    2.116E+00    2.088E+00    2.059E+00    2.031E+00    2.003E+00    1.976E+00
     1.948E+00    1.921E+00    1.893E+00    1.866E+00    1.839E+00    1.813E+00    1.786E+00    1.760E+00    1.734E+00    1.707E+00
     1.682E+00    1.656E+00    1.630E+00    1.605E+00    1.580E+00    1.555E+00    1.530E+00    1.505E+00    1.481E+00    1.456E+00
     1.432E+00    1.408E+00    1.384E+00    1.361E+00    1.337E+00    1.314E+00    1.291E+00    1.268E+00    1.245E+00    1.223E+00
     1.200E+00    1.178E+00    1.156E+00    1.134E+00    1.113E+00    1.091E+00    1.070E+00    1.049E+00    1.028E+00    1.007E+00
     9.866E-01    9.663E-01    9.462E-01    9.262E-01    9.064E-01    8.869E-01    8.675E-01    8.483E-01    8.293E-01    8.105E-01
     7.919E-01    7.735E-01    7.552E-01    7.372E-01    7.194E-01    7.017E-01    6.843E-01    6.670E-01    6.500E-01    6.331E-01
     6.164E-01    6.000E-01    5.837E-01    5.676E-01    5.518E-01    5.361E-01    5.206E-01    5.054E-01    4.903E-01    4.754E-01
     4.608E-01    4.463E-01    4.321E-01    4.180E-01    4.042E-01    3.905E-01    3.771E-01    3.638E-01    3.508E-01    3.379E-01
     3.253E-01    3.129E-01    3.007E-01    2.887E-01    2.769E-01    2.653E-01    2.539E-01    2.427E-01    2.317E-01    2.210E-01
     2.104E-01    2.000E-01    1.899E-01    1.800E-01    1.703E-01    1.607E-01    1.514E-01    1.424E-01    1.335E-01    1.248E-01
     1.164E-01    1.081E-01    1.001E-01    9.225E-02    8.464E-02    7.724E-02    7.006E-02    6.309E-02    5.633E-02    4.978E-02
     4.345E-02    3.733E-02    3.142E-02    2.573E-02    2.026E-02    1.499E-02    9.945E-03    5.112E-03    4.936E-04   -3.910E-03
    -8.098E-03   -1.207E-02   -1.583E-02   -1.937E-02   -2.270E-02   -2.581E-02   -2.870E-02   -3.138E-02   -3.384E-02   -3.609E-02
    -3.811E-02   -3.993E-02   -4.152E-02   -4.290E-02   -4.406E-02   -4.501E-02   -4.574E-02   -4.625E-02   -4.654E-02   -4.662E-02
    -4.648E-02   -4.612E-02   -4.555E-02   -4.476E-02   -4.375E-02   -4.252E-02   -4.108E-02   -3.941E-02   -3.753E-02   -3.544E-02
    -3.312E-02   -3.059E-02   -2.784E-02   -2.488E-02   -2.169E-02   -1.829E-02   -1.467E-02   -1.084E-02   -6.784E-03   -2.513E-03
     1.975E-03    6.680E-03    1.160E-02    1.674E-02    2.210E-02    2.767E-02    3.346E-02    3.947E-02    4.569E-02    5.213E-02
     5.879E-02    6.566E-02    7.275E-02    8.005E-02    8.757E-02    9.531E-02    1.033E-01    1.114E-01    1.198E-01    1.284E-01
     1.372E-01    1.463E-01    1.555E-01    1.650E-01    1.746E-01    1.845E-01    1.946E-01    2.049E-01    2.155E-01    2.262E-01
     2.372E-01    2.484E-01    2.597E-01    2.713E-01    2.831E-01    2.952E-01    3.074E-01    3.199E-01    3.325E-01    3.454E-01
     3.585E-01    3.718E-01    3.853E-01    3.990E-01    4.129E-01    4.270E-01    4.414E-01    4.559E-01    4.707E-01    4.857E-01
     5.008E-01    5.162E-01    5.318E-01    5.476E-01    5.636E-01    5.798E-01    5.963E-01    6.129E-01    6.297E-01    6.468E-01
     6.640E-01    6.815E-01    6.991E-01    7.170E-01    7.351E-01    7.533E-01    7.718E-01    7.905E-01    8.094E-01    8.284E-01
     8.477E-01    8.672E-01    8.869E-01    9.068E-01    9.268E-01    9.471E-01    9.676E-01    9.883E-01    1.009E+00    1.030E+00
     1.052E+00    1.073E+00    1.095E+00    1.117E+00    1.139E+00    1.161E+00    1.183E+00    1.206E+00    1.229E+00    1.252E+00
     1.275E+00    1.298E+00    1.322E+00    1.346E+00    1.370E+00    1.394E+00    1.418E+00    1.443E+00    1.468E+00    1.493E+00
     1.518E+00    1.543E+00    1.569E+00    1.594E+00    1.620E+00    1.646E+00    1.672E+00    1.699E+00    1.725E+00    1.752E+00
     1.779E+00    1.806E+00    1.834E+00    1.861E+00    1.889E+00    1.917E+00    1.945E+00    1.973E+00    2.001E+00    2.030E+00
     2.059E+00    2.088E+00    2.117E+00    2.146E+00    2.176E+00    2.205E+00    2.235E+00    2.265E+00    2.295E+00    2.325E+00
     2.356E+00    2.387E+00    2.417E+00    2.448E+00    2.480E+00    2.511E+00    2.542E+00    2.574E+00    2.606E+00    2.638E+00
     2.670E+00    2.702E+00    2.735E+00    2.767E+00    2.800E+00    2.833E+00    2.866E+00    2.900E+00    2.933E+00    2.967E+00
     3.000E+00    3.034E+00    3.068E+00    3.102E+00    3.137E+00    3.171E+00    3.206E+00    3.241E+00    3.276E+00    3.311E+00
     3.346E+00    3.381E+00    3.417E+00    3.453E+00    3.489E+00    3.525E+00    3.561E+00    3.597E+00    3.633E+00    3.670E+00
     3.707E+00    3.743E+00    3.780E+00    3.817E+00    3.855E+00    3.892E+00    3.930E+00    3.967E+00    4.005E+00    4.043E+00
     4.081E+00    4.119E+00    4.157E+00    4.196E+00    4.234E+00    4.273E+00    4.312E+00    4.351E+00
 Ala      Conc. = 4.43E+01
