 LCModel (Version 6.3-1L) Copyright: S.W. Provencher.          Ref.: Magn. Reson. Med. 30:672-679 (1993).                
 Slice#3 Row#9 Col#4  PD_24_press_1_raw_act
 36 lines in following concentration table = NCONC+1
    Conc.  %SD /Cr+PCr  Metabolite                                         
    0.000 999%   0.000 Ala                                                 
    0.000 999%   0.000 Asp                                                 
  308.834  75%   0.190 Cr                                                  
 1.32E+03  18%   0.810 PCr                                                 
    0.000 999%   0.000 GABA                                                
    0.000 999%   0.000 Glc                                                 
  212.286 106%   0.130 Gln                                                 
 1.39E+03  18%   0.853 Glu                                                 
  478.265   4%   0.294 GPC                                                 
    0.000 999%   0.000 PCh                                                 
  264.532  25%   0.162 GSH                                                 
   32.843 766% 2.0E-02 Ins                                                 
  113.184 101% 6.9E-02 Lac                                                 
 1.88E+03   6%   1.156 NAA                                                 
  345.377  36%   0.212 NAAG                                                
   33.655  76% 2.1E-02 Scyllo                                              
    0.000 999%   0.000 Tau                                                 
    0.000 999%   0.000 -CrCH2                                              
  478.265   4%   0.294 GPC+PCh                                             
 2.23E+03   3%   1.368 NAA+NAAG                                            
 1.63E+03   3%   1.000 Cr+PCr                                              
 1.60E+03  23%   0.984 Glu+Gln                                             
    0.000 999%   0.000 Lip13a                                              
    0.000 999%   0.000 Lip13b                                              
    0.000 999%   0.000 Lip09                                               
 1.13E+03  16%   0.693 MM09                                                
 6.26E-03 999% 3.8E-06 Lip20                                               
 2.47E+03  13%   1.517 MM20                                                
  280.419  34%   0.172 MM12                                                
    0.000 999%   0.000 MM14                                                
  981.305  19%   0.602 MM17                                                
    0.000 999%   0.000 Lip13a+Lip13b                                       
  280.419  34%   0.172 MM14+Lip13a+Lip13b+MM12                             
 1.13E+03  16%   0.693 MM09+Lip09                                          
 2.47E+03  13%   1.517 MM20+Lip20                                          
   6 lines in following misc. output table
  FWHM = 0.061 ppm    S/N =  11                                            
  Data shift = 0.031 ppm                                                   
  Ph: -15 deg      -4.1 deg/ppm                                            
  alphaB,S = 4.0E-01,   1.9E+02                                            
   14 spline knots.   Ns = 7(1)                                            
  (10) 2 infls.   ( 5) 1 extrs.                                            
  498 points on ppm-axis = NY
      4.000000     3.992357     3.984714     3.977070     3.969427     3.961784     3.954141     3.946497     3.938854     3.931211
      3.923568     3.915925     3.908281     3.900638     3.892995     3.885352     3.877708     3.870065     3.862422     3.854779
      3.847136     3.839492     3.831849     3.824206     3.816563     3.808919     3.801276     3.793633     3.785990     3.778347
      3.770703     3.763060     3.755417     3.747774     3.740130     3.732487     3.724844     3.717201     3.709558     3.701914
      3.694271     3.686628     3.678985     3.671341     3.663698     3.656055     3.648412     3.640769     3.633125     3.625482
      3.617839     3.610196     3.602552     3.594909     3.587266     3.579623     3.571980     3.564336     3.556693     3.549050
      3.541407     3.533763     3.526120     3.518477     3.510834     3.503191     3.495547     3.487904     3.480261     3.472618
      3.464974     3.457331     3.449688     3.442045     3.434402     3.426758     3.419115     3.411472     3.403829     3.396185
      3.388542     3.380899     3.373256     3.365613     3.357969     3.350326     3.342683     3.335040     3.327396     3.319753
      3.312110     3.304467     3.296824     3.289180     3.281537     3.273894     3.266251     3.258607     3.250964     3.243321
      3.235678     3.228034     3.220391     3.212748     3.205105     3.197462     3.189818     3.182175     3.174532     3.166889
      3.159245     3.151602     3.143959     3.136316     3.128673     3.121029     3.113386     3.105743     3.098100     3.090456
      3.082813     3.075170     3.067527     3.059884     3.052240     3.044597     3.036954     3.029311     3.021667     3.014024
      3.006381     2.998738     2.991095     2.983451     2.975808     2.968165     2.960522     2.952878     2.945235     2.937592
      2.929949     2.922306     2.914662     2.907019     2.899376     2.891733     2.884089     2.876446     2.868803     2.861160
      2.853517     2.845873     2.838230     2.830587     2.822944     2.815300     2.807657     2.800014     2.792371     2.784728
      2.777084     2.769441     2.761798     2.754155     2.746511     2.738868     2.731225     2.723582     2.715939     2.708295
      2.700652     2.693009     2.685366     2.677722     2.670079     2.662436     2.654793     2.647150     2.639506     2.631863
      2.624220     2.616577     2.608933     2.601290     2.593647     2.586004     2.578361     2.570717     2.563074     2.555431
      2.547788     2.540144     2.532501     2.524858     2.517215     2.509572     2.501928     2.494285     2.486642     2.478999
      2.471355     2.463712     2.456069     2.448426     2.440783     2.433139     2.425496     2.417853     2.410210     2.402566
      2.394923     2.387280     2.379637     2.371994     2.364350     2.356707     2.349064     2.341421     2.333777     2.326134
      2.318491     2.310848     2.303205     2.295561     2.287918     2.280275     2.272632     2.264988     2.257345     2.249702
      2.242059     2.234416     2.226772     2.219129     2.211486     2.203843     2.196199     2.188556     2.180913     2.173270
      2.165627     2.157983     2.150340     2.142697     2.135054     2.127410     2.119767     2.112124     2.104481     2.096838
      2.089194     2.081551     2.073908     2.066265     2.058621     2.050978     2.043335     2.035692     2.028049     2.020405
      2.012762     2.005119     1.997476     1.989833     1.982190     1.974546     1.966903     1.959260     1.951617     1.943974
      1.936331     1.928688     1.921045     1.913402     1.905759     1.898115     1.890472     1.882829     1.875186     1.867543
      1.859900     1.852257     1.844614     1.836971     1.829327     1.821684     1.814041     1.806398     1.798755     1.791112
      1.783469     1.775826     1.768183     1.760540     1.752896     1.745253     1.737610     1.729967     1.722324     1.714681
      1.707038     1.699395     1.691752     1.684108     1.676465     1.668822     1.661179     1.653536     1.645893     1.638250
      1.630607     1.622964     1.615321     1.607677     1.600034     1.592391     1.584748     1.577105     1.569462     1.561819
      1.554176     1.546533     1.538890     1.531246     1.523603     1.515960     1.508317     1.500674     1.493031     1.485388
      1.477745     1.470102     1.462458     1.454815     1.447172     1.439529     1.431886     1.424243     1.416600     1.408957
      1.401314     1.393671     1.386027     1.378384     1.370741     1.363098     1.355455     1.347812     1.340169     1.332526
      1.324883     1.317240     1.309596     1.301953     1.294310     1.286667     1.279024     1.271381     1.263738     1.256095
      1.248452     1.240808     1.233165     1.225522     1.217879     1.210236     1.202593     1.194950     1.187307     1.179664
      1.172021     1.164377     1.156734     1.149091     1.141448     1.133805     1.126162     1.118519     1.110876     1.103233
      1.095590     1.087946     1.080303     1.072660     1.065017     1.057374     1.049731     1.042088     1.034445     1.026802
      1.019158     1.011515     1.003872     0.996229     0.988586     0.980943     0.973300     0.965657     0.958014     0.950371
      0.942727     0.935084     0.927441     0.919798     0.912155     0.904512     0.896869     0.889226     0.881583     0.873940
      0.866296     0.858653     0.851010     0.843367     0.835724     0.828081     0.820438     0.812795     0.805152     0.797508
      0.789865     0.782222     0.774579     0.766936     0.759293     0.751650     0.744007     0.736364     0.728721     0.721077
      0.713434     0.705791     0.698148     0.690505     0.682862     0.675219     0.667576     0.659933     0.652290     0.644646
      0.637003     0.629360     0.621717     0.614074     0.606431     0.598788     0.591145     0.583502     0.575858     0.568215
      0.560572     0.552929     0.545286     0.537643     0.530000     0.522357     0.514714     0.507071     0.499427     0.491784
      0.484141     0.476498     0.468855     0.461212     0.453569     0.445925     0.438282     0.430639     0.422996     0.415353
      0.407710     0.400067     0.392424     0.384780     0.377137     0.369494     0.361851     0.354208     0.346565     0.338922
      0.331278     0.323635     0.315992     0.308349     0.300706     0.293063     0.285420     0.277777     0.270133     0.262490
      0.254847     0.247204     0.239561     0.231918     0.224275     0.216631     0.208988     0.201345
 NY phased data points follow
   5.95847E+01  5.72321E+01  6.16010E+01  5.72002E+01  6.48046E+01  6.67229E+01  6.93840E+01  7.76322E+01  8.66378E+01  8.71438E+01
   8.86828E+01  8.79420E+01  8.64712E+01  8.15959E+01  7.81940E+01  6.64855E+01  6.62131E+01  5.92276E+01  6.20943E+01  5.26631E+01
   5.41075E+01  5.00907E+01  5.36059E+01  5.22756E+01  4.37480E+01  5.05212E+01  4.85937E+01  4.56812E+01  5.12485E+01  5.03196E+01
   5.16445E+01  5.09494E+01  4.90857E+01  4.72583E+01  4.74072E+01  4.40416E+01  4.52879E+01  4.01778E+01  4.08752E+01  4.05616E+01
   4.20571E+01  3.63631E+01  4.16273E+01  3.88997E+01  4.11848E+01  3.78785E+01  4.58619E+01  4.19192E+01  4.10246E+01  3.90088E+01
   4.26872E+01  3.65200E+01  4.25261E+01  3.40980E+01  3.36195E+01  3.86659E+01  3.59615E+01  3.43865E+01  3.67460E+01  3.14477E+01
   3.42946E+01  2.94373E+01  3.02929E+01  2.77101E+01  2.86023E+01  2.25364E+01  2.39404E+01  2.07207E+01  2.25450E+01  2.18795E+01
   2.65853E+01  2.23966E+01  2.90180E+01  2.16489E+01  2.66835E+01  2.37599E+01  2.35230E+01  2.40369E+01  2.38825E+01  1.91614E+01
   2.46539E+01  2.45921E+01  2.62664E+01  2.12489E+01  2.75494E+01  2.43475E+01  2.20806E+01  2.33004E+01  2.50130E+01  1.81300E+01
   2.50275E+01  1.51869E+01  2.09158E+01  2.05861E+01  2.46305E+01  2.27859E+01  2.33044E+01  2.14947E+01  3.01129E+01  3.68453E+01
   4.46552E+01  4.95441E+01  5.86278E+01  6.12645E+01  5.73731E+01  5.90738E+01  4.92819E+01  4.11467E+01  3.61967E+01  2.95919E+01
   3.00641E+01  2.18542E+01  1.93616E+01  1.90659E+01  1.83076E+01  1.71169E+01  1.99604E+01  2.03742E+01  2.37110E+01  2.11498E+01
   1.56175E+01  1.84509E+01  2.78597E+01  2.71335E+01  4.12598E+01  4.94401E+01  5.60816E+01  6.50751E+01  6.30776E+01  5.99856E+01
   5.32052E+01  4.75902E+01  3.91658E+01  3.40579E+01  2.82408E+01  2.09691E+01  2.24679E+01  1.96579E+01  1.72011E+01  1.71729E+01
   1.82745E+01  1.66616E+01  1.69784E+01  1.30170E+01  1.75798E+01  1.84060E+01  1.31074E+01  1.28233E+01  1.29985E+01  1.28133E+01
   1.02755E+01  1.40639E+01  9.92042E+00  1.00149E+01  6.39823E+00  8.08797E+00  1.43584E+01  1.26242E+01  7.81449E+00  1.29359E+01
   9.58794E+00  9.92588E+00  6.91122E+00  6.15486E+00  9.70015E+00  5.43140E+00  8.78533E+00  1.64534E+00  5.09415E+00  5.55891E+00
   1.78611E+00  4.76712E+00  3.53356E+00  2.24444E+00 -1.36711E+00 -1.02565E+00  3.06752E+00 -3.65497E+00 -1.46096E+00  4.68466E-01
   1.34317E+00  2.69855E+00  2.51520E-01  5.54928E+00  2.59443E+00  1.52427E+00  3.64850E+00  5.70830E+00  4.59107E+00  8.26908E+00
   1.45179E+01  1.47339E+01  1.56610E+01  1.47970E+01  1.30212E+01  1.67756E+01  1.52936E+01  1.29713E+01  1.59427E+01  1.05022E+01
   1.08459E+01  1.01362E+01  8.45943E+00  1.49272E+01  1.32104E+01  1.06909E+01  1.29126E+01  7.73438E+00  1.32774E+01  8.51181E+00
   7.37866E+00  1.13692E+01  1.48987E+01  1.47471E+01  1.93490E+01  1.98321E+01  2.12701E+01  1.72089E+01  1.55632E+01  1.02023E+01
   1.20650E+01  8.42912E+00  1.03047E+01  1.05281E+01  1.34378E+01  1.01229E+01  1.57629E+01  1.55837E+01  2.02018E+01  1.52498E+01
   1.87223E+01  1.81918E+01  2.06008E+01  1.47283E+01  1.80431E+01  1.85818E+01  1.42723E+01  1.75200E+01  1.88257E+01  1.39169E+01
   1.69891E+01  1.61695E+01  1.52007E+01  1.92245E+01  1.76034E+01  1.71722E+01  2.05102E+01  1.72746E+01  2.08400E+01  2.19092E+01
   2.49542E+01  2.71211E+01  2.64346E+01  2.66707E+01  3.58076E+01  3.93139E+01  5.10595E+01  6.15404E+01  7.51773E+01  7.54580E+01
   8.11339E+01  7.81186E+01  7.16584E+01  6.12575E+01  4.84982E+01  3.97106E+01  3.26957E+01  2.46158E+01  2.54518E+01  2.08998E+01
   1.52652E+01  1.73102E+01  1.31219E+01  1.40352E+01  1.49759E+01  1.18186E+01  1.33975E+01  1.46088E+01  1.87526E+01  1.16372E+01
   1.14588E+01  1.24447E+01  8.65584E+00  7.72270E+00  9.23561E+00  5.03202E+00  9.89501E+00  5.71824E+00  1.24858E+01  5.38858E+00
   1.13478E+01  6.25101E+00  8.40213E+00  7.58359E+00  1.06480E+01  1.03022E+01  1.47550E+01  1.00069E+01  7.25754E+00  9.72119E+00
   9.53170E+00  1.32091E+01  1.36721E+01  1.01343E+01  1.27641E+01  1.04404E+01  1.08900E+01  9.81887E+00  8.73345E+00  9.02004E+00
   9.81465E+00  5.95947E+00  6.80754E+00  7.11415E+00  6.57548E+00  8.37239E+00  8.88196E+00  3.42061E+00  4.28350E+00  3.14485E+00
   4.98922E+00  1.16230E+00  1.09445E+00 -7.13161E-01  4.98746E+00 -1.02605E-01  5.37226E+00 -1.49924E-01 -3.52600E-01 -2.73268E+00
  -2.12517E-01  1.35698E+00  1.91153E+00 -1.71988E+00  2.68228E+00 -2.67599E+00  9.67780E-01 -3.51290E+00  5.46853E-01 -5.62675E+00
  -1.28197E+00 -5.96336E+00 -5.15482E+00 -8.35789E+00 -3.08118E+00 -7.43479E+00 -6.05780E+00 -1.00009E+01 -1.30992E+01 -1.09130E+01
  -1.15131E+01 -1.12380E+01 -9.13361E+00 -9.76416E+00 -6.90256E+00 -5.57914E+00 -5.18223E+00 -8.92190E+00 -7.17028E+00 -4.60761E+00
  -3.68329E+00 -3.05398E+00 -4.75037E+00 -9.35059E+00 -8.26785E-01 -6.01001E+00 -3.83723E+00 -5.64537E+00 -3.38661E+00 -5.79199E+00
  -2.74856E-01 -2.57386E+00  8.97495E-02 -6.97972E+00  1.34358E+00 -1.99960E+00  8.32800E-01 -3.13359E+00 -3.99109E+00 -3.88493E+00
  -5.74979E+00 -3.88814E+00 -4.24109E+00 -4.81597E+00 -4.61077E+00 -4.80955E+00 -4.46775E+00 -7.89840E+00 -4.46634E+00 -7.22602E-01
  -1.42619E+00  2.46615E-01  2.04607E+00 -1.01735E+00 -2.43402E+00 -2.31961E+00  1.63912E+00 -1.53053E+00 -1.22044E+00 -6.15681E-01
   2.80424E+00 -2.24364E+00  3.91877E-01  8.47601E-01 -5.68981E-01 -4.36403E-01 -5.91284E-02  2.20069E+00  1.30047E+00 -3.59347E+00
  -8.76504E-02  6.45544E-01  1.02480E+00 -1.76518E+00 -7.66344E-01 -8.82214E-01  9.19700E-01  1.40446E+00  6.13829E-01 -2.67116E+00
  -8.58034E-01 -4.73633E+00  7.20480E-01  1.78869E+00  2.34002E+00 -5.42731E+00 -5.30208E-01 -3.08123E+00 -1.07240E+00 -3.52316E+00
  -4.88110E-01 -1.19150E-01 -1.47484E+00 -3.32951E+00  4.01248E+00 -3.73893E+00 -2.75716E-03 -1.75636E+00 -1.85779E+00 -2.73585E-01
   1.99066E+00  8.24245E-01 -1.02774E+00 -9.87457E-01  9.67707E-01  2.09094E+00 -9.92123E-01 -1.64748E+00 -5.27559E+00 -5.54696E+00
  -2.84111E+00 -2.29871E+00 -1.24455E+00 -4.41635E+00 -1.26047E-01 -4.17834E+00  1.17821E-01 -2.29150E-01 -5.03175E-01 -2.21866E+00
  -6.07961E-01  1.05154E+00 -1.04424E+00  1.54492E+00  2.82252E+00  2.77311E-01 -3.26862E+00 -3.39673E-01  7.13770E-01 -5.38358E-01
   2.95278E+00 -1.43728E+00 -1.28314E+00  7.81735E-02 -7.27201E-01  2.20082E+00 -3.25566E-01  1.88538E+00 -1.18049E+00 -9.13301E-01
   1.44073E+00  1.61871E+00 -4.35162E-01  1.12525E+00 -3.42410E+00  1.55051E+00 -1.72395E+00 -6.75539E-01 -1.06534E+00 -2.07449E+00
  -1.22092E+00 -3.64595E+00  3.68901E+00 -6.30236E+00  1.38890E+00 -4.23518E+00  4.53112E+00 -1.74907E+00
 NY points of the fit to the data follow
   5.77363E+01  5.76344E+01  5.78659E+01  5.89890E+01  6.15487E+01  6.56554E+01  7.10205E+01  7.69332E+01  8.23609E+01  8.62551E+01
   8.78787E+01  8.69912E+01  8.38619E+01  7.91881E+01  7.38884E+01  6.87414E+01  6.41008E+01  5.99574E+01  5.64018E+01  5.39448E+01
   5.25129E+01  5.14763E+01  5.05108E+01  4.96277E+01  4.89234E+01  4.85097E+01  4.85135E+01  4.89580E+01  4.97128E+01  5.05286E+01
   5.11226E+01  5.12241E+01  5.06583E+01  4.94709E+01  4.78939E+01  4.62274E+01  4.47049E+01  4.34090E+01  4.24372E+01  4.19106E+01
   4.17054E+01  4.16047E+01  4.14943E+01  4.13213E+01  4.10593E+01  4.06736E+01  4.01839E+01  3.96060E+01  3.89966E+01  3.84495E+01
   3.79114E+01  3.73337E+01  3.67416E+01  3.61308E+01  3.54515E+01  3.47492E+01  3.40883E+01  3.34372E+01  3.27700E+01  3.21274E+01
   3.15424E+01  3.09989E+01  3.04840E+01  2.99890E+01  2.95197E+01  2.90800E+01  2.86619E+01  2.82602E+01  2.78719E+01  2.74959E+01
   2.71287E+01  2.67676E+01  2.64101E+01  2.60556E+01  2.57044E+01  2.53575E+01  2.50171E+01  2.46861E+01  2.43768E+01  2.41340E+01
   2.39934E+01  2.39552E+01  2.39969E+01  2.40686E+01  2.41013E+01  2.40303E+01  2.38157E+01  2.34523E+01  2.29675E+01  2.24145E+01
   2.18580E+01  2.13469E+01  2.08999E+01  2.05223E+01  2.02597E+01  2.03089E+01  2.13742E+01  2.43962E+01  2.95539E+01  3.65522E+01
   4.45414E+01  5.21302E+01  5.78305E+01  6.05492E+01  5.98684E+01  5.60954E+01  5.01423E+01  4.33021E+01  3.67374E+01  3.09767E+01
   2.59619E+01  2.16938E+01  1.89219E+01  1.78736E+01  1.74157E+01  1.71267E+01  1.69234E+01  1.67902E+01  1.67507E+01  1.69125E+01
   1.77614E+01  2.03871E+01  2.53924E+01  3.26498E+01  4.14769E+01  5.05475E+01  5.82067E+01  6.30295E+01  6.41981E+01  6.16724E+01
   5.61435E+01  4.88445E+01  4.11494E+01  3.39925E+01  2.76231E+01  2.20480E+01  1.78038E+01  1.56828E+01  1.49404E+01  1.46565E+01
   1.45361E+01  1.44465E+01  1.43355E+01  1.41878E+01  1.39684E+01  1.36739E+01  1.33331E+01  1.29582E+01  1.25626E+01  1.21722E+01
   1.18028E+01  1.14883E+01  1.12347E+01  1.10379E+01  1.08556E+01  1.06413E+01  1.03674E+01  1.00342E+01  9.69535E+00  9.40064E+00
   9.18129E+00  9.05242E+00  8.98580E+00  8.91135E+00  8.76415E+00  8.51469E+00  8.17042E+00  7.78231E+00  7.40971E+00  7.04388E+00
   6.62267E+00  6.16824E+00  5.73672E+00  5.39435E+00  5.19416E+00  5.10188E+00  5.08078E+00  5.12324E+00  5.20311E+00  5.28268E+00
   5.32976E+00  5.35875E+00  5.43623E+00  5.63561E+00  6.00009E+00  6.53568E+00  7.26294E+00  8.20248E+00  9.26562E+00  1.03011E+01
   1.11346E+01  1.16473E+01  1.18412E+01  1.17956E+01  1.15938E+01  1.13141E+01  1.10407E+01  1.09264E+01  1.10810E+01  1.15087E+01
   1.21447E+01  1.28627E+01  1.34739E+01  1.37509E+01  1.35890E+01  1.29974E+01  1.20437E+01  1.08720E+01  9.80022E+00  9.23636E+00
   9.39777E+00  1.02824E+01  1.17371E+01  1.34512E+01  1.49495E+01  1.57454E+01  1.55014E+01  1.42268E+01  1.22249E+01  9.93493E+00
   7.97834E+00  6.81534E+00  6.58535E+00  7.26906E+00  8.69930E+00  1.06267E+01  1.25579E+01  1.41018E+01  1.51749E+01  1.58642E+01
   1.62897E+01  1.65006E+01  1.65985E+01  1.67627E+01  1.70438E+01  1.73046E+01  1.73997E+01  1.72687E+01  1.69632E+01  1.66048E+01
   1.63000E+01  1.61801E+01  1.63632E+01  1.68407E+01  1.74909E+01  1.81525E+01  1.87325E+01  1.91953E+01  1.96212E+01  2.03133E+01
   2.15035E+01  2.32385E+01  2.55449E+01  2.91796E+01  3.50826E+01  4.31517E+01  5.28016E+01  6.29418E+01  7.18949E+01  7.79382E+01
   7.99230E+01  7.75015E+01  7.11277E+01  6.19734E+01  5.18487E+01  4.24885E+01  3.43900E+01  2.72684E+01  2.11590E+01  1.71541E+01
   1.54694E+01  1.45897E+01  1.39771E+01  1.35016E+01  1.30695E+01  1.26225E+01  1.21654E+01  1.17002E+01  1.12416E+01  1.08093E+01
   1.04132E+01  1.00503E+01  9.72526E+00  9.44572E+00  9.20634E+00  8.99624E+00  8.81058E+00  8.65905E+00  8.55420E+00  8.50006E+00
   8.49557E+00  8.54247E+00  8.63803E+00  8.77405E+00  8.93825E+00  9.12219E+00  9.31929E+00  9.52325E+00  9.72661E+00  9.91914E+00
   1.00895E+01  1.02286E+01  1.03235E+01  1.03602E+01  1.03275E+01  1.02179E+01  1.00278E+01  9.75600E+00  9.40373E+00  8.97786E+00
   8.48776E+00  7.94384E+00  7.35821E+00  6.74344E+00  6.11185E+00  5.47529E+00  4.84456E+00  4.22902E+00  3.63641E+00  3.07261E+00
   2.54172E+00  2.04614E+00  1.58674E+00  1.16304E+00  7.73651E-01  4.16527E-01  8.91380E-02 -2.11287E-01 -4.87556E-01 -7.42316E-01
  -9.77942E-01 -1.19647E+00 -1.39956E+00 -1.58842E+00 -1.76372E+00 -1.92545E+00 -2.07269E+00 -2.20309E+00 -2.31140E+00 -2.38442E+00
  -2.39792E+00 -2.36143E+00 -2.31451E+00 -2.30363E+00 -2.38197E+00 -2.59393E+00 -2.95824E+00 -3.45538E+00 -4.00110E+00 -4.49362E+00
  -4.84319E+00 -4.98899E+00 -4.92835E+00 -4.71565E+00 -4.42570E+00 -4.11480E+00 -3.82084E+00 -3.62025E+00 -3.54665E+00 -3.56528E+00
  -3.63548E+00 -3.73601E+00 -3.86720E+00 -4.01735E+00 -4.13255E+00 -4.21004E+00 -4.26979E+00 -4.32011E+00 -4.36451E+00 -4.40450E+00
  -4.44051E+00 -4.47234E+00 -4.49928E+00 -4.52027E+00 -4.53395E+00 -4.53880E+00 -4.53315E+00 -4.51525E+00 -4.48330E+00 -4.43548E+00
  -4.37001E+00 -4.28515E+00 -4.17933E+00 -4.05112E+00 -3.89931E+00 -3.72297E+00 -3.52150E+00 -3.29475E+00 -3.04308E+00 -2.76746E+00
  -2.46950E+00 -2.15153E+00 -1.81665E+00 -1.46873E+00 -1.11243E+00 -7.53082E-01 -3.96574E-01 -4.92229E-02  2.82416E-01  5.91768E-01
   8.72489E-01  1.11875E+00  1.32547E+00  1.48855E+00  1.60501E+00  1.67317E+00  1.69270E+00  1.66464E+00  1.59136E+00  1.47637E+00
   1.32420E+00  1.14013E+00  9.29997E-01  6.99910E-01  4.56028E-01  2.04308E-01 -4.96984E-02 -3.00975E-01 -5.45149E-01 -7.78554E-01
  -9.98272E-01 -1.20213E+00 -1.38865E+00 -1.55698E+00 -1.70677E+00 -1.83817E+00 -1.95165E+00 -2.04802E+00 -2.12825E+00 -2.19345E+00
  -2.24478E+00 -2.28343E+00 -2.31059E+00 -2.32741E+00 -2.33497E+00 -2.33427E+00 -2.32623E+00 -2.31168E+00 -2.29142E+00 -2.26612E+00
  -2.23643E+00 -2.20289E+00 -2.16600E+00 -2.12620E+00 -2.08391E+00 -2.03949E+00 -1.99329E+00 -1.94558E+00 -1.89662E+00 -1.84668E+00
  -1.79597E+00 -1.74472E+00 -1.69311E+00 -1.64127E+00 -1.58930E+00 -1.53727E+00 -1.48526E+00 -1.43332E+00 -1.38148E+00 -1.32979E+00
  -1.27828E+00 -1.22698E+00 -1.17592E+00 -1.12513E+00 -1.07460E+00 -1.02435E+00 -9.74390E-01 -9.24739E-01 -8.75402E-01 -8.26371E-01
  -7.77639E-01 -7.29206E-01 -6.81076E-01 -6.33248E-01 -5.85714E-01 -5.38456E-01 -4.91464E-01 -4.44734E-01 -3.98264E-01 -3.52046E-01
  -3.06058E-01 -2.60282E-01 -2.14704E-01 -1.69316E-01 -1.24110E-01 -7.90681E-02 -3.41656E-02  1.06185E-02  5.52970E-02  9.98792E-02
   1.44380E-01  1.88822E-01  2.33232E-01  2.77631E-01  3.22032E-01  3.66449E-01  4.10901E-01  4.55418E-01
 NY background values follow
     5.702E+01    5.655E+01    5.608E+01    5.561E+01    5.514E+01    5.467E+01    5.419E+01    5.372E+01    5.325E+01    5.278E+01
     5.231E+01    5.184E+01    5.136E+01    5.089E+01    5.042E+01    4.995E+01    4.949E+01    4.902E+01    4.855E+01    4.808E+01
     4.762E+01    4.715E+01    4.669E+01    4.622E+01    4.576E+01    4.530E+01    4.484E+01    4.439E+01    4.393E+01    4.348E+01
     4.302E+01    4.257E+01    4.212E+01    4.167E+01    4.123E+01    4.078E+01    4.034E+01    3.990E+01    3.947E+01    3.903E+01
     3.860E+01    3.817E+01    3.774E+01    3.732E+01    3.689E+01    3.647E+01    3.606E+01    3.564E+01    3.523E+01    3.482E+01
     3.442E+01    3.402E+01    3.362E+01    3.322E+01    3.283E+01    3.244E+01    3.205E+01    3.166E+01    3.128E+01    3.090E+01
     3.053E+01    3.016E+01    2.979E+01    2.942E+01    2.906E+01    2.870E+01    2.834E+01    2.799E+01    2.764E+01    2.730E+01
     2.695E+01    2.661E+01    2.628E+01    2.594E+01    2.561E+01    2.529E+01    2.496E+01    2.464E+01    2.433E+01    2.401E+01
     2.370E+01    2.340E+01    2.310E+01    2.280E+01    2.250E+01    2.221E+01    2.192E+01    2.164E+01    2.136E+01    2.108E+01
     2.081E+01    2.054E+01    2.027E+01    2.001E+01    1.975E+01    1.949E+01    1.924E+01    1.899E+01    1.875E+01    1.851E+01
     1.827E+01    1.804E+01    1.780E+01    1.758E+01    1.735E+01    1.713E+01    1.691E+01    1.670E+01    1.649E+01    1.628E+01
     1.608E+01    1.587E+01    1.568E+01    1.548E+01    1.529E+01    1.510E+01    1.491E+01    1.473E+01    1.455E+01    1.437E+01
     1.420E+01    1.403E+01    1.386E+01    1.369E+01    1.353E+01    1.337E+01    1.321E+01    1.306E+01    1.290E+01    1.276E+01
     1.261E+01    1.246E+01    1.232E+01    1.218E+01    1.205E+01    1.191E+01    1.178E+01    1.165E+01    1.153E+01    1.140E+01
     1.128E+01    1.116E+01    1.105E+01    1.093E+01    1.082E+01    1.071E+01    1.061E+01    1.051E+01    1.041E+01    1.031E+01
     1.021E+01    1.012E+01    1.003E+01    9.948E+00    9.865E+00    9.785E+00    9.707E+00    9.633E+00    9.562E+00    9.494E+00
     9.429E+00    9.366E+00    9.307E+00    9.252E+00    9.199E+00    9.149E+00    9.103E+00    9.060E+00    9.020E+00    8.983E+00
     8.950E+00    8.920E+00    8.893E+00    8.870E+00    8.850E+00    8.833E+00    8.820E+00    8.811E+00    8.805E+00    8.802E+00
     8.803E+00    8.807E+00    8.815E+00    8.827E+00    8.841E+00    8.859E+00    8.880E+00    8.903E+00    8.929E+00    8.958E+00
     8.988E+00    9.021E+00    9.056E+00    9.093E+00    9.131E+00    9.171E+00    9.212E+00    9.254E+00    9.298E+00    9.342E+00
     9.387E+00    9.433E+00    9.479E+00    9.525E+00    9.572E+00    9.618E+00    9.664E+00    9.710E+00    9.756E+00    9.800E+00
     9.844E+00    9.887E+00    9.929E+00    9.969E+00    1.001E+01    1.005E+01    1.008E+01    1.011E+01    1.015E+01    1.018E+01
     1.020E+01    1.023E+01    1.025E+01    1.027E+01    1.028E+01    1.030E+01    1.031E+01    1.031E+01    1.031E+01    1.031E+01
     1.031E+01    1.030E+01    1.029E+01    1.028E+01    1.026E+01    1.024E+01    1.021E+01    1.018E+01    1.015E+01    1.012E+01
     1.008E+01    1.004E+01    9.997E+00    9.950E+00    9.900E+00    9.846E+00    9.790E+00    9.730E+00    9.668E+00    9.602E+00
     9.533E+00    9.461E+00    9.386E+00    9.309E+00    9.228E+00    9.144E+00    9.057E+00    8.968E+00    8.875E+00    8.780E+00
     8.681E+00    8.580E+00    8.476E+00    8.369E+00    8.260E+00    8.147E+00    8.032E+00    7.914E+00    7.794E+00    7.670E+00
     7.544E+00    7.416E+00    7.284E+00    7.150E+00    7.014E+00    6.875E+00    6.733E+00    6.590E+00    6.444E+00    6.296E+00
     6.145E+00    5.993E+00    5.839E+00    5.683E+00    5.525E+00    5.365E+00    5.203E+00    5.040E+00    4.875E+00    4.709E+00
     4.541E+00    4.372E+00    4.202E+00    4.030E+00    3.857E+00    3.683E+00    3.508E+00    3.332E+00    3.156E+00    2.978E+00
     2.799E+00    2.620E+00    2.440E+00    2.260E+00    2.079E+00    1.898E+00    1.716E+00    1.534E+00    1.352E+00    1.170E+00
     9.871E-01    8.046E-01    6.222E-01    4.398E-01    2.577E-01    7.574E-02   -1.059E-01   -2.871E-01   -4.679E-01   -6.481E-01
    -8.276E-01   -1.006E+00   -1.184E+00   -1.362E+00   -1.538E+00   -1.713E+00   -1.886E+00   -2.059E+00   -2.230E+00   -2.400E+00
    -2.568E+00   -2.734E+00   -2.899E+00   -3.062E+00   -3.223E+00   -3.382E+00   -3.539E+00   -3.693E+00   -3.846E+00   -3.996E+00
    -4.143E+00   -4.288E+00   -4.430E+00   -4.570E+00   -4.707E+00   -4.840E+00   -4.971E+00   -5.099E+00   -5.223E+00   -5.345E+00
    -5.462E+00   -5.577E+00   -5.687E+00   -5.795E+00   -5.898E+00   -5.997E+00   -6.093E+00   -6.185E+00   -6.272E+00   -6.355E+00
    -6.434E+00   -6.509E+00   -6.579E+00   -6.645E+00   -6.706E+00   -6.763E+00   -6.816E+00   -6.864E+00   -6.908E+00   -6.948E+00
    -6.985E+00   -7.017E+00   -7.045E+00   -7.070E+00   -7.091E+00   -7.108E+00   -7.121E+00   -7.131E+00   -7.138E+00   -7.141E+00
    -7.140E+00   -7.137E+00   -7.130E+00   -7.120E+00   -7.107E+00   -7.091E+00   -7.072E+00   -7.050E+00   -7.026E+00   -6.998E+00
    -6.968E+00   -6.936E+00   -6.900E+00   -6.863E+00   -6.823E+00   -6.780E+00   -6.735E+00   -6.689E+00   -6.639E+00   -6.588E+00
    -6.535E+00   -6.480E+00   -6.423E+00   -6.364E+00   -6.304E+00   -6.241E+00   -6.178E+00   -6.112E+00   -6.045E+00   -5.977E+00
    -5.908E+00   -5.837E+00   -5.764E+00   -5.691E+00   -5.617E+00   -5.541E+00   -5.464E+00   -5.387E+00   -5.308E+00   -5.229E+00
    -5.149E+00   -5.068E+00   -4.987E+00   -4.904E+00   -4.822E+00   -4.739E+00   -4.655E+00   -4.571E+00   -4.487E+00   -4.402E+00
    -4.317E+00   -4.232E+00   -4.147E+00   -4.062E+00   -3.977E+00   -3.892E+00   -3.807E+00   -3.723E+00   -3.638E+00   -3.554E+00
    -3.470E+00   -3.387E+00   -3.304E+00   -3.222E+00   -3.140E+00   -3.059E+00   -2.979E+00   -2.899E+00   -2.821E+00   -2.743E+00
    -2.666E+00   -2.590E+00   -2.515E+00   -2.441E+00   -2.369E+00   -2.297E+00   -2.227E+00   -2.157E+00   -2.088E+00   -2.021E+00
    -1.954E+00   -1.888E+00   -1.823E+00   -1.759E+00   -1.696E+00   -1.634E+00   -1.572E+00   -1.511E+00   -1.451E+00   -1.392E+00
    -1.333E+00   -1.275E+00   -1.217E+00   -1.161E+00   -1.104E+00   -1.049E+00   -9.937E-01   -9.392E-01   -8.851E-01   -8.315E-01
    -7.783E-01   -7.256E-01   -6.733E-01   -6.213E-01   -5.697E-01   -5.184E-01   -4.674E-01   -4.167E-01   -3.663E-01   -3.160E-01
    -2.660E-01   -2.162E-01   -1.665E-01   -1.170E-01   -6.752E-02   -1.816E-02    3.113E-02    8.039E-02
 Cr       Conc. = 3.09E+02
