 LCModel (Version 6.3-1L) Copyright: S.W. Provencher.          Ref.: Magn. Reson. Med. 30:672-679 (1993).                
 Slice#1 Row#11 Col#12  PD_24_press_1_raw_act
 36 lines in following concentration table = NCONC+1
    Conc.  %SD /Cr+PCr  Metabolite                                         
    0.000 999%   0.000 Ala                                                 
   35.431  74%   0.352 Asp                                                 
    0.000 999%   0.000 Cr                                                  
  100.752  28%   1.000 PCr                                                 
   19.046  83%   0.189 GABA                                                
   18.360  86%   0.182 Glc                                                 
  931.849  31%   9.249 Gln                                                 
  974.084  32%   9.668 Glu                                                 
    0.000 999%   0.000 GPC                                                 
   22.172  46%   0.220 PCh                                                 
    0.000 999%   0.000 GSH                                                 
    0.000 999%   0.000 Ins                                                 
    0.000 999%   0.000 Lac                                                 
  301.002  30%   2.988 NAA                                                 
  148.408  61%   1.473 NAAG                                                
    6.723  75% 6.7E-02 Scyllo                                              
   39.388  66%   0.391 Tau                                                 
   12.615 255%   0.125 -CrCH2                                              
   22.172  46%   0.220 GPC+PCh                                             
  449.410   8%   4.461 NAA+NAAG                                            
  100.752  28%   1.000 Cr+PCr                                              
 1.91E+03  29%  18.917 Glu+Gln                                             
    0.000 999%   0.000 Lip13a                                              
    0.000 999%   0.000 Lip13b                                              
    0.000 999%   0.000 Lip09                                               
    0.000 999%   0.000 MM09                                                
 3.83E-03 999% 3.8E-05 Lip20                                               
    0.118 999% 1.2E-03 MM20                                                
    0.000 999%   0.000 MM12                                                
    0.000 999%   0.000 MM14                                                
    0.174 999% 1.7E-03 MM17                                                
    0.000 999%   0.000 Lip13a+Lip13b                                       
    0.000 999%   0.000 MM14+Lip13a+Lip13b+MM12                             
    0.000 999%   0.000 MM09+Lip09                                          
    0.122 999% 1.2E-03 MM20+Lip20                                          
   6 lines in following misc. output table
  FWHM = 0.084 ppm    S/N =   3                                            
  Data shift =-0.031 ppm                                                   
  Ph:  -3 deg      -6.5 deg/ppm                                            
  alphaB,S = 3.5E-01,   2.5E+01                                            
   14 spline knots.   Ns =10(1)                                            
  (13) 9 infls.   (15) 3 extrs.                                            
  498 points on ppm-axis = NY
      4.000000     3.992357     3.984714     3.977070     3.969427     3.961784     3.954141     3.946497     3.938854     3.931211
      3.923568     3.915925     3.908281     3.900638     3.892995     3.885352     3.877708     3.870065     3.862422     3.854779
      3.847136     3.839492     3.831849     3.824206     3.816563     3.808919     3.801276     3.793633     3.785990     3.778347
      3.770703     3.763060     3.755417     3.747774     3.740130     3.732487     3.724844     3.717201     3.709558     3.701914
      3.694271     3.686628     3.678985     3.671341     3.663698     3.656055     3.648412     3.640769     3.633125     3.625482
      3.617839     3.610196     3.602552     3.594909     3.587266     3.579623     3.571980     3.564336     3.556693     3.549050
      3.541407     3.533763     3.526120     3.518477     3.510834     3.503191     3.495547     3.487904     3.480261     3.472618
      3.464974     3.457331     3.449688     3.442045     3.434402     3.426758     3.419115     3.411472     3.403829     3.396185
      3.388542     3.380899     3.373256     3.365613     3.357969     3.350326     3.342683     3.335040     3.327396     3.319753
      3.312110     3.304467     3.296824     3.289180     3.281537     3.273894     3.266251     3.258607     3.250964     3.243321
      3.235678     3.228034     3.220391     3.212748     3.205105     3.197462     3.189818     3.182175     3.174532     3.166889
      3.159245     3.151602     3.143959     3.136316     3.128673     3.121029     3.113386     3.105743     3.098100     3.090456
      3.082813     3.075170     3.067527     3.059884     3.052240     3.044597     3.036954     3.029311     3.021667     3.014024
      3.006381     2.998738     2.991095     2.983451     2.975808     2.968165     2.960522     2.952878     2.945235     2.937592
      2.929949     2.922306     2.914662     2.907019     2.899376     2.891733     2.884089     2.876446     2.868803     2.861160
      2.853517     2.845873     2.838230     2.830587     2.822944     2.815300     2.807657     2.800014     2.792371     2.784728
      2.777084     2.769441     2.761798     2.754155     2.746511     2.738868     2.731225     2.723582     2.715939     2.708295
      2.700652     2.693009     2.685366     2.677722     2.670079     2.662436     2.654793     2.647150     2.639506     2.631863
      2.624220     2.616577     2.608933     2.601290     2.593647     2.586004     2.578361     2.570717     2.563074     2.555431
      2.547788     2.540144     2.532501     2.524858     2.517215     2.509572     2.501928     2.494285     2.486642     2.478999
      2.471355     2.463712     2.456069     2.448426     2.440783     2.433139     2.425496     2.417853     2.410210     2.402566
      2.394923     2.387280     2.379637     2.371994     2.364350     2.356707     2.349064     2.341421     2.333777     2.326134
      2.318491     2.310848     2.303205     2.295561     2.287918     2.280275     2.272632     2.264988     2.257345     2.249702
      2.242059     2.234416     2.226772     2.219129     2.211486     2.203843     2.196199     2.188556     2.180913     2.173270
      2.165627     2.157983     2.150340     2.142697     2.135054     2.127410     2.119767     2.112124     2.104481     2.096838
      2.089194     2.081551     2.073908     2.066265     2.058621     2.050978     2.043335     2.035692     2.028049     2.020405
      2.012762     2.005119     1.997476     1.989833     1.982190     1.974546     1.966903     1.959260     1.951617     1.943974
      1.936331     1.928688     1.921045     1.913402     1.905759     1.898115     1.890472     1.882829     1.875186     1.867543
      1.859900     1.852257     1.844614     1.836971     1.829327     1.821684     1.814041     1.806398     1.798755     1.791112
      1.783469     1.775826     1.768183     1.760540     1.752896     1.745253     1.737610     1.729967     1.722324     1.714681
      1.707038     1.699395     1.691752     1.684108     1.676465     1.668822     1.661179     1.653536     1.645893     1.638250
      1.630607     1.622964     1.615321     1.607677     1.600034     1.592391     1.584748     1.577105     1.569462     1.561819
      1.554176     1.546533     1.538890     1.531246     1.523603     1.515960     1.508317     1.500674     1.493031     1.485388
      1.477745     1.470102     1.462458     1.454815     1.447172     1.439529     1.431886     1.424243     1.416600     1.408957
      1.401314     1.393671     1.386027     1.378384     1.370741     1.363098     1.355455     1.347812     1.340169     1.332526
      1.324883     1.317240     1.309596     1.301953     1.294310     1.286667     1.279024     1.271381     1.263738     1.256095
      1.248452     1.240808     1.233165     1.225522     1.217879     1.210236     1.202593     1.194950     1.187307     1.179664
      1.172021     1.164377     1.156734     1.149091     1.141448     1.133805     1.126162     1.118519     1.110876     1.103233
      1.095590     1.087946     1.080303     1.072660     1.065017     1.057374     1.049731     1.042088     1.034445     1.026802
      1.019158     1.011515     1.003872     0.996229     0.988586     0.980943     0.973300     0.965657     0.958014     0.950371
      0.942727     0.935084     0.927441     0.919798     0.912155     0.904512     0.896869     0.889226     0.881583     0.873940
      0.866296     0.858653     0.851010     0.843367     0.835724     0.828081     0.820438     0.812795     0.805152     0.797508
      0.789865     0.782222     0.774579     0.766936     0.759293     0.751650     0.744007     0.736364     0.728721     0.721077
      0.713434     0.705791     0.698148     0.690505     0.682862     0.675219     0.667576     0.659933     0.652290     0.644646
      0.637003     0.629360     0.621717     0.614074     0.606431     0.598788     0.591145     0.583502     0.575858     0.568215
      0.560572     0.552929     0.545286     0.537643     0.530000     0.522357     0.514714     0.507071     0.499427     0.491784
      0.484141     0.476498     0.468855     0.461212     0.453569     0.445925     0.438282     0.430639     0.422996     0.415353
      0.407710     0.400067     0.392424     0.384780     0.377137     0.369494     0.361851     0.354208     0.346565     0.338922
      0.331278     0.323635     0.315992     0.308349     0.300706     0.293063     0.285420     0.277777     0.270133     0.262490
      0.254847     0.247204     0.239561     0.231918     0.224275     0.216631     0.208988     0.201345
 NY phased data points follow
  -7.82171E-01 -9.32577E-01 -6.74112E-01 -1.53267E-02 -1.06905E+00 -2.87493E+00  9.12684E-01  2.08080E+00  9.88275E-01 -7.49365E-01
   8.27648E-02 -2.03474E+00 -3.62425E-01 -4.82505E-01 -1.66593E-01 -1.55569E+00  1.25538E+00 -2.38214E+00  4.15664E-01  1.55572E+00
   7.69217E-01 -1.56177E+00  2.43167E-01 -1.41473E+00 -5.27880E-02 -2.40253E+00 -5.88925E-01 -2.73657E+00 -6.96157E-01 -9.08481E-01
   2.15569E+00  2.14265E-01 -2.03249E+00 -1.65354E+00 -2.34201E+00  1.54669E+00 -1.06827E+00  1.37814E+00 -1.39836E+00  3.30585E-01
  -1.23308E+00 -4.22763E+00 -1.80521E+00 -2.07134E+00 -7.56699E-01 -9.12715E-01 -3.78745E+00  3.50524E+00 -1.49812E+00 -7.66738E-01
   1.68496E+00 -4.22981E+00 -1.10471E+00 -1.11525E+00  7.17298E-01 -2.63880E-01 -2.08752E+00 -3.71165E-01 -1.56719E-01  8.93866E-01
   5.57735E-01  1.38658E-01  8.06549E-01 -1.57081E+00 -1.72005E+00 -1.02889E+00 -3.69775E-01  9.97766E-02 -2.53728E-01 -1.69612E+00
  -1.14922E+00 -1.78105E+00  8.44121E-01 -3.23313E-02 -1.22350E+00 -2.59821E+00 -9.85253E-01 -2.53188E+00  2.14916E+00 -1.14373E+00
   4.23240E-01 -1.00410E+00 -1.20770E+00 -2.56452E+00 -1.73382E+00 -8.92661E-01  1.81082E-01 -1.82414E+00  9.15163E-03 -1.34263E+00
  -2.42029E+00  1.84837E+00 -6.38850E-01 -5.75034E-01 -7.77958E-01 -1.12642E+00  2.69573E-01  1.21642E+00  4.28347E-01 -2.20168E+00
   8.65053E-02 -1.74707E+00  1.62973E+00  3.73644E-01  1.25837E+00 -9.25813E-01 -9.61584E-01 -6.19801E-01 -7.43011E-01 -6.72301E-01
   8.68143E-01 -7.15053E-01  4.87834E-01  5.20450E-01 -1.35286E+00 -1.54761E+00 -9.17822E-02 -1.50422E+00 -1.98424E+00 -2.21767E+00
  -3.56509E+00 -4.48104E-01 -1.18308E+00 -1.83005E+00  1.05695E+00  8.83059E-01  1.27886E+00  9.03704E-01 -5.73539E-01  2.82299E+00
   3.33763E-01  2.37241E-01  1.23776E-01 -5.15445E-01 -4.79074E-01 -3.12205E-03 -2.01802E+00 -1.42557E+00 -2.76679E+00 -2.70247E+00
  -3.32040E+00 -1.15348E+00 -7.87588E-01 -3.09923E+00 -1.73329E+00 -9.15547E-01 -1.99650E+00 -3.49629E-02 -1.29834E+00 -1.40800E+00
  -1.58992E+00 -3.37029E+00 -3.48292E+00 -7.86644E-01 -1.94757E+00 -5.25223E+00 -2.48170E+00 -7.45304E-01 -6.82644E-01 -2.73394E+00
  -3.46227E+00 -2.63719E+00 -2.92395E+00 -1.03113E+00 -2.93963E+00 -1.07941E+00 -2.49137E+00 -2.00410E+00  5.06150E-01 -1.65897E+00
  -2.82941E+00 -2.38708E+00 -1.41698E-01 -9.05093E-01  2.36573E-01 -3.54635E+00 -3.22955E+00 -2.90028E+00 -1.87622E+00 -4.74004E+00
  -4.45501E-01 -2.87212E+00 -2.59537E+00 -3.81035E+00 -3.92693E-01 -2.99767E+00 -2.51562E+00 -2.42292E+00 -1.51746E+00 -1.66346E+00
  -3.33674E+00 -3.63396E+00 -2.63440E+00 -4.06901E+00 -2.36973E+00 -2.60396E+00 -3.98879E+00 -4.48475E+00 -4.52413E+00 -2.47058E+00
  -2.97107E+00 -4.21319E+00  2.99823E-01 -3.69464E+00 -3.33698E-01 -1.36836E+00 -8.27865E-01 -3.87647E+00 -7.35760E-01 -2.31656E+00
  -1.39978E+00 -1.46464E+00 -2.57608E+00 -1.69055E-01 -3.26544E+00 -7.03100E-01  9.10006E-02 -1.71410E+00 -2.05750E+00 -9.92773E-01
  -9.05838E-01 -3.21323E+00 -1.30687E+00 -5.74945E-01 -6.64607E-01 -5.04167E+00 -3.70362E-01 -4.11037E+00 -1.70820E+00 -2.14213E+00
  -9.51623E-01  1.05451E+00 -5.83812E-01 -1.76912E+00 -8.88735E-01 -3.63264E+00 -2.55748E+00 -1.46670E+00  1.99385E+00 -1.51170E+00
  -7.53612E-01 -2.63346E+00 -1.65792E+00 -5.00414E+00 -2.23007E+00 -1.69882E+00 -1.77278E+00 -2.56375E+00 -3.75312E+00 -1.35410E+00
  -4.33925E-01 -3.82578E+00 -2.37772E+00 -1.19193E-01  4.38619E-01  2.80107E+00  4.40274E+00  3.83674E+00  6.02761E+00  6.92975E+00
   6.09935E+00  3.55325E+00  5.50638E+00  5.84452E+00  6.86812E+00  3.29170E+00  5.91677E-01  1.67244E+00  2.69338E+00 -1.01905E+00
   8.76704E-01  1.81076E-01 -1.38409E+00 -1.17497E-01 -3.23749E+00 -4.21222E+00 -2.93385E-01 -2.19511E+00 -7.14002E-01 -2.02039E+00
  -4.40123E-01 -1.53882E+00 -2.73283E-01 -6.34516E-01 -2.38527E+00 -2.84095E+00 -2.68797E+00 -6.68160E-01 -3.33262E+00 -1.72143E+00
  -2.43152E+00 -3.43535E+00 -2.73475E+00 -4.53665E+00 -4.17059E+00 -3.44658E+00 -4.71696E+00 -6.10568E+00 -6.84114E+00 -3.79589E+00
  -3.87478E+00 -3.53588E+00 -1.78646E+00 -1.43544E+00 -4.31177E+00 -2.88739E+00 -2.12652E+00 -5.68434E+00 -2.78060E+00 -4.67374E+00
  -3.04107E+00 -3.17162E+00 -2.49551E+00 -3.73725E+00 -1.70916E+00 -1.77765E+00 -6.13954E+00 -5.18791E+00 -4.66588E+00 -3.92949E+00
  -6.95768E+00 -2.16998E+00 -4.16511E+00 -4.66069E+00 -3.39000E+00 -3.54311E+00 -3.29834E+00 -5.75343E+00 -4.16128E+00 -7.49054E+00
  -6.65264E+00 -5.60856E+00 -5.59720E+00 -5.53615E+00 -7.46968E+00 -4.92241E+00 -5.43421E+00 -5.88214E+00 -5.77658E+00 -4.97676E+00
  -7.17146E+00 -6.91864E+00 -6.72126E+00 -8.64010E+00 -8.86358E+00 -6.95605E+00 -6.59753E+00 -9.36336E+00 -8.92895E+00 -1.12727E+01
  -9.37304E+00 -9.20000E+00 -1.06716E+01 -7.40308E+00 -8.46648E+00 -8.47386E+00 -8.02099E+00 -1.13168E+01 -1.15071E+01 -1.25482E+01
  -8.79669E+00 -1.11733E+01 -9.41788E+00 -1.03665E+01 -9.49740E+00 -9.56609E+00 -6.74111E+00 -8.36522E+00 -8.03671E+00 -5.42369E+00
  -4.98782E+00 -7.24312E+00 -6.02980E+00 -3.94879E+00 -4.58428E+00 -4.32862E+00 -4.82745E+00 -3.95469E+00 -5.19539E+00 -6.70715E+00
  -3.88820E+00 -6.30208E+00 -6.63598E+00 -6.71110E+00 -7.27587E+00 -8.35997E+00 -5.66164E+00 -8.28098E+00 -7.03004E+00 -6.10585E+00
  -6.37272E+00 -7.29800E+00 -7.17050E+00 -8.17156E+00 -9.31436E+00 -5.95000E+00 -7.36877E+00 -7.05146E+00 -4.93079E+00 -6.53701E+00
  -5.88799E+00 -9.06013E+00 -8.52553E+00 -6.16111E+00 -7.62322E+00 -7.19414E+00 -7.44050E+00 -7.75306E+00 -6.66225E+00 -7.88813E+00
  -8.08805E+00 -7.78444E+00 -8.74197E+00 -8.34913E+00 -8.21303E+00 -6.70205E+00 -6.44426E+00 -8.06248E+00 -7.34920E+00 -6.65979E+00
  -6.91914E+00 -6.23799E+00 -7.96821E+00 -7.93743E+00 -5.82169E+00 -5.93080E+00 -7.36337E+00 -7.92565E+00 -7.94262E+00 -6.73725E+00
  -5.32854E+00 -6.45367E+00 -7.75081E+00 -6.68454E+00 -5.92162E+00 -6.78597E+00 -5.15047E+00 -6.87572E+00 -5.66130E+00 -4.59125E+00
  -7.33150E+00 -6.11575E+00 -5.36304E+00 -6.05441E+00 -6.16549E+00 -3.17004E+00 -3.84324E+00 -4.02085E+00 -4.63729E+00 -4.57957E+00
  -2.97253E+00 -3.28859E+00 -2.26190E+00 -3.85073E+00 -2.93234E+00 -5.77580E+00 -2.22855E+00 -5.59497E+00 -1.08414E+00 -2.67343E+00
  -3.07807E+00 -1.78997E+00 -1.96460E+00 -3.40311E+00 -3.46019E+00 -2.32767E+00 -3.55114E+00 -1.54745E+00 -3.08609E-01 -2.00157E+00
  -4.01392E+00 -1.85442E+00 -3.11585E+00 -9.36711E-03 -6.65849E-01 -3.22254E+00 -1.97968E+00 -2.97259E+00 -9.33253E-01 -2.09373E+00
  -1.05272E+00 -2.05960E+00 -3.28942E+00 -1.88188E+00 -3.46318E+00 -5.52674E-01  2.53744E-01 -4.95836E-02 -9.70548E-01 -9.39182E-01
  -3.43896E+00 -1.85236E+00  1.48613E+00 -1.70112E+00 -5.57367E-01  1.08541E+00 -2.04225E-01 -9.52946E-01
 NY points of the fit to the data follow
  -1.25569E+00 -1.20730E+00 -1.08470E+00 -9.70384E-01 -8.42040E-01 -6.13259E-01 -3.40197E-01 -1.46577E-01 -9.82421E-02 -1.70138E-01
  -2.00218E-01 -4.77135E-02  1.45801E-01  1.45575E-01 -1.97520E-02 -1.06702E-01 -1.21926E-01 -2.57111E-01 -3.29871E-01 -2.83150E-01
  -3.43187E-01 -3.23458E-01 -1.15880E-01 -1.55405E-01 -5.80725E-01 -9.72702E-01 -1.10600E+00 -8.68126E-01 -2.63699E-01  4.17054E-01
   6.88198E-01  4.69849E-01  7.14905E-02 -4.15432E-01 -6.80019E-01 -3.14786E-01  2.55684E-01  3.60611E-01  2.41315E-01  1.24663E-01
  -3.11738E-01 -8.76991E-01 -9.67934E-01 -8.14268E-01 -8.74162E-01 -9.83354E-01 -8.38762E-01 -5.48425E-01 -4.25151E-01 -3.88950E-01
  -4.59052E-01 -6.62918E-01 -8.19902E-01 -9.25884E-01 -1.00117E+00 -1.05591E+00 -1.09210E+00 -1.11780E+00 -1.14043E+00 -1.15243E+00
  -1.16566E+00 -1.17725E+00 -1.17573E+00 -1.17071E+00 -1.17209E+00 -1.16898E+00 -1.17034E+00 -1.17908E+00 -1.17233E+00 -1.15766E+00
  -1.14993E+00 -1.13539E+00 -1.10920E+00 -1.09173E+00 -1.09374E+00 -1.10827E+00 -1.11843E+00 -1.12338E+00 -1.10067E+00 -1.05309E+00
  -1.04029E+00 -1.04569E+00 -1.02069E+00 -9.79863E-01 -9.50695E-01 -9.36055E-01 -9.59660E-01 -9.93992E-01 -9.68951E-01 -9.15570E-01
  -9.21517E-01 -9.81641E-01 -1.02727E+00 -9.99674E-01 -9.56413E-01 -9.64301E-01 -9.01465E-01 -8.24308E-01 -7.56291E-01 -5.93229E-01
  -2.99332E-01 -4.56203E-03  1.36083E-01  6.73031E-02 -6.40442E-02 -1.98746E-02  1.81507E-01  2.45976E-01  3.26524E-02 -2.60301E-01
  -4.13783E-01 -5.19069E-01 -7.20473E-01 -9.15462E-01 -1.07194E+00 -1.21289E+00 -1.21606E+00 -1.13040E+00 -1.14358E+00 -1.08466E+00
  -9.14577E-01 -7.67321E-01 -5.69641E-01 -1.77994E-01  2.74252E-01  5.56871E-01  5.50781E-01  3.48255E-01  2.89335E-01  5.51517E-01
   7.90162E-01  6.14911E-01  1.58838E-01 -1.37165E-01 -2.72304E-01 -5.50341E-01 -8.81904E-01 -1.12870E+00 -1.40172E+00 -1.53808E+00
  -1.57764E+00 -1.59449E+00 -1.59183E+00 -1.58205E+00 -1.58983E+00 -1.60831E+00 -1.61914E+00 -1.62612E+00 -1.62652E+00 -1.63019E+00
  -1.65919E+00 -1.70032E+00 -1.72519E+00 -1.73993E+00 -1.75014E+00 -1.75217E+00 -1.78532E+00 -1.85457E+00 -1.92976E+00 -1.98035E+00
  -1.98617E+00 -1.95171E+00 -1.94313E+00 -2.00846E+00 -2.10677E+00 -2.16909E+00 -2.18723E+00 -2.19075E+00 -2.20794E+00 -2.24872E+00
  -2.28840E+00 -2.32424E+00 -2.37730E+00 -2.45629E+00 -2.48906E+00 -2.46355E+00 -2.44560E+00 -2.46838E+00 -2.52432E+00 -2.57475E+00
  -2.54172E+00 -2.41348E+00 -2.31303E+00 -2.31426E+00 -2.34016E+00 -2.28814E+00 -2.17290E+00 -2.07477E+00 -2.01715E+00 -2.05977E+00
  -2.14812E+00 -2.20149E+00 -2.23561E+00 -2.36192E+00 -2.47165E+00 -2.42150E+00 -2.33028E+00 -2.26000E+00 -1.94948E+00 -1.55270E+00
  -1.34684E+00 -1.09967E+00 -8.25241E-01 -9.42428E-01 -1.08759E+00 -1.17705E+00 -1.71699E+00 -2.79059E+00 -3.31568E+00 -3.12147E+00
  -2.70959E+00 -2.46473E+00 -2.59649E+00 -2.94194E+00 -2.89420E+00 -2.43747E+00 -2.27309E+00 -2.36256E+00 -2.05362E+00 -1.72017E+00
  -1.93714E+00 -2.09972E+00 -1.75499E+00 -1.66731E+00 -2.33354E+00 -3.19331E+00 -3.40297E+00 -2.98176E+00 -2.36391E+00 -2.13281E+00
  -1.86546E+00 -1.29741E+00 -1.00545E+00 -1.21637E+00 -1.36415E+00 -1.47068E+00 -1.46027E+00 -1.24857E+00 -1.32549E+00 -1.91000E+00
  -2.44755E+00 -2.54354E+00 -2.52267E+00 -2.59270E+00 -2.59428E+00 -2.71328E+00 -3.06384E+00 -3.34106E+00 -3.19405E+00 -2.91804E+00
  -2.49828E+00 -1.87670E+00 -1.19796E+00 -2.33098E-01  9.34792E-01  1.77975E+00  2.65168E+00  4.10006E+00  5.86656E+00  6.90243E+00
   6.42527E+00  5.22645E+00  5.00147E+00  5.74127E+00  5.60847E+00  4.10126E+00  2.57246E+00  1.67155E+00  8.70451E-01 -1.70729E-01
  -9.70313E-01 -1.71352E+00 -2.44652E+00 -2.74897E+00 -2.89880E+00 -3.01527E+00 -3.03940E+00 -3.02451E+00 -3.06289E+00 -3.12447E+00
  -3.16756E+00 -3.19827E+00 -3.24930E+00 -3.32794E+00 -3.42171E+00 -3.50415E+00 -3.56845E+00 -3.63180E+00 -3.68869E+00 -3.73316E+00
  -3.77316E+00 -3.81689E+00 -3.86655E+00 -3.92030E+00 -3.97413E+00 -4.02659E+00 -4.07606E+00 -4.12966E+00 -4.18320E+00 -4.22890E+00
  -4.27357E+00 -4.32426E+00 -4.37618E+00 -4.42673E+00 -4.47403E+00 -4.51952E+00 -4.56501E+00 -4.60911E+00 -4.65259E+00 -4.69619E+00
  -4.73827E+00 -4.78153E+00 -4.82635E+00 -4.87109E+00 -4.91603E+00 -4.96083E+00 -5.00525E+00 -5.04950E+00 -5.09349E+00 -5.13702E+00
  -5.18018E+00 -5.22304E+00 -5.26552E+00 -5.30757E+00 -5.34920E+00 -5.39038E+00 -5.43116E+00 -5.47153E+00 -5.51146E+00 -5.55089E+00
  -5.58986E+00 -5.62836E+00 -5.66641E+00 -5.70395E+00 -5.74097E+00 -5.77742E+00 -5.81334E+00 -5.84872E+00 -5.88354E+00 -5.91777E+00
  -5.95139E+00 -5.98436E+00 -6.01673E+00 -6.04846E+00 -6.07956E+00 -6.10996E+00 -6.13965E+00 -6.16863E+00 -6.19691E+00 -6.22447E+00
  -6.25129E+00 -6.27732E+00 -6.30256E+00 -6.32700E+00 -6.35065E+00 -6.37348E+00 -6.39546E+00 -6.41655E+00 -6.43676E+00 -6.45609E+00
  -6.47453E+00 -6.49204E+00 -6.50860E+00 -6.52419E+00 -6.53884E+00 -6.55256E+00 -6.56535E+00 -6.57718E+00 -6.58806E+00 -6.59797E+00
  -6.60697E+00 -6.61503E+00 -6.62217E+00 -6.62835E+00 -6.63357E+00 -6.63786E+00 -6.64123E+00 -6.64367E+00 -6.64518E+00 -6.64572E+00
  -6.64534E+00 -6.64402E+00 -6.64179E+00 -6.63863E+00 -6.63453E+00 -6.62948E+00 -6.62351E+00 -6.61662E+00 -6.60881E+00 -6.60007E+00
  -6.59039E+00 -6.57977E+00 -6.56824E+00 -6.55579E+00 -6.54243E+00 -6.52813E+00 -6.51290E+00 -6.49673E+00 -6.47966E+00 -6.46168E+00
  -6.44278E+00 -6.42294E+00 -6.40217E+00 -6.38048E+00 -6.35790E+00 -6.33440E+00 -6.30998E+00 -6.28462E+00 -6.25835E+00 -6.23118E+00
  -6.20315E+00 -6.17423E+00 -6.14444E+00 -6.11378E+00 -6.08229E+00 -6.04998E+00 -6.01687E+00 -5.98295E+00 -5.94822E+00 -5.91270E+00
  -5.87643E+00 -5.83941E+00 -5.80166E+00 -5.76315E+00 -5.72392E+00 -5.68397E+00 -5.64336E+00 -5.60205E+00 -5.56008E+00 -5.51743E+00
  -5.47413E+00 -5.43020E+00 -5.38566E+00 -5.34050E+00 -5.29475E+00 -5.24839E+00 -5.20146E+00 -5.15397E+00 -5.10595E+00 -5.05738E+00
  -5.00828E+00 -4.95864E+00 -4.90851E+00 -4.85789E+00 -4.80681E+00 -4.75524E+00 -4.70321E+00 -4.65073E+00 -4.59784E+00 -4.54453E+00
  -4.49081E+00 -4.43668E+00 -4.38217E+00 -4.32728E+00 -4.27205E+00 -4.21647E+00 -4.16055E+00 -4.10429E+00 -4.04771E+00 -3.99082E+00
  -3.93365E+00 -3.87618E+00 -3.81844E+00 -3.76041E+00 -3.70213E+00 -3.64362E+00 -3.58488E+00 -3.52591E+00 -3.46672E+00 -3.40731E+00
  -3.34772E+00 -3.28795E+00 -3.22802E+00 -3.16792E+00 -3.10766E+00 -3.04725E+00 -2.98674E+00 -2.92611E+00 -2.86537E+00 -2.80452E+00
  -2.74359E+00 -2.68257E+00 -2.62152E+00 -2.56040E+00 -2.49925E+00 -2.43805E+00 -2.37683E+00 -2.31560E+00 -2.25440E+00 -2.19321E+00
  -2.13203E+00 -2.07088E+00 -2.00978E+00 -1.94875E+00 -1.88781E+00 -1.82695E+00 -1.76617E+00 -1.70549E+00
 NY background values follow
    -1.678E+00   -1.672E+00   -1.666E+00   -1.661E+00   -1.655E+00   -1.649E+00   -1.643E+00   -1.637E+00   -1.631E+00   -1.625E+00
    -1.619E+00   -1.613E+00   -1.607E+00   -1.601E+00   -1.595E+00   -1.589E+00   -1.583E+00   -1.577E+00   -1.571E+00   -1.565E+00
    -1.559E+00   -1.553E+00   -1.547E+00   -1.541E+00   -1.535E+00   -1.529E+00   -1.523E+00   -1.517E+00   -1.511E+00   -1.505E+00
    -1.499E+00   -1.494E+00   -1.488E+00   -1.482E+00   -1.476E+00   -1.470E+00   -1.464E+00   -1.458E+00   -1.453E+00   -1.447E+00
    -1.441E+00   -1.435E+00   -1.430E+00   -1.424E+00   -1.418E+00   -1.413E+00   -1.407E+00   -1.402E+00   -1.396E+00   -1.391E+00
    -1.386E+00   -1.380E+00   -1.375E+00   -1.370E+00   -1.365E+00   -1.359E+00   -1.354E+00   -1.349E+00   -1.344E+00   -1.340E+00
    -1.335E+00   -1.330E+00   -1.325E+00   -1.321E+00   -1.316E+00   -1.312E+00   -1.307E+00   -1.303E+00   -1.299E+00   -1.295E+00
    -1.291E+00   -1.287E+00   -1.283E+00   -1.279E+00   -1.276E+00   -1.272E+00   -1.269E+00   -1.266E+00   -1.262E+00   -1.259E+00
    -1.256E+00   -1.253E+00   -1.251E+00   -1.248E+00   -1.246E+00   -1.243E+00   -1.241E+00   -1.239E+00   -1.237E+00   -1.235E+00
    -1.234E+00   -1.232E+00   -1.231E+00   -1.229E+00   -1.228E+00   -1.227E+00   -1.227E+00   -1.226E+00   -1.225E+00   -1.225E+00
    -1.225E+00   -1.224E+00   -1.224E+00   -1.224E+00   -1.225E+00   -1.225E+00   -1.225E+00   -1.226E+00   -1.227E+00   -1.228E+00
    -1.229E+00   -1.230E+00   -1.231E+00   -1.232E+00   -1.234E+00   -1.235E+00   -1.237E+00   -1.239E+00   -1.241E+00   -1.243E+00
    -1.245E+00   -1.247E+00   -1.250E+00   -1.252E+00   -1.255E+00   -1.257E+00   -1.260E+00   -1.263E+00   -1.266E+00   -1.269E+00
    -1.272E+00   -1.276E+00   -1.279E+00   -1.282E+00   -1.286E+00   -1.290E+00   -1.293E+00   -1.297E+00   -1.301E+00   -1.305E+00
    -1.310E+00   -1.314E+00   -1.318E+00   -1.323E+00   -1.327E+00   -1.332E+00   -1.337E+00   -1.342E+00   -1.347E+00   -1.352E+00
    -1.357E+00   -1.362E+00   -1.368E+00   -1.374E+00   -1.379E+00   -1.385E+00   -1.391E+00   -1.397E+00   -1.403E+00   -1.410E+00
    -1.416E+00   -1.423E+00   -1.430E+00   -1.437E+00   -1.444E+00   -1.451E+00   -1.458E+00   -1.466E+00   -1.473E+00   -1.481E+00
    -1.489E+00   -1.497E+00   -1.505E+00   -1.513E+00   -1.522E+00   -1.531E+00   -1.540E+00   -1.548E+00   -1.558E+00   -1.567E+00
    -1.576E+00   -1.586E+00   -1.596E+00   -1.606E+00   -1.616E+00   -1.626E+00   -1.637E+00   -1.648E+00   -1.658E+00   -1.670E+00
    -1.681E+00   -1.692E+00   -1.704E+00   -1.716E+00   -1.728E+00   -1.740E+00   -1.753E+00   -1.765E+00   -1.778E+00   -1.792E+00
    -1.805E+00   -1.819E+00   -1.832E+00   -1.847E+00   -1.861E+00   -1.876E+00   -1.890E+00   -1.905E+00   -1.921E+00   -1.936E+00
    -1.952E+00   -1.968E+00   -1.985E+00   -2.002E+00   -2.018E+00   -2.036E+00   -2.053E+00   -2.071E+00   -2.089E+00   -2.107E+00
    -2.126E+00   -2.145E+00   -2.164E+00   -2.184E+00   -2.204E+00   -2.224E+00   -2.245E+00   -2.265E+00   -2.287E+00   -2.308E+00
    -2.330E+00   -2.352E+00   -2.374E+00   -2.397E+00   -2.420E+00   -2.444E+00   -2.467E+00   -2.491E+00   -2.516E+00   -2.540E+00
    -2.566E+00   -2.591E+00   -2.617E+00   -2.643E+00   -2.669E+00   -2.695E+00   -2.722E+00   -2.750E+00   -2.777E+00   -2.805E+00
    -2.834E+00   -2.862E+00   -2.891E+00   -2.920E+00   -2.950E+00   -2.980E+00   -3.010E+00   -3.041E+00   -3.072E+00   -3.103E+00
    -3.135E+00   -3.167E+00   -3.199E+00   -3.231E+00   -3.264E+00   -3.298E+00   -3.331E+00   -3.365E+00   -3.399E+00   -3.434E+00
    -3.469E+00   -3.504E+00   -3.540E+00   -3.576E+00   -3.612E+00   -3.649E+00   -3.686E+00   -3.723E+00   -3.760E+00   -3.798E+00
    -3.836E+00   -3.874E+00   -3.912E+00   -3.951E+00   -3.990E+00   -4.029E+00   -4.068E+00   -4.107E+00   -4.147E+00   -4.187E+00
    -4.227E+00   -4.266E+00   -4.307E+00   -4.347E+00   -4.387E+00   -4.427E+00   -4.468E+00   -4.508E+00   -4.549E+00   -4.590E+00
    -4.630E+00   -4.671E+00   -4.712E+00   -4.752E+00   -4.793E+00   -4.834E+00   -4.874E+00   -4.915E+00   -4.955E+00   -4.996E+00
    -5.036E+00   -5.077E+00   -5.117E+00   -5.157E+00   -5.197E+00   -5.237E+00   -5.276E+00   -5.316E+00   -5.355E+00   -5.394E+00
    -5.433E+00   -5.472E+00   -5.510E+00   -5.549E+00   -5.587E+00   -5.624E+00   -5.662E+00   -5.699E+00   -5.735E+00   -5.772E+00
    -5.808E+00   -5.843E+00   -5.879E+00   -5.913E+00   -5.948E+00   -5.982E+00   -6.015E+00   -6.048E+00   -6.080E+00   -6.112E+00
    -6.143E+00   -6.174E+00   -6.204E+00   -6.234E+00   -6.263E+00   -6.291E+00   -6.319E+00   -6.346E+00   -6.372E+00   -6.398E+00
    -6.423E+00   -6.447E+00   -6.471E+00   -6.493E+00   -6.515E+00   -6.536E+00   -6.557E+00   -6.576E+00   -6.595E+00   -6.613E+00
    -6.629E+00   -6.645E+00   -6.661E+00   -6.675E+00   -6.688E+00   -6.700E+00   -6.712E+00   -6.722E+00   -6.732E+00   -6.740E+00
    -6.748E+00   -6.755E+00   -6.761E+00   -6.766E+00   -6.770E+00   -6.773E+00   -6.775E+00   -6.776E+00   -6.776E+00   -6.776E+00
    -6.774E+00   -6.772E+00   -6.769E+00   -6.764E+00   -6.759E+00   -6.753E+00   -6.746E+00   -6.738E+00   -6.729E+00   -6.720E+00
    -6.709E+00   -6.698E+00   -6.685E+00   -6.672E+00   -6.657E+00   -6.642E+00   -6.626E+00   -6.609E+00   -6.591E+00   -6.572E+00
    -6.552E+00   -6.532E+00   -6.510E+00   -6.488E+00   -6.464E+00   -6.440E+00   -6.415E+00   -6.388E+00   -6.361E+00   -6.333E+00
    -6.305E+00   -6.275E+00   -6.244E+00   -6.213E+00   -6.181E+00   -6.148E+00   -6.114E+00   -6.079E+00   -6.044E+00   -6.008E+00
    -5.971E+00   -5.933E+00   -5.894E+00   -5.855E+00   -5.815E+00   -5.775E+00   -5.733E+00   -5.691E+00   -5.649E+00   -5.606E+00
    -5.562E+00   -5.517E+00   -5.472E+00   -5.426E+00   -5.380E+00   -5.333E+00   -5.285E+00   -5.237E+00   -5.188E+00   -5.139E+00
    -5.089E+00   -5.039E+00   -4.989E+00   -4.937E+00   -4.886E+00   -4.833E+00   -4.781E+00   -4.728E+00   -4.674E+00   -4.620E+00
    -4.566E+00   -4.511E+00   -4.456E+00   -4.401E+00   -4.345E+00   -4.289E+00   -4.233E+00   -4.176E+00   -4.119E+00   -4.061E+00
    -4.003E+00   -3.945E+00   -3.887E+00   -3.828E+00   -3.770E+00   -3.711E+00   -3.651E+00   -3.592E+00   -3.532E+00   -3.472E+00
    -3.412E+00   -3.352E+00   -3.291E+00   -3.230E+00   -3.170E+00   -3.109E+00   -3.047E+00   -2.986E+00   -2.925E+00   -2.863E+00
    -2.802E+00   -2.740E+00   -2.679E+00   -2.617E+00   -2.555E+00   -2.493E+00   -2.432E+00   -2.370E+00   -2.308E+00   -2.246E+00
    -2.184E+00   -2.122E+00   -2.060E+00   -1.999E+00   -1.937E+00   -1.875E+00   -1.814E+00   -1.752E+00
 Asp      Conc. = 3.54E+01
