 LCModel (Version 6.3-1L) Copyright: S.W. Provencher.          Ref.: Magn. Reson. Med. 30:672-679 (1993).                
 Slice#1 Row#12 Col#12  PD_24_press_1_raw_act
 36 lines in following concentration table = NCONC+1
    Conc.  %SD /Cr+PCr  Metabolite                                         
    8.377  75%   1.705 Ala                                                 
    1.546 202%   0.315 Asp                                                 
    0.884 504%   0.180 Cr                                                  
    4.029 115%   0.820 PCr                                                 
    0.446 413% 9.1E-02 GABA                                                
    0.913 207%   0.186 Glc                                                 
    0.000 999%   0.000 Gln                                                 
    0.389 999% 7.9E-02 Glu                                                 
    3.810 145%   0.776 GPC                                                 
    0.385 999% 7.8E-02 PCh                                                 
    4.007  97%   0.815 GSH                                                 
    0.000 999%   0.000 Ins                                                 
    0.000 999%   0.000 Lac                                                 
   13.643  59%   2.777 NAA                                                 
    0.610 624%   0.124 NAAG                                                
    0.196 301% 4.0E-02 Scyllo                                              
    1.385 219%   0.282 Tau                                                 
    5.279  65%   1.075 -CrCH2                                              
    4.196  63%   0.854 GPC+PCh                                             
   14.253  61%   2.901 NAA+NAAG                                            
    4.913  78%   1.000 Cr+PCr                                              
    0.389 999% 7.9E-02 Glu+Gln                                             
 1.87E+03  19% 379.910 Lip13a                                              
    0.426 999% 8.7E-02 Lip13b                                              
  668.494  22% 136.065 Lip09                                               
  199.107  64%  40.526 MM09                                                
  251.522  34%  51.195 Lip20                                               
    0.000 999%   0.000 MM20                                                
    0.000 999%   0.000 MM12                                                
  166.817 103%  33.954 MM14                                                
  167.482  53%  34.089 MM17                                                
 1.87E+03  18% 379.997 Lip13a+Lip13b                                       
 2.03E+03  10% 413.951 MM14+Lip13a+Lip13b+MM12                             
  867.601  11% 176.591 MM09+Lip09                                          
  251.522  34%  51.195 MM20+Lip20                                          
   6 lines in following misc. output table
  FWHM = 0.023 ppm    S/N =   2                                            
  Data shift =-0.008 ppm                                                   
  Ph:  98 deg     -22.2 deg/ppm                                            
  alphaB,S = 8.5E+01,   1.0E+00                                            
   14 spline knots.   Ns = 5(1)                                            
   2 inflections.     3 extrema                                            
  498 points on ppm-axis = NY
      4.000000     3.992357     3.984714     3.977070     3.969427     3.961784     3.954141     3.946497     3.938854     3.931211
      3.923568     3.915925     3.908281     3.900638     3.892995     3.885352     3.877708     3.870065     3.862422     3.854779
      3.847136     3.839492     3.831849     3.824206     3.816563     3.808919     3.801276     3.793633     3.785990     3.778347
      3.770703     3.763060     3.755417     3.747774     3.740130     3.732487     3.724844     3.717201     3.709558     3.701914
      3.694271     3.686628     3.678985     3.671341     3.663698     3.656055     3.648412     3.640769     3.633125     3.625482
      3.617839     3.610196     3.602552     3.594909     3.587266     3.579623     3.571980     3.564336     3.556693     3.549050
      3.541407     3.533763     3.526120     3.518477     3.510834     3.503191     3.495547     3.487904     3.480261     3.472618
      3.464974     3.457331     3.449688     3.442045     3.434402     3.426758     3.419115     3.411472     3.403829     3.396185
      3.388542     3.380899     3.373256     3.365613     3.357969     3.350326     3.342683     3.335040     3.327396     3.319753
      3.312110     3.304467     3.296824     3.289180     3.281537     3.273894     3.266251     3.258607     3.250964     3.243321
      3.235678     3.228034     3.220391     3.212748     3.205105     3.197462     3.189818     3.182175     3.174532     3.166889
      3.159245     3.151602     3.143959     3.136316     3.128673     3.121029     3.113386     3.105743     3.098100     3.090456
      3.082813     3.075170     3.067527     3.059884     3.052240     3.044597     3.036954     3.029311     3.021667     3.014024
      3.006381     2.998738     2.991095     2.983451     2.975808     2.968165     2.960522     2.952878     2.945235     2.937592
      2.929949     2.922306     2.914662     2.907019     2.899376     2.891733     2.884089     2.876446     2.868803     2.861160
      2.853517     2.845873     2.838230     2.830587     2.822944     2.815300     2.807657     2.800014     2.792371     2.784728
      2.777084     2.769441     2.761798     2.754155     2.746511     2.738868     2.731225     2.723582     2.715939     2.708295
      2.700652     2.693009     2.685366     2.677722     2.670079     2.662436     2.654793     2.647150     2.639506     2.631863
      2.624220     2.616577     2.608933     2.601290     2.593647     2.586004     2.578361     2.570717     2.563074     2.555431
      2.547788     2.540144     2.532501     2.524858     2.517215     2.509572     2.501928     2.494285     2.486642     2.478999
      2.471355     2.463712     2.456069     2.448426     2.440783     2.433139     2.425496     2.417853     2.410210     2.402566
      2.394923     2.387280     2.379637     2.371994     2.364350     2.356707     2.349064     2.341421     2.333777     2.326134
      2.318491     2.310848     2.303205     2.295561     2.287918     2.280275     2.272632     2.264988     2.257345     2.249702
      2.242059     2.234416     2.226772     2.219129     2.211486     2.203843     2.196199     2.188556     2.180913     2.173270
      2.165627     2.157983     2.150340     2.142697     2.135054     2.127410     2.119767     2.112124     2.104481     2.096838
      2.089194     2.081551     2.073908     2.066265     2.058621     2.050978     2.043335     2.035692     2.028049     2.020405
      2.012762     2.005119     1.997476     1.989833     1.982190     1.974546     1.966903     1.959260     1.951617     1.943974
      1.936331     1.928688     1.921045     1.913402     1.905759     1.898115     1.890472     1.882829     1.875186     1.867543
      1.859900     1.852257     1.844614     1.836971     1.829327     1.821684     1.814041     1.806398     1.798755     1.791112
      1.783469     1.775826     1.768183     1.760540     1.752896     1.745253     1.737610     1.729967     1.722324     1.714681
      1.707038     1.699395     1.691752     1.684108     1.676465     1.668822     1.661179     1.653536     1.645893     1.638250
      1.630607     1.622964     1.615321     1.607677     1.600034     1.592391     1.584748     1.577105     1.569462     1.561819
      1.554176     1.546533     1.538890     1.531246     1.523603     1.515960     1.508317     1.500674     1.493031     1.485388
      1.477745     1.470102     1.462458     1.454815     1.447172     1.439529     1.431886     1.424243     1.416600     1.408957
      1.401314     1.393671     1.386027     1.378384     1.370741     1.363098     1.355455     1.347812     1.340169     1.332526
      1.324883     1.317240     1.309596     1.301953     1.294310     1.286667     1.279024     1.271381     1.263738     1.256095
      1.248452     1.240808     1.233165     1.225522     1.217879     1.210236     1.202593     1.194950     1.187307     1.179664
      1.172021     1.164377     1.156734     1.149091     1.141448     1.133805     1.126162     1.118519     1.110876     1.103233
      1.095590     1.087946     1.080303     1.072660     1.065017     1.057374     1.049731     1.042088     1.034445     1.026802
      1.019158     1.011515     1.003872     0.996229     0.988586     0.980943     0.973300     0.965657     0.958014     0.950371
      0.942727     0.935084     0.927441     0.919798     0.912155     0.904512     0.896869     0.889226     0.881583     0.873940
      0.866296     0.858653     0.851010     0.843367     0.835724     0.828081     0.820438     0.812795     0.805152     0.797508
      0.789865     0.782222     0.774579     0.766936     0.759293     0.751650     0.744007     0.736364     0.728721     0.721077
      0.713434     0.705791     0.698148     0.690505     0.682862     0.675219     0.667576     0.659933     0.652290     0.644646
      0.637003     0.629360     0.621717     0.614074     0.606431     0.598788     0.591145     0.583502     0.575858     0.568215
      0.560572     0.552929     0.545286     0.537643     0.530000     0.522357     0.514714     0.507071     0.499427     0.491784
      0.484141     0.476498     0.468855     0.461212     0.453569     0.445925     0.438282     0.430639     0.422996     0.415353
      0.407710     0.400067     0.392424     0.384780     0.377137     0.369494     0.361851     0.354208     0.346565     0.338922
      0.331278     0.323635     0.315992     0.308349     0.300706     0.293063     0.285420     0.277777     0.270133     0.262490
      0.254847     0.247204     0.239561     0.231918     0.224275     0.216631     0.208988     0.201345
 NY phased data points follow
  -3.87306E+00  1.83173E-01 -3.81140E+00 -3.85557E+00 -1.41137E+00  4.08457E-01 -9.25826E-01 -1.15875E+00 -2.44338E+00 -1.50209E+00
  -3.68122E+00 -1.73308E+00 -3.30192E+00 -1.94632E+00 -2.60726E+00 -3.03900E+00 -3.73634E+00  4.68396E-01 -2.89006E+00 -9.47555E-01
  -4.04891E+00 -1.12541E-01 -2.72113E+00 -7.52182E-01 -1.60158E+00 -5.86019E-01 -2.52526E+00 -1.84785E+00 -1.19262E+00 -1.00420E+00
  -2.07238E+00 -2.39768E+00 -2.99287E+00 -1.92928E+00 -4.07906E-01 -3.40630E-01 -2.25635E+00 -1.56655E-01 -1.51643E-01 -2.20237E+00
  -1.81637E+00 -1.14911E+00 -1.16212E+00 -1.65037E+00 -2.22170E+00 -7.18426E-02 -2.00040E+00  1.65919E+00 -3.37600E+00 -2.53653E+00
  -1.71056E+00 -1.78963E+00 -1.87696E+00 -1.29890E+00 -2.83845E+00 -2.61646E+00 -1.74336E+00 -1.33508E+00 -2.65100E+00 -1.43608E+00
   1.19195E+00 -1.98283E+00 -2.69145E+00 -2.21441E+00 -1.28877E+00 -1.27502E+00 -1.01361E+00 -9.05551E-01 -2.09880E+00 -1.02945E+00
  -3.52927E-01 -3.38367E-01 -6.87588E-01 -3.81004E-01 -1.36221E+00 -1.64988E+00 -2.25664E+00 -1.16259E+00 -1.29817E+00  1.47773E+00
  -2.33548E-01 -9.60637E-01 -3.91032E-01 -3.11894E-01 -1.48034E-01  1.17600E+00 -1.22644E+00 -9.51628E-01  6.37977E-02 -8.23805E-01
  -2.89878E+00  1.13328E+00 -1.34425E+00  5.89719E-01 -3.55878E+00  1.05505E+00 -4.23178E-01 -6.43219E-01 -3.19513E+00 -2.19933E+00
  -1.97846E+00 -8.50862E-01  8.16001E-01  3.24593E-01  1.77369E+00  2.01988E+00  2.61604E+00 -1.11367E+00 -1.80500E+00 -1.65515E+00
   2.37842E+00  1.56308E+00  1.01355E+00 -5.88571E-01 -1.41615E-01 -1.40162E+00  1.84258E+00  6.95585E-01 -2.29982E-01 -9.65034E-01
  -1.77555E+00 -3.72546E-01  2.10716E-02 -2.59659E-01 -1.51235E+00 -1.47499E-01 -2.44022E-01  1.50764E+00  1.97792E+00  2.08332E+00
   4.36030E-01 -1.61774E+00  1.18856E+00  3.83951E-01 -5.76119E-01  1.70179E+00  2.23302E+00 -9.10441E-01 -1.97032E+00  1.00395E+00
  -6.17364E-01  6.04066E-01 -8.48946E-02  4.84334E-01  3.48434E-01 -1.82911E-01  9.87487E-01  1.86992E+00  1.82539E+00  1.34173E+00
   8.68516E-01  5.45886E-01  6.74220E-01  1.17794E+00  9.73362E-01  2.85849E+00  5.56336E-02 -3.34032E-01  6.19463E-01 -7.93459E-01
   2.86943E-01 -7.97060E-02 -8.53968E-01  1.25597E+00  1.21224E-01  5.14616E-01  2.35968E+00  4.01634E-01 -3.27805E+00 -1.33826E+00
  -1.74283E+00  8.64962E-01  2.90322E-01 -1.23677E+00 -8.72162E-01  8.98811E-01 -1.09878E+00 -1.18898E-01  1.83801E+00  2.77501E+00
   1.90883E+00  3.83107E-01  7.51525E-01  8.81861E-01 -1.39084E+00 -2.02438E-01 -1.14234E-01  1.47587E+00  1.45839E+00  6.13138E-01
   1.17347E+00  1.41016E+00  6.67804E-01  1.95300E+00  2.65375E+00  1.61512E+00  1.75289E+00  3.19367E+00 -1.51024E+00  4.08481E-02
  -2.90926E-02 -1.21736E+00  6.80218E-02  1.19914E+00  9.38437E-01  1.32794E+00  5.28514E-01 -1.23869E+00  1.98765E+00 -6.30040E-01
  -2.14804E-01  1.88524E+00  1.34951E+00  8.51653E-01  7.29506E-01  1.91216E+00  5.69933E-02  2.15315E+00  8.90646E-01  1.30022E+00
  -5.69866E-01  3.35606E+00  1.84424E+00  1.62246E+00  1.71150E+00  2.22027E+00 -6.77915E-01 -8.17353E-01  2.73412E-01  2.13089E+00
   1.92037E+00  3.19634E+00  6.46931E-01 -1.06996E+00 -2.91068E+00 -8.85449E-01  3.21964E-01  1.24903E+00  1.11947E+00  2.61542E+00
   2.05308E+00  1.85710E+00 -2.70678E-01 -7.61829E-01  5.55338E-01  2.03683E+00  1.43281E+00  2.21330E+00  1.92317E+00  1.08053E+00
   2.06120E+00 -2.10374E-01  2.33090E-01  8.79498E-01  8.24648E-01 -1.03775E+00 -5.26267E-01  2.84866E-01  2.83528E-01 -8.28144E-01
   9.83644E-01  2.50389E+00  6.52539E+00  3.38344E+00  1.69283E+00  1.10861E+00  1.80056E+00  5.38093E-01  3.12195E+00  2.34399E+00
   1.33705E+00  2.90901E+00  4.52467E-01 -3.60545E-01  1.70766E+00  1.44435E+00 -7.77671E-01  9.71763E-02  2.18338E+00  3.81304E-01
   4.86594E-01  2.36059E+00  2.35748E+00  4.71815E-02  2.41262E+00  2.44551E+00  1.01099E+00  2.71150E+00  1.55658E+00  1.97632E+00
   3.49465E+00  2.48698E+00  3.34934E+00  3.65987E+00  2.10976E+00  2.60190E+00  1.79865E+00  2.04653E+00  2.11317E+00  1.41970E+00
   1.95809E+00  2.80522E+00  1.75401E+00  3.54014E+00  3.57677E-01  2.79353E+00  4.37195E+00  1.86530E+00  1.95584E+00  2.51659E+00
   4.78947E+00  7.59917E-01  3.13102E+00  1.41275E+00  4.61979E+00  2.20255E+00  3.93278E+00  2.60893E+00  2.86712E+00  2.71349E+00
   2.54979E+00  3.83993E+00  2.23251E+00  4.40921E+00  4.57257E+00  4.88357E+00  3.74659E+00  3.95250E+00  3.46418E+00  4.09315E+00
   4.86122E+00  2.17105E+00  3.36556E+00  3.47706E+00  4.35731E+00  4.44810E+00  6.79171E+00  6.69784E+00  5.99618E+00  7.36584E+00
   5.42798E+00  5.68355E+00  6.01176E+00  5.07904E+00  5.81521E+00  9.05773E+00  9.79161E+00  5.74061E+00  7.56599E+00  5.90062E+00
   4.51793E+00  9.11080E+00  7.78455E+00  1.02048E+01  8.38637E+00  9.58158E+00  7.22452E+00  9.05862E+00  6.62228E+00  8.33060E+00
   6.47833E+00  7.35508E+00  7.14261E+00  7.96679E+00  8.52311E+00  7.30998E+00  5.49181E+00  7.61688E+00  6.76075E+00  5.53173E+00
   6.61572E+00  7.14242E+00  3.40743E+00  5.28693E+00  5.19313E+00  5.14207E+00  5.04342E+00  5.88021E+00  7.03502E+00  5.21061E+00
   5.01753E+00  5.63615E+00  4.50878E+00  5.21339E+00  5.63211E+00  4.75441E+00  5.96302E+00  5.63706E+00  6.26592E+00  6.89639E+00
   5.85154E+00  6.39330E+00  6.53662E+00  5.63577E+00  5.65185E+00  5.55924E+00  6.20410E+00  5.87372E+00  6.68454E+00  6.34463E+00
   8.54006E+00  7.66910E+00  6.53467E+00  6.88663E+00  5.16459E+00  7.11420E+00  6.14610E+00  4.84581E+00  6.85438E+00  8.22133E+00
   7.76970E+00  6.79994E+00  6.77186E+00  5.60895E+00  6.04823E+00  4.66930E+00  4.84826E+00  4.52717E+00  6.29695E+00  6.49976E+00
   5.14751E+00  3.06977E+00  5.72066E+00  5.65355E+00  6.40431E+00  3.23911E+00  2.88357E+00  4.10265E+00  4.50513E+00  4.81579E+00
   5.43955E+00  5.72798E+00  4.63860E+00  4.65154E+00  5.02879E+00  4.48708E+00  5.81361E+00  5.68482E+00  3.47146E+00  3.88918E+00
   4.41472E+00  3.70883E+00  5.15390E+00  3.60253E+00  4.24452E+00  5.45391E+00  2.67271E+00  3.31407E+00  3.26472E+00  2.85071E+00
   2.89274E+00  3.91348E+00  3.72197E+00  3.97159E+00  2.81325E+00 -1.44735E-01  4.91094E+00  3.24869E+00  1.58216E+00  2.25092E+00
   3.96065E+00  2.83820E+00  4.01123E+00  2.38559E+00  1.80385E+00  2.68742E+00  3.55217E+00  3.82873E+00  3.77821E+00  4.56587E+00
  -3.00732E-01  1.94982E+00  2.45698E+00  1.74393E+00  1.23374E+00  1.14043E+00  2.57103E+00  9.16205E-01  4.32891E+00  1.91999E+00
   2.36782E+00  1.63010E+00  1.84878E+00  1.90752E+00  1.73049E+00 -5.67953E-01  1.77000E+00  2.73249E+00  2.11865E+00  7.91528E-01
   3.26594E+00 -1.35246E+00  6.68081E-01  1.65531E+00  2.31199E+00  2.18712E+00  3.09260E-01  1.46450E+00
 NY points of the fit to the data follow
  -1.58693E+00 -1.59315E+00 -1.59918E+00 -1.59811E+00 -1.52578E+00 -1.41828E+00 -1.39735E+00 -1.42769E+00 -1.44414E+00 -1.48852E+00
  -1.59812E+00 -1.66480E+00 -1.56203E+00 -1.34575E+00 -1.23708E+00 -1.29978E+00 -1.38345E+00 -1.40209E+00 -1.42269E+00 -1.47294E+00
  -1.49805E+00 -1.41701E+00 -1.28055E+00 -1.17567E+00 -1.14500E+00 -1.27798E+00 -1.53251E+00 -1.66922E+00 -1.71941E+00 -1.65184E+00
  -1.36206E+00 -9.36392E-01 -6.74020E-01 -7.65553E-01 -1.05612E+00 -1.22799E+00 -1.19144E+00 -1.16313E+00 -1.20414E+00 -1.16948E+00
  -1.11902E+00 -1.16792E+00 -1.25371E+00 -1.24603E+00 -1.16034E+00 -1.11940E+00 -1.14216E+00 -1.16441E+00 -1.15826E+00 -1.15496E+00
  -1.15066E+00 -1.10000E+00 -1.02974E+00 -1.00779E+00 -1.03171E+00 -1.04770E+00 -1.04127E+00 -1.03557E+00 -1.03916E+00 -1.04656E+00
  -1.04650E+00 -1.03816E+00 -1.02927E+00 -1.01826E+00 -1.01040E+00 -9.97674E-01 -9.77771E-01 -9.60311E-01 -9.52011E-01 -9.51307E-01
  -9.64771E-01 -9.86155E-01 -9.87549E-01 -9.66132E-01 -9.32086E-01 -8.87056E-01 -8.40296E-01 -8.12895E-01 -8.22512E-01 -8.61507E-01
  -9.01714E-01 -9.27983E-01 -9.26113E-01 -8.91429E-01 -8.46502E-01 -8.08531E-01 -7.72628E-01 -7.34251E-01 -7.09864E-01 -7.17661E-01
  -7.46073E-01 -7.59434E-01 -7.47632E-01 -7.46502E-01 -7.78706E-01 -8.21897E-01 -8.87466E-01 -1.17068E+00 -1.93488E+00 -2.31664E+00
  -2.01537E+00 -1.42289E+00 -5.47823E-01  7.89802E-01  2.11497E+00  2.34234E+00  1.18854E+00 -3.05847E-01 -9.43163E-01 -7.64948E-01
  -5.90067E-01 -5.58597E-01 -5.52961E-01 -5.47540E-01 -5.38714E-01 -5.26010E-01 -5.11862E-01 -5.00384E-01 -4.90947E-01 -4.88834E-01
  -5.18182E-01 -6.76400E-01 -9.97894E-01 -1.10709E+00 -9.53560E-01 -6.85453E-01 -2.84194E-01  2.83991E-01  7.53029E-01  7.11394E-01
   2.05663E-01 -2.75660E-01 -3.64048E-01 -1.83118E-01 -4.53880E-02 -1.73595E-02 -9.24494E-02 -2.55328E-01 -3.93439E-01 -4.08590E-01
  -3.08358E-01 -1.67036E-01 -3.45550E-02  5.95977E-02  8.64969E-02  6.99021E-02  5.43324E-02  5.76997E-02  7.66058E-02  9.21254E-02
   1.08194E-01  1.25978E-01  1.35886E-01  1.37569E-01  1.39724E-01  1.55342E-01  1.94582E-01  2.33903E-01  2.54126E-01  2.51202E-01
   2.10061E-01  1.55963E-01  1.15746E-01  1.14552E-01  1.71185E-01  2.58887E-01  3.11166E-01  2.90872E-01  2.30903E-01  1.82820E-01
   1.78107E-01  2.11670E-01  2.33927E-01  2.12584E-01  1.78652E-01  1.48942E-01  1.27607E-01  1.06471E-01  1.06166E-01  1.49706E-01
   1.99807E-01  2.03767E-01  1.61828E-01  1.22970E-01  1.18353E-01  1.24427E-01  8.69910E-02  3.79134E-03 -4.27282E-02  1.79622E-02
   1.64511E-01  3.12139E-01  3.96852E-01  4.45850E-01  4.43937E-01  3.74055E-01  3.01898E-01  2.66990E-01  2.25841E-01  1.48884E-01
   1.22363E-01  1.96819E-01  3.16143E-01  4.00159E-01  4.42583E-01  4.89695E-01  5.22159E-01  5.14738E-01  5.10072E-01  5.23962E-01
   5.40534E-01  5.43861E-01  5.34165E-01  5.09412E-01  4.85193E-01  5.01354E-01  5.71759E-01  6.60305E-01  7.14492E-01  7.26839E-01
   7.33583E-01  7.52056E-01  7.77356E-01  8.06338E-01  8.42362E-01  8.88081E-01  9.41814E-01  9.96675E-01  1.02391E+00  1.01795E+00
   9.96746E-01  9.60702E-01  9.02702E-01  8.46367E-01  8.72765E-01  1.00703E+00  1.16872E+00  1.28797E+00  1.36089E+00  1.39011E+00
   1.33661E+00  1.19275E+00  1.05917E+00  1.02782E+00  1.08255E+00  1.16045E+00  1.25104E+00  1.36364E+00  1.46111E+00  1.50013E+00
   1.47447E+00  1.41028E+00  1.37101E+00  1.35103E+00  1.24033E+00  6.48229E-01 -1.02520E-01 -6.26786E-02  4.77910E-01  1.20199E+00
   2.35858E+00  3.92063E+00  4.88900E+00  4.28343E+00  2.59765E+00  1.31025E+00  1.15085E+00  1.41515E+00  1.47202E+00  1.46060E+00
   1.44201E+00  1.42459E+00  1.41325E+00  1.41010E+00  1.41198E+00  1.41522E+00  1.41982E+00  1.42649E+00  1.43373E+00  1.44205E+00
   1.45328E+00  1.46872E+00  1.48930E+00  1.51516E+00  1.54592E+00  1.58210E+00  1.62369E+00  1.66956E+00  1.71897E+00  1.77193E+00
   1.82819E+00  1.88819E+00  1.95172E+00  2.01806E+00  2.08621E+00  2.15455E+00  2.22153E+00  2.28689E+00  2.35011E+00  2.41007E+00
   2.46572E+00  2.51690E+00  2.56310E+00  2.60379E+00  2.63836E+00  2.66702E+00  2.69031E+00  2.70896E+00  2.72371E+00  2.73577E+00
   2.74625E+00  2.75651E+00  2.76762E+00  2.78082E+00  2.79712E+00  2.81753E+00  2.84253E+00  2.87223E+00  2.90542E+00  2.93872E+00
   2.96146E+00  2.93966E+00  2.89821E+00  3.12679E+00  3.54440E+00  3.94922E+00  4.34419E+00  4.71878E+00  4.87619E+00  4.61345E+00
   3.93751E+00  3.41410E+00  3.44729E+00  3.73332E+00  3.97988E+00  4.40769E+00  5.15349E+00  5.91270E+00  6.27666E+00  6.21347E+00
   6.09656E+00  6.20062E+00  6.40479E+00  6.59762E+00  6.78410E+00  6.96634E+00  7.14276E+00  7.31127E+00  7.46950E+00  7.61523E+00
   7.74608E+00  7.85993E+00  7.95465E+00  8.02860E+00  8.08030E+00  8.10885E+00  8.11354E+00  8.09431E+00  8.05137E+00  7.98564E+00
   7.89834E+00  7.79125E+00  7.66629E+00  7.52581E+00  7.37224E+00  7.20833E+00  7.03674E+00  6.86032E+00  6.68160E+00  6.50323E+00
   6.32752E+00  6.15683E+00  5.99313E+00  5.83832E+00  5.69390E+00  5.56132E+00  5.44172E+00  5.33623E+00  5.24562E+00  5.17068E+00
   5.11186E+00  5.06971E+00  5.04448E+00  5.03649E+00  5.04574E+00  5.07222E+00  5.11558E+00  5.17546E+00  5.25110E+00  5.34165E+00
   5.44576E+00  5.56192E+00  5.68814E+00  5.82231E+00  5.96185E+00  6.10409E+00  6.24596E+00  6.38445E+00  6.51634E+00  6.63868E+00
   6.74850E+00  6.84324E+00  6.92049E+00  6.97845E+00  7.01564E+00  7.03128E+00  7.02493E+00  6.99681E+00  6.94744E+00  6.87798E+00
   6.78978E+00  6.68470E+00  6.56461E+00  6.43168E+00  6.28800E+00  6.13589E+00  5.97741E+00  5.81472E+00  5.64966E+00  5.48407E+00
   5.31944E+00  5.15727E+00  4.99867E+00  4.84476E+00  4.69624E+00  4.55382E+00  4.41791E+00  4.28893E+00  4.16698E+00  4.05222E+00
   3.94452E+00  3.84384E+00  3.74993E+00  3.66265E+00  3.58163E+00  3.50665E+00  3.43727E+00  3.37325E+00  3.31418E+00  3.25982E+00
   3.20975E+00  3.16374E+00  3.12138E+00  3.08250E+00  3.04675E+00  3.01398E+00  2.98386E+00  2.95625E+00  2.93088E+00  2.90765E+00
   2.88634E+00  2.86687E+00  2.84901E+00  2.83271E+00  2.81776E+00  2.80418E+00  2.79178E+00  2.78055E+00  2.77031E+00  2.76107E+00
   2.75269E+00  2.74520E+00  2.73847E+00  2.73251E+00  2.72718E+00  2.72252E+00  2.71843E+00  2.71496E+00  2.71197E+00  2.70952E+00
   2.70748E+00  2.70592E+00  2.70474E+00  2.70401E+00  2.70360E+00  2.70357E+00  2.70382E+00  2.70443E+00  2.70530E+00  2.70650E+00
   2.70792E+00  2.70963E+00  2.71152E+00  2.71369E+00  2.71605E+00  2.71866E+00  2.72142E+00  2.72439E+00  2.72750E+00  2.73084E+00
   2.73431E+00  2.73797E+00  2.74172E+00  2.74565E+00  2.74969E+00  2.75391E+00  2.75821E+00  2.76267E+00
 NY background values follow
    -1.589E+00   -1.581E+00   -1.572E+00   -1.564E+00   -1.556E+00   -1.547E+00   -1.539E+00   -1.531E+00   -1.522E+00   -1.514E+00
    -1.506E+00   -1.497E+00   -1.489E+00   -1.481E+00   -1.472E+00   -1.464E+00   -1.456E+00   -1.447E+00   -1.439E+00   -1.431E+00
    -1.422E+00   -1.414E+00   -1.406E+00   -1.397E+00   -1.389E+00   -1.381E+00   -1.372E+00   -1.364E+00   -1.355E+00   -1.347E+00
    -1.339E+00   -1.330E+00   -1.322E+00   -1.314E+00   -1.305E+00   -1.297E+00   -1.289E+00   -1.280E+00   -1.272E+00   -1.264E+00
    -1.255E+00   -1.247E+00   -1.239E+00   -1.230E+00   -1.222E+00   -1.214E+00   -1.205E+00   -1.197E+00   -1.189E+00   -1.180E+00
    -1.172E+00   -1.164E+00   -1.155E+00   -1.147E+00   -1.138E+00   -1.130E+00   -1.122E+00   -1.113E+00   -1.105E+00   -1.097E+00
    -1.088E+00   -1.080E+00   -1.072E+00   -1.063E+00   -1.055E+00   -1.047E+00   -1.038E+00   -1.030E+00   -1.022E+00   -1.013E+00
    -1.005E+00   -9.966E-01   -9.882E-01   -9.799E-01   -9.715E-01   -9.632E-01   -9.549E-01   -9.465E-01   -9.382E-01   -9.298E-01
    -9.215E-01   -9.131E-01   -9.048E-01   -8.964E-01   -8.881E-01   -8.797E-01   -8.714E-01   -8.630E-01   -8.547E-01   -8.464E-01
    -8.380E-01   -8.297E-01   -8.213E-01   -8.130E-01   -8.046E-01   -7.963E-01   -7.879E-01   -7.796E-01   -7.712E-01   -7.629E-01
    -7.546E-01   -7.462E-01   -7.379E-01   -7.295E-01   -7.212E-01   -7.128E-01   -7.045E-01   -6.961E-01   -6.878E-01   -6.794E-01
    -6.711E-01   -6.628E-01   -6.544E-01   -6.461E-01   -6.377E-01   -6.294E-01   -6.210E-01   -6.127E-01   -6.043E-01   -5.960E-01
    -5.876E-01   -5.793E-01   -5.710E-01   -5.626E-01   -5.543E-01   -5.459E-01   -5.376E-01   -5.292E-01   -5.209E-01   -5.125E-01
    -5.042E-01   -4.958E-01   -4.875E-01   -4.792E-01   -4.708E-01   -4.625E-01   -4.541E-01   -4.458E-01   -4.374E-01   -4.291E-01
    -4.207E-01   -4.124E-01   -4.040E-01   -3.957E-01   -3.874E-01   -3.790E-01   -3.707E-01   -3.623E-01   -3.540E-01   -3.456E-01
    -3.373E-01   -3.289E-01   -3.206E-01   -3.122E-01   -3.039E-01   -2.956E-01   -2.872E-01   -2.789E-01   -2.705E-01   -2.622E-01
    -2.538E-01   -2.455E-01   -2.371E-01   -2.288E-01   -2.205E-01   -2.121E-01   -2.038E-01   -1.954E-01   -1.871E-01   -1.787E-01
    -1.704E-01   -1.620E-01   -1.537E-01   -1.453E-01   -1.370E-01   -1.287E-01   -1.203E-01   -1.120E-01   -1.036E-01   -9.528E-02
    -8.694E-02   -7.859E-02   -7.025E-02   -6.190E-02   -5.356E-02   -4.521E-02   -3.687E-02   -2.852E-02   -2.018E-02   -1.183E-02
    -3.488E-03    4.857E-03    1.320E-02    2.155E-02    2.989E-02    3.823E-02    4.658E-02    5.492E-02    6.327E-02    7.161E-02
     7.996E-02    8.830E-02    9.665E-02    1.050E-01    1.133E-01    1.217E-01    1.300E-01    1.384E-01    1.467E-01    1.551E-01
     1.634E-01    1.717E-01    1.801E-01    1.884E-01    1.968E-01    2.051E-01    2.135E-01    2.218E-01    2.302E-01    2.385E-01
     2.468E-01    2.552E-01    2.635E-01    2.719E-01    2.802E-01    2.886E-01    2.969E-01    3.053E-01    3.136E-01    3.219E-01
     3.303E-01    3.386E-01    3.470E-01    3.553E-01    3.637E-01    3.720E-01    3.804E-01    3.887E-01    3.970E-01    4.054E-01
     4.137E-01    4.221E-01    4.304E-01    4.388E-01    4.471E-01    4.554E-01    4.638E-01    4.721E-01    4.805E-01    4.888E-01
     4.972E-01    5.055E-01    5.139E-01    5.222E-01    5.305E-01    5.389E-01    5.472E-01    5.556E-01    5.639E-01    5.723E-01
     5.806E-01    5.889E-01    5.973E-01    6.056E-01    6.140E-01    6.223E-01    6.307E-01    6.390E-01    6.474E-01    6.557E-01
     6.640E-01    6.724E-01    6.807E-01    6.891E-01    6.974E-01    7.058E-01    7.141E-01    7.224E-01    7.308E-01    7.391E-01
     7.475E-01    7.558E-01    7.642E-01    7.725E-01    7.809E-01    7.892E-01    7.975E-01    8.059E-01    8.142E-01    8.226E-01
     8.309E-01    8.393E-01    8.476E-01    8.559E-01    8.643E-01    8.726E-01    8.810E-01    8.893E-01    8.977E-01    9.060E-01
     9.143E-01    9.227E-01    9.310E-01    9.394E-01    9.477E-01    9.561E-01    9.644E-01    9.727E-01    9.811E-01    9.894E-01
     9.978E-01    1.006E+00    1.014E+00    1.023E+00    1.031E+00    1.039E+00    1.048E+00    1.056E+00    1.065E+00    1.073E+00
     1.081E+00    1.090E+00    1.098E+00    1.106E+00    1.115E+00    1.123E+00    1.131E+00    1.140E+00    1.148E+00    1.156E+00
     1.165E+00    1.173E+00    1.181E+00    1.190E+00    1.198E+00    1.206E+00    1.215E+00    1.223E+00    1.231E+00    1.240E+00
     1.248E+00    1.256E+00    1.265E+00    1.273E+00    1.281E+00    1.290E+00    1.298E+00    1.306E+00    1.315E+00    1.323E+00
     1.332E+00    1.340E+00    1.348E+00    1.357E+00    1.365E+00    1.373E+00    1.382E+00    1.390E+00    1.398E+00    1.407E+00
     1.415E+00    1.423E+00    1.432E+00    1.440E+00    1.448E+00    1.457E+00    1.465E+00    1.473E+00    1.482E+00    1.490E+00
     1.498E+00    1.507E+00    1.515E+00    1.523E+00    1.532E+00    1.540E+00    1.548E+00    1.557E+00    1.565E+00    1.573E+00
     1.582E+00    1.590E+00    1.598E+00    1.607E+00    1.615E+00    1.623E+00    1.632E+00    1.640E+00    1.649E+00    1.657E+00
     1.665E+00    1.674E+00    1.682E+00    1.690E+00    1.699E+00    1.707E+00    1.715E+00    1.724E+00    1.732E+00    1.740E+00
     1.749E+00    1.757E+00    1.765E+00    1.774E+00    1.782E+00    1.790E+00    1.799E+00    1.807E+00    1.815E+00    1.824E+00
     1.832E+00    1.840E+00    1.849E+00    1.857E+00    1.865E+00    1.874E+00    1.882E+00    1.890E+00    1.899E+00    1.907E+00
     1.915E+00    1.924E+00    1.932E+00    1.941E+00    1.949E+00    1.957E+00    1.966E+00    1.974E+00    1.982E+00    1.991E+00
     1.999E+00    2.007E+00    2.016E+00    2.024E+00    2.032E+00    2.041E+00    2.049E+00    2.057E+00    2.066E+00    2.074E+00
     2.082E+00    2.091E+00    2.099E+00    2.107E+00    2.116E+00    2.124E+00    2.132E+00    2.141E+00    2.149E+00    2.157E+00
     2.166E+00    2.174E+00    2.182E+00    2.191E+00    2.199E+00    2.207E+00    2.216E+00    2.224E+00    2.232E+00    2.241E+00
     2.249E+00    2.258E+00    2.266E+00    2.274E+00    2.283E+00    2.291E+00    2.299E+00    2.308E+00    2.316E+00    2.324E+00
     2.333E+00    2.341E+00    2.349E+00    2.358E+00    2.366E+00    2.374E+00    2.383E+00    2.391E+00    2.399E+00    2.408E+00
     2.416E+00    2.424E+00    2.433E+00    2.441E+00    2.449E+00    2.458E+00    2.466E+00    2.474E+00    2.483E+00    2.491E+00
     2.499E+00    2.508E+00    2.516E+00    2.524E+00    2.533E+00    2.541E+00    2.549E+00    2.558E+00
 Ala      Conc. = 8.38E+00
