 LCModel (Version 6.3-1L) Copyright: S.W. Provencher.          Ref.: Magn. Reson. Med. 30:672-679 (1993).                
 Slice#1 Row#1 Col#8  PD_24_press_1_raw_act
 36 lines in following concentration table = NCONC+1
    Conc.  %SD /Cr+PCr  Metabolite                                         
    3.488 412% 9.9E-02 Ala                                                 
    4.844  82%   0.138 Asp                                                 
   35.164  51%   1.000 Cr                                                  
    0.000 999%   0.000 PCr                                                 
    3.094  77% 8.8E-02 GABA                                                
    2.818  84% 8.0E-02 Glc                                                 
   11.282 242%   0.321 Gln                                                 
   48.160  78%   1.370 Glu                                                 
    0.000 999%   0.000 GPC                                                 
    5.670  79%   0.161 PCh                                                 
    0.927 999% 2.6E-02 GSH                                                 
   12.774 284%   0.363 Ins                                                 
    3.685 398%   0.105 Lac                                                 
   18.006  80%   0.512 NAA                                                 
   27.290  55%   0.776 NAAG                                                
    0.923  86% 2.6E-02 Scyllo                                              
    4.590  86%   0.131 Tau                                                 
    4.851 105%   0.138 -CrCH2                                              
    5.670  79%   0.161 GPC+PCh                                             
   45.296  56%   1.288 NAA+NAAG                                            
   35.164  51%   1.000 Cr+PCr                                              
   59.441  75%   1.690 Glu+Gln                                             
    0.000 999%   0.000 Lip13a                                              
    0.000 999%   0.000 Lip13b                                              
 1.04E-03 999% 3.0E-05 Lip09                                               
  652.845  13%  18.566 MM09                                                
 1.66E-04 999% 4.7E-06 Lip20                                               
  723.876  21%  20.586 MM20                                                
    0.000 999%   0.000 MM12                                                
  598.726  21%  17.027 MM14                                                
  417.804  30%  11.881 MM17                                                
    0.000 999%   0.000 Lip13a+Lip13b                                       
  598.726  21%  17.027 MM14+Lip13a+Lip13b+MM12                             
  652.846  13%  18.566 MM09+Lip09                                          
  723.876  21%  20.586 MM20+Lip20                                          
   6 lines in following misc. output table
  FWHM = 0.031 ppm    S/N =   1                                            
  Data shift =-0.008 ppm                                                   
  Ph: -26 deg      31.4 deg/ppm                                            
  alphaB,S = 8.5E+01,   3.2E+00                                            
   14 spline knots.   Ns = 5(1)                                            
   2 inflections.     2 extrema                                            
  498 points on ppm-axis = NY
      4.000000     3.992357     3.984714     3.977070     3.969427     3.961784     3.954141     3.946497     3.938854     3.931211
      3.923568     3.915925     3.908281     3.900638     3.892995     3.885352     3.877708     3.870065     3.862422     3.854779
      3.847136     3.839492     3.831849     3.824206     3.816563     3.808919     3.801276     3.793633     3.785990     3.778347
      3.770703     3.763060     3.755417     3.747774     3.740130     3.732487     3.724844     3.717201     3.709558     3.701914
      3.694271     3.686628     3.678985     3.671341     3.663698     3.656055     3.648412     3.640769     3.633125     3.625482
      3.617839     3.610196     3.602552     3.594909     3.587266     3.579623     3.571980     3.564336     3.556693     3.549050
      3.541407     3.533763     3.526120     3.518477     3.510834     3.503191     3.495547     3.487904     3.480261     3.472618
      3.464974     3.457331     3.449688     3.442045     3.434402     3.426758     3.419115     3.411472     3.403829     3.396185
      3.388542     3.380899     3.373256     3.365613     3.357969     3.350326     3.342683     3.335040     3.327396     3.319753
      3.312110     3.304467     3.296824     3.289180     3.281537     3.273894     3.266251     3.258607     3.250964     3.243321
      3.235678     3.228034     3.220391     3.212748     3.205105     3.197462     3.189818     3.182175     3.174532     3.166889
      3.159245     3.151602     3.143959     3.136316     3.128673     3.121029     3.113386     3.105743     3.098100     3.090456
      3.082813     3.075170     3.067527     3.059884     3.052240     3.044597     3.036954     3.029311     3.021667     3.014024
      3.006381     2.998738     2.991095     2.983451     2.975808     2.968165     2.960522     2.952878     2.945235     2.937592
      2.929949     2.922306     2.914662     2.907019     2.899376     2.891733     2.884089     2.876446     2.868803     2.861160
      2.853517     2.845873     2.838230     2.830587     2.822944     2.815300     2.807657     2.800014     2.792371     2.784728
      2.777084     2.769441     2.761798     2.754155     2.746511     2.738868     2.731225     2.723582     2.715939     2.708295
      2.700652     2.693009     2.685366     2.677722     2.670079     2.662436     2.654793     2.647150     2.639506     2.631863
      2.624220     2.616577     2.608933     2.601290     2.593647     2.586004     2.578361     2.570717     2.563074     2.555431
      2.547788     2.540144     2.532501     2.524858     2.517215     2.509572     2.501928     2.494285     2.486642     2.478999
      2.471355     2.463712     2.456069     2.448426     2.440783     2.433139     2.425496     2.417853     2.410210     2.402566
      2.394923     2.387280     2.379637     2.371994     2.364350     2.356707     2.349064     2.341421     2.333777     2.326134
      2.318491     2.310848     2.303205     2.295561     2.287918     2.280275     2.272632     2.264988     2.257345     2.249702
      2.242059     2.234416     2.226772     2.219129     2.211486     2.203843     2.196199     2.188556     2.180913     2.173270
      2.165627     2.157983     2.150340     2.142697     2.135054     2.127410     2.119767     2.112124     2.104481     2.096838
      2.089194     2.081551     2.073908     2.066265     2.058621     2.050978     2.043335     2.035692     2.028049     2.020405
      2.012762     2.005119     1.997476     1.989833     1.982190     1.974546     1.966903     1.959260     1.951617     1.943974
      1.936331     1.928688     1.921045     1.913402     1.905759     1.898115     1.890472     1.882829     1.875186     1.867543
      1.859900     1.852257     1.844614     1.836971     1.829327     1.821684     1.814041     1.806398     1.798755     1.791112
      1.783469     1.775826     1.768183     1.760540     1.752896     1.745253     1.737610     1.729967     1.722324     1.714681
      1.707038     1.699395     1.691752     1.684108     1.676465     1.668822     1.661179     1.653536     1.645893     1.638250
      1.630607     1.622964     1.615321     1.607677     1.600034     1.592391     1.584748     1.577105     1.569462     1.561819
      1.554176     1.546533     1.538890     1.531246     1.523603     1.515960     1.508317     1.500674     1.493031     1.485388
      1.477745     1.470102     1.462458     1.454815     1.447172     1.439529     1.431886     1.424243     1.416600     1.408957
      1.401314     1.393671     1.386027     1.378384     1.370741     1.363098     1.355455     1.347812     1.340169     1.332526
      1.324883     1.317240     1.309596     1.301953     1.294310     1.286667     1.279024     1.271381     1.263738     1.256095
      1.248452     1.240808     1.233165     1.225522     1.217879     1.210236     1.202593     1.194950     1.187307     1.179664
      1.172021     1.164377     1.156734     1.149091     1.141448     1.133805     1.126162     1.118519     1.110876     1.103233
      1.095590     1.087946     1.080303     1.072660     1.065017     1.057374     1.049731     1.042088     1.034445     1.026802
      1.019158     1.011515     1.003872     0.996229     0.988586     0.980943     0.973300     0.965657     0.958014     0.950371
      0.942727     0.935084     0.927441     0.919798     0.912155     0.904512     0.896869     0.889226     0.881583     0.873940
      0.866296     0.858653     0.851010     0.843367     0.835724     0.828081     0.820438     0.812795     0.805152     0.797508
      0.789865     0.782222     0.774579     0.766936     0.759293     0.751650     0.744007     0.736364     0.728721     0.721077
      0.713434     0.705791     0.698148     0.690505     0.682862     0.675219     0.667576     0.659933     0.652290     0.644646
      0.637003     0.629360     0.621717     0.614074     0.606431     0.598788     0.591145     0.583502     0.575858     0.568215
      0.560572     0.552929     0.545286     0.537643     0.530000     0.522357     0.514714     0.507071     0.499427     0.491784
      0.484141     0.476498     0.468855     0.461212     0.453569     0.445925     0.438282     0.430639     0.422996     0.415353
      0.407710     0.400067     0.392424     0.384780     0.377137     0.369494     0.361851     0.354208     0.346565     0.338922
      0.331278     0.323635     0.315992     0.308349     0.300706     0.293063     0.285420     0.277777     0.270133     0.262490
      0.254847     0.247204     0.239561     0.231918     0.224275     0.216631     0.208988     0.201345
 NY phased data points follow
  -1.44481E+00 -3.31374E+00  3.46787E-01 -2.33005E+00 -4.57191E-01 -1.04484E+00 -2.78703E+00 -3.55267E+00 -3.43101E+00 -5.94371E+00
  -8.41142E-01  6.50563E-01 -4.81195E-01  2.29170E+00  1.84116E+00 -1.76980E+00 -2.15741E+00 -5.15182E+00  2.16631E+00 -2.78659E+00
  -1.33602E-01 -5.01716E-01 -3.83721E+00 -7.70138E-01  4.61260E+00 -4.15304E+00  9.46577E-01 -1.80297E+00  9.89868E-02 -5.86991E+00
  -8.73245E-01 -4.65490E+00  1.39141E+00 -3.08266E+00 -5.22817E-01  2.25803E-01 -2.43802E+00 -2.77504E+00 -2.80756E+00 -2.42325E+00
   1.55316E+00 -2.48498E+00 -1.40715E+00 -1.03600E+00 -8.21357E-01 -2.20465E+00  1.88056E+00 -5.02571E-01  4.60259E-01 -6.84893E-01
  -9.95173E-01  1.60921E+00  3.13276E+00  4.42650E-01  9.52706E-02 -8.42334E-02 -2.57884E+00  4.30585E+00  1.95223E+00 -2.00591E+00
   2.65891E+00  1.60055E+00  2.00940E-02 -9.43925E-01 -1.97574E+00  1.24918E-01  2.11741E-01 -3.15041E+00  1.99904E+00 -2.60949E-01
  -2.11185E+00 -4.91431E-01  1.22245E+00 -2.16101E+00 -1.44575E-02 -1.97630E-01 -9.61040E-01 -3.39450E+00 -4.08975E+00  2.19765E-01
  -6.22007E-01 -2.50587E+00  1.50868E+00 -3.02151E+00 -2.32499E+00 -2.38237E+00 -3.43523E+00 -2.79689E+00  9.08601E-01 -2.21596E+00
   1.28420E+00  1.11743E+00  2.70620E-01  1.62714E+00  8.99440E-01 -1.13249E+00 -1.32781E+00 -1.80514E+00 -7.65625E-02  1.98187E-01
  -3.82616E+00 -4.20582E+00 -1.92461E+00  1.00837E+00  1.11148E-01  1.58696E+00  3.12500E-01 -1.12134E+00  2.57154E-01 -1.54661E+00
  -4.40303E-01 -3.92017E+00  1.47757E+00  1.02737E+00  7.24833E-01  4.37738E+00  5.04577E-01  7.13539E-01 -3.94603E+00 -2.70112E+00
  -1.28124E+00 -3.20791E+00 -2.49587E+00 -2.96442E+00  9.58720E-01 -1.63192E+00  1.32183E+00  1.24871E-01  3.94166E+00  3.84537E+00
   3.07696E+00  4.35358E-01  1.03260E+00 -2.77583E+00  2.82684E+00  1.88972E+00  1.20338E+00 -6.26230E-01 -4.19292E+00 -1.52539E+00
   2.16750E+00  6.49591E-01  2.55797E+00  4.30286E-01 -1.58562E-01  1.69786E+00  2.77965E-01 -1.06194E+00 -2.17868E+00  1.54901E+00
   3.57503E+00 -1.44732E+00 -1.24756E+00 -6.39009E-01  1.96787E+00 -4.87326E+00  1.08719E+00  1.45617E+00 -1.27870E+00  3.08059E-01
  -1.23356E+00 -1.56830E+00 -7.03405E-02 -2.02536E+00 -1.49194E+00  1.78753E+00  1.60685E-01  7.18125E-01 -1.83998E+00 -1.56830E+00
   2.99945E-01  1.12704E-01 -1.25625E+00 -2.73922E+00  1.34295E+00 -1.35348E+00  6.13718E-01  4.87235E-01 -1.42383E+00 -2.91901E+00
   2.98798E+00 -2.84598E+00 -2.58459E+00  2.55730E+00 -2.46753E+00 -1.12163E+00 -1.59080E+00  3.31380E-01 -5.98583E-01  3.29828E-01
   3.67128E+00  8.81361E-01 -9.02565E-02  1.22226E+00 -1.10690E+00 -3.99407E+00  1.79036E+00 -7.80198E-01 -1.65616E+00 -4.16943E-01
   1.48344E+00 -8.25218E-01  4.84285E+00  1.10096E+00 -3.25538E+00  4.98801E-01 -7.82395E-01 -6.28532E-01  1.41291E+00  2.17943E+00
  -9.49160E-01 -1.20962E+00 -1.23179E+00 -2.04850E+00 -1.81238E-01 -3.47615E-01  3.48192E+00  3.04266E+00  2.66928E+00  2.07097E+00
   5.62027E-01 -1.07204E+00  1.00506E+00 -8.19321E-01  4.64318E+00  3.42144E+00  2.18617E+00  4.02530E-02  3.80979E+00  1.41921E+00
   1.22502E+00  1.30360E-01  2.10317E+00 -1.62697E+00 -5.29037E-01  8.02577E-01  1.35436E+00  3.15112E+00  1.14517E-01  9.52354E-01
   9.52807E-01 -4.85851E-01  1.32722E+00  6.88929E-01  3.43357E+00  9.86905E-01  4.78232E+00  9.27260E-01  3.24441E+00 -1.19286E+00
   1.30868E+00  8.24768E-01  2.18900E+00 -1.37638E+00  4.45062E+00  2.16831E+00  4.91630E+00  3.17647E+00  4.46425E+00  3.82737E+00
   2.28628E+00  5.69477E+00  2.86364E+00  2.66285E+00  4.15280E+00 -3.47213E-02  2.78339E+00  2.30288E+00  1.57247E+00  3.99065E-01
   2.10799E+00  9.21933E-01 -3.95756E-02 -7.50817E-01 -6.79350E-01 -2.44017E+00  2.57995E+00  2.98744E+00 -1.13092E-01  1.08479E-01
   1.99925E+00 -2.40423E-01 -2.08125E+00  1.10432E+00  3.47464E+00 -1.15843E+00  1.63458E+00  3.38714E+00  2.73639E+00  9.23458E-01
   1.81461E+00 -1.78073E-01  1.98995E+00  3.76356E-01 -3.43375E-01  1.71113E+00  4.06465E+00  6.48419E-01  2.42971E+00  2.76027E+00
  -5.34802E-01  6.71424E-01  7.74410E-01 -1.25855E+00  1.36509E+00  3.51331E+00  5.52750E+00  9.70275E-01  4.11049E+00 -8.23983E-02
   3.77405E+00  7.17447E+00  2.65225E+00  7.94147E-01  3.32381E+00  2.33892E+00  3.66728E+00  1.84969E+00  2.30832E+00  3.06483E+00
   3.14341E+00  5.15279E+00  6.60293E+00  1.70048E-01  3.05739E+00  2.87132E+00  1.22644E+00  4.07378E+00  2.34144E+00  2.89812E+00
   7.27740E+00  1.88741E+00  1.84636E+00  3.61698E+00  5.13694E+00  5.91632E+00  5.15444E+00  2.40248E+00  4.99119E+00  5.97824E+00
   5.80562E+00  3.00375E+00  2.73762E+00  4.64004E+00  2.33759E+00  9.17638E-01  1.89133E+00 -5.83910E-01  2.23025E+00 -1.76566E+00
  -1.86906E-01 -1.91207E+00 -2.42716E+00 -2.88757E+00 -4.21605E+00  4.27534E-01  1.65803E-01 -5.93260E-01 -5.49609E+00 -3.78614E+00
  -1.58070E+00 -5.99695E-01 -2.93679E+00 -5.08944E+00 -7.44345E+00 -2.08300E+00 -1.75877E+00 -3.02707E+00 -4.36884E+00 -2.88298E+00
  -3.67934E+00 -4.88244E+00 -2.09387E+00 -3.82725E+00 -5.40096E-01 -6.05818E+00  9.45404E-01  1.58744E-02 -1.13282E-01 -3.47284E-01
  -1.44112E+00  1.07225E+00  2.04087E-01  2.17513E+00  2.54195E+00  6.34261E-02  3.84108E+00  4.21941E+00  3.13475E+00  5.95840E+00
   4.16011E+00  7.80311E+00  4.15820E+00  3.77641E+00  4.36943E+00  5.57689E+00  3.22182E+00  3.31853E+00  8.59104E+00  3.74329E+00
   5.69690E+00  4.05869E+00  2.77023E+00  6.10163E+00  7.75136E+00  3.45395E+00  4.35249E+00  2.49195E+00  3.71745E+00  4.81837E+00
   5.59045E+00  4.17615E+00  1.02493E+00  5.75838E+00  3.50633E-01  2.59634E+00  6.41041E+00  2.63238E+00  8.72338E-01  9.36479E-01
   4.40911E+00  1.39277E+00  6.50143E+00  3.06476E+00 -1.07849E+00  3.95176E+00  5.71286E+00  1.07599E+00  3.27882E+00  1.72462E+00
  -1.00624E+00  2.87493E+00  6.14806E-02 -1.42858E+00  2.84823E+00 -5.96335E-01  2.21117E+00  3.59997E+00  2.31136E+00  5.01706E+00
   8.39617E-01 -1.57682E-01 -4.53549E-01  6.24241E-01  1.77054E+00  1.14942E+00 -2.66087E+00 -1.33528E+00 -1.92369E+00 -1.36882E+00
  -1.90751E+00 -1.63189E+00 -1.29583E+00 -2.83974E-01  2.35332E+00  6.75745E-01 -2.88077E+00  2.32285E+00  1.84280E+00  2.02815E+00
  -1.28840E+00  2.48493E+00  3.02172E+00 -4.37608E-01  7.43092E-01  2.53336E+00 -7.53090E-01 -2.25309E+00  1.86353E+00 -2.66463E+00
  -9.84239E-01  8.62008E-01  4.81614E-02 -7.88024E-01 -1.10431E+00  1.97687E+00  1.30615E+00  6.92211E-01 -8.31865E-01 -1.65351E+00
   2.27522E+00 -1.58484E-01  1.26349E+00 -2.22741E+00  1.17960E+00 -2.90002E-01  3.59991E+00 -1.94101E+00  2.94467E-01  1.96848E+00
   1.50226E+00  5.74119E-01 -1.01768E+00  1.24254E+00  1.90310E+00  8.08148E-01  1.63896E+00 -1.33099E-02
 NY points of the fit to the data follow
  -1.02831E+00 -1.04347E+00 -1.04102E+00 -1.01045E+00 -9.47636E-01 -9.80744E-01 -1.39820E+00 -2.07423E+00 -2.36738E+00 -1.91584E+00
  -8.31301E-01  4.13263E-01  1.29433E+00  1.44405E+00  8.39578E-01 -1.16514E-01 -8.45834E-01 -1.08970E+00 -1.09368E+00 -1.11494E+00
  -1.13273E+00 -1.11496E+00 -1.01385E+00 -8.24816E-01 -6.45847E-01 -5.89657E-01 -7.08675E-01 -9.98459E-01 -1.35343E+00 -1.59479E+00
  -1.54171E+00 -1.17635E+00 -6.71028E-01 -2.59270E-01 -1.13749E-01 -2.90764E-01 -6.85426E-01 -1.08795E+00 -1.30182E+00 -1.28841E+00
  -1.12785E+00 -9.51442E-01 -8.69194E-01 -9.08887E-01 -9.82293E-01 -9.68397E-01 -8.37845E-01 -6.69909E-01 -5.56638E-01 -5.52547E-01
  -6.53645E-01 -8.06729E-01 -9.29507E-01 -9.69249E-01 -9.54029E-01 -9.37458E-01 -9.33494E-01 -9.25495E-01 -8.91799E-01 -8.33399E-01
  -7.71029E-01 -7.31037E-01 -7.32787E-01 -7.71484E-01 -8.26152E-01 -8.61236E-01 -8.65296E-01 -8.54109E-01 -8.39395E-01 -8.26278E-01
  -8.22227E-01 -8.26420E-01 -8.17475E-01 -7.82691E-01 -7.30102E-01 -6.78707E-01 -6.52744E-01 -6.64209E-01 -7.08463E-01 -7.68171E-01
  -8.16131E-01 -8.46525E-01 -8.47129E-01 -8.00455E-01 -7.13104E-01 -6.23565E-01 -5.73089E-01 -5.80105E-01 -6.33276E-01 -7.03288E-01
  -7.52301E-01 -7.58285E-01 -7.30740E-01 -7.12130E-01 -7.22218E-01 -7.35751E-01 -7.37460E-01 -7.51890E-01 -9.16058E-01 -1.29046E+00
  -1.48962E+00 -1.22437E+00 -5.04345E-01  3.71318E-01  1.04800E+00  1.25548E+00  9.33673E-01  2.95676E-01 -2.75793E-01 -5.13962E-01
  -4.97468E-01 -4.66970E-01 -4.45851E-01 -4.22349E-01 -3.94800E-01 -3.65336E-01 -3.37983E-01 -3.17195E-01 -3.03331E-01 -3.01126E-01
  -3.30253E-01 -4.93013E-01 -1.12239E+00 -1.90297E+00 -1.97468E+00 -9.68418E-01  8.00083E-01  2.58944E+00  3.67536E+00  3.64167E+00
   2.59328E+00  1.16260E+00  1.42583E-01 -1.52046E-01 -1.42595E-01 -1.72358E-01 -2.10283E-01 -2.36070E-01 -2.46197E-01 -2.47910E-01
  -2.52166E-01 -2.67366E-01 -2.89535E-01 -3.11076E-01 -3.25191E-01 -3.30809E-01 -3.36191E-01 -3.50260E-01 -3.74088E-01 -3.92578E-01
  -3.99884E-01 -4.12159E-01 -4.44174E-01 -5.01284E-01 -5.67236E-01 -5.97605E-01 -5.68632E-01 -5.00886E-01 -4.42946E-01 -4.36208E-01
  -4.91831E-01 -5.71074E-01 -6.28005E-01 -6.36535E-01 -5.96635E-01 -5.36437E-01 -5.12110E-01 -5.44920E-01 -6.08859E-01 -6.61158E-01
  -6.61107E-01 -5.99583E-01 -5.21226E-01 -4.80449E-01 -5.01686E-01 -5.65991E-01 -6.17633E-01 -6.10194E-01 -5.55886E-01 -5.21400E-01
  -5.43233E-01 -6.04416E-01 -6.47048E-01 -6.33693E-01 -5.74588E-01 -5.03342E-01 -4.53141E-01 -4.40937E-01 -4.33672E-01 -3.86329E-01
  -3.00326E-01 -2.23382E-01 -1.96494E-01 -2.20179E-01 -2.79595E-01 -3.59938E-01 -4.31540E-01 -4.67405E-01 -4.59756E-01 -4.19874E-01
  -3.54179E-01 -2.60168E-01 -1.24339E-01  2.96630E-02  1.90876E-01  3.42456E-01  3.92374E-01  2.56392E-01 -4.36394E-02 -4.20711E-01
  -7.69796E-01 -1.00906E+00 -9.39389E-01 -5.01180E-01  1.76652E-01  8.34190E-01  1.29612E+00  1.50953E+00  1.38821E+00  8.82710E-01
   1.69503E-01 -4.52750E-01 -7.94449E-01 -8.06215E-01 -4.77289E-01  8.19108E-02  6.64362E-01  1.05180E+00  1.17158E+00  1.12739E+00
   1.03102E+00  9.44284E-01  9.12498E-01  9.66879E-01  1.08694E+00  1.24754E+00  1.39991E+00  1.53775E+00  1.68339E+00  1.78159E+00
   1.79654E+00  1.75866E+00  1.72750E+00  1.75498E+00  1.88085E+00  2.10165E+00  2.34499E+00  2.49677E+00  2.47799E+00  2.31961E+00
   1.99576E+00  1.33172E+00  8.23999E-01  1.05853E+00  2.07222E+00  3.22343E+00  3.93691E+00  4.20116E+00  4.13272E+00  3.89120E+00
   3.71961E+00  3.77076E+00  3.79918E+00  3.34793E+00  2.53788E+00  1.83320E+00  1.48917E+00  1.35849E+00  1.22133E+00  1.07981E+00
   9.50376E-01  8.50705E-01  8.10406E-01  8.21206E-01  8.43618E-01  8.44811E-01  8.08672E-01  7.37500E-01  6.47540E-01  5.64831E-01
   5.10624E-01  4.86073E-01  4.84566E-01  5.00776E-01  5.30935E-01  5.67641E-01  6.02829E-01  6.31033E-01  6.58422E-01  6.96092E-01
   7.52477E-01  8.32131E-01  9.35445E-01  1.05609E+00  1.18718E+00  1.31833E+00  1.44227E+00  1.56029E+00  1.67708E+00  1.79323E+00
   1.90925E+00  2.02543E+00  2.13894E+00  2.24356E+00  2.33237E+00  2.40198E+00  2.45364E+00  2.48833E+00  2.50738E+00  2.51316E+00
   2.50832E+00  2.49609E+00  2.48026E+00  2.46498E+00  2.45461E+00  2.45349E+00  2.46565E+00  2.49455E+00  2.54271E+00  2.61128E+00
   2.69958E+00  2.80342E+00  2.91711E+00  3.06668E+00  3.27386E+00  3.51752E+00  3.75259E+00  3.93803E+00  4.05618E+00  4.11306E+00
   4.11200E+00  4.06889E+00  4.02843E+00  4.01355E+00  4.01330E+00  4.01312E+00  3.99463E+00  3.92443E+00  3.77564E+00  3.54775E+00
   3.27223E+00  2.98733E+00  2.69978E+00  2.43104E+00  2.21628E+00  2.04650E+00  1.88438E+00  1.69341E+00  1.46070E+00  1.19442E+00
   8.98838E-01  6.15107E-01  4.05132E-01  2.95274E-01  2.62736E-01  2.79191E-01  3.18092E-01  3.41534E-01  3.23224E-01  2.67880E-01
   2.08826E-01  1.76398E-01  1.64337E-01  1.60517E-01  1.62792E-01  1.70085E-01  1.81622E-01  1.96927E-01  2.15722E-01  2.37913E-01
   2.63526E-01  2.92729E-01  3.25792E-01  3.63134E-01  4.05280E-01  4.52898E-01  5.06760E-01  5.67783E-01  6.36995E-01  7.15574E-01
   8.04790E-01  9.06014E-01  1.02064E+00  1.15005E+00  1.29556E+00  1.45832E+00  1.63916E+00  1.83858E+00  2.05650E+00  2.29219E+00
   2.54419E+00  2.81017E+00  3.08688E+00  3.37018E+00  3.65499E+00  3.93553E+00  4.20539E+00  4.45783E+00  4.68601E+00  4.88339E+00
   5.04393E+00  5.16256E+00  5.23535E+00  5.25985E+00  5.23510E+00  5.16183E+00  5.04231E+00  4.88030E+00  4.68079E+00  4.44976E+00
   4.19381E+00  3.91988E+00  3.63487E+00  3.34540E+00  3.05748E+00  2.77641E+00  2.50658E+00  2.25142E+00  2.01343E+00  1.79423E+00
   1.59458E+00  1.41460E+00  1.25381E+00  1.11129E+00  9.85837E-01  8.76045E-01  7.80403E-01  6.97398E-01  6.25532E-01  5.63417E-01
   5.09758E-01  4.63411E-01  4.23339E-01  3.88652E-01  3.58557E-01  3.32400E-01  3.09602E-01  2.89697E-01  2.72268E-01  2.56982E-01
   2.43537E-01  2.31702E-01  2.21264E-01  2.12062E-01  2.03936E-01  1.96768E-01  1.90435E-01  1.84860E-01  1.79952E-01  1.75656E-01
   1.71895E-01  1.68626E-01  1.65788E-01  1.63357E-01  1.61286E-01  1.59557E-01  1.58124E-01  1.56972E-01  1.56066E-01  1.55401E-01
   1.54946E-01  1.54697E-01  1.54622E-01  1.54720E-01  1.54967E-01  1.55370E-01  1.55904E-01  1.56571E-01  1.57344E-01  1.58229E-01
   1.59209E-01  1.60294E-01  1.61464E-01  1.62722E-01  1.64048E-01  1.65453E-01  1.66923E-01  1.68468E-01  1.70068E-01  1.71728E-01
   1.73431E-01  1.75192E-01  1.76998E-01  1.78858E-01  1.80754E-01  1.82693E-01  1.84661E-01  1.86674E-01  1.88719E-01  1.90805E-01
   1.92913E-01  1.95052E-01  1.97210E-01  1.99405E-01  2.01624E-01  2.03874E-01  2.06134E-01  2.08419E-01
 NY background values follow
    -1.208E+00   -1.205E+00   -1.202E+00   -1.200E+00   -1.197E+00   -1.194E+00   -1.191E+00   -1.189E+00   -1.186E+00   -1.183E+00
    -1.181E+00   -1.178E+00   -1.175E+00   -1.173E+00   -1.170E+00   -1.167E+00   -1.164E+00   -1.162E+00   -1.159E+00   -1.156E+00
    -1.154E+00   -1.151E+00   -1.148E+00   -1.145E+00   -1.143E+00   -1.140E+00   -1.137E+00   -1.135E+00   -1.132E+00   -1.129E+00
    -1.126E+00   -1.124E+00   -1.121E+00   -1.118E+00   -1.116E+00   -1.113E+00   -1.110E+00   -1.107E+00   -1.105E+00   -1.102E+00
    -1.099E+00   -1.097E+00   -1.094E+00   -1.091E+00   -1.088E+00   -1.086E+00   -1.083E+00   -1.080E+00   -1.078E+00   -1.075E+00
    -1.072E+00   -1.069E+00   -1.067E+00   -1.064E+00   -1.061E+00   -1.058E+00   -1.056E+00   -1.053E+00   -1.050E+00   -1.048E+00
    -1.045E+00   -1.042E+00   -1.039E+00   -1.037E+00   -1.034E+00   -1.031E+00   -1.028E+00   -1.026E+00   -1.023E+00   -1.020E+00
    -1.018E+00   -1.015E+00   -1.012E+00   -1.009E+00   -1.007E+00   -1.004E+00   -1.001E+00   -9.985E-01   -9.957E-01   -9.930E-01
    -9.903E-01   -9.875E-01   -9.848E-01   -9.821E-01   -9.793E-01   -9.766E-01   -9.739E-01   -9.711E-01   -9.684E-01   -9.657E-01
    -9.629E-01   -9.602E-01   -9.574E-01   -9.547E-01   -9.520E-01   -9.492E-01   -9.465E-01   -9.438E-01   -9.410E-01   -9.383E-01
    -9.355E-01   -9.328E-01   -9.301E-01   -9.273E-01   -9.246E-01   -9.218E-01   -9.191E-01   -9.164E-01   -9.136E-01   -9.109E-01
    -9.081E-01   -9.054E-01   -9.026E-01   -8.999E-01   -8.972E-01   -8.944E-01   -8.917E-01   -8.889E-01   -8.862E-01   -8.834E-01
    -8.807E-01   -8.779E-01   -8.752E-01   -8.724E-01   -8.697E-01   -8.669E-01   -8.642E-01   -8.614E-01   -8.587E-01   -8.559E-01
    -8.532E-01   -8.504E-01   -8.477E-01   -8.449E-01   -8.422E-01   -8.394E-01   -8.367E-01   -8.339E-01   -8.312E-01   -8.284E-01
    -8.257E-01   -8.229E-01   -8.202E-01   -8.174E-01   -8.147E-01   -8.119E-01   -8.092E-01   -8.064E-01   -8.037E-01   -8.009E-01
    -7.981E-01   -7.954E-01   -7.926E-01   -7.899E-01   -7.871E-01   -7.844E-01   -7.816E-01   -7.788E-01   -7.761E-01   -7.733E-01
    -7.706E-01   -7.678E-01   -7.651E-01   -7.623E-01   -7.595E-01   -7.568E-01   -7.540E-01   -7.513E-01   -7.485E-01   -7.457E-01
    -7.430E-01   -7.402E-01   -7.374E-01   -7.347E-01   -7.319E-01   -7.292E-01   -7.264E-01   -7.236E-01   -7.209E-01   -7.181E-01
    -7.153E-01   -7.126E-01   -7.098E-01   -7.070E-01   -7.043E-01   -7.015E-01   -6.987E-01   -6.960E-01   -6.932E-01   -6.904E-01
    -6.877E-01   -6.849E-01   -6.821E-01   -6.794E-01   -6.766E-01   -6.738E-01   -6.711E-01   -6.683E-01   -6.655E-01   -6.628E-01
    -6.600E-01   -6.572E-01   -6.545E-01   -6.517E-01   -6.489E-01   -6.461E-01   -6.434E-01   -6.406E-01   -6.378E-01   -6.351E-01
    -6.323E-01   -6.295E-01   -6.267E-01   -6.240E-01   -6.212E-01   -6.184E-01   -6.157E-01   -6.129E-01   -6.101E-01   -6.073E-01
    -6.046E-01   -6.018E-01   -5.990E-01   -5.962E-01   -5.935E-01   -5.907E-01   -5.879E-01   -5.851E-01   -5.824E-01   -5.796E-01
    -5.768E-01   -5.740E-01   -5.712E-01   -5.685E-01   -5.657E-01   -5.629E-01   -5.601E-01   -5.574E-01   -5.546E-01   -5.518E-01
    -5.490E-01   -5.462E-01   -5.435E-01   -5.407E-01   -5.379E-01   -5.351E-01   -5.323E-01   -5.296E-01   -5.268E-01   -5.240E-01
    -5.212E-01   -5.184E-01   -5.156E-01   -5.129E-01   -5.101E-01   -5.073E-01   -5.045E-01   -5.017E-01   -4.990E-01   -4.962E-01
    -4.934E-01   -4.906E-01   -4.878E-01   -4.850E-01   -4.823E-01   -4.795E-01   -4.767E-01   -4.739E-01   -4.711E-01   -4.683E-01
    -4.655E-01   -4.628E-01   -4.600E-01   -4.572E-01   -4.544E-01   -4.516E-01   -4.488E-01   -4.460E-01   -4.433E-01   -4.405E-01
    -4.377E-01   -4.349E-01   -4.321E-01   -4.293E-01   -4.265E-01   -4.237E-01   -4.209E-01   -4.182E-01   -4.154E-01   -4.126E-01
    -4.098E-01   -4.070E-01   -4.042E-01   -4.014E-01   -3.986E-01   -3.958E-01   -3.931E-01   -3.903E-01   -3.875E-01   -3.847E-01
    -3.819E-01   -3.791E-01   -3.763E-01   -3.735E-01   -3.707E-01   -3.679E-01   -3.651E-01   -3.623E-01   -3.596E-01   -3.568E-01
    -3.540E-01   -3.512E-01   -3.484E-01   -3.456E-01   -3.428E-01   -3.400E-01   -3.372E-01   -3.344E-01   -3.316E-01   -3.288E-01
    -3.260E-01   -3.232E-01   -3.204E-01   -3.176E-01   -3.149E-01   -3.121E-01   -3.093E-01   -3.065E-01   -3.037E-01   -3.009E-01
    -2.981E-01   -2.953E-01   -2.925E-01   -2.897E-01   -2.869E-01   -2.841E-01   -2.813E-01   -2.785E-01   -2.757E-01   -2.729E-01
    -2.701E-01   -2.673E-01   -2.645E-01   -2.617E-01   -2.589E-01   -2.561E-01   -2.533E-01   -2.505E-01   -2.477E-01   -2.449E-01
    -2.421E-01   -2.393E-01   -2.365E-01   -2.337E-01   -2.309E-01   -2.281E-01   -2.253E-01   -2.225E-01   -2.197E-01   -2.169E-01
    -2.141E-01   -2.113E-01   -2.085E-01   -2.057E-01   -2.029E-01   -2.001E-01   -1.973E-01   -1.945E-01   -1.917E-01   -1.889E-01
    -1.861E-01   -1.833E-01   -1.805E-01   -1.777E-01   -1.749E-01   -1.721E-01   -1.693E-01   -1.665E-01   -1.637E-01   -1.609E-01
    -1.581E-01   -1.553E-01   -1.525E-01   -1.497E-01   -1.469E-01   -1.441E-01   -1.413E-01   -1.385E-01   -1.357E-01   -1.329E-01
    -1.301E-01   -1.273E-01   -1.245E-01   -1.217E-01   -1.188E-01   -1.160E-01   -1.132E-01   -1.104E-01   -1.076E-01   -1.048E-01
    -1.020E-01   -9.922E-02   -9.641E-02   -9.361E-02   -9.080E-02   -8.800E-02   -8.519E-02   -8.239E-02   -7.958E-02   -7.678E-02
    -7.397E-02   -7.117E-02   -6.836E-02   -6.555E-02   -6.275E-02   -5.994E-02   -5.714E-02   -5.433E-02   -5.152E-02   -4.872E-02
    -4.591E-02   -4.310E-02   -4.030E-02   -3.749E-02   -3.469E-02   -3.188E-02   -2.907E-02   -2.627E-02   -2.346E-02   -2.065E-02
    -1.784E-02   -1.504E-02   -1.223E-02   -9.423E-03   -6.616E-03   -3.808E-03   -1.001E-03    1.807E-03    4.614E-03    7.422E-03
     1.023E-02    1.304E-02    1.584E-02    1.865E-02    2.146E-02    2.427E-02    2.708E-02    2.988E-02    3.269E-02    3.550E-02
     3.831E-02    4.112E-02    4.392E-02    4.673E-02    4.954E-02    5.235E-02    5.516E-02    5.797E-02    6.078E-02    6.358E-02
     6.639E-02    6.920E-02    7.201E-02    7.482E-02    7.763E-02    8.044E-02    8.324E-02    8.605E-02    8.886E-02    9.167E-02
     9.448E-02    9.729E-02    1.001E-01    1.029E-01    1.057E-01    1.085E-01    1.113E-01    1.141E-01    1.170E-01    1.198E-01
     1.226E-01    1.254E-01    1.282E-01    1.310E-01    1.338E-01    1.366E-01    1.394E-01    1.422E-01    1.450E-01    1.479E-01
     1.507E-01    1.535E-01    1.563E-01    1.591E-01    1.619E-01    1.647E-01    1.675E-01    1.703E-01
 Ala      Conc. = 3.49E+00
