 LCModel (Version 6.3-1L) Copyright: S.W. Provencher.          Ref.: Magn. Reson. Med. 30:672-679 (1993).                
 Slice#1 Row#14 Col#14  PD_24_press_1_raw_act
 36 lines in following concentration table = NCONC+1
    Conc.  %SD /Cr+PCr  Metabolite                                         
    0.000 999%   0.000 Ala                                                 
    7.446  66%   0.215 Asp                                                 
   17.045 136%   0.493 Cr                                                  
   17.544 135%   0.507 PCr                                                 
    4.116  72%   0.119 GABA                                                
    4.084  73%   0.118 Glc                                                 
    0.000 999%   0.000 Gln                                                 
   83.330  45%   2.409 Glu                                                 
    0.000 999%   0.000 GPC                                                 
   13.277  28%   0.384 PCh                                                 
    0.000 999%   0.000 GSH                                                 
   32.115 121%   0.928 Ins                                                 
   31.867  58%   0.921 Lac                                                 
   62.408  21%   1.804 NAA                                                 
    0.000 999%   0.000 NAAG                                                
    1.390  70% 4.0E-02 Scyllo                                              
    6.699  73%   0.194 Tau                                                 
    5.280 117%   0.153 -CrCH2                                              
   13.277  28%   0.384 GPC+PCh                                             
   62.408  21%   1.804 NAA+NAAG                                            
   34.589  29%   1.000 Cr+PCr                                              
   83.330  45%   2.409 Glu+Gln                                             
 1.18E+03  15%  34.007 Lip13a                                              
    0.000 999%   0.000 Lip13b                                              
  388.736  20%  11.239 Lip09                                               
   85.386  99%   2.469 MM09                                                
  161.409  36%   4.666 Lip20                                               
   27.027 298%   0.781 MM20                                                
   42.554 157%   1.230 MM12                                                
    0.000 999%   0.000 MM14                                                
  170.261  35%   4.922 MM17                                                
 1.18E+03  15%  34.007 Lip13a+Lip13b                                       
 1.22E+03  13%  35.237 MM14+Lip13a+Lip13b+MM12                             
  474.122  13%  13.707 MM09+Lip09                                          
  188.436  41%   5.448 MM20+Lip20                                          
   6 lines in following misc. output table
  FWHM = 0.038 ppm    S/N =   2                                            
  Data shift =-0.008 ppm                                                   
  Ph: 137 deg     -10.7 deg/ppm                                            
  alphaB,S = 8.5E+01,   2.6E+01                                            
   14 spline knots.   Ns = 5(1)                                            
   2 inflections.     2 extrema                                            
  498 points on ppm-axis = NY
      4.000000     3.992357     3.984714     3.977070     3.969427     3.961784     3.954141     3.946497     3.938854     3.931211
      3.923568     3.915925     3.908281     3.900638     3.892995     3.885352     3.877708     3.870065     3.862422     3.854779
      3.847136     3.839492     3.831849     3.824206     3.816563     3.808919     3.801276     3.793633     3.785990     3.778347
      3.770703     3.763060     3.755417     3.747774     3.740130     3.732487     3.724844     3.717201     3.709558     3.701914
      3.694271     3.686628     3.678985     3.671341     3.663698     3.656055     3.648412     3.640769     3.633125     3.625482
      3.617839     3.610196     3.602552     3.594909     3.587266     3.579623     3.571980     3.564336     3.556693     3.549050
      3.541407     3.533763     3.526120     3.518477     3.510834     3.503191     3.495547     3.487904     3.480261     3.472618
      3.464974     3.457331     3.449688     3.442045     3.434402     3.426758     3.419115     3.411472     3.403829     3.396185
      3.388542     3.380899     3.373256     3.365613     3.357969     3.350326     3.342683     3.335040     3.327396     3.319753
      3.312110     3.304467     3.296824     3.289180     3.281537     3.273894     3.266251     3.258607     3.250964     3.243321
      3.235678     3.228034     3.220391     3.212748     3.205105     3.197462     3.189818     3.182175     3.174532     3.166889
      3.159245     3.151602     3.143959     3.136316     3.128673     3.121029     3.113386     3.105743     3.098100     3.090456
      3.082813     3.075170     3.067527     3.059884     3.052240     3.044597     3.036954     3.029311     3.021667     3.014024
      3.006381     2.998738     2.991095     2.983451     2.975808     2.968165     2.960522     2.952878     2.945235     2.937592
      2.929949     2.922306     2.914662     2.907019     2.899376     2.891733     2.884089     2.876446     2.868803     2.861160
      2.853517     2.845873     2.838230     2.830587     2.822944     2.815300     2.807657     2.800014     2.792371     2.784728
      2.777084     2.769441     2.761798     2.754155     2.746511     2.738868     2.731225     2.723582     2.715939     2.708295
      2.700652     2.693009     2.685366     2.677722     2.670079     2.662436     2.654793     2.647150     2.639506     2.631863
      2.624220     2.616577     2.608933     2.601290     2.593647     2.586004     2.578361     2.570717     2.563074     2.555431
      2.547788     2.540144     2.532501     2.524858     2.517215     2.509572     2.501928     2.494285     2.486642     2.478999
      2.471355     2.463712     2.456069     2.448426     2.440783     2.433139     2.425496     2.417853     2.410210     2.402566
      2.394923     2.387280     2.379637     2.371994     2.364350     2.356707     2.349064     2.341421     2.333777     2.326134
      2.318491     2.310848     2.303205     2.295561     2.287918     2.280275     2.272632     2.264988     2.257345     2.249702
      2.242059     2.234416     2.226772     2.219129     2.211486     2.203843     2.196199     2.188556     2.180913     2.173270
      2.165627     2.157983     2.150340     2.142697     2.135054     2.127410     2.119767     2.112124     2.104481     2.096838
      2.089194     2.081551     2.073908     2.066265     2.058621     2.050978     2.043335     2.035692     2.028049     2.020405
      2.012762     2.005119     1.997476     1.989833     1.982190     1.974546     1.966903     1.959260     1.951617     1.943974
      1.936331     1.928688     1.921045     1.913402     1.905759     1.898115     1.890472     1.882829     1.875186     1.867543
      1.859900     1.852257     1.844614     1.836971     1.829327     1.821684     1.814041     1.806398     1.798755     1.791112
      1.783469     1.775826     1.768183     1.760540     1.752896     1.745253     1.737610     1.729967     1.722324     1.714681
      1.707038     1.699395     1.691752     1.684108     1.676465     1.668822     1.661179     1.653536     1.645893     1.638250
      1.630607     1.622964     1.615321     1.607677     1.600034     1.592391     1.584748     1.577105     1.569462     1.561819
      1.554176     1.546533     1.538890     1.531246     1.523603     1.515960     1.508317     1.500674     1.493031     1.485388
      1.477745     1.470102     1.462458     1.454815     1.447172     1.439529     1.431886     1.424243     1.416600     1.408957
      1.401314     1.393671     1.386027     1.378384     1.370741     1.363098     1.355455     1.347812     1.340169     1.332526
      1.324883     1.317240     1.309596     1.301953     1.294310     1.286667     1.279024     1.271381     1.263738     1.256095
      1.248452     1.240808     1.233165     1.225522     1.217879     1.210236     1.202593     1.194950     1.187307     1.179664
      1.172021     1.164377     1.156734     1.149091     1.141448     1.133805     1.126162     1.118519     1.110876     1.103233
      1.095590     1.087946     1.080303     1.072660     1.065017     1.057374     1.049731     1.042088     1.034445     1.026802
      1.019158     1.011515     1.003872     0.996229     0.988586     0.980943     0.973300     0.965657     0.958014     0.950371
      0.942727     0.935084     0.927441     0.919798     0.912155     0.904512     0.896869     0.889226     0.881583     0.873940
      0.866296     0.858653     0.851010     0.843367     0.835724     0.828081     0.820438     0.812795     0.805152     0.797508
      0.789865     0.782222     0.774579     0.766936     0.759293     0.751650     0.744007     0.736364     0.728721     0.721077
      0.713434     0.705791     0.698148     0.690505     0.682862     0.675219     0.667576     0.659933     0.652290     0.644646
      0.637003     0.629360     0.621717     0.614074     0.606431     0.598788     0.591145     0.583502     0.575858     0.568215
      0.560572     0.552929     0.545286     0.537643     0.530000     0.522357     0.514714     0.507071     0.499427     0.491784
      0.484141     0.476498     0.468855     0.461212     0.453569     0.445925     0.438282     0.430639     0.422996     0.415353
      0.407710     0.400067     0.392424     0.384780     0.377137     0.369494     0.361851     0.354208     0.346565     0.338922
      0.331278     0.323635     0.315992     0.308349     0.300706     0.293063     0.285420     0.277777     0.270133     0.262490
      0.254847     0.247204     0.239561     0.231918     0.224275     0.216631     0.208988     0.201345
 NY phased data points follow
   5.93589E-01  1.31830E-01 -5.05119E-01  1.86786E+00  1.87109E+00  7.32099E-01 -5.30306E-01  7.89557E-01  4.37421E-01 -6.72220E-02
   1.65004E+00  7.06044E-01 -1.12159E+00  1.56019E+00  1.02260E-01 -7.95740E-01  1.08076E+00 -2.47374E-01  1.38544E-02 -8.90654E-01
   1.12446E-01  4.53502E-01  5.39447E-01 -1.27993E+00  1.09917E-01  1.31355E+00 -4.23770E-01  6.76887E-01  1.36249E+00  2.76628E-01
  -2.52823E-01 -1.17245E+00  6.52688E-01  9.24196E-01 -5.04450E-01  1.32570E+00  1.09186E+00 -1.59993E+00  1.10943E+00  2.03446E-01
  -8.28236E-01  8.51953E-01 -6.01282E-01  8.26955E-01  2.29808E-01  1.03362E+00  4.63076E-01  6.70780E-01  5.43618E-01  1.86230E-01
   4.64286E-01  4.22126E-01 -6.17101E-01 -1.85290E+00 -1.61594E-01  5.17535E-01  7.48553E-01  1.32637E-01 -5.85922E-01  5.33940E-01
  -3.83617E-01 -3.05159E-01  1.44722E+00  5.59074E-01 -5.93990E-01  1.22833E-02 -1.88138E-02  1.21836E+00  3.10459E-01  1.62319E+00
  -1.68989E+00  2.61321E-02  3.73262E-01 -1.01462E+00  1.88100E+00  2.01677E+00 -4.00525E-01 -6.11806E-01 -5.20266E-01 -6.50680E-01
   1.42845E+00 -4.86476E-01 -2.48393E+00  3.16077E-01  8.00084E-01  2.92456E-01  9.62955E-01  1.04946E+00 -4.91380E-01  3.21796E-01
   4.02751E-01  2.76555E-01 -2.19326E-01  7.66398E-01  1.06213E+00  1.65676E+00  1.41311E+00  6.20927E-01 -3.58005E-01 -4.86851E-01
   2.33598E+00  1.08108E+00  1.89179E+00  1.80722E+00  2.38173E+00  6.43889E-01  1.34657E+00 -3.28661E-01 -1.65178E+00 -3.13329E-01
   3.85722E-01  9.95392E-01  1.97674E+00 -4.88108E-01  8.95319E-01 -1.00200E+00  5.27561E-01  1.05230E+00  5.62924E-01  1.71099E+00
   3.07698E-01 -3.82649E-01  1.34875E+00 -3.44252E-01  1.67989E+00  9.23522E-01  1.70465E+00  3.26629E+00  2.00834E+00  1.22989E+00
  -3.25090E-01  3.54108E-01  2.85927E-01  1.32012E-01  5.92460E-01 -2.09651E+00  2.13647E+00 -5.69225E-01  5.04101E-02 -4.88199E-01
   1.03649E+00 -1.73327E-01  6.37867E-01 -7.76708E-01 -4.68048E-01  1.21428E+00  7.47466E-01  5.02813E-01  4.63104E-01  6.03390E-03
   1.99789E-01  2.96465E-01  7.37597E-01 -8.83653E-01 -1.18693E-01 -2.73971E-01 -6.75869E-01 -1.14274E-01  8.71221E-01 -1.27714E-01
  -1.12647E+00 -2.15396E-01  1.83010E+00  6.17761E-01 -2.60079E-01  6.59838E-01 -5.27203E-01 -2.07320E-01  3.07735E-01 -2.49727E-01
   4.21508E-01 -3.20519E-01  2.73370E-01  7.02646E-01 -5.05688E-01  4.21133E-01 -9.52582E-02  2.98356E-01 -7.89585E-01 -9.39463E-01
  -8.21238E-02  1.78974E-01  1.33396E+00  1.93221E+00  3.00591E-01 -4.85525E-01  2.66332E+00  2.97965E-01  1.23234E-01  2.28188E+00
   4.44568E-01  6.00157E-01 -8.50761E-01  2.57916E-01  3.91195E-02  2.26459E+00  1.20087E-01 -2.45437E-01  6.67547E-01  7.93980E-01
   5.03836E-01  1.31457E+00 -2.49089E-01  3.82589E-01  9.14078E-01  1.11866E+00  6.50429E-01  1.69913E+00 -6.08458E-01 -5.28622E-01
  -1.64106E-01  9.56203E-01  2.17760E+00  7.99913E-01  1.42652E+00  1.43547E+00  1.20596E+00  5.07356E-01  9.82566E-02 -3.93987E-01
  -4.13946E-01 -3.17908E-01 -8.35303E-01  7.77074E-01  8.53800E-01  1.75550E+00  9.59654E-01 -3.99845E-01  6.63232E-01 -1.05194E-01
   1.00035E+00  8.43454E-02  2.05602E+00  6.96702E-01  5.43502E-01  3.80267E-01 -5.15974E-01  2.53291E-01  8.35936E-01  7.05546E-01
  -3.92559E-01  8.13001E-01  1.61668E+00 -5.94351E-01  5.45975E-01  1.66514E+00  1.15000E+00  4.79547E-01  1.65897E+00  6.70978E-01
  -1.40289E-01  1.35159E+00  5.07151E-01  1.52518E+00  9.73005E-02  5.33712E-01  1.17986E+00  2.49222E+00  3.08668E+00  3.97973E+00
   3.89528E+00  3.97959E+00  1.43367E+00  7.64097E-01  3.94521E-01 -3.39360E-02 -5.49942E-01  2.48380E-01  2.32230E+00  2.13938E-01
  -2.64956E-02  2.47318E+00 -1.93883E-01 -3.99577E-01 -1.79732E-01  9.79597E-01  2.59985E-01  1.91427E+00  2.35557E+00 -3.42846E-01
   1.48516E+00  2.98389E+00 -1.20374E-01  6.97757E-02  1.44564E+00 -7.53479E-01  4.79244E-01  1.95017E-01  9.74754E-01  8.74289E-01
   2.27126E-01  1.00397E-01  5.75537E-01  2.67402E+00  1.43951E+00  1.24426E+00  1.07721E+00  1.95502E+00  9.70854E-01  6.16655E-01
  -6.85828E-01  2.14812E+00  7.77324E-01  7.67877E-01  8.23430E-01  9.01771E-01  2.03463E+00  2.23621E+00 -2.70854E-02  2.01601E+00
   2.45495E+00  1.78993E+00  1.06486E+00  2.13073E+00  2.00414E+00  1.90002E+00  2.19583E+00  3.42176E-01  1.55556E+00  7.74778E-01
   1.05309E+00  6.28986E-01  1.23549E+00  1.91819E+00  2.18629E+00  6.45999E-01  4.04121E-01  2.13759E+00  9.74111E-01  1.47972E+00
   9.34088E-01  2.61428E-01  3.84091E+00  2.13392E-01  2.53774E+00  1.61921E+00 -3.56424E-01  1.19139E+00  3.31221E+00  5.50414E-01
   3.11195E+00  2.12209E+00  3.70738E+00  2.88098E+00  4.61254E+00  2.34572E+00  2.02643E+00  2.69783E+00  2.13172E+00  1.40596E+00
   2.22172E+00  1.27471E+00  3.60338E+00  2.69780E+00  2.39742E+00  3.49520E+00  3.46024E+00  1.64846E+00  3.35902E+00  2.64734E+00
   4.93941E+00  1.89881E+00  2.73665E+00  3.20047E+00  3.25952E+00  3.61432E+00  2.81589E+00  3.75789E+00  2.29252E+00  2.40885E+00
   3.80417E+00  2.89923E+00  3.41912E+00  3.37949E+00  4.13076E+00  3.64205E+00  2.95436E+00  3.97373E+00  2.23350E+00  3.01304E+00
   3.74076E+00  3.69512E+00  4.17586E+00  3.97498E+00  3.71430E+00  4.46171E+00  1.96356E+00  3.10591E+00  3.09468E+00  2.54446E+00
   3.70869E+00  3.02973E+00  2.44951E+00  3.27154E+00  1.93704E+00  2.44297E+00  2.57372E+00  3.54844E+00  2.95391E+00  1.62713E+00
   2.88737E+00  1.92075E+00  3.33327E+00  3.49490E+00  2.87387E+00  2.49937E+00  2.94885E+00  1.13826E+00  3.13250E+00  3.62007E+00
   3.36414E+00  2.37635E+00  2.38230E+00  2.34283E+00  3.05966E+00  3.94231E+00  1.75669E+00  2.26495E+00  1.60994E+00  9.18762E-01
   1.34769E+00  2.16481E+00  2.26642E+00  3.02436E+00  3.80852E+00  1.39615E+00  9.01396E-01  1.29467E+00  1.47944E+00  1.28602E+00
   1.35251E+00  1.47980E+00  2.57083E+00  2.51730E-01  8.25574E-01  2.48105E-02  3.11778E-01  2.15474E+00 -4.85966E-01  1.20867E+00
   1.11357E+00  4.21124E-01  9.90726E-01  1.01033E+00 -5.74136E-01  1.62368E+00  2.07774E-01  7.22323E-01 -6.60242E-01  2.15416E-01
  -1.33557E+00 -1.67515E+00  1.00153E+00 -1.99876E+00 -7.06517E-01  5.16680E-01 -1.00269E+00  4.40947E-02  9.81183E-01  4.59187E-01
  -6.78228E-01 -1.28140E+00  3.94600E-01  2.50666E-01 -6.94634E-01  9.46691E-01 -1.14103E+00  7.19699E-01  1.05068E+00 -2.28068E-01
   1.33662E-01 -1.04393E+00  3.22497E-01  2.54588E-01 -1.67259E-01 -2.69363E-01 -1.26496E+00 -5.12117E-01  6.53544E-01 -8.17962E-01
   1.70615E+00  5.07233E-01 -1.35958E+00  1.34484E-01  6.62284E-01 -5.37447E-01 -3.48168E-01 -8.35068E-01 -6.36409E-01  3.96650E-02
   8.67273E-01  5.07173E-01 -1.11918E+00  1.22824E+00 -3.46618E-01  3.28136E-01 -4.49968E-01  5.20104E-01
 NY points of the fit to the data follow
   2.37392E-01  2.56350E-01  2.78120E-01  3.00770E-01  3.50207E-01  4.44611E-01  5.86866E-01  7.67682E-01  9.37291E-01  1.03457E+00
   1.01906E+00  8.90117E-01  6.82687E-01  4.57350E-01  2.80285E-01  1.85278E-01  1.59532E-01  1.80404E-01  2.12152E-01  2.34766E-01
   2.64024E-01  3.04971E-01  3.44786E-01  3.53695E-01  3.17482E-01  2.43915E-01  1.56865E-01  9.63991E-02  1.04906E-01  2.03117E-01
   3.62624E-01  5.17410E-01  5.99090E-01  5.64938E-01  4.27705E-01  2.56495E-01  1.20622E-01  6.63996E-02  9.71532E-02  1.77481E-01
   2.58757E-01  3.06774E-01  3.31674E-01  3.65770E-01  4.23228E-01  4.92531E-01  5.42488E-01  5.35930E-01  4.62483E-01  3.42436E-01
   2.19905E-01  1.38167E-01  1.18534E-01  1.48759E-01  1.95384E-01  2.35832E-01  2.70023E-01  3.03324E-01  3.32773E-01  3.48281E-01
   3.40266E-01  3.08952E-01  2.65032E-01  2.23670E-01  2.00788E-01  2.02916E-01  2.21873E-01  2.47706E-01  2.72810E-01  2.90922E-01
   3.03736E-01  3.15525E-01  3.25435E-01  3.28289E-01  3.20288E-01  3.01657E-01  2.74364E-01  2.46585E-01  2.26874E-01  2.18140E-01
   2.23610E-01  2.46191E-01  2.75828E-01  2.94651E-01  2.92113E-01  2.67432E-01  2.27418E-01  1.84897E-01  1.54611E-01  1.46762E-01
   1.62124E-01  1.92332E-01  2.22942E-01  2.40812E-01  2.50097E-01  2.60104E-01  2.76873E-01  3.14437E-01  4.44191E-01  7.63075E-01
   1.22036E+00  1.67308E+00  1.97241E+00  2.00491E+00  1.72341E+00  1.20208E+00  6.32330E-01  2.10518E-01  3.14640E-02  5.89900E-02
   1.45060E-01  1.73372E-01  1.79721E-01  1.83771E-01  1.87676E-01  1.90366E-01  1.92940E-01  1.97247E-01  2.04649E-01  2.17564E-01
   2.43185E-01  3.12706E-01  5.18155E-01  8.86997E-01  1.32159E+00  1.68411E+00  1.85514E+00  1.75793E+00  1.39624E+00  8.92149E-01
   4.30363E-01  1.49136E-01  8.05807E-02  1.43108E-01  1.97240E-01  2.14451E-01  2.27636E-01  2.40226E-01  2.50081E-01  2.57358E-01
   2.63629E-01  2.71571E-01  2.82599E-01  2.95414E-01  3.08451E-01  3.19273E-01  3.25272E-01  3.26422E-01  3.25535E-01  3.26688E-01
   3.31453E-01  3.38587E-01  3.45965E-01  3.51518E-01  3.54780E-01  3.54119E-01  3.43511E-01  3.21332E-01  2.93573E-01  2.70362E-01
   2.63653E-01  2.76797E-01  3.03378E-01  3.30499E-01  3.43751E-01  3.34089E-01  3.03129E-01  2.64061E-01  2.32788E-01  2.13390E-01
   2.00954E-01  1.85223E-01  1.59351E-01  1.34566E-01  1.21567E-01  1.22623E-01  1.31686E-01  1.41565E-01  1.47112E-01  1.44777E-01
   1.36551E-01  1.27793E-01  1.21744E-01  1.23397E-01  1.33746E-01  1.46749E-01  1.62954E-01  1.86145E-01  2.17179E-01  2.46172E-01
   2.61960E-01  2.64525E-01  2.64143E-01  2.70085E-01  2.83775E-01  2.94229E-01  2.90611E-01  2.72215E-01  2.48681E-01  2.39611E-01
   2.57884E-01  3.01254E-01  3.50265E-01  3.81974E-01  3.77734E-01  3.28963E-01  2.45021E-01  1.49705E-01  7.10876E-02  4.14806E-02
   9.12989E-02  2.47715E-01  4.80493E-01  7.12434E-01  8.65285E-01  8.74179E-01  7.08717E-01  3.86290E-01 -1.19341E-02 -3.48104E-01
  -5.04986E-01 -4.51323E-01 -2.25080E-01  9.12240E-02  4.24215E-01  6.86051E-01  8.11184E-01  7.98561E-01  7.07163E-01  6.15847E-01
   5.64016E-01  5.47433E-01  5.58553E-01  5.91798E-01  6.28906E-01  6.50063E-01  6.43224E-01  6.10465E-01  5.62292E-01  5.18305E-01
   5.01308E-01  5.25764E-01  5.87844E-01  6.73672E-01  7.59938E-01  8.14858E-01  8.16249E-01  7.72777E-01  7.13690E-01  6.71121E-01
   6.71149E-01  7.14979E-01  7.89706E-01  8.73126E-01  9.71282E-01  1.21894E+00  1.76223E+00  2.50975E+00  3.23970E+00  3.72021E+00
   3.75819E+00  3.27334E+00  2.40516E+00  1.47675E+00  7.94330E-01  5.00034E-01  5.15971E-01  5.88813E-01  5.79446E-01  5.58239E-01
   5.48421E-01  5.49873E-01  5.63416E-01  5.82932E-01  5.95829E-01  5.94925E-01  5.79698E-01  5.55916E-01  5.31975E-01  5.15017E-01
   5.07105E-01  5.07933E-01  5.17246E-01  5.33040E-01  5.52622E-01  5.74444E-01  5.97918E-01  6.23549E-01  6.52346E-01  6.84638E-01
   7.20840E-01  7.61255E-01  8.05696E-01  8.53670E-01  9.04780E-01  9.58631E-01  1.01435E+00  1.07079E+00  1.12698E+00  1.18188E+00
   1.23431E+00  1.28320E+00  1.32748E+00  1.36614E+00  1.39833E+00  1.42348E+00  1.44128E+00  1.45175E+00  1.45512E+00  1.45184E+00
   1.44248E+00  1.42787E+00  1.40901E+00  1.38704E+00  1.36315E+00  1.33857E+00  1.31446E+00  1.29192E+00  1.27196E+00  1.25545E+00
   1.24315E+00  1.23566E+00  1.23344E+00  1.23684E+00  1.24606E+00  1.26125E+00  1.28246E+00  1.30970E+00  1.34290E+00  1.38201E+00
   1.42697E+00  1.47770E+00  1.53419E+00  1.59639E+00  1.66437E+00  1.73823E+00  1.81827E+00  1.90502E+00  1.99948E+00  2.10365E+00
   2.22205E+00  2.36703E+00  2.55909E+00  2.76665E+00  2.91898E+00  2.96554E+00  2.89169E+00  2.71533E+00  2.48774E+00  2.29677E+00
   2.26043E+00  2.43274E+00  2.76865E+00  3.16155E+00  3.50204E+00  3.74100E+00  3.84851E+00  3.82164E+00  3.71131E+00  3.58982E+00
   3.51447E+00  3.49305E+00  3.47687E+00  3.44819E+00  3.41100E+00  3.36683E+00  3.31642E+00  3.26052E+00  3.19994E+00  3.13560E+00
   3.06846E+00  2.99956E+00  2.92995E+00  2.86071E+00  2.79289E+00  2.72753E+00  2.66562E+00  2.60806E+00  2.55574E+00  2.50946E+00
   2.46995E+00  2.43782E+00  2.41364E+00  2.39784E+00  2.39076E+00  2.39261E+00  2.40346E+00  2.42325E+00  2.45171E+00  2.48841E+00
   2.53273E+00  2.58381E+00  2.64062E+00  2.70186E+00  2.76609E+00  2.83164E+00  2.89673E+00  2.95949E+00  3.01797E+00  3.07026E+00
   3.11452E+00  3.14908E+00  3.17246E+00  3.18347E+00  3.18122E+00  3.16517E+00  3.13518E+00  3.09143E+00  3.03449E+00  2.96525E+00
   2.88485E+00  2.79466E+00  2.69621E+00  2.59115E+00  2.48114E+00  2.36780E+00  2.25271E+00  2.13730E+00  2.02288E+00  1.91057E+00
   1.80132E+00  1.69589E+00  1.59486E+00  1.49866E+00  1.40754E+00  1.32166E+00  1.24103E+00  1.16558E+00  1.09517E+00  1.02961E+00
   9.68663E-01  9.12076E-01  8.59570E-01  8.10867E-01  7.65688E-01  7.23766E-01  6.84843E-01  6.48677E-01  6.15038E-01  5.83713E-01
   5.54507E-01  5.27241E-01  5.01751E-01  4.77888E-01  4.55513E-01  4.34503E-01  4.14744E-01  3.96138E-01  3.78592E-01  3.62022E-01
   3.46351E-01  3.31511E-01  3.17439E-01  3.04081E-01  2.91385E-01  2.79303E-01  2.67791E-01  2.56810E-01  2.46325E-01  2.36303E-01
   2.26715E-01  2.17532E-01  2.08727E-01  2.00279E-01  1.92167E-01  1.84371E-01  1.76871E-01  1.69650E-01  1.62691E-01  1.55981E-01
   1.49508E-01  1.43258E-01  1.37219E-01  1.31380E-01  1.25729E-01  1.20260E-01  1.14962E-01  1.09827E-01  1.04845E-01  1.00009E-01
   9.53136E-02  9.07531E-02  8.63205E-02  8.20096E-02  7.78136E-02  7.37287E-02  6.97502E-02  6.58745E-02  6.20960E-02  5.84101E-02
   5.48121E-02  5.12997E-02  4.78700E-02  4.45200E-02  4.12448E-02  3.80414E-02  3.49066E-02  3.18393E-02
 NY background values follow
     9.576E-02    9.526E-02    9.475E-02    9.425E-02    9.375E-02    9.325E-02    9.275E-02    9.225E-02    9.175E-02    9.125E-02
     9.075E-02    9.025E-02    8.975E-02    8.924E-02    8.874E-02    8.824E-02    8.774E-02    8.724E-02    8.674E-02    8.624E-02
     8.573E-02    8.523E-02    8.473E-02    8.423E-02    8.373E-02    8.322E-02    8.272E-02    8.222E-02    8.172E-02    8.122E-02
     8.071E-02    8.021E-02    7.971E-02    7.921E-02    7.871E-02    7.820E-02    7.770E-02    7.720E-02    7.670E-02    7.619E-02
     7.569E-02    7.519E-02    7.469E-02    7.418E-02    7.368E-02    7.318E-02    7.267E-02    7.217E-02    7.167E-02    7.117E-02
     7.066E-02    7.016E-02    6.966E-02    6.915E-02    6.865E-02    6.815E-02    6.764E-02    6.714E-02    6.664E-02    6.613E-02
     6.563E-02    6.513E-02    6.462E-02    6.412E-02    6.362E-02    6.311E-02    6.261E-02    6.210E-02    6.160E-02    6.110E-02
     6.059E-02    6.009E-02    5.958E-02    5.908E-02    5.858E-02    5.807E-02    5.757E-02    5.706E-02    5.656E-02    5.606E-02
     5.555E-02    5.505E-02    5.454E-02    5.404E-02    5.353E-02    5.303E-02    5.252E-02    5.202E-02    5.152E-02    5.101E-02
     5.051E-02    5.000E-02    4.950E-02    4.899E-02    4.849E-02    4.798E-02    4.748E-02    4.697E-02    4.647E-02    4.596E-02
     4.546E-02    4.495E-02    4.445E-02    4.394E-02    4.344E-02    4.293E-02    4.243E-02    4.192E-02    4.141E-02    4.091E-02
     4.040E-02    3.990E-02    3.939E-02    3.889E-02    3.838E-02    3.788E-02    3.737E-02    3.686E-02    3.636E-02    3.585E-02
     3.535E-02    3.484E-02    3.434E-02    3.383E-02    3.332E-02    3.282E-02    3.231E-02    3.181E-02    3.130E-02    3.079E-02
     3.029E-02    2.978E-02    2.928E-02    2.877E-02    2.826E-02    2.776E-02    2.725E-02    2.674E-02    2.624E-02    2.573E-02
     2.523E-02    2.472E-02    2.421E-02    2.371E-02    2.320E-02    2.269E-02    2.219E-02    2.168E-02    2.117E-02    2.067E-02
     2.016E-02    1.965E-02    1.915E-02    1.864E-02    1.813E-02    1.763E-02    1.712E-02    1.661E-02    1.611E-02    1.560E-02
     1.509E-02    1.459E-02    1.408E-02    1.357E-02    1.306E-02    1.256E-02    1.205E-02    1.154E-02    1.104E-02    1.053E-02
     1.002E-02    9.514E-03    9.007E-03    8.500E-03    7.993E-03    7.485E-03    6.978E-03    6.471E-03    5.963E-03    5.456E-03
     4.949E-03    4.441E-03    3.934E-03    3.426E-03    2.919E-03    2.411E-03    1.904E-03    1.396E-03    8.886E-04    3.810E-04
    -1.267E-04   -6.343E-04   -1.142E-03   -1.650E-03   -2.157E-03   -2.665E-03   -3.173E-03   -3.681E-03   -4.188E-03   -4.696E-03
    -5.204E-03   -5.712E-03   -6.220E-03   -6.727E-03   -7.235E-03   -7.743E-03   -8.251E-03   -8.759E-03   -9.267E-03   -9.775E-03
    -1.028E-02   -1.079E-02   -1.130E-02   -1.181E-02   -1.231E-02   -1.282E-02   -1.333E-02   -1.384E-02   -1.435E-02   -1.486E-02
    -1.536E-02   -1.587E-02   -1.638E-02   -1.689E-02   -1.740E-02   -1.790E-02   -1.841E-02   -1.892E-02   -1.943E-02   -1.994E-02
    -2.045E-02   -2.095E-02   -2.146E-02   -2.197E-02   -2.248E-02   -2.299E-02   -2.350E-02   -2.400E-02   -2.451E-02   -2.502E-02
    -2.553E-02   -2.604E-02   -2.655E-02   -2.705E-02   -2.756E-02   -2.807E-02   -2.858E-02   -2.909E-02   -2.960E-02   -3.010E-02
    -3.061E-02   -3.112E-02   -3.163E-02   -3.214E-02   -3.265E-02   -3.316E-02   -3.366E-02   -3.417E-02   -3.468E-02   -3.519E-02
    -3.570E-02   -3.621E-02   -3.672E-02   -3.722E-02   -3.773E-02   -3.824E-02   -3.875E-02   -3.926E-02   -3.977E-02   -4.028E-02
    -4.078E-02   -4.129E-02   -4.180E-02   -4.231E-02   -4.282E-02   -4.333E-02   -4.384E-02   -4.434E-02   -4.485E-02   -4.536E-02
    -4.587E-02   -4.638E-02   -4.689E-02   -4.740E-02   -4.790E-02   -4.841E-02   -4.892E-02   -4.943E-02   -4.994E-02   -5.045E-02
    -5.096E-02   -5.146E-02   -5.197E-02   -5.248E-02   -5.299E-02   -5.350E-02   -5.401E-02   -5.452E-02   -5.503E-02   -5.553E-02
    -5.604E-02   -5.655E-02   -5.706E-02   -5.757E-02   -5.808E-02   -5.859E-02   -5.909E-02   -5.960E-02   -6.011E-02   -6.062E-02
    -6.113E-02   -6.164E-02   -6.215E-02   -6.265E-02   -6.316E-02   -6.367E-02   -6.418E-02   -6.469E-02   -6.520E-02   -6.571E-02
    -6.621E-02   -6.672E-02   -6.723E-02   -6.774E-02   -6.825E-02   -6.876E-02   -6.927E-02   -6.977E-02   -7.028E-02   -7.079E-02
    -7.130E-02   -7.181E-02   -7.232E-02   -7.282E-02   -7.333E-02   -7.384E-02   -7.435E-02   -7.486E-02   -7.537E-02   -7.588E-02
    -7.638E-02   -7.689E-02   -7.740E-02   -7.791E-02   -7.842E-02   -7.893E-02   -7.943E-02   -7.994E-02   -8.045E-02   -8.096E-02
    -8.147E-02   -8.197E-02   -8.248E-02   -8.299E-02   -8.350E-02   -8.401E-02   -8.452E-02   -8.502E-02   -8.553E-02   -8.604E-02
    -8.655E-02   -8.706E-02   -8.756E-02   -8.807E-02   -8.858E-02   -8.909E-02   -8.960E-02   -9.011E-02   -9.061E-02   -9.112E-02
    -9.163E-02   -9.214E-02   -9.265E-02   -9.315E-02   -9.366E-02   -9.417E-02   -9.468E-02   -9.518E-02   -9.569E-02   -9.620E-02
    -9.671E-02   -9.722E-02   -9.772E-02   -9.823E-02   -9.874E-02   -9.925E-02   -9.975E-02   -1.003E-01   -1.008E-01   -1.013E-01
    -1.018E-01   -1.023E-01   -1.028E-01   -1.033E-01   -1.038E-01   -1.043E-01   -1.048E-01   -1.053E-01   -1.058E-01   -1.064E-01
    -1.069E-01   -1.074E-01   -1.079E-01   -1.084E-01   -1.089E-01   -1.094E-01   -1.099E-01   -1.104E-01   -1.109E-01   -1.114E-01
    -1.119E-01   -1.124E-01   -1.129E-01   -1.135E-01   -1.140E-01   -1.145E-01   -1.150E-01   -1.155E-01   -1.160E-01   -1.165E-01
    -1.170E-01   -1.175E-01   -1.180E-01   -1.185E-01   -1.190E-01   -1.195E-01   -1.200E-01   -1.206E-01   -1.211E-01   -1.216E-01
    -1.221E-01   -1.226E-01   -1.231E-01   -1.236E-01   -1.241E-01   -1.246E-01   -1.251E-01   -1.256E-01   -1.261E-01   -1.266E-01
    -1.271E-01   -1.276E-01   -1.281E-01   -1.287E-01   -1.292E-01   -1.297E-01   -1.302E-01   -1.307E-01   -1.312E-01   -1.317E-01
    -1.322E-01   -1.327E-01   -1.332E-01   -1.337E-01   -1.342E-01   -1.347E-01   -1.352E-01   -1.357E-01   -1.362E-01   -1.368E-01
    -1.373E-01   -1.378E-01   -1.383E-01   -1.388E-01   -1.393E-01   -1.398E-01   -1.403E-01   -1.408E-01   -1.413E-01   -1.418E-01
    -1.423E-01   -1.428E-01   -1.433E-01   -1.438E-01   -1.443E-01   -1.448E-01   -1.453E-01   -1.458E-01   -1.464E-01   -1.469E-01
    -1.474E-01   -1.479E-01   -1.484E-01   -1.489E-01   -1.494E-01   -1.499E-01   -1.504E-01   -1.509E-01   -1.514E-01   -1.519E-01
    -1.524E-01   -1.529E-01   -1.534E-01   -1.539E-01   -1.544E-01   -1.549E-01   -1.554E-01   -1.559E-01
 Asp      Conc. = 7.45E+00
