 LCModel (Version 6.3-1L) Copyright: S.W. Provencher.          Ref.: Magn. Reson. Med. 30:672-679 (1993).                
 Slice#2 Row#9 Col#9  PD_24_press_1_raw_act
 36 lines in following concentration table = NCONC+1
    Conc.  %SD /Cr+PCr  Metabolite                                         
   88.299 143% 6.3E-02 Ala                                                 
    0.000 999%   0.000 Asp                                                 
    0.000 999%   0.000 Cr                                                  
 1.40E+03   5%   1.000 PCr                                                 
    0.000 999%   0.000 GABA                                                
  358.303  52%   0.255 Glc                                                 
  279.841  96%   0.199 Gln                                                 
 1.48E+03  20%   1.055 Glu                                                 
  678.754  17%   0.484 GPC                                                 
  158.269  77%   0.113 PCh                                                 
  217.323  40%   0.155 GSH                                                 
 1.87E+03  17%   1.336 Ins                                                 
    0.000 999%   0.000 Lac                                                 
 2.27E+03   6%   1.616 NAA                                                 
  278.199  57%   0.198 NAAG                                                
  248.872  14%   0.177 Scyllo                                              
  194.305 136%   0.138 Tau                                                 
  206.664  56%   0.147 -CrCH2                                              
  837.023   4%   0.596 GPC+PCh                                             
 2.55E+03   4%   1.814 NAA+NAAG                                            
 1.40E+03   5%   1.000 Cr+PCr                                              
 1.76E+03  25%   1.255 Glu+Gln                                             
    0.000 999%   0.000 Lip13a                                              
  569.871  22%   0.406 Lip13b                                              
    0.000 999%   0.000 Lip09                                               
 1.88E+03  12%   1.340 MM09                                                
  104.443 173% 7.4E-02 Lip20                                               
 2.68E+03  16%   1.909 MM20                                                
 1.23E+03  16%   0.876 MM12                                                
    0.000 999%   0.000 MM14                                                
  543.713  41%   0.387 MM17                                                
  569.871  22%   0.406 Lip13a+Lip13b                                       
 1.80E+03  11%   1.282 MM14+Lip13a+Lip13b+MM12                             
 1.88E+03  12%   1.340 MM09+Lip09                                          
 2.78E+03  15%   1.983 MM20+Lip20                                          
   6 lines in following misc. output table
  FWHM = 0.061 ppm    S/N =  11                                            
  Data shift = 0.008 ppm                                                   
  Ph: -68 deg     -25.3 deg/ppm                                            
  alphaB,S = 1.4E+00,   1.7E+02                                            
   14 spline knots.   Ns = 8(1)                                            
  (10) 2 infls.   ( 5) 1 extrs.                                            
  498 points on ppm-axis = NY
      4.000000     3.992357     3.984714     3.977070     3.969427     3.961784     3.954141     3.946497     3.938854     3.931211
      3.923568     3.915925     3.908281     3.900638     3.892995     3.885352     3.877708     3.870065     3.862422     3.854779
      3.847136     3.839492     3.831849     3.824206     3.816563     3.808919     3.801276     3.793633     3.785990     3.778347
      3.770703     3.763060     3.755417     3.747774     3.740130     3.732487     3.724844     3.717201     3.709558     3.701914
      3.694271     3.686628     3.678985     3.671341     3.663698     3.656055     3.648412     3.640769     3.633125     3.625482
      3.617839     3.610196     3.602552     3.594909     3.587266     3.579623     3.571980     3.564336     3.556693     3.549050
      3.541407     3.533763     3.526120     3.518477     3.510834     3.503191     3.495547     3.487904     3.480261     3.472618
      3.464974     3.457331     3.449688     3.442045     3.434402     3.426758     3.419115     3.411472     3.403829     3.396185
      3.388542     3.380899     3.373256     3.365613     3.357969     3.350326     3.342683     3.335040     3.327396     3.319753
      3.312110     3.304467     3.296824     3.289180     3.281537     3.273894     3.266251     3.258607     3.250964     3.243321
      3.235678     3.228034     3.220391     3.212748     3.205105     3.197462     3.189818     3.182175     3.174532     3.166889
      3.159245     3.151602     3.143959     3.136316     3.128673     3.121029     3.113386     3.105743     3.098100     3.090456
      3.082813     3.075170     3.067527     3.059884     3.052240     3.044597     3.036954     3.029311     3.021667     3.014024
      3.006381     2.998738     2.991095     2.983451     2.975808     2.968165     2.960522     2.952878     2.945235     2.937592
      2.929949     2.922306     2.914662     2.907019     2.899376     2.891733     2.884089     2.876446     2.868803     2.861160
      2.853517     2.845873     2.838230     2.830587     2.822944     2.815300     2.807657     2.800014     2.792371     2.784728
      2.777084     2.769441     2.761798     2.754155     2.746511     2.738868     2.731225     2.723582     2.715939     2.708295
      2.700652     2.693009     2.685366     2.677722     2.670079     2.662436     2.654793     2.647150     2.639506     2.631863
      2.624220     2.616577     2.608933     2.601290     2.593647     2.586004     2.578361     2.570717     2.563074     2.555431
      2.547788     2.540144     2.532501     2.524858     2.517215     2.509572     2.501928     2.494285     2.486642     2.478999
      2.471355     2.463712     2.456069     2.448426     2.440783     2.433139     2.425496     2.417853     2.410210     2.402566
      2.394923     2.387280     2.379637     2.371994     2.364350     2.356707     2.349064     2.341421     2.333777     2.326134
      2.318491     2.310848     2.303205     2.295561     2.287918     2.280275     2.272632     2.264988     2.257345     2.249702
      2.242059     2.234416     2.226772     2.219129     2.211486     2.203843     2.196199     2.188556     2.180913     2.173270
      2.165627     2.157983     2.150340     2.142697     2.135054     2.127410     2.119767     2.112124     2.104481     2.096838
      2.089194     2.081551     2.073908     2.066265     2.058621     2.050978     2.043335     2.035692     2.028049     2.020405
      2.012762     2.005119     1.997476     1.989833     1.982190     1.974546     1.966903     1.959260     1.951617     1.943974
      1.936331     1.928688     1.921045     1.913402     1.905759     1.898115     1.890472     1.882829     1.875186     1.867543
      1.859900     1.852257     1.844614     1.836971     1.829327     1.821684     1.814041     1.806398     1.798755     1.791112
      1.783469     1.775826     1.768183     1.760540     1.752896     1.745253     1.737610     1.729967     1.722324     1.714681
      1.707038     1.699395     1.691752     1.684108     1.676465     1.668822     1.661179     1.653536     1.645893     1.638250
      1.630607     1.622964     1.615321     1.607677     1.600034     1.592391     1.584748     1.577105     1.569462     1.561819
      1.554176     1.546533     1.538890     1.531246     1.523603     1.515960     1.508317     1.500674     1.493031     1.485388
      1.477745     1.470102     1.462458     1.454815     1.447172     1.439529     1.431886     1.424243     1.416600     1.408957
      1.401314     1.393671     1.386027     1.378384     1.370741     1.363098     1.355455     1.347812     1.340169     1.332526
      1.324883     1.317240     1.309596     1.301953     1.294310     1.286667     1.279024     1.271381     1.263738     1.256095
      1.248452     1.240808     1.233165     1.225522     1.217879     1.210236     1.202593     1.194950     1.187307     1.179664
      1.172021     1.164377     1.156734     1.149091     1.141448     1.133805     1.126162     1.118519     1.110876     1.103233
      1.095590     1.087946     1.080303     1.072660     1.065017     1.057374     1.049731     1.042088     1.034445     1.026802
      1.019158     1.011515     1.003872     0.996229     0.988586     0.980943     0.973300     0.965657     0.958014     0.950371
      0.942727     0.935084     0.927441     0.919798     0.912155     0.904512     0.896869     0.889226     0.881583     0.873940
      0.866296     0.858653     0.851010     0.843367     0.835724     0.828081     0.820438     0.812795     0.805152     0.797508
      0.789865     0.782222     0.774579     0.766936     0.759293     0.751650     0.744007     0.736364     0.728721     0.721077
      0.713434     0.705791     0.698148     0.690505     0.682862     0.675219     0.667576     0.659933     0.652290     0.644646
      0.637003     0.629360     0.621717     0.614074     0.606431     0.598788     0.591145     0.583502     0.575858     0.568215
      0.560572     0.552929     0.545286     0.537643     0.530000     0.522357     0.514714     0.507071     0.499427     0.491784
      0.484141     0.476498     0.468855     0.461212     0.453569     0.445925     0.438282     0.430639     0.422996     0.415353
      0.407710     0.400067     0.392424     0.384780     0.377137     0.369494     0.361851     0.354208     0.346565     0.338922
      0.331278     0.323635     0.315992     0.308349     0.300706     0.293063     0.285420     0.277777     0.270133     0.262490
      0.254847     0.247204     0.239561     0.231918     0.224275     0.216631     0.208988     0.201345
 NY phased data points follow
  -7.07561E+01 -6.46245E+01 -6.60750E+01 -5.58455E+01 -5.06099E+01 -4.35756E+01 -4.55222E+01 -3.34018E+01 -3.66910E+01 -3.24883E+01
  -3.45685E+01 -3.67138E+01 -4.56266E+01 -4.34288E+01 -5.68734E+01 -5.52315E+01 -6.20763E+01 -6.17389E+01 -6.96873E+01 -5.69725E+01
  -6.24021E+01 -5.55077E+01 -5.67475E+01 -5.18685E+01 -5.36374E+01 -5.09268E+01 -5.01154E+01 -4.77904E+01 -5.31824E+01 -4.75496E+01
  -4.64134E+01 -4.35840E+01 -4.70807E+01 -4.45012E+01 -4.52805E+01 -4.35734E+01 -4.48629E+01 -3.99528E+01 -4.24930E+01 -4.05397E+01
  -4.23825E+01 -3.62973E+01 -4.08444E+01 -3.23908E+01 -3.85279E+01 -3.42285E+01 -3.38951E+01 -3.38831E+01 -3.17939E+01 -3.42483E+01
  -3.73457E+01 -3.18358E+01 -4.25044E+01 -3.92427E+01 -3.80635E+01 -4.09107E+01 -3.37053E+01 -3.49773E+01 -3.88024E+01 -3.79096E+01
  -3.87464E+01 -4.16508E+01 -4.28539E+01 -4.15804E+01 -4.33737E+01 -4.19468E+01 -4.68649E+01 -3.87739E+01 -3.75311E+01 -3.52055E+01
  -3.84192E+01 -3.52967E+01 -3.17925E+01 -3.10451E+01 -3.36483E+01 -3.23013E+01 -3.02838E+01 -2.90383E+01 -3.00735E+01 -2.83651E+01
  -2.90524E+01 -2.87626E+01 -2.59406E+01 -2.31472E+01 -2.43763E+01 -2.64421E+01 -2.35237E+01 -2.34168E+01 -2.01358E+01 -2.11558E+01
  -2.39552E+01 -1.94386E+01 -2.07606E+01 -2.02287E+01 -1.31682E+01 -1.11905E+01 -7.91534E+00  3.80237E+00  9.00006E+00  2.34227E+01
   3.38533E+01  3.66408E+01  3.69738E+01  3.57709E+01  2.13551E+01  1.61240E+01  3.15172E+00 -1.41720E+00 -1.64123E+01 -1.53879E+01
  -1.89230E+01 -2.02461E+01 -2.31587E+01 -2.20839E+01 -2.18436E+01 -2.59850E+01 -2.16453E+01 -2.22703E+01 -2.35932E+01 -1.09930E+01
  -1.25624E+01 -6.87771E+00 -6.15953E+00 -2.00344E+00  1.05786E+01  2.03174E+01  2.67879E+01  2.19699E+01  1.53031E+01  7.09241E+00
   2.88871E+00 -4.35161E+00 -5.44752E+00 -9.24669E+00 -1.12391E+01 -2.03725E+01 -1.86354E+01 -1.55587E+01 -1.77563E+01 -1.74648E+01
  -1.43296E+01 -1.39584E+01 -2.16489E+01 -1.78747E+01 -1.76002E+01 -1.57706E+01 -1.57024E+01 -1.62875E+01 -1.46061E+01 -1.41321E+01
  -1.29111E+01 -1.54270E+01 -1.63086E+01 -1.90677E+01 -1.17011E+01 -1.60851E+01 -1.39147E+01 -1.36725E+01 -1.35928E+01 -1.73703E+01
  -1.24923E+01 -1.99488E+01 -1.75859E+01 -1.30399E+01 -1.22229E+01 -1.27739E+01 -1.03540E+01 -1.10107E+01 -1.47865E+01 -1.54123E+01
  -1.34030E+01 -1.77583E+01 -1.04864E+01 -1.45619E+01 -1.53324E+01 -1.78944E+01 -1.76502E+01 -1.77631E+01 -1.86931E+01 -1.68459E+01
  -1.20639E+01 -1.83398E+01 -2.15031E+01 -1.52039E+01 -1.74071E+01 -1.44271E+01 -1.08572E+01 -7.25700E+00 -3.76890E+00 -2.21940E+00
  -3.31255E+00  2.50724E+00  9.06952E-01  1.31837E+00  3.11621E+00 -1.21285E+00 -1.60281E+00 -1.35527E+00  9.31779E-01 -1.76607E+00
  -7.58532E+00 -1.65147E+00  3.53564E+00 -4.87721E+00 -3.44118E+00  1.15832E+00 -6.78031E+00 -4.84816E+00 -4.03673E+00 -6.21897E+00
  -7.50808E+00 -8.25740E-01 -2.57907E+00  3.94112E+00  4.44640E+00  8.17734E+00  9.76051E+00  9.62420E+00  7.96485E+00  7.51072E-01
  -4.36696E-01 -7.75416E+00  6.50129E-01 -5.16047E+00  6.27536E-01  1.69407E+00  5.38558E+00  5.94483E+00  5.32555E+00  9.34288E+00
   1.06724E+01  5.31776E+00  6.35922E+00  7.03436E+00  2.53004E+00  7.13474E+00  9.71522E+00  8.16836E+00  6.84214E+00  6.95538E+00
   2.76729E+00  4.23914E+00  4.22814E+00  2.03668E+00  9.55306E+00  1.33224E+01  1.04194E+01  1.47378E+01  1.64224E+01  1.60705E+01
   1.58979E+01  2.22861E+01  2.39644E+01  2.97945E+01  3.17238E+01  3.99599E+01  5.52765E+01  6.14663E+01  7.17808E+01  7.80779E+01
   8.78803E+01  8.59465E+01  7.59794E+01  6.23049E+01  4.78640E+01  3.90566E+01  2.85784E+01  2.20301E+01  2.37979E+01  1.76839E+01
   1.29011E+01  1.27479E+01  1.31099E+01  8.82791E+00  1.62384E+01  1.15553E+01  9.80905E+00  1.34195E+01  1.16226E+01  6.55274E+00
   6.57031E+00  9.65713E+00  8.85691E+00  8.40637E+00  1.19768E+01  8.01289E+00  6.73354E+00  1.00251E+01  1.23224E+01  9.19746E+00
   1.18413E+01  9.87111E+00  9.50998E+00  9.87072E+00  9.05103E+00  1.21743E+01  1.09685E+01  4.68336E+00  6.61506E+00  5.35526E+00
   9.69539E+00  5.89528E+00  1.22862E+01  8.71408E+00  1.02259E+01  1.36182E+01  1.09513E+01  1.30033E+01  1.76152E+01  1.37834E+01
   1.36071E+01  1.26116E+01  1.33860E+01  1.62802E+01  1.51372E+01  1.14503E+01  1.07412E+01  1.20427E+01  1.25395E+01  1.34078E+01
   1.33335E+01  1.41543E+01  1.59901E+01  1.65297E+01  1.34690E+01  1.34410E+01  1.24650E+01  1.45432E+01  1.25137E+01  1.10850E+01
   1.38392E+01  6.60667E+00  8.09843E+00  9.24105E+00  7.92721E+00  1.19601E+01  5.54905E+00  5.89105E+00  1.24170E+01  1.14014E+01
   1.00667E+01  5.23041E+00  7.05560E+00  1.18265E+01  1.18300E+01  1.43026E+01  1.21485E+01  1.65660E+01  1.57476E+01  1.08171E+01
   1.13268E+01  1.50835E+01  2.20708E+01  1.97525E+01  2.49387E+01  2.46931E+01  2.66462E+01  2.66981E+01  2.33254E+01  2.47569E+01
   2.65475E+01  2.73500E+01  2.75735E+01  2.10413E+01  2.49222E+01  1.83993E+01  2.47382E+01  2.46578E+01  2.57271E+01  2.62340E+01
   2.49941E+01  2.86654E+01  2.64716E+01  2.23102E+01  1.89820E+01  2.15050E+01  2.31901E+01  2.46470E+01  2.33088E+01  1.63303E+01
   2.31687E+01  2.07232E+01  1.83457E+01  1.53325E+01  1.96978E+01  2.05708E+01  1.78141E+01  2.03048E+01  2.06175E+01  2.11377E+01
   1.89014E+01  2.23414E+01  2.27282E+01  1.95817E+01  2.02802E+01  1.86840E+01  2.45831E+01  2.24882E+01  2.04840E+01  2.31364E+01
   2.20267E+01  2.56163E+01  2.24598E+01  2.63893E+01  2.52053E+01  2.68928E+01  3.02833E+01  2.51477E+01  3.07526E+01  2.89075E+01
   2.65576E+01  2.85259E+01  2.55513E+01  3.03732E+01  2.34508E+01  2.72105E+01  2.93702E+01  2.34933E+01  2.71260E+01  2.28013E+01
   2.52007E+01  2.45188E+01  2.55836E+01  1.57563E+01  2.22624E+01  2.00871E+01  2.37733E+01  2.75007E+01  2.48704E+01  1.99211E+01
   2.27799E+01  1.88155E+01  1.88557E+01  2.21614E+01  2.03348E+01  2.18273E+01  2.15389E+01  1.74609E+01  2.13352E+01  1.52131E+01
   2.15142E+01  1.85136E+01  1.94856E+01  1.24962E+01  1.94833E+01  1.83791E+01  2.19265E+01  1.74269E+01  1.90034E+01  2.14333E+01
   2.19972E+01  1.75987E+01  1.74759E+01  1.78961E+01  1.86119E+01  1.89345E+01  2.12055E+01  1.27105E+01  1.60228E+01  2.07887E+01
   1.64953E+01  1.92954E+01  1.97881E+01  1.56832E+01  1.72965E+01  1.74965E+01  1.78649E+01  1.83538E+01  1.89024E+01  1.96034E+01
   1.99128E+01  1.81589E+01  1.13538E+01  1.53864E+01  2.00751E+01  2.18922E+01  1.75734E+01  1.36549E+01  1.62128E+01  1.93085E+01
   1.77070E+01  1.90827E+01  1.67493E+01  2.10010E+01  1.56335E+01  1.67493E+01  1.66903E+01  1.54419E+01  1.63324E+01  1.61305E+01
   1.93951E+01  1.63491E+01  2.14777E+01  1.79050E+01  1.99108E+01  1.83009E+01  1.93147E+01  1.57888E+01
 NY points of the fit to the data follow
  -6.11371E+01 -5.92292E+01 -5.65712E+01 -5.34663E+01 -4.98103E+01 -4.56245E+01 -4.12323E+01 -3.73129E+01 -3.48598E+01 -3.46632E+01
  -3.67828E+01 -4.04769E+01 -4.45969E+01 -4.82569E+01 -5.11233E+01 -5.32251E+01 -5.47559E+01 -5.58720E+01 -5.64635E+01 -5.63545E+01
  -5.59666E+01 -5.54974E+01 -5.48540E+01 -5.41120E+01 -5.33335E+01 -5.24405E+01 -5.13897E+01 -5.01527E+01 -4.87460E+01 -4.71824E+01
  -4.56264E+01 -4.44173E+01 -4.36622E+01 -4.33236E+01 -4.34532E+01 -4.40865E+01 -4.50206E+01 -4.59282E+01 -4.64610E+01 -4.62314E+01
  -4.51479E+01 -4.34749E+01 -4.14451E+01 -3.91797E+01 -3.68591E+01 -3.48080E+01 -3.35148E+01 -3.33525E+01 -3.43997E+01 -3.63897E+01
  -3.86299E+01 -4.04071E+01 -4.14472E+01 -4.17737E+01 -4.15638E+01 -4.10021E+01 -4.01897E+01 -3.92153E+01 -3.82742E+01 -3.76133E+01
  -3.74079E+01 -3.76285E+01 -3.80995E+01 -3.85015E+01 -3.86033E+01 -3.83320E+01 -3.77311E+01 -3.69052E+01 -3.59494E+01 -3.49737E+01
  -3.40704E+01 -3.32892E+01 -3.26764E+01 -3.22329E+01 -3.19248E+01 -3.17336E+01 -3.16474E+01 -3.16395E+01 -3.15919E+01 -3.11139E+01
  -3.03217E+01 -2.93603E+01 -2.81362E+01 -2.66338E+01 -2.49427E+01 -2.32699E+01 -2.20099E+01 -2.15433E+01 -2.19648E+01 -2.30566E+01
  -2.43078E+01 -2.52033E+01 -2.52791E+01 -2.33901E+01 -1.93057E+01 -1.40585E+01 -7.22255E+00  1.54830E+00  1.18822E+01  2.28602E+01
   3.25993E+01  3.86151E+01  3.91316E+01  3.40150E+01  2.48495E+01  1.40474E+01  3.62890E+00 -5.25070E+00 -1.21951E+01 -1.74298E+01
  -2.12155E+01 -2.33837E+01 -2.42470E+01 -2.45310E+01 -2.44144E+01 -2.40973E+01 -2.36693E+01 -2.30233E+01 -2.14184E+01 -1.80487E+01
  -1.39462E+01 -9.24401E+00 -3.50394E+00  3.29611E+00  1.06550E+01  1.73406E+01  2.15279E+01  2.17649E+01  1.79430E+01  1.14154E+01
   4.17435E+00 -2.28976E+00 -7.41175E+00 -1.12477E+01 -1.41434E+01 -1.64040E+01 -1.77826E+01 -1.80751E+01 -1.78896E+01 -1.75102E+01
  -1.70543E+01 -1.66224E+01 -1.62839E+01 -1.60499E+01 -1.58939E+01 -1.57907E+01 -1.57166E+01 -1.56519E+01 -1.55822E+01 -1.55002E+01
  -1.54010E+01 -1.52781E+01 -1.51417E+01 -1.50491E+01 -1.49752E+01 -1.48791E+01 -1.47676E+01 -1.46472E+01 -1.45981E+01 -1.46416E+01
  -1.46793E+01 -1.46041E+01 -1.43733E+01 -1.40373E+01 -1.37410E+01 -1.36271E+01 -1.37307E+01 -1.39938E+01 -1.43257E+01 -1.46058E+01
  -1.47428E+01 -1.48103E+01 -1.48784E+01 -1.49909E+01 -1.50767E+01 -1.49958E+01 -1.47083E+01 -1.42753E+01 -1.38155E+01 -1.34679E+01
  -1.32081E+01 -1.29059E+01 -1.24920E+01 -1.19416E+01 -1.12605E+01 -1.04742E+01 -9.57856E+00 -8.51431E+00 -7.28047E+00 -6.00475E+00
  -4.93926E+00 -4.22814E+00 -3.84972E+00 -3.71458E+00 -3.71171E+00 -3.72037E+00 -3.63752E+00 -3.45815E+00 -3.13195E+00 -2.61470E+00
  -1.96359E+00 -1.24932E+00 -6.54720E-01 -3.14385E-01 -3.49802E-01 -8.83309E-01 -1.79847E+00 -2.82611E+00 -3.65798E+00 -4.02061E+00
  -3.88514E+00 -3.16424E+00 -1.84434E+00 -9.52165E-02  1.69040E+00  2.96045E+00  3.34189E+00  2.72357E+00  1.17775E+00 -9.12459E-01
  -2.98654E+00 -4.48594E+00 -4.99863E+00 -4.39473E+00 -2.82913E+00 -6.70347E-01  1.62188E+00  3.61943E+00  5.04708E+00  5.94628E+00
   6.47565E+00  6.80862E+00  7.07494E+00  7.33211E+00  7.64773E+00  8.00440E+00  8.32935E+00  8.56656E+00  8.66959E+00  8.61200E+00
   8.49037E+00  8.46040E+00  8.64954E+00  9.13831E+00  9.91134E+00  1.08585E+01  1.18180E+01  1.27313E+01  1.37458E+01  1.48072E+01
   1.59544E+01  1.76503E+01  2.15046E+01  2.80435E+01  3.55568E+01  4.37757E+01  5.29623E+01  6.29345E+01  7.29314E+01  8.12064E+01
   8.52223E+01  8.31313E+01  7.51097E+01  6.34065E+01  5.09784E+01  3.99474E+01  3.11912E+01  2.45908E+01  1.95203E+01  1.55844E+01
   1.31820E+01  1.22145E+01  1.17477E+01  1.14602E+01  1.12598E+01  1.10852E+01  1.08838E+01  1.06542E+01  1.04151E+01  1.01854E+01
   9.98081E+00  9.81110E+00  9.67445E+00  9.56541E+00  9.48306E+00  9.42173E+00  9.37350E+00  9.33678E+00  9.31752E+00  9.32393E+00
   9.36006E+00  9.42280E+00  9.51040E+00  9.62011E+00  9.74647E+00  9.88574E+00  1.00385E+01  1.02065E+01  1.03922E+01  1.05975E+01
   1.08218E+01  1.10620E+01  1.13137E+01  1.15699E+01  1.18232E+01  1.20668E+01  1.22950E+01  1.25034E+01  1.26876E+01  1.28438E+01
   1.29695E+01  1.30635E+01  1.31252E+01  1.31554E+01  1.31564E+01  1.31319E+01  1.30870E+01  1.30291E+01  1.29705E+01  1.29318E+01
   1.29021E+01  1.28519E+01  1.27916E+01  1.27244E+01  1.26324E+01  1.24848E+01  1.22426E+01  1.19069E+01  1.15352E+01  1.11743E+01
   1.08886E+01  1.07387E+01  1.07498E+01  1.09179E+01  1.12118E+01  1.15683E+01  1.19139E+01  1.21948E+01  1.23806E+01  1.24782E+01
   1.25304E+01  1.25773E+01  1.26484E+01  1.27630E+01  1.29358E+01  1.31996E+01  1.35955E+01  1.41454E+01  1.48694E+01  1.57826E+01
   1.68855E+01  1.81574E+01  1.95521E+01  2.09989E+01  2.24088E+01  2.36862E+01  2.47437E+01  2.55170E+01  2.59751E+01  2.61255E+01
   2.60098E+01  2.56945E+01  2.52563E+01  2.47688E+01  2.42904E+01  2.38587E+01  2.34895E+01  2.31801E+01  2.29157E+01  2.26756E+01
   2.24397E+01  2.21915E+01  2.19209E+01  2.16244E+01  2.13039E+01  2.09660E+01  2.06203E+01  2.02775E+01  1.99488E+01  1.96449E+01
   1.93753E+01  1.91482E+01  1.89701E+01  1.88459E+01  1.87792E+01  1.87721E+01  1.88258E+01  1.89406E+01  1.91160E+01  1.93508E+01
   1.96431E+01  1.99908E+01  2.03907E+01  2.08391E+01  2.13314E+01  2.18620E+01  2.24242E+01  2.30103E+01  2.36113E+01  2.42174E+01
   2.48177E+01  2.54007E+01  2.59544E+01  2.64672E+01  2.69277E+01  2.73255E+01  2.76513E+01  2.78980E+01  2.80601E+01  2.81348E+01
   2.81214E+01  2.80218E+01  2.78401E+01  2.75827E+01  2.72577E+01  2.68743E+01  2.64430E+01  2.59745E+01  2.54797E+01  2.49692E+01
   2.44526E+01  2.39389E+01  2.34356E+01  2.29492E+01  2.24848E+01  2.20460E+01  2.16356E+01  2.12550E+01  2.09048E+01  2.05847E+01
   2.02940E+01  2.00313E+01  1.97950E+01  1.95833E+01  1.93943E+01  1.92260E+01  1.90764E+01  1.89437E+01  1.88263E+01  1.87224E+01
   1.86306E+01  1.85497E+01  1.84783E+01  1.84156E+01  1.83604E+01  1.83121E+01  1.82698E+01  1.82329E+01  1.82008E+01  1.81731E+01
   1.81492E+01  1.81289E+01  1.81117E+01  1.80974E+01  1.80856E+01  1.80762E+01  1.80689E+01  1.80636E+01  1.80600E+01  1.80581E+01
   1.80576E+01  1.80585E+01  1.80606E+01  1.80639E+01  1.80683E+01  1.80736E+01  1.80799E+01  1.80870E+01  1.80948E+01  1.81034E+01
   1.81126E+01  1.81225E+01  1.81330E+01  1.81440E+01  1.81556E+01  1.81676E+01  1.81801E+01  1.81930E+01  1.82063E+01  1.82200E+01
   1.82341E+01  1.82485E+01  1.82632E+01  1.82782E+01  1.82935E+01  1.83091E+01  1.83250E+01  1.83411E+01  1.83574E+01  1.83739E+01
   1.83907E+01  1.84076E+01  1.84248E+01  1.84421E+01  1.84596E+01  1.84772E+01  1.84950E+01  1.85129E+01
 NY background values follow
    -6.936E+01   -6.895E+01   -6.854E+01   -6.814E+01   -6.773E+01   -6.733E+01   -6.692E+01   -6.651E+01   -6.611E+01   -6.570E+01
    -6.530E+01   -6.489E+01   -6.448E+01   -6.408E+01   -6.367E+01   -6.327E+01   -6.286E+01   -6.246E+01   -6.205E+01   -6.165E+01
    -6.124E+01   -6.084E+01   -6.043E+01   -6.003E+01   -5.963E+01   -5.922E+01   -5.882E+01   -5.842E+01   -5.802E+01   -5.762E+01
    -5.722E+01   -5.682E+01   -5.642E+01   -5.602E+01   -5.562E+01   -5.522E+01   -5.482E+01   -5.442E+01   -5.403E+01   -5.363E+01
    -5.324E+01   -5.284E+01   -5.245E+01   -5.206E+01   -5.166E+01   -5.127E+01   -5.088E+01   -5.049E+01   -5.010E+01   -4.971E+01
    -4.932E+01   -4.894E+01   -4.855E+01   -4.817E+01   -4.778E+01   -4.740E+01   -4.702E+01   -4.664E+01   -4.626E+01   -4.588E+01
    -4.550E+01   -4.512E+01   -4.474E+01   -4.437E+01   -4.399E+01   -4.362E+01   -4.325E+01   -4.287E+01   -4.250E+01   -4.213E+01
    -4.177E+01   -4.140E+01   -4.103E+01   -4.067E+01   -4.030E+01   -3.994E+01   -3.958E+01   -3.922E+01   -3.886E+01   -3.850E+01
    -3.815E+01   -3.779E+01   -3.744E+01   -3.709E+01   -3.673E+01   -3.638E+01   -3.604E+01   -3.569E+01   -3.534E+01   -3.500E+01
    -3.465E+01   -3.431E+01   -3.397E+01   -3.363E+01   -3.329E+01   -3.296E+01   -3.262E+01   -3.229E+01   -3.196E+01   -3.163E+01
    -3.130E+01   -3.097E+01   -3.064E+01   -3.032E+01   -2.999E+01   -2.967E+01   -2.935E+01   -2.903E+01   -2.871E+01   -2.840E+01
    -2.808E+01   -2.777E+01   -2.745E+01   -2.714E+01   -2.683E+01   -2.653E+01   -2.622E+01   -2.591E+01   -2.561E+01   -2.531E+01
    -2.501E+01   -2.471E+01   -2.441E+01   -2.411E+01   -2.382E+01   -2.352E+01   -2.323E+01   -2.294E+01   -2.265E+01   -2.236E+01
    -2.207E+01   -2.179E+01   -2.150E+01   -2.122E+01   -2.094E+01   -2.066E+01   -2.038E+01   -2.010E+01   -1.983E+01   -1.956E+01
    -1.928E+01   -1.901E+01   -1.874E+01   -1.847E+01   -1.821E+01   -1.794E+01   -1.768E+01   -1.741E+01   -1.715E+01   -1.689E+01
    -1.664E+01   -1.638E+01   -1.612E+01   -1.587E+01   -1.562E+01   -1.536E+01   -1.511E+01   -1.487E+01   -1.462E+01   -1.437E+01
    -1.413E+01   -1.389E+01   -1.364E+01   -1.340E+01   -1.317E+01   -1.293E+01   -1.269E+01   -1.246E+01   -1.223E+01   -1.199E+01
    -1.176E+01   -1.153E+01   -1.131E+01   -1.108E+01   -1.086E+01   -1.063E+01   -1.041E+01   -1.019E+01   -9.970E+00   -9.752E+00
    -9.536E+00   -9.320E+00   -9.107E+00   -8.894E+00   -8.683E+00   -8.474E+00   -8.265E+00   -8.058E+00   -7.853E+00   -7.649E+00
    -7.446E+00   -7.245E+00   -7.045E+00   -6.846E+00   -6.649E+00   -6.453E+00   -6.258E+00   -6.065E+00   -5.874E+00   -5.683E+00
    -5.494E+00   -5.307E+00   -5.121E+00   -4.936E+00   -4.752E+00   -4.570E+00   -4.390E+00   -4.211E+00   -4.033E+00   -3.856E+00
    -3.681E+00   -3.508E+00   -3.335E+00   -3.164E+00   -2.995E+00   -2.827E+00   -2.660E+00   -2.495E+00   -2.331E+00   -2.168E+00
    -2.007E+00   -1.848E+00   -1.689E+00   -1.532E+00   -1.377E+00   -1.223E+00   -1.070E+00   -9.189E-01   -7.690E-01   -6.204E-01
    -4.732E-01   -3.274E-01   -1.829E-01   -3.966E-02    1.023E-01    2.429E-01    3.822E-01    5.203E-01    6.572E-01    7.929E-01
     9.273E-01    1.061E+00    1.193E+00    1.324E+00    1.453E+00    1.582E+00    1.709E+00    1.836E+00    1.961E+00    2.085E+00
     2.208E+00    2.331E+00    2.452E+00    2.572E+00    2.691E+00    2.809E+00    2.926E+00    3.042E+00    3.157E+00    3.272E+00
     3.385E+00    3.498E+00    3.609E+00    3.720E+00    3.830E+00    3.939E+00    4.047E+00    4.155E+00    4.261E+00    4.367E+00
     4.472E+00    4.576E+00    4.680E+00    4.783E+00    4.885E+00    4.987E+00    5.087E+00    5.187E+00    5.287E+00    5.385E+00
     5.484E+00    5.581E+00    5.678E+00    5.774E+00    5.869E+00    5.964E+00    6.059E+00    6.152E+00    6.245E+00    6.338E+00
     6.430E+00    6.521E+00    6.612E+00    6.703E+00    6.792E+00    6.882E+00    6.970E+00    7.059E+00    7.147E+00    7.234E+00
     7.321E+00    7.407E+00    7.493E+00    7.578E+00    7.663E+00    7.748E+00    7.832E+00    7.916E+00    7.999E+00    8.082E+00
     8.165E+00    8.247E+00    8.329E+00    8.410E+00    8.491E+00    8.572E+00    8.653E+00    8.733E+00    8.813E+00    8.892E+00
     8.971E+00    9.050E+00    9.129E+00    9.207E+00    9.285E+00    9.363E+00    9.440E+00    9.517E+00    9.593E+00    9.670E+00
     9.746E+00    9.821E+00    9.897E+00    9.972E+00    1.005E+01    1.012E+01    1.019E+01    1.027E+01    1.034E+01    1.041E+01
     1.049E+01    1.056E+01    1.063E+01    1.070E+01    1.078E+01    1.085E+01    1.092E+01    1.099E+01    1.106E+01    1.113E+01
     1.120E+01    1.127E+01    1.133E+01    1.140E+01    1.147E+01    1.154E+01    1.161E+01    1.167E+01    1.174E+01    1.181E+01
     1.187E+01    1.194E+01    1.200E+01    1.207E+01    1.213E+01    1.220E+01    1.226E+01    1.232E+01    1.239E+01    1.245E+01
     1.251E+01    1.257E+01    1.264E+01    1.270E+01    1.276E+01    1.282E+01    1.288E+01    1.294E+01    1.300E+01    1.306E+01
     1.312E+01    1.317E+01    1.323E+01    1.329E+01    1.335E+01    1.340E+01    1.346E+01    1.352E+01    1.357E+01    1.363E+01
     1.368E+01    1.374E+01    1.379E+01    1.384E+01    1.390E+01    1.395E+01    1.400E+01    1.405E+01    1.411E+01    1.416E+01
     1.421E+01    1.426E+01    1.431E+01    1.436E+01    1.441E+01    1.446E+01    1.451E+01    1.455E+01    1.460E+01    1.465E+01
     1.469E+01    1.474E+01    1.479E+01    1.483E+01    1.488E+01    1.492E+01    1.497E+01    1.501E+01    1.505E+01    1.510E+01
     1.514E+01    1.518E+01    1.522E+01    1.527E+01    1.531E+01    1.535E+01    1.539E+01    1.543E+01    1.547E+01    1.551E+01
     1.555E+01    1.559E+01    1.563E+01    1.566E+01    1.570E+01    1.574E+01    1.578E+01    1.581E+01    1.585E+01    1.589E+01
     1.592E+01    1.596E+01    1.599E+01    1.603E+01    1.606E+01    1.610E+01    1.613E+01    1.617E+01    1.620E+01    1.623E+01
     1.627E+01    1.630E+01    1.633E+01    1.636E+01    1.640E+01    1.643E+01    1.646E+01    1.649E+01    1.652E+01    1.655E+01
     1.658E+01    1.662E+01    1.665E+01    1.668E+01    1.671E+01    1.674E+01    1.677E+01    1.680E+01    1.682E+01    1.685E+01
     1.688E+01    1.691E+01    1.694E+01    1.697E+01    1.700E+01    1.703E+01    1.705E+01    1.708E+01    1.711E+01    1.714E+01
     1.717E+01    1.720E+01    1.722E+01    1.725E+01    1.728E+01    1.731E+01    1.733E+01    1.736E+01    1.739E+01    1.742E+01
     1.745E+01    1.747E+01    1.750E+01    1.753E+01    1.756E+01    1.758E+01    1.761E+01    1.764E+01
 Ala      Conc. = 8.83E+01
