 LCModel (Version 6.3-1L) Copyright: S.W. Provencher.          Ref.: Magn. Reson. Med. 30:672-679 (1993).                
 Slice#1 Row#6 Col#8  PD_24_press_1_raw_act
 36 lines in following concentration table = NCONC+1
    Conc.  %SD /Cr+PCr  Metabolite                                         
   26.723 753% 6.7E-02 Ala                                                 
   73.173 175%   0.183 Asp                                                 
    0.000 999%   0.000 Cr                                                  
  400.238  16%   1.000 PCr                                                 
  105.256  75%   0.263 GABA                                                
   90.274  87%   0.226 Glc                                                 
 1.59E+03  30%   3.967 Gln                                                 
 1.30E+03  41%   3.260 Glu                                                 
  302.393   8%   0.756 GPC                                                 
    0.000 999%   0.000 PCh                                                 
  137.439  74%   0.343 GSH                                                 
  910.783  32%   2.276 Ins                                                 
    0.000 999%   0.000 Lac                                                 
  902.894  16%   2.256 NAA                                                 
  202.095  79%   0.505 NAAG                                                
   53.258  41%   0.133 Scyllo                                              
  110.058 111%   0.275 Tau                                                 
   71.289 122%   0.178 -CrCH2                                              
  302.393   8%   0.756 GPC+PCh                                             
 1.10E+03   8%   2.761 NAA+NAAG                                            
  400.238  16%   1.000 Cr+PCr                                              
 2.89E+03  31%   7.227 Glu+Gln                                             
 2.22E+03  72%   5.551 Lip13a                                              
 1.28E+03 128%   3.189 Lip13b                                              
  755.101  38%   1.887 Lip09                                               
  313.768  82%   0.784 MM09                                                
  190.836 135%   0.477 Lip20                                               
  639.051  55%   1.597 MM20                                                
  106.798 126%   0.267 MM12                                                
    0.000 999%   0.000 MM14                                                
   29.176 601% 7.3E-02 MM17                                                
 3.50E+03  11%   8.740 Lip13a+Lip13b                                       
 3.61E+03  10%   9.007 MM14+Lip13a+Lip13b+MM12                             
 1.07E+03  18%   2.671 MM09+Lip09                                          
  829.887  40%   2.073 MM20+Lip20                                          
   6 lines in following misc. output table
  FWHM = 0.084 ppm    S/N =   3                                            
  Data shift =-0.015 ppm                                                   
  Ph: -42 deg      -0.1 deg/ppm                                            
  alphaB,S = 8.5E+01,   2.0E+02                                            
   14 spline knots.   Ns = 9(1)                                            
   2 inflections.     1 extrema                                            
  498 points on ppm-axis = NY
      4.000000     3.992357     3.984714     3.977070     3.969427     3.961784     3.954141     3.946497     3.938854     3.931211
      3.923568     3.915925     3.908281     3.900638     3.892995     3.885352     3.877708     3.870065     3.862422     3.854779
      3.847136     3.839492     3.831849     3.824206     3.816563     3.808919     3.801276     3.793633     3.785990     3.778347
      3.770703     3.763060     3.755417     3.747774     3.740130     3.732487     3.724844     3.717201     3.709558     3.701914
      3.694271     3.686628     3.678985     3.671341     3.663698     3.656055     3.648412     3.640769     3.633125     3.625482
      3.617839     3.610196     3.602552     3.594909     3.587266     3.579623     3.571980     3.564336     3.556693     3.549050
      3.541407     3.533763     3.526120     3.518477     3.510834     3.503191     3.495547     3.487904     3.480261     3.472618
      3.464974     3.457331     3.449688     3.442045     3.434402     3.426758     3.419115     3.411472     3.403829     3.396185
      3.388542     3.380899     3.373256     3.365613     3.357969     3.350326     3.342683     3.335040     3.327396     3.319753
      3.312110     3.304467     3.296824     3.289180     3.281537     3.273894     3.266251     3.258607     3.250964     3.243321
      3.235678     3.228034     3.220391     3.212748     3.205105     3.197462     3.189818     3.182175     3.174532     3.166889
      3.159245     3.151602     3.143959     3.136316     3.128673     3.121029     3.113386     3.105743     3.098100     3.090456
      3.082813     3.075170     3.067527     3.059884     3.052240     3.044597     3.036954     3.029311     3.021667     3.014024
      3.006381     2.998738     2.991095     2.983451     2.975808     2.968165     2.960522     2.952878     2.945235     2.937592
      2.929949     2.922306     2.914662     2.907019     2.899376     2.891733     2.884089     2.876446     2.868803     2.861160
      2.853517     2.845873     2.838230     2.830587     2.822944     2.815300     2.807657     2.800014     2.792371     2.784728
      2.777084     2.769441     2.761798     2.754155     2.746511     2.738868     2.731225     2.723582     2.715939     2.708295
      2.700652     2.693009     2.685366     2.677722     2.670079     2.662436     2.654793     2.647150     2.639506     2.631863
      2.624220     2.616577     2.608933     2.601290     2.593647     2.586004     2.578361     2.570717     2.563074     2.555431
      2.547788     2.540144     2.532501     2.524858     2.517215     2.509572     2.501928     2.494285     2.486642     2.478999
      2.471355     2.463712     2.456069     2.448426     2.440783     2.433139     2.425496     2.417853     2.410210     2.402566
      2.394923     2.387280     2.379637     2.371994     2.364350     2.356707     2.349064     2.341421     2.333777     2.326134
      2.318491     2.310848     2.303205     2.295561     2.287918     2.280275     2.272632     2.264988     2.257345     2.249702
      2.242059     2.234416     2.226772     2.219129     2.211486     2.203843     2.196199     2.188556     2.180913     2.173270
      2.165627     2.157983     2.150340     2.142697     2.135054     2.127410     2.119767     2.112124     2.104481     2.096838
      2.089194     2.081551     2.073908     2.066265     2.058621     2.050978     2.043335     2.035692     2.028049     2.020405
      2.012762     2.005119     1.997476     1.989833     1.982190     1.974546     1.966903     1.959260     1.951617     1.943974
      1.936331     1.928688     1.921045     1.913402     1.905759     1.898115     1.890472     1.882829     1.875186     1.867543
      1.859900     1.852257     1.844614     1.836971     1.829327     1.821684     1.814041     1.806398     1.798755     1.791112
      1.783469     1.775826     1.768183     1.760540     1.752896     1.745253     1.737610     1.729967     1.722324     1.714681
      1.707038     1.699395     1.691752     1.684108     1.676465     1.668822     1.661179     1.653536     1.645893     1.638250
      1.630607     1.622964     1.615321     1.607677     1.600034     1.592391     1.584748     1.577105     1.569462     1.561819
      1.554176     1.546533     1.538890     1.531246     1.523603     1.515960     1.508317     1.500674     1.493031     1.485388
      1.477745     1.470102     1.462458     1.454815     1.447172     1.439529     1.431886     1.424243     1.416600     1.408957
      1.401314     1.393671     1.386027     1.378384     1.370741     1.363098     1.355455     1.347812     1.340169     1.332526
      1.324883     1.317240     1.309596     1.301953     1.294310     1.286667     1.279024     1.271381     1.263738     1.256095
      1.248452     1.240808     1.233165     1.225522     1.217879     1.210236     1.202593     1.194950     1.187307     1.179664
      1.172021     1.164377     1.156734     1.149091     1.141448     1.133805     1.126162     1.118519     1.110876     1.103233
      1.095590     1.087946     1.080303     1.072660     1.065017     1.057374     1.049731     1.042088     1.034445     1.026802
      1.019158     1.011515     1.003872     0.996229     0.988586     0.980943     0.973300     0.965657     0.958014     0.950371
      0.942727     0.935084     0.927441     0.919798     0.912155     0.904512     0.896869     0.889226     0.881583     0.873940
      0.866296     0.858653     0.851010     0.843367     0.835724     0.828081     0.820438     0.812795     0.805152     0.797508
      0.789865     0.782222     0.774579     0.766936     0.759293     0.751650     0.744007     0.736364     0.728721     0.721077
      0.713434     0.705791     0.698148     0.690505     0.682862     0.675219     0.667576     0.659933     0.652290     0.644646
      0.637003     0.629360     0.621717     0.614074     0.606431     0.598788     0.591145     0.583502     0.575858     0.568215
      0.560572     0.552929     0.545286     0.537643     0.530000     0.522357     0.514714     0.507071     0.499427     0.491784
      0.484141     0.476498     0.468855     0.461212     0.453569     0.445925     0.438282     0.430639     0.422996     0.415353
      0.407710     0.400067     0.392424     0.384780     0.377137     0.369494     0.361851     0.354208     0.346565     0.338922
      0.331278     0.323635     0.315992     0.308349     0.300706     0.293063     0.285420     0.277777     0.270133     0.262490
      0.254847     0.247204     0.239561     0.231918     0.224275     0.216631     0.208988     0.201345
 NY phased data points follow
   3.56018E+00 -3.40490E+00  4.24347E+00 -5.00314E+00  5.53463E+00  3.76686E+00  9.09464E+00  1.84940E+00  8.41185E+00 -6.69215E-01
   9.72765E+00 -1.25059E-01  7.57928E+00 -5.33644E+00  4.67610E+00 -3.61797E+00  6.15265E+00 -1.40597E+00  3.29068E+00  1.15815E+00
   6.29439E+00  3.77214E+00  4.26239E+00 -2.90628E+00  1.48783E+00 -8.88766E-03  1.53045E+00 -1.57191E-01  6.14153E+00  3.19888E-01
   7.39038E+00 -1.81632E+00  1.27786E+00  3.24145E+00  1.39491E+00 -2.31029E+00  7.48852E+00  1.16331E+00  5.87127E+00 -2.48708E-01
   4.90673E+00  3.18310E+00  4.68831E+00 -6.64735E-01  4.62512E+00  1.05542E+00  6.02009E+00  3.45537E+00  2.99398E+00  1.08843E+00
   6.69663E+00 -1.53668E+00  6.31849E+00 -6.41865E-01  2.01479E+00 -1.67634E-01  1.72313E+00 -5.30800E+00  4.33317E+00 -4.22327E+00
   7.35138E-02 -5.56737E+00 -3.33094E+00  1.64168E-01  3.61812E+00 -1.23422E+01 -1.40247E+00 -5.84178E+00 -4.32368E+00 -7.18504E+00
   5.83101E+00 -1.75278E-01  4.45198E+00 -1.71651E+00  2.64844E+00 -2.21343E+00  4.74058E+00 -4.68978E+00 -1.71447E-01 -2.58859E+00
   1.39471E+00 -5.48496E+00  2.72938E-01  2.28452E+00  6.99074E+00 -2.62392E+00  4.29790E+00 -2.60201E+00  2.81699E-01 -2.80336E+00
  -2.32816E-01 -3.63815E+00  3.28794E-01 -1.68691E+00 -1.12219E+00 -3.56527E+00 -1.84509E-01 -1.09538E-01  1.14071E+01  1.12652E+01
   1.84387E+01  1.95025E+01  2.36581E+01  9.39396E+00  1.59329E+01  6.72571E+00  1.58827E+01  6.23738E+00  9.93664E+00  3.96293E+00
   1.66173E+00  3.49608E+00 -9.93002E-01 -3.25755E+00  4.23475E-01 -3.50240E+00  1.05778E-01 -8.90399E+00 -4.23419E+00 -4.40565E+00
  -1.93725E+00 -2.94248E+00 -1.05883E+00  1.00890E+00  5.61922E+00  3.32213E+00  1.00159E+01 -2.92936E+00  4.59428E+00  8.27255E+00
   8.63690E+00  1.33927E+00  1.07115E+01  3.25399E+00 -4.87764E+00  5.04520E+00 -2.36866E+00 -1.52151E+00 -7.79643E+00 -6.75225E+00
   8.71356E+00 -7.87266E+00 -8.58046E+00 -7.03965E+00 -9.44185E-02 -5.94369E+00  7.65680E-01 -1.03698E+01  1.07279E+00 -6.88297E+00
  -2.48842E+00 -7.44265E+00  1.34306E-01 -1.74629E+00 -2.73722E+00 -8.35830E+00 -3.30428E+00 -4.61069E+00 -4.41222E+00 -7.10822E+00
  -6.27212E+00 -1.11206E+01  4.64493E+00 -9.50429E+00 -1.88284E+00 -8.83772E+00 -2.95779E+00 -7.61556E+00 -1.55202E+00 -1.21411E+01
  -1.06486E+01 -1.19587E+01 -4.81728E+00 -1.20109E+01 -7.92289E+00 -1.11238E+01 -1.07094E+01 -8.65696E+00 -1.05775E+01 -1.52017E+01
  -1.08555E+01 -1.30903E+01 -8.80356E+00 -1.31188E+01 -5.42846E+00 -1.06991E+01 -6.22676E-01 -6.00831E+00 -1.29122E+00 -4.83805E+00
  -7.60816E+00 -9.00191E+00 -3.98469E+00 -5.05945E+00 -2.78575E+00  1.69137E+00 -7.52029E+00 -8.00155E+00 -3.22266E+00 -5.58665E+00
   1.62942E+00 -8.92088E-01  1.26008E+00 -5.11082E+00  8.17861E-01 -1.50657E+00 -3.73289E+00 -7.73941E+00 -3.71556E+00 -1.06378E+01
  -5.21569E+00 -9.23491E+00 -3.66040E+00 -9.00749E+00 -3.42723E+00 -4.05778E+00  1.78103E-01 -2.99163E+00  1.82442E+00 -1.02089E+01
  -3.78004E+00 -3.42541E+00 -2.91515E+00 -5.81787E+00  3.02576E+00 -5.04313E-01 -5.92320E+00 -5.35802E+00 -1.84309E+00 -9.96775E-01
   8.37471E-01 -5.10513E+00 -2.85003E+00 -5.52091E+00 -4.67606E+00  1.90568E+00  3.36738E+00  3.75458E+00 -1.07681E+00 -2.57408E-01
  -1.42767E+00 -2.28617E+00  2.59142E+00 -4.49965E+00  1.45832E+00 -2.60800E+00  2.74830E+00 -6.60763E-01  1.92177E+00 -7.06989E+00
   7.67890E+00  1.39755E+00  6.76747E+00  5.51966E+00  1.14636E+01  6.41592E+00  1.46247E+01  1.95527E+01  2.68164E+01  2.08997E+01
   2.51796E+01  1.38809E+01  2.07814E+01  2.68876E+01  2.09522E+01  1.41837E+01  9.32980E+00  7.50828E+00  3.10991E+00 -2.46028E+00
  -9.09530E-01 -1.61956E-01 -6.94809E-01 -5.35457E+00  2.49673E+00 -2.66528E+00  3.53728E+00  1.31173E+00  3.07669E+00 -4.72134E-02
  -2.06079E+00 -6.10522E+00 -8.23243E+00 -2.04646E+00 -3.87610E+00 -2.05542E+00 -4.41745E+00 -7.79164E+00 -5.12923E+00 -5.65937E+00
  -5.75250E+00 -3.35115E+00 -2.49004E+00 -1.16557E+00 -2.26154E+00 -3.04728E+00 -2.21675E+00 -2.34890E-01 -6.79325E-01 -5.21503E+00
  -5.25294E+00 -4.65776E+00  2.00293E-02 -5.57161E+00  5.76432E-01 -6.38389E+00  1.74052E+00 -7.08095E+00 -7.26921E-01  1.63983E+00
  -4.32049E+00 -4.68911E+00 -1.29651E+00 -1.14780E+01  9.09646E-01 -1.62600E+00 -2.56066E+00 -1.23149E+00 -2.26595E-01 -3.62997E+00
   2.61814E+00 -2.06417E+00 -2.14194E+00 -4.59140E+00 -4.61465E+00 -6.03832E+00 -9.35921E+00 -9.33173E+00  6.91754E-01 -7.84892E+00
   7.60229E-01 -8.16117E+00 -9.24432E-01  5.67340E-01  2.59853E+00 -5.76267E-01 -1.85227E-01 -6.22967E-01 -2.85635E+00  1.23984E+00
  -9.92277E-01  4.53179E+00  3.68202E+00  2.51384E+00  8.00167E+00  8.26173E+00  8.36890E+00  1.69447E+01  1.23968E+01  1.98410E+01
   1.72557E+01  1.59573E+01  1.84547E+01  2.29165E+01  2.18031E+01  1.35938E+01  1.95944E+01  1.76975E+01  1.89447E+01  1.20626E+01
   1.99811E+01  1.34966E+01  1.44410E+01  1.34615E+01  8.19281E+00  1.28646E+01  9.11718E+00  9.53139E+00  1.40975E-01  8.57305E+00
   3.18259E+00  4.91633E+00  9.70926E+00  4.04863E-01  2.02357E+00 -5.29450E-01  5.54589E-01 -3.15663E-01  4.41776E+00 -2.09248E+00
   9.65681E-01 -3.04789E+00  8.75056E+00  1.88323E+00 -3.89075E-01  2.93817E+00 -2.43990E+00 -3.40699E+00  2.25917E-01 -2.02001E+00
  -5.98253E-01 -3.27458E+00  4.66508E+00  2.87568E-01  8.89388E+00 -2.92332E+00  6.34623E+00  2.40272E+00  7.83512E+00  2.10321E+00
   4.38506E+00  1.36389E+00  2.29922E+00  3.16565E+00  8.24856E+00 -4.29008E-01  4.67327E+00  2.29878E+00  5.51516E+00  8.94244E+00
   6.17391E+00 -8.68027E-02  3.41479E+00  1.06626E+00  5.92221E+00  2.07075E+00  7.82639E+00 -1.42491E+00 -2.61222E+00  1.02539E+00
   7.66211E-01  1.10917E+00 -2.51969E-01 -1.81610E+00 -2.69188E+00 -7.42610E+00  1.51067E+00  4.15506E+00 -2.08895E+00 -3.06128E+00
   7.07712E-01 -6.70844E+00 -1.41010E+00  2.31740E+00 -4.86082E+00 -5.08965E+00 -1.00398E+01 -3.59635E+00 -1.06770E+00 -2.59845E-01
  -3.10633E+00  3.93564E-01 -3.56382E+00 -1.12037E+00 -5.39793E+00 -3.62020E+00 -3.20240E+00 -6.86833E+00 -2.01547E+00 -5.15134E+00
  -5.65115E+00 -5.61440E-01 -5.25387E+00 -2.83786E+00 -8.66412E+00 -2.69359E+00 -3.89028E+00 -3.79468E+00 -3.56627E+00 -7.17997E+00
  -7.73206E+00 -5.84123E+00 -1.54522E+00 -4.12299E+00  3.35387E+00 -1.31430E+00 -6.55031E+00 -2.48855E+00 -6.16953E-01 -2.00626E+00
   9.30779E-01  1.78506E+00  1.76162E+00 -5.35841E+00 -1.41315E+00 -4.61712E+00 -1.12164E+00 -3.53377E+00  5.61715E-01 -7.05431E+00
  -2.08579E+00 -8.44834E+00  2.71852E-01 -7.77012E+00 -1.61660E+00 -5.47645E+00 -9.21249E-01 -7.49716E+00  8.31165E-01 -1.10069E+01
  -1.04578E+00 -1.92100E+00  3.09150E+00 -3.48397E+00  8.55311E-01 -3.76161E+00 -1.23073E+00 -5.77195E+00
 NY points of the fit to the data follow
   6.14302E-01  6.09555E-01  8.32794E-01  1.32132E+00  2.05364E+00  2.88093E+00  3.64720E+00  4.23727E+00  4.57637E+00  4.68208E+00
   4.63258E+00  4.47978E+00  4.21146E+00  3.79694E+00  3.24672E+00  2.62143E+00  2.01095E+00  1.48688E+00  1.07159E+00  7.59551E-01
   5.47684E-01  3.40680E-01  2.67341E-02 -3.00318E-01 -4.58349E-01 -2.78079E-01  3.28523E-01  1.27985E+00  2.33229E+00  3.18017E+00
   3.62655E+00  3.65159E+00  3.37329E+00  2.98101E+00  2.63470E+00  2.37963E+00  2.15594E+00  1.84730E+00  1.40342E+00  9.21149E-01
   6.07093E-01  6.46685E-01  1.08870E+00  1.90022E+00  2.85179E+00  3.61627E+00  4.00525E+00  3.98214E+00  3.64201E+00  3.11341E+00
   2.52342E+00  1.92450E+00  1.30883E+00  7.17100E-01  2.01640E-01 -2.20344E-01 -5.33996E-01 -7.20421E-01 -7.84061E-01 -7.74635E-01
  -7.66731E-01 -7.91691E-01 -8.41285E-01 -8.93798E-01 -9.47233E-01 -1.00258E+00 -1.04849E+00 -1.06733E+00 -1.05117E+00 -9.98214E-01
  -8.97437E-01 -7.61695E-01 -6.30475E-01 -5.35878E-01 -5.07209E-01 -5.48706E-01 -6.39043E-01 -7.27690E-01 -7.77016E-01 -7.82087E-01
  -7.52672E-01 -7.21058E-01 -7.27276E-01 -8.00584E-01 -9.66942E-01 -1.20313E+00 -1.43926E+00 -1.61672E+00 -1.73483E+00 -1.83062E+00
  -1.93107E+00 -2.02797E+00 -2.06956E+00 -1.91062E+00 -1.26275E+00  5.80114E-02  2.17854E+00  5.10244E+00  8.51641E+00  1.18475E+01
   1.44879E+01  1.60451E+01  1.65099E+01  1.62021E+01  1.54788E+01  1.44345E+01  1.29320E+01  1.08785E+01  8.36979E+00  5.62127E+00
   2.87435E+00  3.37265E-01 -1.75589E+00 -3.08234E+00 -3.52006E+00 -3.59818E+00 -3.59768E+00 -3.52454E+00 -3.27426E+00 -2.73797E+00
  -1.85766E+00 -6.11237E-01  9.31344E-01  2.57249E+00  4.03555E+00  5.08606E+00  5.63694E+00  5.76993E+00  5.63567E+00  5.30041E+00
   4.70870E+00  3.79439E+00  2.59188E+00  1.22258E+00 -1.71701E-01 -1.46367E+00 -2.54882E+00 -3.30733E+00 -3.63507E+00 -3.69882E+00
  -3.69914E+00 -3.67066E+00 -3.61978E+00 -3.55668E+00 -3.49345E+00 -3.45037E+00 -3.45138E+00 -3.49809E+00 -3.58388E+00 -3.69523E+00
  -3.80696E+00 -3.90233E+00 -3.98135E+00 -4.05165E+00 -4.13065E+00 -4.22887E+00 -4.34240E+00 -4.45605E+00 -4.54931E+00 -4.60620E+00
  -4.62889E+00 -4.64349E+00 -4.68064E+00 -4.75324E+00 -4.85110E+00 -4.95334E+00 -5.04364E+00 -5.12288E+00 -5.20660E+00 -5.30603E+00
  -5.42729E+00 -5.57257E+00 -5.73262E+00 -5.87401E+00 -5.97058E+00 -6.02075E+00 -6.04036E+00 -6.05777E+00 -6.07500E+00 -6.06709E+00
  -6.01627E+00 -5.92385E+00 -5.79130E+00 -5.60854E+00 -5.36270E+00 -5.06198E+00 -4.74664E+00 -4.48278E+00 -4.32473E+00 -4.29644E+00
  -4.40719E+00 -4.63737E+00 -4.93313E+00 -5.19175E+00 -5.30027E+00 -5.17421E+00 -4.76551E+00 -4.08068E+00 -3.19861E+00 -2.23715E+00
  -1.35646E+00 -7.78102E-01 -6.70399E-01 -1.09684E+00 -2.05427E+00 -3.41647E+00 -4.89098E+00 -6.11316E+00 -6.82702E+00 -6.95323E+00
  -6.57806E+00 -5.88239E+00 -5.02527E+00 -4.12497E+00 -3.31298E+00 -2.69003E+00 -2.26516E+00 -2.02633E+00 -1.96709E+00 -2.05149E+00
  -2.26705E+00 -2.62767E+00 -2.98368E+00 -3.20337E+00 -3.30867E+00 -3.25203E+00 -2.95102E+00 -2.41853E+00 -1.83722E+00 -1.35616E+00
  -1.03291E+00 -8.85981E-01 -8.85501E-01 -9.53857E-01 -9.72036E-01 -8.18526E-01 -5.45325E-01 -3.46278E-01 -3.47376E-01 -5.51440E-01
  -8.81042E-01 -1.25640E+00 -1.63160E+00 -1.98308E+00 -2.30026E+00 -2.56433E+00 -2.73048E+00 -2.71229E+00 -2.35601E+00 -1.56360E+00
  -3.54764E-01  1.32775E+00  3.58528E+00  6.34911E+00  9.51364E+00  1.30701E+01  1.67910E+01  2.01654E+01  2.26205E+01  2.38070E+01
   2.37578E+01  2.28401E+01  2.14375E+01  1.96372E+01  1.73440E+01  1.45617E+01  1.14927E+01  8.40677E+00  5.43731E+00  2.72781E+00
   5.51925E-01 -7.23205E-01 -1.20014E+00 -1.42721E+00 -1.57882E+00 -1.68668E+00 -1.77630E+00 -1.86464E+00 -1.94831E+00 -2.03520E+00
  -2.13273E+00 -2.24338E+00 -2.36344E+00 -2.48627E+00 -2.59696E+00 -2.68254E+00 -2.74190E+00 -2.77900E+00 -2.79974E+00 -2.81122E+00
  -2.81998E+00 -2.83151E+00 -2.84937E+00 -2.87121E+00 -2.89400E+00 -2.91628E+00 -2.93669E+00 -2.95308E+00 -2.96570E+00 -2.97579E+00
  -2.98383E+00 -2.99007E+00 -2.99460E+00 -2.99613E+00 -2.99443E+00 -2.99079E+00 -2.98598E+00 -2.98048E+00 -2.97470E+00 -2.96919E+00
  -2.96436E+00 -2.95931E+00 -2.95304E+00 -2.94476E+00 -2.93352E+00 -2.91841E+00 -2.89838E+00 -2.87155E+00 -2.83487E+00 -2.78738E+00
  -2.73051E+00 -2.66713E+00 -2.60251E+00 -2.54350E+00 -2.49561E+00 -2.45954E+00 -2.42765E+00 -2.38629E+00 -2.32261E+00 -2.22724E+00
  -2.09381E+00 -1.91716E+00 -1.69366E+00 -1.42238E+00 -1.10317E+00 -7.32711E-01 -3.01924E-01  2.01647E-01  7.86949E-01  1.45383E+00
   2.20648E+00  3.05832E+00  4.02405E+00  5.11661E+00  6.34449E+00  7.71023E+00  9.20994E+00  1.08214E+01  1.24982E+01  1.41799E+01
   1.57936E+01  1.72594E+01  1.84972E+01  1.94359E+01  2.00216E+01  2.02247E+01  2.00430E+01  1.95017E+01  1.86490E+01  1.75492E+01
   1.62742E+01  1.48956E+01  1.34776E+01  1.20727E+01  1.07199E+01  9.44505E+00  8.26261E+00  7.17826E+00  6.19175E+00  5.29926E+00
   4.49528E+00  3.77381E+00  3.12906E+00  2.55574E+00  2.04910E+00  1.60491E+00  1.21939E+00  8.89102E-01  6.10972E-01  3.82214E-01
   2.00383E-01  6.33546E-02 -3.06280E-02 -8.30051E-02 -9.49149E-02 -6.72896E-02 -9.13278E-04  1.03431E-01  2.44861E-01  4.22199E-01
   6.33837E-01  8.77541E-01  1.15035E+00  1.44842E+00  1.76699E+00  2.10034E+00  2.44182E+00  2.78396E+00  3.11868E+00  3.43749E+00
   3.73185E+00  3.99343E+00  4.21452E+00  4.38834E+00  4.50938E+00  4.57366E+00  4.57892E+00  4.52468E+00  4.41228E+00  4.24477E+00
   4.02672E+00  3.76399E+00  3.46342E+00  3.13245E+00  2.77880E+00  2.41015E+00  2.03385E+00  1.65666E+00  1.28455E+00  9.22596E-01
   5.74921E-01  2.44666E-01 -6.59334E-02 -3.55511E-01 -6.23437E-01 -8.69726E-01 -1.09488E+00 -1.29980E+00 -1.48564E+00 -1.65375E+00
  -1.80556E+00 -1.94255E+00 -2.06615E+00 -2.17774E+00 -2.27859E+00 -2.36989E+00 -2.45273E+00 -2.52808E+00 -2.59678E+00 -2.65960E+00
  -2.71720E+00 -2.77017E+00 -2.81903E+00 -2.86424E+00 -2.90616E+00 -2.94516E+00 -2.98151E+00 -3.01550E+00 -3.04734E+00 -3.07725E+00
  -3.10540E+00 -3.13193E+00 -3.15700E+00 -3.18074E+00 -3.20324E+00 -3.22462E+00 -3.24495E+00 -3.26432E+00 -3.28280E+00 -3.30046E+00
  -3.31736E+00 -3.33354E+00 -3.34905E+00 -3.36394E+00 -3.37825E+00 -3.39204E+00 -3.40532E+00 -3.41812E+00 -3.43048E+00 -3.44242E+00
  -3.45397E+00 -3.46516E+00 -3.47600E+00 -3.48651E+00 -3.49672E+00 -3.50664E+00 -3.51629E+00 -3.52569E+00 -3.53485E+00 -3.54378E+00
  -3.55249E+00 -3.56101E+00 -3.56934E+00 -3.57750E+00 -3.58548E+00 -3.59332E+00 -3.60101E+00 -3.60858E+00 -3.61603E+00 -3.62336E+00
  -3.63059E+00 -3.63773E+00 -3.64479E+00 -3.65179E+00 -3.65873E+00 -3.66562E+00 -3.67247E+00 -3.67930E+00
 NY background values follow
    -3.963E+00   -3.964E+00   -3.965E+00   -3.966E+00   -3.967E+00   -3.968E+00   -3.969E+00   -3.970E+00   -3.970E+00   -3.971E+00
    -3.972E+00   -3.973E+00   -3.974E+00   -3.975E+00   -3.976E+00   -3.977E+00   -3.977E+00   -3.978E+00   -3.979E+00   -3.980E+00
    -3.981E+00   -3.982E+00   -3.983E+00   -3.984E+00   -3.984E+00   -3.985E+00   -3.986E+00   -3.987E+00   -3.988E+00   -3.989E+00
    -3.990E+00   -3.991E+00   -3.991E+00   -3.992E+00   -3.993E+00   -3.994E+00   -3.995E+00   -3.996E+00   -3.997E+00   -3.997E+00
    -3.998E+00   -3.999E+00   -4.000E+00   -4.001E+00   -4.002E+00   -4.002E+00   -4.003E+00   -4.004E+00   -4.005E+00   -4.006E+00
    -4.007E+00   -4.008E+00   -4.008E+00   -4.009E+00   -4.010E+00   -4.011E+00   -4.012E+00   -4.013E+00   -4.013E+00   -4.014E+00
    -4.015E+00   -4.016E+00   -4.017E+00   -4.018E+00   -4.018E+00   -4.019E+00   -4.020E+00   -4.021E+00   -4.022E+00   -4.022E+00
    -4.023E+00   -4.024E+00   -4.025E+00   -4.026E+00   -4.027E+00   -4.027E+00   -4.028E+00   -4.029E+00   -4.030E+00   -4.031E+00
    -4.031E+00   -4.032E+00   -4.033E+00   -4.034E+00   -4.035E+00   -4.035E+00   -4.036E+00   -4.037E+00   -4.038E+00   -4.039E+00
    -4.039E+00   -4.040E+00   -4.041E+00   -4.042E+00   -4.043E+00   -4.043E+00   -4.044E+00   -4.045E+00   -4.046E+00   -4.047E+00
    -4.047E+00   -4.048E+00   -4.049E+00   -4.050E+00   -4.050E+00   -4.051E+00   -4.052E+00   -4.053E+00   -4.054E+00   -4.054E+00
    -4.055E+00   -4.056E+00   -4.057E+00   -4.057E+00   -4.058E+00   -4.059E+00   -4.060E+00   -4.060E+00   -4.061E+00   -4.062E+00
    -4.063E+00   -4.064E+00   -4.064E+00   -4.065E+00   -4.066E+00   -4.067E+00   -4.067E+00   -4.068E+00   -4.069E+00   -4.070E+00
    -4.070E+00   -4.071E+00   -4.072E+00   -4.073E+00   -4.073E+00   -4.074E+00   -4.075E+00   -4.076E+00   -4.076E+00   -4.077E+00
    -4.078E+00   -4.078E+00   -4.079E+00   -4.080E+00   -4.081E+00   -4.081E+00   -4.082E+00   -4.083E+00   -4.084E+00   -4.084E+00
    -4.085E+00   -4.086E+00   -4.087E+00   -4.087E+00   -4.088E+00   -4.089E+00   -4.089E+00   -4.090E+00   -4.091E+00   -4.092E+00
    -4.092E+00   -4.093E+00   -4.094E+00   -4.094E+00   -4.095E+00   -4.096E+00   -4.097E+00   -4.097E+00   -4.098E+00   -4.099E+00
    -4.099E+00   -4.100E+00   -4.101E+00   -4.101E+00   -4.102E+00   -4.103E+00   -4.104E+00   -4.104E+00   -4.105E+00   -4.106E+00
    -4.106E+00   -4.107E+00   -4.108E+00   -4.108E+00   -4.109E+00   -4.110E+00   -4.110E+00   -4.111E+00   -4.112E+00   -4.113E+00
    -4.113E+00   -4.114E+00   -4.115E+00   -4.115E+00   -4.116E+00   -4.117E+00   -4.117E+00   -4.118E+00   -4.119E+00   -4.119E+00
    -4.120E+00   -4.121E+00   -4.121E+00   -4.122E+00   -4.123E+00   -4.123E+00   -4.124E+00   -4.125E+00   -4.125E+00   -4.126E+00
    -4.127E+00   -4.127E+00   -4.128E+00   -4.128E+00   -4.129E+00   -4.130E+00   -4.130E+00   -4.131E+00   -4.132E+00   -4.132E+00
    -4.133E+00   -4.134E+00   -4.134E+00   -4.135E+00   -4.136E+00   -4.136E+00   -4.137E+00   -4.137E+00   -4.138E+00   -4.139E+00
    -4.139E+00   -4.140E+00   -4.141E+00   -4.141E+00   -4.142E+00   -4.143E+00   -4.143E+00   -4.144E+00   -4.144E+00   -4.145E+00
    -4.146E+00   -4.146E+00   -4.147E+00   -4.147E+00   -4.148E+00   -4.149E+00   -4.149E+00   -4.150E+00   -4.151E+00   -4.151E+00
    -4.152E+00   -4.152E+00   -4.153E+00   -4.154E+00   -4.154E+00   -4.155E+00   -4.155E+00   -4.156E+00   -4.157E+00   -4.157E+00
    -4.158E+00   -4.158E+00   -4.159E+00   -4.160E+00   -4.160E+00   -4.161E+00   -4.161E+00   -4.162E+00   -4.162E+00   -4.163E+00
    -4.164E+00   -4.164E+00   -4.165E+00   -4.165E+00   -4.166E+00   -4.167E+00   -4.167E+00   -4.168E+00   -4.168E+00   -4.169E+00
    -4.169E+00   -4.170E+00   -4.171E+00   -4.171E+00   -4.172E+00   -4.172E+00   -4.173E+00   -4.173E+00   -4.174E+00   -4.174E+00
    -4.175E+00   -4.176E+00   -4.176E+00   -4.177E+00   -4.177E+00   -4.178E+00   -4.178E+00   -4.179E+00   -4.179E+00   -4.180E+00
    -4.181E+00   -4.181E+00   -4.182E+00   -4.182E+00   -4.183E+00   -4.183E+00   -4.184E+00   -4.184E+00   -4.185E+00   -4.185E+00
    -4.186E+00   -4.186E+00   -4.187E+00   -4.187E+00   -4.188E+00   -4.189E+00   -4.189E+00   -4.190E+00   -4.190E+00   -4.191E+00
    -4.191E+00   -4.192E+00   -4.192E+00   -4.193E+00   -4.193E+00   -4.194E+00   -4.194E+00   -4.195E+00   -4.195E+00   -4.196E+00
    -4.196E+00   -4.197E+00   -4.197E+00   -4.198E+00   -4.198E+00   -4.199E+00   -4.199E+00   -4.200E+00   -4.200E+00   -4.201E+00
    -4.201E+00   -4.202E+00   -4.202E+00   -4.203E+00   -4.203E+00   -4.204E+00   -4.204E+00   -4.205E+00   -4.205E+00   -4.206E+00
    -4.206E+00   -4.207E+00   -4.207E+00   -4.208E+00   -4.208E+00   -4.209E+00   -4.209E+00   -4.210E+00   -4.210E+00   -4.210E+00
    -4.211E+00   -4.211E+00   -4.212E+00   -4.212E+00   -4.213E+00   -4.213E+00   -4.214E+00   -4.214E+00   -4.215E+00   -4.215E+00
    -4.216E+00   -4.216E+00   -4.216E+00   -4.217E+00   -4.217E+00   -4.218E+00   -4.218E+00   -4.219E+00   -4.219E+00   -4.220E+00
    -4.220E+00   -4.220E+00   -4.221E+00   -4.221E+00   -4.222E+00   -4.222E+00   -4.223E+00   -4.223E+00   -4.224E+00   -4.224E+00
    -4.224E+00   -4.225E+00   -4.225E+00   -4.226E+00   -4.226E+00   -4.227E+00   -4.227E+00   -4.227E+00   -4.228E+00   -4.228E+00
    -4.229E+00   -4.229E+00   -4.229E+00   -4.230E+00   -4.230E+00   -4.231E+00   -4.231E+00   -4.232E+00   -4.232E+00   -4.232E+00
    -4.233E+00   -4.233E+00   -4.234E+00   -4.234E+00   -4.234E+00   -4.235E+00   -4.235E+00   -4.236E+00   -4.236E+00   -4.236E+00
    -4.237E+00   -4.237E+00   -4.237E+00   -4.238E+00   -4.238E+00   -4.239E+00   -4.239E+00   -4.239E+00   -4.240E+00   -4.240E+00
    -4.241E+00   -4.241E+00   -4.241E+00   -4.242E+00   -4.242E+00   -4.242E+00   -4.243E+00   -4.243E+00   -4.244E+00   -4.244E+00
    -4.244E+00   -4.245E+00   -4.245E+00   -4.245E+00   -4.246E+00   -4.246E+00   -4.246E+00   -4.247E+00   -4.247E+00   -4.248E+00
    -4.248E+00   -4.248E+00   -4.249E+00   -4.249E+00   -4.249E+00   -4.250E+00   -4.250E+00   -4.250E+00   -4.251E+00   -4.251E+00
    -4.251E+00   -4.252E+00   -4.252E+00   -4.252E+00   -4.253E+00   -4.253E+00   -4.253E+00   -4.254E+00   -4.254E+00   -4.254E+00
    -4.255E+00   -4.255E+00   -4.255E+00   -4.256E+00   -4.256E+00   -4.256E+00   -4.257E+00   -4.257E+00   -4.257E+00   -4.258E+00
    -4.258E+00   -4.258E+00   -4.258E+00   -4.259E+00   -4.259E+00   -4.259E+00   -4.260E+00   -4.260E+00   -4.260E+00   -4.261E+00
    -4.261E+00   -4.261E+00   -4.261E+00   -4.262E+00   -4.262E+00   -4.262E+00   -4.263E+00   -4.263E+00
 Ala      Conc. = 2.67E+01
