 LCModel (Version 6.3-1L) Copyright: S.W. Provencher.          Ref.: Magn. Reson. Med. 30:672-679 (1993).                
 Slice#1 Row#3 Col#14  PD_24_press_1_raw_act
 36 lines in following concentration table = NCONC+1
    Conc.  %SD /Cr+PCr  Metabolite                                         
    0.000 999%   0.000 Ala                                                 
   16.085  32%   0.172 Asp                                                 
    0.000 999%   0.000 Cr                                                  
   93.728  46%   1.000 PCr                                                 
    9.651  32%   0.103 GABA                                                
    9.652  32%   0.103 Glc                                                 
  223.536 147%   2.385 Gln                                                 
  356.527 109%   3.804 Glu                                                 
    0.000 999%   0.000 GPC                                                 
   50.438  35%   0.538 PCh                                                 
    0.000 999%   0.000 GSH                                                 
   30.596 707%   0.326 Ins                                                 
 3.96E+03  62%  42.287 Lac                                                 
   76.670  59%   0.818 NAA                                                 
    0.000 999%   0.000 NAAG                                                
    3.217  32% 3.4E-02 Scyllo                                              
   16.087  32%   0.172 Tau                                                 
    9.339  48%   0.100 -CrCH2                                              
   50.438  35%   0.538 GPC+PCh                                             
   76.670  59%   0.818 NAA+NAAG                                            
   93.728  46%   1.000 Cr+PCr                                              
  580.063 112%   6.189 Glu+Gln                                             
 1.83E+04  39% 195.262 Lip13a                                              
 3.67E+03  60%  39.179 Lip13b                                              
 1.72E+04  15% 183.563 Lip09                                               
    0.000 999%   0.000 MM09                                                
    0.000 999%   0.000 Lip20                                               
    0.000 999%   0.000 MM20                                                
 2.14E+04  18% 227.850 MM12                                                
 7.94E+03  34%  84.738 MM14                                                
 6.49E+03  28%  69.233 MM17                                                
 2.20E+04  27% 234.441 Lip13a+Lip13b                                       
 5.13E+04   9% 547.028 MM14+Lip13a+Lip13b+MM12                             
 1.72E+04  15% 183.563 MM09+Lip09                                          
    0.000 999%   0.000 MM20+Lip20                                          
   6 lines in following misc. output table
  FWHM = 0.092 ppm    S/N =  43                                            
  Data shift = 0.023 ppm                                                   
  Ph: -18 deg       0.6 deg/ppm                                            
  alphaB,S = 3.7E-01,   4.3E+01                                            
   12 spline knots.   Ns = 9(2)                                            
  (11) 2 infls.   ( 5) 1 extrs.                                            
  498 points on ppm-axis = NY
      4.000000     3.992357     3.984714     3.977070     3.969427     3.961784     3.954141     3.946497     3.938854     3.931211
      3.923568     3.915925     3.908281     3.900638     3.892995     3.885352     3.877708     3.870065     3.862422     3.854779
      3.847136     3.839492     3.831849     3.824206     3.816563     3.808919     3.801276     3.793633     3.785990     3.778347
      3.770703     3.763060     3.755417     3.747774     3.740130     3.732487     3.724844     3.717201     3.709558     3.701914
      3.694271     3.686628     3.678985     3.671341     3.663698     3.656055     3.648412     3.640769     3.633125     3.625482
      3.617839     3.610196     3.602552     3.594909     3.587266     3.579623     3.571980     3.564336     3.556693     3.549050
      3.541407     3.533763     3.526120     3.518477     3.510834     3.503191     3.495547     3.487904     3.480261     3.472618
      3.464974     3.457331     3.449688     3.442045     3.434402     3.426758     3.419115     3.411472     3.403829     3.396185
      3.388542     3.380899     3.373256     3.365613     3.357969     3.350326     3.342683     3.335040     3.327396     3.319753
      3.312110     3.304467     3.296824     3.289180     3.281537     3.273894     3.266251     3.258607     3.250964     3.243321
      3.235678     3.228034     3.220391     3.212748     3.205105     3.197462     3.189818     3.182175     3.174532     3.166889
      3.159245     3.151602     3.143959     3.136316     3.128673     3.121029     3.113386     3.105743     3.098100     3.090456
      3.082813     3.075170     3.067527     3.059884     3.052240     3.044597     3.036954     3.029311     3.021667     3.014024
      3.006381     2.998738     2.991095     2.983451     2.975808     2.968165     2.960522     2.952878     2.945235     2.937592
      2.929949     2.922306     2.914662     2.907019     2.899376     2.891733     2.884089     2.876446     2.868803     2.861160
      2.853517     2.845873     2.838230     2.830587     2.822944     2.815300     2.807657     2.800014     2.792371     2.784728
      2.777084     2.769441     2.761798     2.754155     2.746511     2.738868     2.731225     2.723582     2.715939     2.708295
      2.700652     2.693009     2.685366     2.677722     2.670079     2.662436     2.654793     2.647150     2.639506     2.631863
      2.624220     2.616577     2.608933     2.601290     2.593647     2.586004     2.578361     2.570717     2.563074     2.555431
      2.547788     2.540144     2.532501     2.524858     2.517215     2.509572     2.501928     2.494285     2.486642     2.478999
      2.471355     2.463712     2.456069     2.448426     2.440783     2.433139     2.425496     2.417853     2.410210     2.402566
      2.394923     2.387280     2.379637     2.371994     2.364350     2.356707     2.349064     2.341421     2.333777     2.326134
      2.318491     2.310848     2.303205     2.295561     2.287918     2.280275     2.272632     2.264988     2.257345     2.249702
      2.242059     2.234416     2.226772     2.219129     2.211486     2.203843     2.196199     2.188556     2.180913     2.173270
      2.165627     2.157983     2.150340     2.142697     2.135054     2.127410     2.119767     2.112124     2.104481     2.096838
      2.089194     2.081551     2.073908     2.066265     2.058621     2.050978     2.043335     2.035692     2.028049     2.020405
      2.012762     2.005119     1.997476     1.989833     1.982190     1.974546     1.966903     1.959260     1.951617     1.943974
      1.936331     1.928688     1.921045     1.913402     1.905759     1.898115     1.890472     1.882829     1.875186     1.867543
      1.859900     1.852257     1.844614     1.836971     1.829327     1.821684     1.814041     1.806398     1.798755     1.791112
      1.783469     1.775826     1.768183     1.760540     1.752896     1.745253     1.737610     1.729967     1.722324     1.714681
      1.707038     1.699395     1.691752     1.684108     1.676465     1.668822     1.661179     1.653536     1.645893     1.638250
      1.630607     1.622964     1.615321     1.607677     1.600034     1.592391     1.584748     1.577105     1.569462     1.561819
      1.554176     1.546533     1.538890     1.531246     1.523603     1.515960     1.508317     1.500674     1.493031     1.485388
      1.477745     1.470102     1.462458     1.454815     1.447172     1.439529     1.431886     1.424243     1.416600     1.408957
      1.401314     1.393671     1.386027     1.378384     1.370741     1.363098     1.355455     1.347812     1.340169     1.332526
      1.324883     1.317240     1.309596     1.301953     1.294310     1.286667     1.279024     1.271381     1.263738     1.256095
      1.248452     1.240808     1.233165     1.225522     1.217879     1.210236     1.202593     1.194950     1.187307     1.179664
      1.172021     1.164377     1.156734     1.149091     1.141448     1.133805     1.126162     1.118519     1.110876     1.103233
      1.095590     1.087946     1.080303     1.072660     1.065017     1.057374     1.049731     1.042088     1.034445     1.026802
      1.019158     1.011515     1.003872     0.996229     0.988586     0.980943     0.973300     0.965657     0.958014     0.950371
      0.942727     0.935084     0.927441     0.919798     0.912155     0.904512     0.896869     0.889226     0.881583     0.873940
      0.866296     0.858653     0.851010     0.843367     0.835724     0.828081     0.820438     0.812795     0.805152     0.797508
      0.789865     0.782222     0.774579     0.766936     0.759293     0.751650     0.744007     0.736364     0.728721     0.721077
      0.713434     0.705791     0.698148     0.690505     0.682862     0.675219     0.667576     0.659933     0.652290     0.644646
      0.637003     0.629360     0.621717     0.614074     0.606431     0.598788     0.591145     0.583502     0.575858     0.568215
      0.560572     0.552929     0.545286     0.537643     0.530000     0.522357     0.514714     0.507071     0.499427     0.491784
      0.484141     0.476498     0.468855     0.461212     0.453569     0.445925     0.438282     0.430639     0.422996     0.415353
      0.407710     0.400067     0.392424     0.384780     0.377137     0.369494     0.361851     0.354208     0.346565     0.338922
      0.331278     0.323635     0.315992     0.308349     0.300706     0.293063     0.285420     0.277777     0.270133     0.262490
      0.254847     0.247204     0.239561     0.231918     0.224275     0.216631     0.208988     0.201345
 NY phased data points follow
   1.27360E+01  1.13082E+01  1.30323E+01  1.13797E+01  1.05791E+01  1.05440E+01  1.11245E+01  1.16376E+01  1.20293E+01  1.20060E+01
   1.52414E+01  1.38478E+01  9.52617E+00  1.53560E+01  1.36434E+01  1.24229E+01  1.21994E+01  1.45470E+01  1.33768E+01  1.15623E+01
   1.22876E+01  1.29256E+01  1.08495E+01  1.09789E+01  1.15985E+01  1.18672E+01  1.23085E+01  1.13021E+01  8.36185E+00  1.31935E+01
   9.70110E+00  1.49509E+01  1.29290E+01  1.29812E+01  1.32167E+01  1.18950E+01  1.10724E+01  1.23008E+01  1.22243E+01  1.19786E+01
   1.13639E+01  1.25943E+01  1.25815E+01  1.13626E+01  1.12087E+01  1.52405E+01  9.84637E+00  1.42576E+01  1.50124E+01  1.32026E+01
   1.10791E+01  1.13694E+01  1.18100E+01  1.22790E+01  1.06662E+01  1.28436E+01  8.92125E+00  1.13161E+01  1.26870E+01  9.09087E+00
   1.66200E+01  1.28640E+01  1.32773E+01  1.32807E+01  1.03117E+01  1.17384E+01  1.38664E+01  1.09327E+01  1.22731E+01  1.12129E+01
   1.16802E+01  1.28925E+01  1.36884E+01  1.16477E+01  1.25920E+01  1.31484E+01  1.41836E+01  1.17744E+01  1.47757E+01  1.28781E+01
   1.35799E+01  1.11387E+01  1.29307E+01  9.92398E+00  1.10439E+01  9.84463E+00  8.96267E+00  1.25577E+01  1.26527E+01  1.03126E+01
   9.74753E+00  1.46686E+01  1.23736E+01  1.24455E+01  1.27825E+01  1.33515E+01  1.17454E+01  1.06878E+01  1.04781E+01  1.09965E+01
   1.35147E+01  1.03306E+01  1.02578E+01  1.15236E+01  1.45101E+01  1.51044E+01  1.48103E+01  1.55866E+01  1.60555E+01  1.40333E+01
   1.42902E+01  1.15418E+01  1.53291E+01  1.32149E+01  1.52711E+01  1.46060E+01  1.29376E+01  1.04080E+01  1.20792E+01  1.48574E+01
   1.10568E+01  1.07852E+01  1.13083E+01  1.18610E+01  1.26415E+01  1.20637E+01  1.35649E+01  1.25997E+01  1.79992E+01  1.45040E+01
   1.39734E+01  1.34694E+01  1.47645E+01  1.46807E+01  1.60411E+01  1.43506E+01  1.35508E+01  1.53812E+01  1.14125E+01  1.36348E+01
   1.31399E+01  1.27133E+01  1.50541E+01  1.54475E+01  1.56571E+01  1.29146E+01  1.30284E+01  1.32438E+01  1.49209E+01  1.61862E+01
   1.66354E+01  1.33289E+01  1.52044E+01  1.58299E+01  1.62426E+01  1.53768E+01  1.29964E+01  1.58679E+01  1.71527E+01  1.60138E+01
   1.64463E+01  1.81225E+01  1.46139E+01  1.67165E+01  1.49730E+01  1.57093E+01  1.41007E+01  1.65235E+01  1.59363E+01  1.68469E+01
   1.66107E+01  1.82822E+01  1.49231E+01  1.64508E+01  1.54649E+01  1.63353E+01  1.55724E+01  1.60715E+01  1.55567E+01  1.75733E+01
   1.54147E+01  1.72689E+01  1.53610E+01  1.62415E+01  1.69130E+01  1.75059E+01  1.84752E+01  1.75047E+01  1.62439E+01  1.74261E+01
   1.86146E+01  1.96344E+01  1.67058E+01  1.83768E+01  1.73244E+01  1.90925E+01  1.71406E+01  1.68859E+01  1.82391E+01  2.05582E+01
   1.80646E+01  1.71358E+01  2.07306E+01  2.03025E+01  2.03814E+01  1.85925E+01  1.99046E+01  2.02013E+01  1.96546E+01  1.92562E+01
   2.00764E+01  1.80061E+01  1.87425E+01  1.93865E+01  1.76010E+01  2.11781E+01  1.96304E+01  1.98977E+01  2.23407E+01  2.15371E+01
   2.16580E+01  2.03342E+01  2.15243E+01  2.19675E+01  1.92853E+01  1.88746E+01  1.98945E+01  1.98493E+01  2.38442E+01  2.04969E+01
   2.29893E+01  2.49117E+01  2.23510E+01  2.05665E+01  2.39133E+01  2.36355E+01  2.17379E+01  2.44280E+01  2.11920E+01  2.35485E+01
   2.38940E+01  2.34833E+01  2.15469E+01  2.21385E+01  2.19813E+01  2.42010E+01  2.60276E+01  2.48586E+01  2.20150E+01  2.34405E+01
   2.81372E+01  2.65782E+01  2.73977E+01  2.79823E+01  2.82998E+01  2.79008E+01  2.66451E+01  2.84307E+01  2.93487E+01  2.80541E+01
   2.98603E+01  3.23438E+01  3.37536E+01  3.21222E+01  3.02550E+01  3.22745E+01  3.13715E+01  3.53174E+01  3.23639E+01  3.52931E+01
   3.32738E+01  3.47228E+01  3.37757E+01  3.40491E+01  3.57062E+01  3.74584E+01  3.63263E+01  3.88284E+01  3.49898E+01  3.89420E+01
   3.94522E+01  4.32910E+01  4.05840E+01  4.24999E+01  4.33772E+01  4.43833E+01  4.57379E+01  4.65018E+01  4.94826E+01  5.06693E+01
   4.84765E+01  4.99305E+01  4.79565E+01  4.99678E+01  5.12888E+01  5.52810E+01  5.80672E+01  5.51754E+01  5.73748E+01  5.46065E+01
   5.84195E+01  6.06574E+01  6.27179E+01  6.53288E+01  6.27040E+01  6.71688E+01  6.89314E+01  6.83986E+01  6.94435E+01  7.10801E+01
   7.16023E+01  7.36169E+01  7.53050E+01  7.79837E+01  7.75822E+01  7.77636E+01  7.75023E+01  8.13351E+01  8.18794E+01  8.33887E+01
   8.31376E+01  8.58526E+01  8.63885E+01  9.21066E+01  8.86403E+01  9.13717E+01  9.24870E+01  9.15341E+01  9.81557E+01  9.72630E+01
   1.00203E+02  1.00310E+02  1.03582E+02  1.03323E+02  1.06293E+02  1.09236E+02  1.10585E+02  1.13466E+02  1.17520E+02  1.19904E+02
   1.20449E+02  1.24701E+02  1.26968E+02  1.31175E+02  1.36144E+02  1.38166E+02  1.43542E+02  1.44869E+02  1.51886E+02  1.54625E+02
   1.55746E+02  1.60038E+02  1.61907E+02  1.65407E+02  1.69439E+02  1.69612E+02  1.73909E+02  1.71919E+02  1.76778E+02  1.75560E+02
   1.77177E+02  1.79767E+02  1.77988E+02  1.79795E+02  1.76602E+02  1.76922E+02  1.76419E+02  1.72265E+02  1.70654E+02  1.69203E+02
   1.69590E+02  1.65321E+02  1.66220E+02  1.62796E+02  1.60456E+02  1.60501E+02  1.56466E+02  1.56370E+02  1.54454E+02  1.52426E+02
   1.51441E+02  1.50378E+02  1.49350E+02  1.46810E+02  1.42479E+02  1.43159E+02  1.37637E+02  1.34674E+02  1.31967E+02  1.27740E+02
   1.24594E+02  1.23158E+02  1.19623E+02  1.15787E+02  1.13543E+02  1.08504E+02  1.06299E+02  1.02097E+02  1.01663E+02  9.39907E+01
   9.11629E+01  9.06078E+01  8.57328E+01  8.38257E+01  7.82495E+01  7.99366E+01  7.40995E+01  7.36865E+01  6.81562E+01  6.24590E+01
   5.96972E+01  5.82016E+01  5.49324E+01  5.44177E+01  4.98216E+01  4.69661E+01  4.34865E+01  4.18734E+01  3.82099E+01  3.95689E+01
   3.54804E+01  3.37391E+01  2.99375E+01  2.81105E+01  2.73677E+01  2.40261E+01  2.13012E+01  1.72498E+01  1.73139E+01  1.36852E+01
   1.20832E+01  1.06522E+01  1.18260E+01  8.77063E+00  9.18373E+00  4.75500E+00  5.89046E+00  4.31565E-01  3.53904E+00  5.87978E-01
   1.11387E-01 -2.25010E+00 -5.55980E+00 -3.73276E+00 -4.55717E+00 -7.45377E+00 -9.26428E+00 -8.30195E+00 -1.06643E+01 -1.09276E+01
  -1.02178E+01 -1.12522E+01 -1.31861E+01 -1.28122E+01 -1.29746E+01 -1.22235E+01 -1.50920E+01 -1.32539E+01 -1.44706E+01 -1.68659E+01
  -1.76212E+01 -1.83000E+01 -1.62691E+01 -1.67197E+01 -2.10561E+01 -2.00007E+01 -2.02935E+01 -1.94489E+01 -2.03441E+01 -2.06649E+01
  -2.13617E+01 -2.09227E+01 -2.17342E+01 -1.96011E+01 -1.96741E+01 -2.21992E+01 -2.36142E+01 -1.96678E+01 -2.16517E+01 -2.18654E+01
  -2.20178E+01 -2.16978E+01 -2.29953E+01 -2.23947E+01 -2.31281E+01 -2.02279E+01 -2.32305E+01 -2.30362E+01 -2.35869E+01 -2.30954E+01
  -2.33751E+01 -2.28634E+01 -2.29237E+01 -2.13988E+01 -2.13607E+01 -2.63279E+01 -2.23115E+01 -1.95962E+01
 NY points of the fit to the data follow
   1.22004E+01  1.30650E+01  1.19175E+01  1.23173E+01  1.10973E+01  1.17180E+01  1.10581E+01  1.16168E+01  1.13313E+01  1.17629E+01
   1.17566E+01  1.23580E+01  1.23325E+01  1.27135E+01  1.26899E+01  1.28859E+01  1.27999E+01  1.27726E+01  1.25167E+01  1.24478E+01
   1.22844E+01  1.22272E+01  1.21487E+01  1.21771E+01  1.20993E+01  1.21220E+01  1.20234E+01  1.20789E+01  1.20211E+01  1.21463E+01
   1.21170E+01  1.22335E+01  1.22392E+01  1.23252E+01  1.23487E+01  1.23919E+01  1.24243E+01  1.24281E+01  1.24769E+01  1.24510E+01
   1.24849E+01  1.24205E+01  1.24109E+01  1.23453E+01  1.23391E+01  1.23232E+01  1.23894E+01  1.23986E+01  1.24517E+01  1.24480E+01
   1.24589E+01  1.24357E+01  1.24360E+01  1.24228E+01  1.24187E+01  1.23982E+01  1.23595E+01  1.23203E+01  1.22668E+01  1.22421E+01
   1.22095E+01  1.22035E+01  1.21785E+01  1.21647E+01  1.21377E+01  1.21174E+01  1.20878E+01  1.20745E+01  1.20465E+01  1.20279E+01
   1.19949E+01  1.19758E+01  1.19441E+01  1.19306E+01  1.19060E+01  1.18901E+01  1.18667E+01  1.18442E+01  1.18250E+01  1.17949E+01
   1.17785E+01  1.17444E+01  1.17335E+01  1.16959E+01  1.16870E+01  1.16404E+01  1.16239E+01  1.15640E+01  1.15202E+01  1.14869E+01
   1.14451E+01  1.14563E+01  1.14570E+01  1.14874E+01  1.15338E+01  1.16040E+01  1.17464E+01  1.18030E+01  1.20322E+01  1.21591E+01
   1.26227E+01  1.27140E+01  1.33740E+01  1.33193E+01  1.41034E+01  1.38644E+01  1.47015E+01  1.41731E+01  1.48516E+01  1.41380E+01
   1.46194E+01  1.37951E+01  1.40435E+01  1.32442E+01  1.32671E+01  1.26787E+01  1.25904E+01  1.23797E+01  1.24166E+01  1.23766E+01
   1.23685E+01  1.24953E+01  1.25489E+01  1.29577E+01  1.30995E+01  1.35915E+01  1.36261E+01  1.41843E+01  1.41185E+01  1.46979E+01
   1.44774E+01  1.49444E+01  1.46254E+01  1.49600E+01  1.45880E+01  1.47598E+01  1.43961E+01  1.44097E+01  1.41413E+01  1.40844E+01
   1.40009E+01  1.40355E+01  1.40172E+01  1.40366E+01  1.40825E+01  1.41271E+01  1.42468E+01  1.43680E+01  1.44673E+01  1.45635E+01
   1.46592E+01  1.47524E+01  1.48462E+01  1.49376E+01  1.50289E+01  1.51180E+01  1.52048E+01  1.52901E+01  1.53736E+01  1.54572E+01
   1.55398E+01  1.56228E+01  1.56996E+01  1.57827E+01  1.58558E+01  1.59413E+01  1.60111E+01  1.60955E+01  1.61594E+01  1.62400E+01
   1.63022E+01  1.63786E+01  1.64367E+01  1.65044E+01  1.65609E+01  1.66180E+01  1.66792E+01  1.67306E+01  1.67993E+01  1.68485E+01
   1.69259E+01  1.69731E+01  1.70528E+01  1.71002E+01  1.71784E+01  1.72288E+01  1.72985E+01  1.73540E+01  1.74127E+01  1.74762E+01
   1.75241E+01  1.76071E+01  1.76460E+01  1.77571E+01  1.77929E+01  1.79115E+01  1.79336E+01  1.80794E+01  1.80954E+01  1.82705E+01
   1.82865E+01  1.84975E+01  1.85170E+01  1.87672E+01  1.88000E+01  1.90127E+01  1.89786E+01  1.91640E+01  1.90676E+01  1.92156E+01
   1.90791E+01  1.92379E+01  1.91797E+01  1.93687E+01  1.94466E+01  1.96377E+01  1.98477E+01  1.99985E+01  2.02591E+01  2.03142E+01
   2.05685E+01  2.05322E+01  2.07431E+01  2.06453E+01  2.07254E+01  2.07397E+01  2.08419E+01  2.10012E+01  2.11239E+01  2.14480E+01
   2.16412E+01  2.20480E+01  2.22444E+01  2.26670E+01  2.28239E+01  2.32063E+01  2.33143E+01  2.36203E+01  2.37100E+01  2.39936E+01
   2.41032E+01  2.43273E+01  2.44521E+01  2.46137E+01  2.48199E+01  2.49214E+01  2.52061E+01  2.52837E+01  2.56432E+01  2.57209E+01
   2.61104E+01  2.62708E+01  2.67220E+01  2.70173E+01  2.74592E+01  2.78755E+01  2.83259E+01  2.88536E+01  2.93114E+01  2.99466E+01
   3.03421E+01  3.10236E+01  3.13518E+01  3.20086E+01  3.21973E+01  3.28006E+01  3.29081E+01  3.34582E+01  3.35186E+01  3.40047E+01
   3.40483E+01  3.44801E+01  3.46007E+01  3.50524E+01  3.54047E+01  3.59511E+01  3.63988E+01  3.69891E+01  3.75596E+01  3.82162E+01
   3.89463E+01  3.97069E+01  4.04895E+01  4.13070E+01  4.21719E+01  4.30602E+01  4.40027E+01  4.49823E+01  4.60157E+01  4.70825E+01
   4.81988E+01  4.93471E+01  5.05349E+01  5.17533E+01  5.29984E+01  5.42631E+01  5.55413E+01  5.68276E+01  5.81125E+01  5.93933E+01
   6.06591E+01  6.19094E+01  6.31359E+01  6.43386E+01  6.55125E+01  6.66596E+01  6.77793E+01  6.88760E+01  6.99528E+01  7.10171E+01
   7.20752E+01  7.31359E+01  7.42079E+01  7.53006E+01  7.64221E+01  7.75807E+01  7.87829E+01  8.00343E+01  8.13379E+01  8.26952E+01
   8.41046E+01  8.55633E+01  8.70655E+01  8.86048E+01  9.01716E+01  9.17561E+01  9.33457E+01  9.49259E+01  9.64720E+01  9.79486E+01
   9.94260E+01  1.00773E+02  1.02486E+02  1.04339E+02  1.06408E+02  1.08955E+02  1.11189E+02  1.13910E+02  1.16401E+02  1.19197E+02
   1.21506E+02  1.24101E+02  1.27105E+02  1.31475E+02  1.34887E+02  1.39257E+02  1.42729E+02  1.46794E+02  1.50740E+02  1.53598E+02
   1.56997E+02  1.58991E+02  1.62995E+02  1.65158E+02  1.68986E+02  1.70100E+02  1.72899E+02  1.73419E+02  1.75803E+02  1.75654E+02
   1.77706E+02  1.78811E+02  1.79507E+02  1.78228E+02  1.78374E+02  1.75952E+02  1.75554E+02  1.72888E+02  1.71066E+02  1.69183E+02
   1.68222E+02  1.66230E+02  1.64931E+02  1.62816E+02  1.61217E+02  1.60441E+02  1.59343E+02  1.57947E+02  1.56304E+02  1.54430E+02
   1.52341E+02  1.50056E+02  1.47596E+02  1.44988E+02  1.42253E+02  1.39419E+02  1.36507E+02  1.33540E+02  1.30536E+02  1.27509E+02
   1.24470E+02  1.21428E+02  1.18387E+02  1.15348E+02  1.12310E+02  1.09271E+02  1.06226E+02  1.03172E+02  1.00105E+02  9.70199E+01
   9.39148E+01  9.07883E+01  8.76400E+01  8.44722E+01  8.12877E+01  7.80915E+01  7.48888E+01  7.16870E+01  6.84935E+01  6.53170E+01
   6.21655E+01  5.90480E+01  5.59720E+01  5.29458E+01  4.99762E+01  4.70701E+01  4.42325E+01  4.14687E+01  3.87819E+01  3.61755E+01
   3.36511E+01  3.12107E+01  2.88542E+01  2.65819E+01  2.43926E+01  2.22858E+01  2.02595E+01  1.83122E+01  1.64413E+01  1.46449E+01
   1.29199E+01  1.12646E+01  9.67577E+00  8.15139E+00  6.68831E+00  5.28454E+00  3.93720E+00  2.64457E+00  1.40390E+00  2.13579E-01
  -9.29004E-01 -2.02518E+00 -3.07720E+00 -4.08623E+00 -5.05469E+00 -5.98388E+00 -6.87607E+00 -7.73223E+00 -8.55436E+00 -9.34326E+00
  -1.01009E+01 -1.08279E+01 -1.15260E+01 -1.21958E+01 -1.28387E+01 -1.34553E+01 -1.40468E+01 -1.46138E+01 -1.51575E+01 -1.56782E+01
  -1.61769E+01 -1.66539E+01 -1.71104E+01 -1.75465E+01 -1.79631E+01 -1.83604E+01 -1.87392E+01 -1.90996E+01 -1.94427E+01 -1.97682E+01
  -2.00771E+01 -2.03691E+01 -2.06453E+01 -2.09055E+01 -2.11504E+01 -2.13800E+01 -2.15950E+01 -2.17950E+01 -2.19811E+01 -2.21528E+01
  -2.23111E+01 -2.24555E+01 -2.25867E+01 -2.27046E+01 -2.28098E+01 -2.29021E+01 -2.29821E+01 -2.30494E+01 -2.31048E+01 -2.31479E+01
  -2.31795E+01 -2.31991E+01 -2.32075E+01 -2.32041E+01 -2.31897E+01 -2.31639E+01 -2.31274E+01 -2.30798E+01
 NY background values follow
     1.068E+01    1.066E+01    1.064E+01    1.062E+01    1.061E+01    1.060E+01    1.059E+01    1.058E+01    1.057E+01    1.057E+01
     1.057E+01    1.057E+01    1.057E+01    1.058E+01    1.058E+01    1.059E+01    1.060E+01    1.061E+01    1.062E+01    1.063E+01
     1.065E+01    1.066E+01    1.068E+01    1.069E+01    1.071E+01    1.073E+01    1.075E+01    1.077E+01    1.079E+01    1.080E+01
     1.082E+01    1.084E+01    1.086E+01    1.088E+01    1.090E+01    1.092E+01    1.094E+01    1.096E+01    1.098E+01    1.100E+01
     1.101E+01    1.103E+01    1.105E+01    1.106E+01    1.107E+01    1.109E+01    1.110E+01    1.111E+01    1.111E+01    1.112E+01
     1.112E+01    1.113E+01    1.113E+01    1.113E+01    1.113E+01    1.112E+01    1.111E+01    1.110E+01    1.109E+01    1.108E+01
     1.107E+01    1.105E+01    1.103E+01    1.101E+01    1.099E+01    1.097E+01    1.094E+01    1.092E+01    1.089E+01    1.087E+01
     1.084E+01    1.081E+01    1.078E+01    1.076E+01    1.073E+01    1.070E+01    1.067E+01    1.064E+01    1.061E+01    1.058E+01
     1.055E+01    1.052E+01    1.049E+01    1.046E+01    1.043E+01    1.041E+01    1.038E+01    1.036E+01    1.033E+01    1.031E+01
     1.029E+01    1.027E+01    1.025E+01    1.023E+01    1.021E+01    1.020E+01    1.019E+01    1.018E+01    1.017E+01    1.016E+01
     1.016E+01    1.016E+01    1.016E+01    1.016E+01    1.017E+01    1.018E+01    1.019E+01    1.021E+01    1.022E+01    1.025E+01
     1.027E+01    1.030E+01    1.033E+01    1.036E+01    1.040E+01    1.044E+01    1.049E+01    1.053E+01    1.058E+01    1.063E+01
     1.069E+01    1.075E+01    1.081E+01    1.087E+01    1.093E+01    1.100E+01    1.106E+01    1.113E+01    1.121E+01    1.128E+01
     1.135E+01    1.143E+01    1.151E+01    1.158E+01    1.166E+01    1.174E+01    1.182E+01    1.191E+01    1.199E+01    1.207E+01
     1.216E+01    1.224E+01    1.233E+01    1.241E+01    1.249E+01    1.258E+01    1.266E+01    1.275E+01    1.283E+01    1.292E+01
     1.300E+01    1.308E+01    1.316E+01    1.324E+01    1.332E+01    1.340E+01    1.348E+01    1.356E+01    1.363E+01    1.370E+01
     1.378E+01    1.385E+01    1.391E+01    1.398E+01    1.404E+01    1.411E+01    1.417E+01    1.422E+01    1.428E+01    1.433E+01
     1.439E+01    1.444E+01    1.448E+01    1.453E+01    1.458E+01    1.462E+01    1.466E+01    1.470E+01    1.474E+01    1.478E+01
     1.482E+01    1.485E+01    1.489E+01    1.492E+01    1.496E+01    1.499E+01    1.503E+01    1.506E+01    1.509E+01    1.513E+01
     1.516E+01    1.519E+01    1.522E+01    1.526E+01    1.529E+01    1.532E+01    1.536E+01    1.539E+01    1.543E+01    1.547E+01
     1.550E+01    1.554E+01    1.558E+01    1.562E+01    1.567E+01    1.571E+01    1.575E+01    1.580E+01    1.585E+01    1.590E+01
     1.595E+01    1.601E+01    1.606E+01    1.612E+01    1.618E+01    1.624E+01    1.631E+01    1.638E+01    1.645E+01    1.652E+01
     1.660E+01    1.668E+01    1.676E+01    1.684E+01    1.693E+01    1.702E+01    1.711E+01    1.721E+01    1.731E+01    1.741E+01
     1.751E+01    1.762E+01    1.772E+01    1.783E+01    1.794E+01    1.805E+01    1.816E+01    1.828E+01    1.840E+01    1.851E+01
     1.863E+01    1.875E+01    1.887E+01    1.899E+01    1.912E+01    1.924E+01    1.936E+01    1.948E+01    1.961E+01    1.973E+01
     1.986E+01    1.998E+01    2.011E+01    2.023E+01    2.035E+01    2.048E+01    2.060E+01    2.072E+01    2.084E+01    2.097E+01
     2.109E+01    2.120E+01    2.132E+01    2.144E+01    2.155E+01    2.167E+01    2.178E+01    2.189E+01    2.200E+01    2.211E+01
     2.221E+01    2.232E+01    2.242E+01    2.252E+01    2.261E+01    2.271E+01    2.280E+01    2.289E+01    2.297E+01    2.306E+01
     2.314E+01    2.322E+01    2.329E+01    2.336E+01    2.343E+01    2.350E+01    2.356E+01    2.362E+01    2.368E+01    2.373E+01
     2.378E+01    2.382E+01    2.387E+01    2.391E+01    2.394E+01    2.397E+01    2.400E+01    2.403E+01    2.405E+01    2.406E+01
     2.408E+01    2.408E+01    2.409E+01    2.409E+01    2.409E+01    2.408E+01    2.407E+01    2.405E+01    2.403E+01    2.400E+01
     2.398E+01    2.394E+01    2.390E+01    2.386E+01    2.381E+01    2.376E+01    2.370E+01    2.364E+01    2.357E+01    2.350E+01
     2.342E+01    2.334E+01    2.325E+01    2.316E+01    2.306E+01    2.296E+01    2.285E+01    2.274E+01    2.262E+01    2.249E+01
     2.236E+01    2.223E+01    2.208E+01    2.194E+01    2.178E+01    2.162E+01    2.146E+01    2.129E+01    2.111E+01    2.093E+01
     2.074E+01    2.055E+01    2.035E+01    2.014E+01    1.993E+01    1.971E+01    1.949E+01    1.926E+01    1.903E+01    1.879E+01
     1.854E+01    1.829E+01    1.803E+01    1.776E+01    1.749E+01    1.722E+01    1.693E+01    1.664E+01    1.635E+01    1.605E+01
     1.574E+01    1.543E+01    1.511E+01    1.478E+01    1.445E+01    1.411E+01    1.377E+01    1.342E+01    1.306E+01    1.270E+01
     1.233E+01    1.196E+01    1.157E+01    1.119E+01    1.079E+01    1.039E+01    9.986E+00    9.573E+00    9.154E+00    8.728E+00
     8.296E+00    7.858E+00    7.413E+00    6.962E+00    6.504E+00    6.040E+00    5.570E+00    5.093E+00    4.609E+00    4.120E+00
     3.625E+00    3.124E+00    2.619E+00    2.108E+00    1.593E+00    1.074E+00    5.506E-01    2.375E-02   -5.064E-01   -1.040E+00
    -1.575E+00   -2.114E+00   -2.654E+00   -3.196E+00   -3.740E+00   -4.284E+00   -4.830E+00   -5.376E+00   -5.923E+00   -6.469E+00
    -7.016E+00   -7.561E+00   -8.106E+00   -8.649E+00   -9.191E+00   -9.731E+00   -1.027E+01   -1.080E+01   -1.134E+01   -1.187E+01
    -1.239E+01   -1.291E+01   -1.343E+01   -1.395E+01   -1.446E+01   -1.496E+01   -1.546E+01   -1.595E+01   -1.644E+01   -1.692E+01
    -1.740E+01   -1.787E+01   -1.833E+01   -1.879E+01   -1.923E+01   -1.967E+01   -2.010E+01   -2.053E+01   -2.094E+01   -2.134E+01
    -2.174E+01   -2.212E+01   -2.250E+01   -2.286E+01   -2.322E+01   -2.356E+01   -2.390E+01   -2.422E+01   -2.453E+01   -2.484E+01
    -2.513E+01   -2.542E+01   -2.569E+01   -2.595E+01   -2.621E+01   -2.645E+01   -2.669E+01   -2.691E+01   -2.712E+01   -2.733E+01
    -2.752E+01   -2.771E+01   -2.789E+01   -2.805E+01   -2.821E+01   -2.836E+01   -2.850E+01   -2.862E+01   -2.874E+01   -2.885E+01
    -2.895E+01   -2.904E+01   -2.913E+01   -2.920E+01   -2.926E+01   -2.932E+01   -2.936E+01   -2.940E+01   -2.942E+01   -2.944E+01
    -2.945E+01   -2.945E+01   -2.944E+01   -2.942E+01   -2.940E+01   -2.936E+01   -2.932E+01   -2.927E+01   -2.920E+01   -2.913E+01
    -2.905E+01   -2.897E+01   -2.887E+01   -2.877E+01   -2.865E+01   -2.853E+01   -2.840E+01   -2.826E+01
 Asp      Conc. = 1.61E+01
