 LCModel (Version 6.3-1L) Copyright: S.W. Provencher.          Ref.: Magn. Reson. Med. 30:672-679 (1993).                
 Slice#1 Row#13 Col#2  PD_24_press_1_raw_act
 36 lines in following concentration table = NCONC+1
    Conc.  %SD /Cr+PCr  Metabolite                                         
    6.512 376% 9.4E-02 Ala                                                 
    9.792 117%   0.141 Asp                                                 
   18.009 201%   0.260 Cr                                                  
   51.225  72%   0.740 PCr                                                 
    6.247 110% 9.0E-02 GABA                                                
    5.910 117% 8.5E-02 Glc                                                 
    0.000 999%   0.000 Gln                                                 
   51.550 100%   0.745 Glu                                                 
   16.764  36%   0.242 GPC                                                 
    0.000 999%   0.000 PCh                                                 
    4.469 408% 6.5E-02 GSH                                                 
   80.934  77%   1.169 Ins                                                 
   34.128  78%   0.493 Lac                                                 
   66.899  27%   0.966 NAA                                                 
    0.000 999%   0.000 NAAG                                                
    1.779 126% 2.6E-02 Scyllo                                              
    7.429 153%   0.107 Tau                                                 
    0.000 999%   0.000 -CrCH2                                              
   16.764  36%   0.242 GPC+PCh                                             
   66.899  27%   0.966 NAA+NAAG                                            
   69.233  24%   1.000 Cr+PCr                                              
   51.550 100%   0.745 Glu+Gln                                             
    0.000 999%   0.000 Lip13a                                              
    4.040 999% 5.8E-02 Lip13b                                              
    0.204 999% 2.9E-03 Lip09                                               
    0.000 999%   0.000 MM09                                                
    0.612 999% 8.8E-03 Lip20                                               
    0.000 999%   0.000 MM20                                                
    0.000 999%   0.000 MM12                                                
 4.49E-03 999% 6.5E-05 MM14                                                
 1.13E-04 999% 1.6E-06 MM17                                                
    4.040 999% 5.8E-02 Lip13a+Lip13b                                       
    4.045 999% 5.8E-02 MM14+Lip13a+Lip13b+MM12                             
    0.204 999% 2.9E-03 MM09+Lip09                                          
    0.612 999% 8.8E-03 MM20+Lip20                                          
   6 lines in following misc. output table
  FWHM = 0.031 ppm    S/N =   1                                            
  Data shift =-0.008 ppm                                                   
  Ph:-167 deg      -9.9 deg/ppm                                            
  alphaB,S = 1.2E+00,   9.7E+00                                            
   14 spline knots.   Ns = 5(1)                                            
  ( 6) 2 infls.   ( 6) 2 extrs.                                            
  498 points on ppm-axis = NY
      4.000000     3.992357     3.984714     3.977070     3.969427     3.961784     3.954141     3.946497     3.938854     3.931211
      3.923568     3.915925     3.908281     3.900638     3.892995     3.885352     3.877708     3.870065     3.862422     3.854779
      3.847136     3.839492     3.831849     3.824206     3.816563     3.808919     3.801276     3.793633     3.785990     3.778347
      3.770703     3.763060     3.755417     3.747774     3.740130     3.732487     3.724844     3.717201     3.709558     3.701914
      3.694271     3.686628     3.678985     3.671341     3.663698     3.656055     3.648412     3.640769     3.633125     3.625482
      3.617839     3.610196     3.602552     3.594909     3.587266     3.579623     3.571980     3.564336     3.556693     3.549050
      3.541407     3.533763     3.526120     3.518477     3.510834     3.503191     3.495547     3.487904     3.480261     3.472618
      3.464974     3.457331     3.449688     3.442045     3.434402     3.426758     3.419115     3.411472     3.403829     3.396185
      3.388542     3.380899     3.373256     3.365613     3.357969     3.350326     3.342683     3.335040     3.327396     3.319753
      3.312110     3.304467     3.296824     3.289180     3.281537     3.273894     3.266251     3.258607     3.250964     3.243321
      3.235678     3.228034     3.220391     3.212748     3.205105     3.197462     3.189818     3.182175     3.174532     3.166889
      3.159245     3.151602     3.143959     3.136316     3.128673     3.121029     3.113386     3.105743     3.098100     3.090456
      3.082813     3.075170     3.067527     3.059884     3.052240     3.044597     3.036954     3.029311     3.021667     3.014024
      3.006381     2.998738     2.991095     2.983451     2.975808     2.968165     2.960522     2.952878     2.945235     2.937592
      2.929949     2.922306     2.914662     2.907019     2.899376     2.891733     2.884089     2.876446     2.868803     2.861160
      2.853517     2.845873     2.838230     2.830587     2.822944     2.815300     2.807657     2.800014     2.792371     2.784728
      2.777084     2.769441     2.761798     2.754155     2.746511     2.738868     2.731225     2.723582     2.715939     2.708295
      2.700652     2.693009     2.685366     2.677722     2.670079     2.662436     2.654793     2.647150     2.639506     2.631863
      2.624220     2.616577     2.608933     2.601290     2.593647     2.586004     2.578361     2.570717     2.563074     2.555431
      2.547788     2.540144     2.532501     2.524858     2.517215     2.509572     2.501928     2.494285     2.486642     2.478999
      2.471355     2.463712     2.456069     2.448426     2.440783     2.433139     2.425496     2.417853     2.410210     2.402566
      2.394923     2.387280     2.379637     2.371994     2.364350     2.356707     2.349064     2.341421     2.333777     2.326134
      2.318491     2.310848     2.303205     2.295561     2.287918     2.280275     2.272632     2.264988     2.257345     2.249702
      2.242059     2.234416     2.226772     2.219129     2.211486     2.203843     2.196199     2.188556     2.180913     2.173270
      2.165627     2.157983     2.150340     2.142697     2.135054     2.127410     2.119767     2.112124     2.104481     2.096838
      2.089194     2.081551     2.073908     2.066265     2.058621     2.050978     2.043335     2.035692     2.028049     2.020405
      2.012762     2.005119     1.997476     1.989833     1.982190     1.974546     1.966903     1.959260     1.951617     1.943974
      1.936331     1.928688     1.921045     1.913402     1.905759     1.898115     1.890472     1.882829     1.875186     1.867543
      1.859900     1.852257     1.844614     1.836971     1.829327     1.821684     1.814041     1.806398     1.798755     1.791112
      1.783469     1.775826     1.768183     1.760540     1.752896     1.745253     1.737610     1.729967     1.722324     1.714681
      1.707038     1.699395     1.691752     1.684108     1.676465     1.668822     1.661179     1.653536     1.645893     1.638250
      1.630607     1.622964     1.615321     1.607677     1.600034     1.592391     1.584748     1.577105     1.569462     1.561819
      1.554176     1.546533     1.538890     1.531246     1.523603     1.515960     1.508317     1.500674     1.493031     1.485388
      1.477745     1.470102     1.462458     1.454815     1.447172     1.439529     1.431886     1.424243     1.416600     1.408957
      1.401314     1.393671     1.386027     1.378384     1.370741     1.363098     1.355455     1.347812     1.340169     1.332526
      1.324883     1.317240     1.309596     1.301953     1.294310     1.286667     1.279024     1.271381     1.263738     1.256095
      1.248452     1.240808     1.233165     1.225522     1.217879     1.210236     1.202593     1.194950     1.187307     1.179664
      1.172021     1.164377     1.156734     1.149091     1.141448     1.133805     1.126162     1.118519     1.110876     1.103233
      1.095590     1.087946     1.080303     1.072660     1.065017     1.057374     1.049731     1.042088     1.034445     1.026802
      1.019158     1.011515     1.003872     0.996229     0.988586     0.980943     0.973300     0.965657     0.958014     0.950371
      0.942727     0.935084     0.927441     0.919798     0.912155     0.904512     0.896869     0.889226     0.881583     0.873940
      0.866296     0.858653     0.851010     0.843367     0.835724     0.828081     0.820438     0.812795     0.805152     0.797508
      0.789865     0.782222     0.774579     0.766936     0.759293     0.751650     0.744007     0.736364     0.728721     0.721077
      0.713434     0.705791     0.698148     0.690505     0.682862     0.675219     0.667576     0.659933     0.652290     0.644646
      0.637003     0.629360     0.621717     0.614074     0.606431     0.598788     0.591145     0.583502     0.575858     0.568215
      0.560572     0.552929     0.545286     0.537643     0.530000     0.522357     0.514714     0.507071     0.499427     0.491784
      0.484141     0.476498     0.468855     0.461212     0.453569     0.445925     0.438282     0.430639     0.422996     0.415353
      0.407710     0.400067     0.392424     0.384780     0.377137     0.369494     0.361851     0.354208     0.346565     0.338922
      0.331278     0.323635     0.315992     0.308349     0.300706     0.293063     0.285420     0.277777     0.270133     0.262490
      0.254847     0.247204     0.239561     0.231918     0.224275     0.216631     0.208988     0.201345
 NY phased data points follow
   1.71972E+01  1.39292E+01  1.44713E+01  1.51427E+01  1.68590E+01  1.63348E+01  1.46075E+01  1.52105E+01  1.74023E+01  1.71671E+01
   1.50035E+01  1.47944E+01  1.55107E+01  1.56108E+01  1.52877E+01  1.47939E+01  1.18166E+01  1.29306E+01  1.47808E+01  1.27736E+01
   1.43803E+01  1.35702E+01  1.37108E+01  1.24153E+01  1.03794E+01  1.19901E+01  1.15155E+01  1.44974E+01  1.00476E+01  1.07770E+01
   1.15555E+01  9.51826E+00  9.80900E+00  9.46756E+00  9.76737E+00  8.45440E+00  8.89334E+00  1.03223E+01  6.32530E+00  1.12336E+01
   9.04872E+00  7.00731E+00  1.02019E+01  9.18681E+00  7.91249E+00  1.13975E+01  9.41704E+00  8.71500E+00  1.14891E+01  8.27916E+00
   8.04849E+00  9.66070E+00  7.85102E+00  6.66946E+00  7.74579E+00  8.18824E+00  5.59247E+00  5.24511E+00  4.82169E+00  8.86298E+00
   6.89716E+00  7.52953E+00  7.69535E+00  6.15899E+00  3.65164E+00  6.22890E+00  5.41433E+00  7.36534E+00  3.97168E+00  7.62915E+00
   6.47565E+00  5.86424E+00  4.45382E+00  3.59027E+00  5.05623E+00  4.96902E+00  7.44632E+00  8.66488E+00  5.16846E+00  6.46361E+00
   4.78860E+00  3.96313E+00  4.49850E+00  5.39137E+00  4.71838E+00  4.65684E+00  4.67268E+00  4.62336E+00  2.25410E+00  5.15645E+00
   2.26975E+00  5.83929E+00  3.12482E+00  2.94206E+00  3.88128E+00  2.28774E+00  3.69402E+00  1.33390E+00  2.70935E+00  2.97249E+00
   2.68911E+00  4.20567E+00  4.16502E+00  4.18352E+00  5.66543E+00  6.77500E+00  3.45347E+00  6.30688E-01  4.77875E+00  3.25221E+00
   1.75881E-01 -2.84040E-01 -1.70845E+00 -1.01064E+00  1.12952E+00  1.31033E+00  1.32424E+00  3.77618E-01  2.45909E+00  6.85186E-01
   4.47734E-01  1.44266E+00  4.24278E-01  3.52020E-01  5.84334E-01  1.10751E+00  3.28443E+00  4.50773E+00  5.49526E+00  3.21819E+00
   3.72344E+00  5.40172E-01 -1.57990E+00  4.06425E+00  3.01843E+00 -2.07231E-01 -7.69448E-01  1.83211E+00 -2.13291E-01  2.45943E+00
  -2.76043E-01 -1.75693E+00 -2.61511E-01  7.76181E-01  5.26548E-01 -1.95789E-01  2.49754E-01  1.07170E+00 -3.50353E-01  9.03397E-01
  -2.39942E+00  1.51603E+00  9.27115E-01 -3.27990E-01 -2.86112E-01 -9.69611E-01  1.81837E+00  1.70320E+00  1.39866E-01 -1.89785E+00
   7.89617E-01 -1.45069E+00  1.24888E+00 -1.17380E+00  9.97918E-01 -1.97486E+00 -9.59531E-01  1.13621E+00  5.26288E-03 -4.76470E-01
   2.32727E+00  5.02704E-01 -2.40051E+00 -1.78695E+00 -9.87321E-01 -9.24586E-01 -1.00890E+00 -2.16299E+00  8.44385E-01 -1.42427E+00
  -1.13620E+00  9.63830E-01 -1.52210E-02 -1.02670E+00 -1.48988E+00 -2.29603E-01  7.64236E-01 -9.64607E-01  1.62132E+00  3.24590E+00
  -2.54007E-01  5.32665E-01  3.67335E-01  2.15350E-01 -3.77492E-01 -1.42099E-01 -1.23080E-01 -4.68363E-01 -1.27218E+00  6.82741E-01
  -5.76704E-01  1.89833E+00 -3.90074E-01 -1.69536E+00  2.80690E+00 -2.55160E-01 -2.57647E+00 -1.96529E+00  1.60901E+00 -1.83202E+00
   1.43587E+00  1.28314E+00  1.11431E+00 -1.57526E+00  6.82195E-01  1.45258E+00  2.54435E-01 -7.44422E-01  1.50803E+00 -2.51979E+00
   9.42982E-01 -1.88679E+00 -3.20236E+00 -4.91571E-01  2.62436E-01  2.94150E-01 -3.68393E+00 -7.09644E-01  1.38554E-01  5.29973E-01
  -2.71473E+00 -2.62297E+00 -3.00720E+00 -5.56737E-01 -1.10325E+00  1.21324E+00 -1.87655E+00  1.83880E+00 -8.72796E-01 -2.58448E+00
  -1.22069E+00 -2.49964E+00 -1.62868E+00 -2.01621E+00 -1.14744E+00 -1.87645E+00 -2.52401E+00 -1.82303E+00  5.76053E-01 -1.80582E+00
  -2.65027E+00 -1.08850E+00 -5.85465E+00  1.08716E-01 -1.94223E+00 -7.43116E-01 -4.28960E+00 -2.25160E+00 -2.65572E+00  6.72009E-01
   2.87011E+00 -8.53504E-01  1.58956E+00  6.57150E-01 -2.26578E+00  3.00914E-02 -1.68722E+00 -3.64082E+00 -4.03581E+00 -2.08512E+00
  -2.80797E+00 -3.00667E+00 -4.57758E+00 -5.03736E+00 -4.23523E+00 -4.44744E+00 -2.58056E+00 -3.03260E+00 -3.98169E+00 -2.87738E+00
  -3.86737E+00 -3.61623E+00 -5.06952E+00 -2.70431E+00 -4.02069E+00 -9.09396E-01 -3.33451E+00 -4.32507E+00 -4.21191E+00 -4.41391E+00
  -5.31194E+00 -7.33134E-01 -2.54971E+00 -3.30532E+00 -2.03613E+00 -1.21622E+00 -2.58184E+00 -3.34259E+00 -2.58801E+00 -1.45834E+00
  -3.60488E+00 -1.25818E+00 -1.93431E+00 -4.45541E+00 -6.22327E+00 -3.10479E+00 -5.03216E+00 -1.46529E+00 -1.18077E+00  9.38756E-02
  -3.12700E+00 -2.46756E+00 -3.51530E+00 -2.49846E+00 -3.27203E+00 -3.18268E+00 -2.50712E+00 -2.63671E+00 -4.22245E+00 -2.56886E+00
  -1.32402E+00 -2.89804E+00 -1.01279E+00 -1.16178E+00 -3.12032E+00 -3.41255E+00 -3.96882E+00 -3.38523E+00 -4.75807E-01 -2.75009E+00
  -2.27373E+00 -1.82655E+00 -2.35363E+00 -4.62854E+00 -3.85895E+00 -1.08860E+00 -2.46217E+00 -1.79520E+00 -3.00263E+00 -2.73554E+00
  -1.99234E+00 -2.19678E+00 -1.58009E+00 -2.95724E+00 -3.14225E+00 -3.58186E+00 -3.60795E+00  1.40249E+00 -4.26333E+00 -2.43423E+00
  -3.27741E+00 -3.83129E+00 -4.20097E+00 -2.50550E+00 -4.14219E+00 -2.87259E+00 -9.48034E-01 -2.03742E+00 -4.02511E+00 -2.50267E+00
  -3.43534E+00 -3.83040E+00 -1.55648E+00 -4.57881E+00 -3.55619E+00 -4.17476E+00 -1.73630E+00 -4.87801E+00 -4.70028E+00 -2.48646E+00
  -6.82517E+00 -4.52678E+00 -2.38239E+00 -4.80943E+00 -2.20776E+00 -3.99459E+00 -3.01907E+00 -5.19372E+00 -3.21670E+00 -2.52013E+00
  -5.35506E+00 -1.75947E+00 -1.17228E+00 -3.67980E-01 -2.70387E+00 -1.45115E+00 -4.13228E+00 -2.43733E+00 -2.75396E+00 -4.50055E+00
  -2.95126E+00 -3.91971E+00 -4.11551E+00 -4.50462E+00 -5.64944E+00 -3.89526E+00 -4.19311E+00 -4.08913E+00 -2.49954E+00 -4.57512E+00
  -5.22745E+00 -2.11914E+00 -5.67959E+00 -4.34042E+00 -2.50540E+00 -3.99709E+00 -3.77126E+00 -3.18992E+00 -4.03950E+00 -1.84880E+00
  -5.24490E+00  1.72011E+00 -3.78080E+00 -1.96359E+00 -2.13804E+00 -2.24709E+00 -3.39260E+00 -2.54501E+00 -3.46259E+00 -1.37427E+00
  -3.61739E+00 -2.36854E+00 -3.35497E+00 -1.89443E+00 -1.29203E+00 -7.28441E-01 -1.43521E+00 -1.20134E+00 -4.68955E+00 -9.78076E-01
  -3.57438E+00 -4.62916E-01 -9.76953E-01 -1.42327E+00 -3.46370E+00 -2.62093E+00 -1.61590E+00 -1.05023E+00 -2.33662E+00 -2.12607E+00
  -1.90422E-01 -2.13261E+00 -4.36242E+00 -1.64165E+00 -9.27607E-01 -2.96404E+00 -3.02446E+00 -1.51357E+00 -2.31339E+00 -1.72797E+00
  -3.58944E+00 -1.37570E+00 -1.47999E+00 -2.18798E+00 -3.43600E+00 -2.27878E+00 -4.95636E+00 -2.71990E+00 -5.63270E-01 -2.33864E+00
  -2.96155E+00 -2.26392E+00 -3.94050E+00 -1.73820E+00 -2.64507E+00 -2.77904E+00 -1.41003E+00 -4.52372E+00 -4.75142E+00 -1.25336E+00
  -2.47839E+00 -4.05978E+00 -2.03548E+00 -1.17510E+00 -2.32747E+00 -5.61029E-01 -1.55444E+00 -1.51340E+00 -3.82623E+00 -2.99334E+00
  -1.75445E+00 -2.63544E+00 -2.19449E+00 -2.02503E+00 -2.61576E+00 -2.38043E+00 -3.44961E+00 -2.08192E+00  1.26499E+00 -2.70015E+00
  -1.98741E+00 -4.28355E+00 -3.44917E+00 -2.06805E-01 -1.20947E+00 -1.30395E+00 -3.01032E+00 -3.09882E+00
 NY points of the fit to the data follow
   1.46662E+01  1.45107E+01  1.43713E+01  1.42317E+01  1.40552E+01  1.39080E+01  1.39696E+01  1.43539E+01  1.49478E+01  1.54338E+01
   1.55761E+01  1.53119E+01  1.47173E+01  1.40490E+01  1.35068E+01  1.30782E+01  1.27766E+01  1.25571E+01  1.23537E+01  1.21767E+01
   1.20277E+01  1.19037E+01  1.17968E+01  1.17033E+01  1.16091E+01  1.14796E+01  1.13000E+01  1.10990E+01  1.09266E+01  1.08084E+01
   1.07460E+01  1.07301E+01  1.07216E+01  1.06708E+01  1.05650E+01  1.04095E+01  1.02204E+01  1.00190E+01  9.81493E+00  9.61677E+00
   9.43620E+00  9.28513E+00  9.14854E+00  9.01552E+00  8.95701E+00  9.06520E+00  9.30686E+00  9.51930E+00  9.52458E+00  9.26768E+00
   8.83664E+00  8.38578E+00  8.03569E+00  7.80882E+00  7.66173E+00  7.55354E+00  7.46725E+00  7.41521E+00  7.41418E+00  7.44114E+00
   7.44113E+00  7.36212E+00  7.18036E+00  6.93195E+00  6.68515E+00  6.48775E+00  6.35894E+00  6.28003E+00  6.22046E+00  6.16962E+00
   6.12306E+00  6.07271E+00  6.00315E+00  5.91261E+00  5.81017E+00  5.69238E+00  5.56385E+00  5.42836E+00  5.28278E+00  5.14117E+00
   5.01797E+00  4.91203E+00  4.82355E+00  4.75991E+00  4.70804E+00  4.62375E+00  4.46793E+00  4.25314E+00  4.03518E+00  3.86942E+00
   3.78415E+00  3.76099E+00  3.75300E+00  3.73676E+00  3.70419E+00  3.65062E+00  3.56648E+00  3.43138E+00  3.20030E+00  3.00793E+00
   3.17053E+00  3.86012E+00  4.79846E+00  5.41205E+00  5.38952E+00  4.82202E+00  3.99508E+00  3.28704E+00  2.87698E+00  2.61731E+00
   2.45476E+00  2.36100E+00  2.28453E+00  2.21493E+00  2.14673E+00  2.08012E+00  2.01381E+00  1.94529E+00  1.87446E+00  1.80395E+00
   1.73317E+00  1.63078E+00  1.42594E+00  1.29921E+00  1.66708E+00  2.73801E+00  4.11563E+00  5.00829E+00  4.99709E+00  4.22785E+00
   3.10993E+00  2.16876E+00  1.63970E+00  1.31366E+00  1.10938E+00  9.88772E-01  8.93422E-01  8.20653E-01  7.76328E-01  7.51566E-01
   7.30873E-01  7.03905E-01  6.66972E-01  6.27925E-01  5.93805E-01  5.61935E-01  5.26082E-01  4.82953E-01  4.35401E-01  3.88563E-01
   3.45769E-01  3.08094E-01  2.72643E-01  2.38766E-01  2.07663E-01  1.80488E-01  1.58762E-01  1.35029E-01  9.40964E-02  2.74309E-02
  -5.35700E-02 -1.16501E-01 -1.37305E-01 -1.19163E-01 -8.94790E-02 -8.28715E-02 -1.09396E-01 -1.54465E-01 -2.04783E-01 -2.47810E-01
  -2.80445E-01 -3.09030E-01 -3.36390E-01 -3.75926E-01 -4.33255E-01 -4.91426E-01 -5.20439E-01 -5.13480E-01 -4.98994E-01 -5.06487E-01
  -5.42090E-01 -5.85167E-01 -6.05624E-01 -6.05273E-01 -6.14092E-01 -6.46635E-01 -6.87196E-01 -6.99222E-01 -6.72282E-01 -6.26435E-01
  -5.89816E-01 -5.86332E-01 -6.14725E-01 -6.46183E-01 -6.64054E-01 -6.71305E-01 -6.81771E-01 -7.10530E-01 -7.56195E-01 -8.09380E-01
  -8.54382E-01 -8.68786E-01 -8.44249E-01 -8.01259E-01 -7.69272E-01 -7.70831E-01 -8.13452E-01 -8.88932E-01 -9.80048E-01 -1.07869E+00
  -1.17957E+00 -1.27044E+00 -1.30300E+00 -1.21743E+00 -1.03092E+00 -8.41437E-01 -7.55175E-01 -8.10878E-01 -9.84225E-01 -1.24145E+00
  -1.53257E+00 -1.77806E+00 -1.90179E+00 -1.85370E+00 -1.68159E+00 -1.47770E+00 -1.32054E+00 -1.25380E+00 -1.26817E+00 -1.33429E+00
  -1.42652E+00 -1.50837E+00 -1.55181E+00 -1.55962E+00 -1.54266E+00 -1.51763E+00 -1.50341E+00 -1.51406E+00 -1.55900E+00 -1.63913E+00
  -1.73803E+00 -1.82953E+00 -1.88388E+00 -1.88560E+00 -1.84884E+00 -1.80114E+00 -1.76298E+00 -1.75706E+00 -1.79996E+00 -1.87908E+00
  -1.96599E+00 -2.02850E+00 -2.04920E+00 -2.03352E+00 -2.02462E+00 -2.12494E+00 -2.30060E+00 -2.17620E+00 -1.38175E+00 -4.68125E-02
   1.12568E+00  1.50751E+00  1.05176E+00  7.07949E-02 -9.44418E-01 -1.58809E+00 -1.93324E+00 -2.15559E+00 -2.25841E+00 -2.32489E+00
  -2.38096E+00 -2.42000E+00 -2.43585E+00 -2.43386E+00 -2.42393E+00 -2.41604E+00 -2.41769E+00 -2.43263E+00 -2.45788E+00 -2.48947E+00
  -2.52321E+00 -2.55399E+00 -2.57967E+00 -2.59965E+00 -2.61364E+00 -2.62388E+00 -2.63314E+00 -2.64268E+00 -2.65347E+00 -2.66562E+00
  -2.67852E+00 -2.69179E+00 -2.70558E+00 -2.71970E+00 -2.73343E+00 -2.74646E+00 -2.75888E+00 -2.77051E+00 -2.78151E+00 -2.79226E+00
  -2.80272E+00 -2.81289E+00 -2.82273E+00 -2.83229E+00 -2.84165E+00 -2.85089E+00 -2.86008E+00 -2.86913E+00 -2.87794E+00 -2.88644E+00
  -2.89463E+00 -2.90257E+00 -2.91030E+00 -2.91781E+00 -2.92502E+00 -2.93190E+00 -2.93841E+00 -2.94457E+00 -2.95036E+00 -2.95570E+00
  -2.96056E+00 -2.96527E+00 -2.97011E+00 -2.96672E+00 -2.94375E+00 -2.90708E+00 -2.88477E+00 -2.90544E+00 -2.96711E+00 -3.04312E+00
  -3.11353E+00 -3.16792E+00 -3.19699E+00 -3.19264E+00 -3.14331E+00 -3.06370E+00 -2.99087E+00 -2.94695E+00 -2.93774E+00 -2.95182E+00
  -2.96635E+00 -2.97547E+00 -2.98473E+00 -2.95100E+00 -2.80925E+00 -2.57992E+00 -2.40817E+00 -2.45988E+00 -2.74541E+00 -3.13239E+00
  -3.51711E+00 -3.81268E+00 -3.93009E+00 -3.82910E+00 -3.50581E+00 -3.08405E+00 -2.75165E+00 -2.59543E+00 -2.62034E+00 -2.73898E+00
  -2.84257E+00 -2.92292E+00 -2.98407E+00 -3.02157E+00 -3.04660E+00 -3.06441E+00 -3.07736E+00 -3.08675E+00 -3.09346E+00 -3.09813E+00
  -3.10125E+00 -3.10314E+00 -3.10404E+00 -3.10415E+00 -3.10359E+00 -3.10249E+00 -3.10093E+00 -3.09894E+00 -3.09657E+00 -3.09384E+00
  -3.09080E+00 -3.08747E+00 -3.08386E+00 -3.07997E+00 -3.07583E+00 -3.07144E+00 -3.06682E+00 -3.06198E+00 -3.05691E+00 -3.05163E+00
  -3.04613E+00 -3.04044E+00 -3.03456E+00 -3.02848E+00 -3.02220E+00 -3.01574E+00 -3.00911E+00 -3.00230E+00 -2.99533E+00 -2.98818E+00
  -2.98087E+00 -2.97341E+00 -2.96579E+00 -2.95803E+00 -2.95012E+00 -2.94206E+00 -2.93386E+00 -2.92553E+00 -2.91707E+00 -2.90849E+00
  -2.89977E+00 -2.89094E+00 -2.88199E+00 -2.87294E+00 -2.86378E+00 -2.85452E+00 -2.84516E+00 -2.83570E+00 -2.82615E+00 -2.81653E+00
  -2.80682E+00 -2.79703E+00 -2.78716E+00 -2.77722E+00 -2.76723E+00 -2.75718E+00 -2.74707E+00 -2.73691E+00 -2.72670E+00 -2.71646E+00
  -2.70619E+00 -2.69589E+00 -2.68557E+00 -2.67522E+00 -2.66486E+00 -2.65450E+00 -2.64414E+00 -2.63378E+00 -2.62342E+00 -2.61308E+00
  -2.60275E+00 -2.59246E+00 -2.58220E+00 -2.57196E+00 -2.56176E+00 -2.55160E+00 -2.54150E+00 -2.53145E+00 -2.52147E+00 -2.51154E+00
  -2.50167E+00 -2.49188E+00 -2.48218E+00 -2.47257E+00 -2.46302E+00 -2.45355E+00 -2.44415E+00 -2.43483E+00 -2.42559E+00 -2.41641E+00
  -2.40729E+00 -2.39822E+00 -2.38922E+00 -2.38028E+00 -2.37140E+00 -2.36256E+00 -2.35377E+00 -2.34502E+00 -2.33632E+00 -2.32767E+00
  -2.31906E+00 -2.31047E+00 -2.30191E+00 -2.29338E+00 -2.28489E+00 -2.27643E+00 -2.26799E+00 -2.25956E+00 -2.25114E+00 -2.24274E+00
  -2.23436E+00 -2.22600E+00 -2.21763E+00 -2.20926E+00 -2.20089E+00 -2.19253E+00 -2.18417E+00 -2.17580E+00 -2.16741E+00 -2.15900E+00
  -2.15059E+00 -2.14216E+00 -2.13372E+00 -2.12525E+00 -2.11674E+00 -2.10821E+00 -2.09965E+00 -2.09107E+00
 NY background values follow
     1.451E+01    1.438E+01    1.425E+01    1.412E+01    1.399E+01    1.386E+01    1.373E+01    1.359E+01    1.346E+01    1.333E+01
     1.320E+01    1.307E+01    1.294E+01    1.280E+01    1.267E+01    1.254E+01    1.241E+01    1.228E+01    1.215E+01    1.202E+01
     1.189E+01    1.176E+01    1.163E+01    1.150E+01    1.137E+01    1.124E+01    1.111E+01    1.098E+01    1.085E+01    1.072E+01
     1.060E+01    1.047E+01    1.034E+01    1.021E+01    1.009E+01    9.962E+00    9.836E+00    9.710E+00    9.585E+00    9.461E+00
     9.336E+00    9.213E+00    9.089E+00    8.966E+00    8.844E+00    8.722E+00    8.601E+00    8.480E+00    8.360E+00    8.240E+00
     8.121E+00    8.003E+00    7.885E+00    7.767E+00    7.650E+00    7.534E+00    7.419E+00    7.304E+00    7.190E+00    7.076E+00
     6.963E+00    6.851E+00    6.739E+00    6.628E+00    6.518E+00    6.408E+00    6.300E+00    6.192E+00    6.084E+00    5.978E+00
     5.872E+00    5.767E+00    5.663E+00    5.559E+00    5.457E+00    5.355E+00    5.254E+00    5.153E+00    5.054E+00    4.956E+00
     4.858E+00    4.761E+00    4.665E+00    4.570E+00    4.476E+00    4.383E+00    4.291E+00    4.199E+00    4.109E+00    4.020E+00
     3.931E+00    3.844E+00    3.757E+00    3.672E+00    3.587E+00    3.503E+00    3.421E+00    3.339E+00    3.258E+00    3.179E+00
     3.100E+00    3.022E+00    2.945E+00    2.869E+00    2.794E+00    2.720E+00    2.647E+00    2.575E+00    2.504E+00    2.434E+00
     2.364E+00    2.296E+00    2.229E+00    2.162E+00    2.097E+00    2.032E+00    1.969E+00    1.906E+00    1.845E+00    1.784E+00
     1.724E+00    1.665E+00    1.607E+00    1.550E+00    1.494E+00    1.439E+00    1.384E+00    1.331E+00    1.279E+00    1.227E+00
     1.177E+00    1.127E+00    1.078E+00    1.030E+00    9.835E-01    9.376E-01    8.925E-01    8.483E-01    8.050E-01    7.626E-01
     7.210E-01    6.803E-01    6.404E-01    6.012E-01    5.629E-01    5.253E-01    4.885E-01    4.524E-01    4.170E-01    3.823E-01
     3.483E-01    3.149E-01    2.822E-01    2.501E-01    2.186E-01    1.877E-01    1.574E-01    1.276E-01    9.842E-02    6.971E-02
     4.151E-02    1.380E-02   -1.344E-02   -4.023E-02   -6.659E-02   -9.253E-02   -1.181E-01   -1.432E-01   -1.680E-01   -1.925E-01
    -2.166E-01   -2.404E-01   -2.639E-01   -2.871E-01   -3.101E-01   -3.328E-01   -3.553E-01   -3.776E-01   -3.997E-01   -4.216E-01
    -4.434E-01   -4.650E-01   -4.865E-01   -5.079E-01   -5.291E-01   -5.503E-01   -5.713E-01   -5.923E-01   -6.132E-01   -6.340E-01
    -6.547E-01   -6.754E-01   -6.960E-01   -7.165E-01   -7.371E-01   -7.575E-01   -7.779E-01   -7.983E-01   -8.187E-01   -8.391E-01
    -8.595E-01   -8.798E-01   -9.002E-01   -9.206E-01   -9.410E-01   -9.614E-01   -9.818E-01   -1.002E+00   -1.023E+00   -1.043E+00
    -1.064E+00   -1.085E+00   -1.106E+00   -1.126E+00   -1.147E+00   -1.168E+00   -1.190E+00   -1.211E+00   -1.232E+00   -1.254E+00
    -1.275E+00   -1.297E+00   -1.319E+00   -1.341E+00   -1.363E+00   -1.385E+00   -1.408E+00   -1.430E+00   -1.453E+00   -1.476E+00
    -1.499E+00   -1.522E+00   -1.546E+00   -1.569E+00   -1.592E+00   -1.616E+00   -1.640E+00   -1.663E+00   -1.687E+00   -1.711E+00
    -1.734E+00   -1.758E+00   -1.782E+00   -1.806E+00   -1.829E+00   -1.853E+00   -1.877E+00   -1.900E+00   -1.924E+00   -1.947E+00
    -1.971E+00   -1.994E+00   -2.017E+00   -2.040E+00   -2.063E+00   -2.085E+00   -2.108E+00   -2.130E+00   -2.152E+00   -2.174E+00
    -2.196E+00   -2.218E+00   -2.239E+00   -2.260E+00   -2.281E+00   -2.301E+00   -2.321E+00   -2.341E+00   -2.361E+00   -2.380E+00
    -2.399E+00   -2.418E+00   -2.436E+00   -2.454E+00   -2.472E+00   -2.489E+00   -2.506E+00   -2.523E+00   -2.539E+00   -2.555E+00
    -2.571E+00   -2.586E+00   -2.602E+00   -2.616E+00   -2.631E+00   -2.645E+00   -2.659E+00   -2.673E+00   -2.686E+00   -2.699E+00
    -2.712E+00   -2.725E+00   -2.737E+00   -2.749E+00   -2.761E+00   -2.773E+00   -2.784E+00   -2.795E+00   -2.806E+00   -2.817E+00
    -2.828E+00   -2.838E+00   -2.848E+00   -2.858E+00   -2.868E+00   -2.877E+00   -2.886E+00   -2.896E+00   -2.904E+00   -2.913E+00
    -2.922E+00   -2.930E+00   -2.939E+00   -2.947E+00   -2.955E+00   -2.963E+00   -2.970E+00   -2.978E+00   -2.986E+00   -2.993E+00
    -3.000E+00   -3.007E+00   -3.014E+00   -3.021E+00   -3.027E+00   -3.034E+00   -3.040E+00   -3.046E+00   -3.052E+00   -3.058E+00
    -3.064E+00   -3.070E+00   -3.075E+00   -3.080E+00   -3.085E+00   -3.090E+00   -3.095E+00   -3.099E+00   -3.104E+00   -3.108E+00
    -3.112E+00   -3.116E+00   -3.120E+00   -3.123E+00   -3.126E+00   -3.130E+00   -3.132E+00   -3.135E+00   -3.138E+00   -3.140E+00
    -3.142E+00   -3.144E+00   -3.146E+00   -3.147E+00   -3.149E+00   -3.150E+00   -3.151E+00   -3.152E+00   -3.152E+00   -3.152E+00
    -3.152E+00   -3.152E+00   -3.152E+00   -3.151E+00   -3.151E+00   -3.150E+00   -3.148E+00   -3.147E+00   -3.145E+00   -3.143E+00
    -3.141E+00   -3.139E+00   -3.136E+00   -3.134E+00   -3.131E+00   -3.128E+00   -3.125E+00   -3.121E+00   -3.117E+00   -3.113E+00
    -3.109E+00   -3.105E+00   -3.101E+00   -3.096E+00   -3.091E+00   -3.086E+00   -3.081E+00   -3.076E+00   -3.070E+00   -3.065E+00
    -3.059E+00   -3.053E+00   -3.047E+00   -3.040E+00   -3.034E+00   -3.027E+00   -3.020E+00   -3.013E+00   -3.006E+00   -2.999E+00
    -2.991E+00   -2.984E+00   -2.976E+00   -2.968E+00   -2.960E+00   -2.952E+00   -2.943E+00   -2.935E+00   -2.926E+00   -2.918E+00
    -2.909E+00   -2.900E+00   -2.891E+00   -2.881E+00   -2.872E+00   -2.863E+00   -2.853E+00   -2.843E+00   -2.834E+00   -2.824E+00
    -2.814E+00   -2.804E+00   -2.794E+00   -2.784E+00   -2.774E+00   -2.764E+00   -2.754E+00   -2.743E+00   -2.733E+00   -2.723E+00
    -2.712E+00   -2.702E+00   -2.691E+00   -2.681E+00   -2.671E+00   -2.660E+00   -2.650E+00   -2.639E+00   -2.629E+00   -2.618E+00
    -2.608E+00   -2.598E+00   -2.587E+00   -2.577E+00   -2.567E+00   -2.557E+00   -2.546E+00   -2.536E+00   -2.526E+00   -2.516E+00
    -2.506E+00   -2.497E+00   -2.487E+00   -2.477E+00   -2.468E+00   -2.458E+00   -2.449E+00   -2.439E+00   -2.430E+00   -2.421E+00
    -2.412E+00   -2.402E+00   -2.393E+00   -2.384E+00   -2.375E+00   -2.367E+00   -2.358E+00   -2.349E+00   -2.340E+00   -2.332E+00
    -2.323E+00   -2.314E+00   -2.306E+00   -2.297E+00   -2.289E+00   -2.280E+00   -2.272E+00   -2.263E+00   -2.255E+00   -2.246E+00
    -2.238E+00   -2.230E+00   -2.221E+00   -2.213E+00   -2.204E+00   -2.196E+00   -2.188E+00   -2.179E+00   -2.171E+00   -2.162E+00
    -2.154E+00   -2.145E+00   -2.137E+00   -2.128E+00   -2.120E+00   -2.111E+00   -2.103E+00   -2.094E+00
 Ala      Conc. = 6.51E+00
