 LCModel (Version 6.3-1L) Copyright: S.W. Provencher.          Ref.: Magn. Reson. Med. 30:672-679 (1993).                
 Slice#2 Row#8 Col#11  PD_24_press_1_raw_act
 36 lines in following concentration table = NCONC+1
    Conc.  %SD /Cr+PCr  Metabolite                                         
   33.346 365% 2.6E-02 Ala                                                 
    0.000 999%   0.000 Asp                                                 
  413.945  73%   0.322 Cr                                                  
  870.632  35%   0.678 PCr                                                 
    0.000 999%   0.000 GABA                                                
   37.930 456% 3.0E-02 Glc                                                 
  883.720  30%   0.688 Gln                                                 
 1.12E+03  26%   0.869 Glu                                                 
  536.468   5%   0.418 GPC                                                 
    0.000 999%   0.000 PCh                                                 
  359.772  22%   0.280 GSH                                                 
 1.27E+03  22%   0.988 Ins                                                 
  110.273 121% 8.6E-02 Lac                                                 
 2.51E+03   7%   1.957 NAA                                                 
  392.034  49%   0.305 NAAG                                                
  172.948  18%   0.135 Scyllo                                              
  159.239 138%   0.124 Tau                                                 
  704.075  17%   0.548 -CrCH2                                              
  536.468   5%   0.418 GPC+PCh                                             
 2.91E+03   3%   2.262 NAA+NAAG                                            
 1.28E+03   5%   1.000 Cr+PCr                                              
 2.00E+03  22%   1.557 Glu+Gln                                             
   81.399 360% 6.3E-02 Lip13a                                              
    0.000 999%   0.000 Lip13b                                              
    0.000 999%   0.000 Lip09                                               
 2.32E+03   9%   1.804 MM09                                                
   99.322 124% 7.7E-02 Lip20                                               
 4.81E+03   9%   3.745 MM20                                                
  931.752  24%   0.725 MM12                                                
    0.000 999%   0.000 MM14                                                
  366.350  42%   0.285 MM17                                                
   81.399 360% 6.3E-02 Lip13a+Lip13b                                       
 1.01E+03  26%   0.789 MM14+Lip13a+Lip13b+MM12                             
 2.32E+03   9%   1.804 MM09+Lip09                                          
 4.91E+03   9%   3.822 MM20+Lip20                                          
   6 lines in following misc. output table
  FWHM = 0.061 ppm    S/N =  14                                            
  Data shift =-0.008 ppm                                                   
  Ph: -43 deg     -15.8 deg/ppm                                            
  alphaB,S = 1.1E+00,   1.0E+02                                            
   14 spline knots.   Ns = 8(1)                                            
  (13) 4 infls.   (11) 1 extrs.                                            
  498 points on ppm-axis = NY
      4.000000     3.992357     3.984714     3.977070     3.969427     3.961784     3.954141     3.946497     3.938854     3.931211
      3.923568     3.915925     3.908281     3.900638     3.892995     3.885352     3.877708     3.870065     3.862422     3.854779
      3.847136     3.839492     3.831849     3.824206     3.816563     3.808919     3.801276     3.793633     3.785990     3.778347
      3.770703     3.763060     3.755417     3.747774     3.740130     3.732487     3.724844     3.717201     3.709558     3.701914
      3.694271     3.686628     3.678985     3.671341     3.663698     3.656055     3.648412     3.640769     3.633125     3.625482
      3.617839     3.610196     3.602552     3.594909     3.587266     3.579623     3.571980     3.564336     3.556693     3.549050
      3.541407     3.533763     3.526120     3.518477     3.510834     3.503191     3.495547     3.487904     3.480261     3.472618
      3.464974     3.457331     3.449688     3.442045     3.434402     3.426758     3.419115     3.411472     3.403829     3.396185
      3.388542     3.380899     3.373256     3.365613     3.357969     3.350326     3.342683     3.335040     3.327396     3.319753
      3.312110     3.304467     3.296824     3.289180     3.281537     3.273894     3.266251     3.258607     3.250964     3.243321
      3.235678     3.228034     3.220391     3.212748     3.205105     3.197462     3.189818     3.182175     3.174532     3.166889
      3.159245     3.151602     3.143959     3.136316     3.128673     3.121029     3.113386     3.105743     3.098100     3.090456
      3.082813     3.075170     3.067527     3.059884     3.052240     3.044597     3.036954     3.029311     3.021667     3.014024
      3.006381     2.998738     2.991095     2.983451     2.975808     2.968165     2.960522     2.952878     2.945235     2.937592
      2.929949     2.922306     2.914662     2.907019     2.899376     2.891733     2.884089     2.876446     2.868803     2.861160
      2.853517     2.845873     2.838230     2.830587     2.822944     2.815300     2.807657     2.800014     2.792371     2.784728
      2.777084     2.769441     2.761798     2.754155     2.746511     2.738868     2.731225     2.723582     2.715939     2.708295
      2.700652     2.693009     2.685366     2.677722     2.670079     2.662436     2.654793     2.647150     2.639506     2.631863
      2.624220     2.616577     2.608933     2.601290     2.593647     2.586004     2.578361     2.570717     2.563074     2.555431
      2.547788     2.540144     2.532501     2.524858     2.517215     2.509572     2.501928     2.494285     2.486642     2.478999
      2.471355     2.463712     2.456069     2.448426     2.440783     2.433139     2.425496     2.417853     2.410210     2.402566
      2.394923     2.387280     2.379637     2.371994     2.364350     2.356707     2.349064     2.341421     2.333777     2.326134
      2.318491     2.310848     2.303205     2.295561     2.287918     2.280275     2.272632     2.264988     2.257345     2.249702
      2.242059     2.234416     2.226772     2.219129     2.211486     2.203843     2.196199     2.188556     2.180913     2.173270
      2.165627     2.157983     2.150340     2.142697     2.135054     2.127410     2.119767     2.112124     2.104481     2.096838
      2.089194     2.081551     2.073908     2.066265     2.058621     2.050978     2.043335     2.035692     2.028049     2.020405
      2.012762     2.005119     1.997476     1.989833     1.982190     1.974546     1.966903     1.959260     1.951617     1.943974
      1.936331     1.928688     1.921045     1.913402     1.905759     1.898115     1.890472     1.882829     1.875186     1.867543
      1.859900     1.852257     1.844614     1.836971     1.829327     1.821684     1.814041     1.806398     1.798755     1.791112
      1.783469     1.775826     1.768183     1.760540     1.752896     1.745253     1.737610     1.729967     1.722324     1.714681
      1.707038     1.699395     1.691752     1.684108     1.676465     1.668822     1.661179     1.653536     1.645893     1.638250
      1.630607     1.622964     1.615321     1.607677     1.600034     1.592391     1.584748     1.577105     1.569462     1.561819
      1.554176     1.546533     1.538890     1.531246     1.523603     1.515960     1.508317     1.500674     1.493031     1.485388
      1.477745     1.470102     1.462458     1.454815     1.447172     1.439529     1.431886     1.424243     1.416600     1.408957
      1.401314     1.393671     1.386027     1.378384     1.370741     1.363098     1.355455     1.347812     1.340169     1.332526
      1.324883     1.317240     1.309596     1.301953     1.294310     1.286667     1.279024     1.271381     1.263738     1.256095
      1.248452     1.240808     1.233165     1.225522     1.217879     1.210236     1.202593     1.194950     1.187307     1.179664
      1.172021     1.164377     1.156734     1.149091     1.141448     1.133805     1.126162     1.118519     1.110876     1.103233
      1.095590     1.087946     1.080303     1.072660     1.065017     1.057374     1.049731     1.042088     1.034445     1.026802
      1.019158     1.011515     1.003872     0.996229     0.988586     0.980943     0.973300     0.965657     0.958014     0.950371
      0.942727     0.935084     0.927441     0.919798     0.912155     0.904512     0.896869     0.889226     0.881583     0.873940
      0.866296     0.858653     0.851010     0.843367     0.835724     0.828081     0.820438     0.812795     0.805152     0.797508
      0.789865     0.782222     0.774579     0.766936     0.759293     0.751650     0.744007     0.736364     0.728721     0.721077
      0.713434     0.705791     0.698148     0.690505     0.682862     0.675219     0.667576     0.659933     0.652290     0.644646
      0.637003     0.629360     0.621717     0.614074     0.606431     0.598788     0.591145     0.583502     0.575858     0.568215
      0.560572     0.552929     0.545286     0.537643     0.530000     0.522357     0.514714     0.507071     0.499427     0.491784
      0.484141     0.476498     0.468855     0.461212     0.453569     0.445925     0.438282     0.430639     0.422996     0.415353
      0.407710     0.400067     0.392424     0.384780     0.377137     0.369494     0.361851     0.354208     0.346565     0.338922
      0.331278     0.323635     0.315992     0.308349     0.300706     0.293063     0.285420     0.277777     0.270133     0.262490
      0.254847     0.247204     0.239561     0.231918     0.224275     0.216631     0.208988     0.201345
 NY phased data points follow
   5.25142E+00  5.43694E+00  8.06342E+00  7.58885E+00  4.70020E+00  6.75233E+00  8.67126E+00  1.07479E+01  8.86417E+00  1.56547E+01
   1.25965E+01  1.81435E+01  2.01881E+01  1.85317E+01  1.54811E+01  1.89298E+01  1.58615E+01  1.22319E+01  1.06246E+01  8.40695E+00
   9.49332E+00  5.38815E+00  5.89410E+00  6.07100E+00  8.89642E+00  7.57093E+00  5.04781E+00  8.22422E+00  1.12141E+01  8.93559E+00
   7.57572E+00  1.51703E+01  1.42500E+01  8.90020E+00  9.59434E+00  9.37941E+00  8.85760E+00  1.00741E+01  1.07954E+01  1.02407E+01
   8.95291E+00  8.56683E+00  9.15478E+00  1.11057E+01  1.01320E+01  1.11806E+01  1.38819E+01  1.25434E+01  1.15798E+01  1.36854E+01
   1.18032E+01  1.50208E+01  1.59711E+01  1.23879E+01  1.23167E+01  1.17585E+01  8.46018E+00  9.36881E+00  6.71541E+00  9.49409E+00
   7.76011E+00  5.26240E+00  4.42533E+00  4.19626E+00  4.08944E+00  3.51763E+00  6.37368E+00  3.42213E+00  3.88029E+00  2.53438E+00
   2.85660E+00  1.38764E+00  2.81134E+00  2.06248E+00  2.61541E+00  1.05744E+01  3.41349E+00  4.35211E+00  7.33004E+00  1.45426E+00
   3.80339E+00  4.42314E+00  2.98465E+00  7.45437E+00  6.16832E+00  7.24567E+00  7.40009E+00  6.20034E+00  8.06893E+00  1.04674E+01
   7.16465E+00  7.03402E+00  6.36554E+00  8.35716E+00  1.16211E+01  9.59210E+00  1.00181E+01  1.04395E+01  1.23957E+01  1.41416E+01
   2.22048E+01  3.22626E+01  3.72860E+01  4.68637E+01  4.61736E+01  4.30418E+01  4.02578E+01  2.98183E+01  2.47587E+01  2.15459E+01
   1.44644E+01  1.36047E+01  1.10113E+01  7.89560E+00  8.02105E+00  6.42824E+00  2.53977E+00  4.11012E+00  4.46174E+00  5.77789E+00
   3.12210E+00  9.33020E-01  8.83786E+00  1.45179E+01  2.02453E+01  2.92142E+01  3.68473E+01  4.26570E+01  3.82931E+01  4.56489E+01
   3.51863E+01  3.13161E+01  2.68400E+01  1.63127E+01  1.76139E+01  1.26977E+01  1.31789E+01  8.96398E+00  5.54780E+00  4.90785E+00
   7.60951E+00  5.15897E+00  7.34358E+00  6.29713E+00  7.86224E+00  6.44568E+00  3.38804E+00  4.41598E+00  2.58247E+00  4.58312E+00
   2.80450E+00  4.66231E+00  2.29384E+00  3.86448E+00  5.11507E+00  4.89082E+00  2.55085E+00  4.37792E+00  3.28849E+00  2.24152E+00
   1.88412E+00  2.18965E+00 -1.97505E+00  4.61578E-02  2.83810E+00 -1.48426E+00 -4.26990E+00 -6.25277E+00 -6.58605E+00 -5.32492E+00
  -5.86900E+00 -8.53781E+00 -6.55267E+00 -1.30961E+01 -8.05080E+00 -1.05148E+01 -1.29735E+01 -1.15887E+01 -1.05490E+01 -8.57655E+00
  -7.03903E+00 -8.83956E+00 -7.22210E+00 -9.37473E+00 -7.00215E+00 -8.83019E+00 -1.18746E+01 -7.94359E+00 -3.51017E+00 -8.72001E+00
  -5.29278E+00 -9.18523E+00 -2.39499E+00  3.11184E-02  4.84413E-02 -3.11330E+00 -2.92999E+00 -9.08046E+00 -7.22656E+00 -4.86535E+00
  -5.05553E+00  8.80542E-02 -3.39050E+00  1.94950E+00 -1.11521E+00  6.61407E-01  1.61534E+00  8.99722E-01 -1.68640E+00 -2.43689E+00
  -1.40185E+00  5.43924E+00  7.69293E+00  8.85968E+00  1.20232E+01  1.33208E+01  1.46550E+01  7.47394E+00  1.06105E+01  4.75236E+00
   3.85571E+00  5.09511E+00  1.76552E+00  3.25001E+00  4.76515E+00  6.11175E+00  8.38644E+00  6.37454E+00  8.46984E+00  9.56272E+00
   7.13325E+00  1.08355E+01  9.11334E+00  1.38836E+01  5.77401E+00  1.18651E+01  8.71832E+00  7.59255E+00  7.44217E+00  9.43592E+00
   4.85504E+00  7.34426E+00  7.17994E+00  8.32022E+00  8.71699E+00  1.23207E+01  1.00745E+01  1.24202E+01  1.58964E+01  1.39988E+01
   1.71399E+01  2.23255E+01  2.55911E+01  2.89941E+01  3.54330E+01  4.56736E+01  5.83196E+01  6.52561E+01  7.91864E+01  8.61864E+01
   9.29475E+01  9.01719E+01  8.13263E+01  6.95910E+01  5.75052E+01  4.61240E+01  2.99192E+01  2.45331E+01  1.93379E+01  1.65305E+01
   1.06741E+01  1.05543E+01  7.86770E+00  2.44396E+00  2.76344E+00  8.36643E+00  3.18326E+00  2.57720E+00  1.78798E+00 -7.02881E-01
  -1.10122E+00  8.79613E-01 -2.72982E+00 -1.66773E+00 -2.20183E+00  2.72593E+00 -1.25757E+00  2.09935E+00 -2.90628E+00 -2.29865E+00
  -1.10634E-01 -1.45676E+00 -2.78476E+00  9.73043E-02 -2.57301E+00 -3.54658E+00 -4.72641E+00 -3.01872E+00  1.69233E+00 -3.06377E+00
   1.41481E+00  2.06966E+00 -5.04605E-01  1.48621E+00  3.58168E+00  3.08205E+00  9.68025E-01  2.50398E+00  5.27319E+00  2.58415E+00
   4.41191E+00  4.34049E+00 -2.23537E+00 -5.35473E+00 -5.23114E-01 -2.80743E+00 -1.18885E+00  5.74803E-01 -2.17620E+00 -1.90801E+00
  -1.89169E+00 -3.61669E+00 -7.98330E+00 -1.75524E+00 -5.66570E+00 -7.42568E+00 -2.08240E+00 -2.89040E+00 -3.18552E+00 -7.71541E+00
  -5.74078E+00 -2.32100E+00 -2.31163E+00 -4.03259E+00 -4.14652E+00 -3.28698E+00 -4.72100E+00 -1.74236E+00 -1.64052E+00  5.76541E-01
   2.18008E+00 -7.42231E-01 -6.31745E-02  6.98849E-01  2.95751E+00  3.32686E+00  3.69455E+00  1.63444E+00  3.53355E+00  3.52383E-01
   1.69201E+00  3.02005E+00  2.17741E+00 -2.07321E+00 -1.04461E+00  4.39772E-01  4.23562E+00  2.77530E-01  2.24876E+00  2.36153E+00
   2.92534E+00  4.83977E+00  5.16783E+00  5.80288E+00  6.74289E+00  8.10580E+00  7.26046E+00  7.69219E+00  6.37173E+00  8.11440E+00
   8.72337E+00  4.24429E+00  6.04225E+00  2.64730E+00  5.07554E+00  3.47602E+00  5.56185E+00  6.50359E+00  4.32217E+00  1.93543E+00
  -9.85240E-01  1.61246E-02 -1.73379E+00  3.37491E+00  1.73057E+00  4.20025E+00  5.38060E+00  6.65773E+00  8.20280E+00  2.60418E+00
   4.24621E+00  7.41260E+00  5.86285E+00  9.13283E+00  1.11847E+01  9.58848E+00  1.15283E+01  8.65515E+00  9.28057E+00  1.16312E+01
   1.09829E+01  1.15784E+01  1.06660E+01  1.45998E+01  1.39017E+01  1.59421E+01  1.39997E+01  1.40515E+01  1.54090E+01  1.67106E+01
   1.51587E+01  1.09160E+01  1.68290E+01  1.37868E+01  1.36301E+01  1.26001E+01  1.26894E+01  1.29602E+01  7.36772E+00  1.01598E+01
   1.15170E+01  8.03764E+00  8.00655E+00  8.28908E+00  6.19643E+00  5.86174E+00  5.04952E+00  6.63943E+00  3.48405E+00  5.00493E+00
   5.44096E+00  6.62883E+00  6.98354E+00  3.21647E+00  4.11916E+00  5.94534E+00  2.08510E+00  3.58137E+00  3.22958E+00  5.53442E+00
   5.44979E+00  1.46288E+00  3.46833E+00  2.78382E+00  7.79021E+00  3.38885E+00  5.02585E+00  4.76888E+00  5.19820E+00  2.43436E+00
   2.87597E+00  6.74795E+00  1.43843E+00  1.58768E+00  3.42763E+00  6.58569E-01  5.68865E+00  6.67762E-01  3.63652E+00  4.31746E+00
   5.73828E+00  6.30300E+00  6.17515E-01  5.96689E+00  3.91371E+00  4.57097E+00 -1.16943E+00  4.10533E+00  3.86892E+00  1.21042E+00
   5.47475E+00  5.71860E+00  5.35385E+00  4.61405E+00  5.20196E+00  3.38354E+00  4.85706E+00  5.46238E-01  1.54911E+00  1.13479E+00
   1.46616E+00  2.82415E+00  4.35425E+00  9.50255E-01  7.51398E-01  2.69096E+00  5.18912E-01  2.17085E+00 -1.82306E-01  9.28920E-01
   2.30436E+00  1.37178E+00  1.50860E+00  4.28501E+00  1.67864E+00  1.77881E+00  1.60799E+00  2.09048E+00
 NY points of the fit to the data follow
   7.07236E+00  6.34120E+00  5.85447E+00  5.68989E+00  5.94825E+00  6.52874E+00  7.56982E+00  9.21318E+00  1.13775E+01  1.38796E+01
   1.62960E+01  1.80961E+01  1.88815E+01  1.85972E+01  1.75341E+01  1.59924E+01  1.43793E+01  1.30539E+01  1.20302E+01  1.07273E+01
   9.47144E+00  8.31115E+00  7.57352E+00  7.07684E+00  6.67353E+00  6.57283E+00  6.96155E+00  7.97578E+00  9.59765E+00  1.15953E+01
   1.34819E+01  1.46990E+01  1.49377E+01  1.42549E+01  1.29514E+01  1.13807E+01  9.93822E+00  8.96256E+00  8.28811E+00  7.65384E+00
   7.28924E+00  7.40459E+00  7.88140E+00  8.66627E+00  9.81529E+00  1.12568E+01  1.26740E+01  1.36924E+01  1.40417E+01  1.36093E+01
   1.25688E+01  1.11259E+01  9.53420E+00  8.14768E+00  7.23650E+00  6.68695E+00  6.29979E+00  6.10118E+00  6.21219E+00  6.52628E+00
   6.78885E+00  6.82149E+00  6.56733E+00  6.08724E+00  5.51830E+00  4.98937E+00  4.63003E+00  4.53192E+00  4.59531E+00  4.72107E+00
   4.92140E+00  5.14827E+00  5.36337E+00  5.50022E+00  5.50809E+00  5.36939E+00  5.08947E+00  4.71295E+00  4.32551E+00  4.13765E+00
   4.17919E+00  4.33607E+00  4.83578E+00  5.69850E+00  6.74870E+00  7.86378E+00  8.83911E+00  9.34920E+00  9.18764E+00  8.42016E+00
   7.26963E+00  6.04078E+00  4.92780E+00  4.08053E+00  3.71462E+00  4.23731E+00  5.38540E+00  7.36631E+00  1.12960E+01  1.70134E+01
   2.41345E+01  3.20863E+01  3.95574E+01  4.47175E+01  4.61887E+01  4.38223E+01  3.86466E+01  3.22265E+01  2.57420E+01  2.01821E+01
   1.61136E+01  1.27071E+01  8.73702E+00  5.64029E+00  4.49395E+00  3.99771E+00  3.70666E+00  3.52183E+00  3.50126E+00  4.09328E+00
   5.54934E+00  7.55901E+00  1.08315E+01  1.56354E+01  2.16782E+01  2.85425E+01  3.52222E+01  4.01718E+01  4.21079E+01  4.07487E+01
   3.67794E+01  3.14785E+01  2.58977E+01  2.07556E+01  1.66981E+01  1.33561E+01  9.60266E+00  6.25908E+00  4.96946E+00  4.61291E+00
   4.58913E+00  4.65818E+00  4.62365E+00  4.45160E+00  4.23297E+00  3.96344E+00  3.63642E+00  3.28913E+00  2.92174E+00  2.53086E+00
   2.13680E+00  1.74358E+00  1.40315E+00  1.08146E+00  8.06085E-01  5.63874E-01  3.16255E-01  5.05705E-02 -3.03805E-01 -7.09177E-01
  -1.07985E+00 -1.35352E+00 -1.48670E+00 -1.49815E+00 -1.52575E+00 -1.72269E+00 -2.11424E+00 -2.68008E+00 -3.35311E+00 -3.93578E+00
  -4.34824E+00 -4.76383E+00 -5.21661E+00 -5.74117E+00 -6.25569E+00 -6.54834E+00 -6.63117E+00 -6.57952E+00 -6.46494E+00 -6.38845E+00
  -6.36831E+00 -6.35911E+00 -6.30790E+00 -6.14005E+00 -5.76029E+00 -5.14246E+00 -4.38232E+00 -3.50029E+00 -2.43362E+00 -1.27890E+00
  -2.76567E-01  3.42451E-01  5.20709E-01  3.14859E-01 -6.03086E-02 -3.35695E-01 -3.42243E-01 -1.63931E-01  3.17300E-01  1.14221E+00
   2.12122E+00  2.98334E+00  3.57493E+00  3.71775E+00  3.14869E+00  1.82287E+00  6.67729E-02 -1.66761E+00 -3.09570E+00 -3.95246E+00
  -3.90058E+00 -2.89708E+00 -1.29726E+00  5.05721E-01  2.27618E+00  3.61989E+00  4.21342E+00  3.99936E+00  3.18305E+00  1.86492E+00
   3.91374E-01 -5.69867E-01 -6.81842E-01 -8.60256E-02  9.90440E-01  2.29933E+00  3.75890E+00  4.99628E+00  5.83339E+00  6.27669E+00
   6.51334E+00  6.79651E+00  7.13556E+00  7.52376E+00  8.10634E+00  8.97058E+00  9.93852E+00  1.07704E+01  1.12393E+01  1.12801E+01
   1.10338E+01  1.06249E+01  1.02648E+01  1.02941E+01  1.08382E+01  1.16798E+01  1.26502E+01  1.37667E+01  1.51158E+01  1.65293E+01
   1.81765E+01  2.06171E+01  2.47444E+01  3.02121E+01  3.67463E+01  4.53540E+01  5.56918E+01  6.68754E+01  7.79575E+01  8.70195E+01
   9.14768E+01  8.96230E+01  8.18579E+01  7.03069E+01  5.72917E+01  4.45502E+01  3.41723E+01  2.69290E+01  2.07877E+01  1.37312E+01
   8.61000E+00  6.81330E+00  5.91326E+00  5.24348E+00  4.69672E+00  4.17232E+00  3.62765E+00  3.09543E+00  2.58870E+00  2.12264E+00
   1.71150E+00  1.35645E+00  1.03878E+00  7.48203E-01  4.88011E-01  2.60234E-01  6.17971E-02 -1.16385E-01 -2.67734E-01 -3.74528E-01
  -4.32881E-01 -4.50118E-01 -4.31491E-01 -3.79661E-01 -2.99669E-01 -2.02162E-01 -9.02814E-02  3.41324E-02  1.69987E-01  3.19671E-01
   4.76354E-01  6.27555E-01  7.69018E-01  8.93282E-01  9.90236E-01  1.05217E+00  1.07350E+00  1.05500E+00  9.97622E-01  8.99458E-01
   7.64252E-01  5.99490E-01  4.10825E-01  2.06419E-01 -6.59606E-03 -2.20127E-01 -4.27368E-01 -6.21043E-01 -7.94678E-01 -9.40849E-01
  -1.06373E+00 -1.16187E+00 -1.23265E+00 -1.28561E+00 -1.33284E+00 -1.38611E+00 -1.45961E+00 -1.55260E+00 -1.65468E+00 -1.74916E+00
  -1.80629E+00 -1.80492E+00 -1.73929E+00 -1.60760E+00 -1.42291E+00 -1.21662E+00 -1.01272E+00 -8.04339E-01 -5.98442E-01 -3.93181E-01
  -1.85782E-01  2.09135E-02  2.60766E-01  5.13058E-01  7.22268E-01  8.62870E-01  9.14111E-01  8.65823E-01  7.35791E-01  5.77240E-01
   4.97158E-01  5.76514E-01  8.43855E-01  1.30141E+00  1.90851E+00  2.55433E+00  3.12897E+00  3.63191E+00  4.06856E+00  4.37869E+00
   4.58270E+00  4.72259E+00  4.84265E+00  4.93870E+00  4.95234E+00  4.91597E+00  4.89199E+00  4.85974E+00  4.80744E+00  4.73390E+00
   4.64068E+00  4.53210E+00  4.41270E+00  4.28848E+00  4.16483E+00  4.04811E+00  3.94366E+00  3.85739E+00  3.79390E+00  3.75807E+00
   3.75342E+00  3.78382E+00  3.85182E+00  3.96038E+00  4.11114E+00  4.30622E+00  4.54653E+00  4.83352E+00  5.16741E+00  5.54878E+00
   5.97675E+00  6.45061E+00  6.96794E+00  7.52621E+00  8.12088E+00  8.74691E+00  9.39698E+00  1.00632E+01  1.07354E+01  1.14032E+01
   1.20539E+01  1.26751E+01  1.32531E+01  1.37751E+01  1.42280E+01  1.46008E+01  1.48830E+01  1.50672E+01  1.51475E+01  1.51217E+01
   1.49896E+01  1.47548E+01  1.44227E+01  1.40021E+01  1.35031E+01  1.29381E+01  1.23201E+01  1.16630E+01  1.09802E+01  1.02853E+01
   9.58998E+00  8.90575E+00  8.24164E+00  7.60583E+00  7.00397E+00  6.44085E+00  5.91897E+00  5.44019E+00  5.00437E+00  4.61114E+00
   4.25855E+00  3.94486E+00  3.66718E+00  3.42317E+00  3.20956E+00  3.02385E+00  2.86286E+00  2.72436E+00  2.60553E+00  2.50452E+00
   2.41888E+00  2.34715E+00  2.28730E+00  2.23831E+00  2.19853E+00  2.16724E+00  2.14306E+00  2.12549E+00  2.11343E+00  2.10664E+00
   2.10418E+00  2.10593E+00  2.11104E+00  2.11952E+00  2.13068E+00  2.14462E+00  2.16073E+00  2.17912E+00  2.19920E+00  2.22118E+00
   2.24456E+00  2.26958E+00  2.29572E+00  2.32324E+00  2.35165E+00  2.38125E+00  2.41160E+00  2.44302E+00  2.47504E+00  2.50795E+00
   2.54134E+00  2.57556E+00  2.61020E+00  2.64560E+00  2.68131E+00  2.71768E+00  2.75432E+00  2.79160E+00  2.82912E+00  2.86722E+00
   2.90550E+00  2.94430E+00  2.98328E+00  3.02280E+00  3.06249E+00  3.10268E+00  3.14299E+00  3.18379E+00  3.22475E+00  3.26623E+00
   3.30788E+00  3.35002E+00  3.39232E+00  3.43516E+00  3.47824E+00  3.52191E+00  3.56583E+00  3.61039E+00
 NY background values follow
     4.463E+00    4.429E+00    4.395E+00    4.361E+00    4.327E+00    4.293E+00    4.259E+00    4.225E+00    4.191E+00    4.157E+00
     4.123E+00    4.089E+00    4.055E+00    4.020E+00    3.986E+00    3.952E+00    3.918E+00    3.884E+00    3.850E+00    3.815E+00
     3.781E+00    3.747E+00    3.713E+00    3.678E+00    3.644E+00    3.610E+00    3.575E+00    3.541E+00    3.506E+00    3.472E+00
     3.437E+00    3.403E+00    3.368E+00    3.334E+00    3.299E+00    3.264E+00    3.230E+00    3.195E+00    3.160E+00    3.125E+00
     3.091E+00    3.056E+00    3.021E+00    2.986E+00    2.951E+00    2.915E+00    2.880E+00    2.845E+00    2.810E+00    2.775E+00
     2.739E+00    2.704E+00    2.668E+00    2.633E+00    2.597E+00    2.562E+00    2.526E+00    2.490E+00    2.455E+00    2.419E+00
     2.383E+00    2.347E+00    2.311E+00    2.275E+00    2.239E+00    2.203E+00    2.167E+00    2.131E+00    2.094E+00    2.058E+00
     2.022E+00    1.986E+00    1.949E+00    1.913E+00    1.876E+00    1.840E+00    1.803E+00    1.766E+00    1.730E+00    1.693E+00
     1.656E+00    1.620E+00    1.583E+00    1.546E+00    1.509E+00    1.472E+00    1.435E+00    1.398E+00    1.361E+00    1.324E+00
     1.286E+00    1.249E+00    1.212E+00    1.175E+00    1.137E+00    1.100E+00    1.062E+00    1.025E+00    9.875E-01    9.500E-01
     9.124E-01    8.749E-01    8.373E-01    7.996E-01    7.620E-01    7.243E-01    6.866E-01    6.489E-01    6.111E-01    5.734E-01
     5.356E-01    4.978E-01    4.600E-01    4.222E-01    3.844E-01    3.466E-01    3.087E-01    2.709E-01    2.330E-01    1.952E-01
     1.573E-01    1.195E-01    8.163E-02    4.378E-02    5.939E-03   -3.190E-02   -6.973E-02   -1.076E-01   -1.454E-01   -1.832E-01
    -2.210E-01   -2.588E-01   -2.965E-01   -3.343E-01   -3.720E-01   -4.097E-01   -4.474E-01   -4.851E-01   -5.227E-01   -5.603E-01
    -5.978E-01   -6.353E-01   -6.727E-01   -7.101E-01   -7.474E-01   -7.846E-01   -8.217E-01   -8.587E-01   -8.957E-01   -9.325E-01
    -9.692E-01   -1.006E+00   -1.042E+00   -1.078E+00   -1.115E+00   -1.151E+00   -1.186E+00   -1.222E+00   -1.258E+00   -1.293E+00
    -1.328E+00   -1.363E+00   -1.398E+00   -1.432E+00   -1.466E+00   -1.500E+00   -1.534E+00   -1.568E+00   -1.601E+00   -1.634E+00
    -1.667E+00   -1.700E+00   -1.732E+00   -1.764E+00   -1.796E+00   -1.827E+00   -1.858E+00   -1.889E+00   -1.919E+00   -1.949E+00
    -1.979E+00   -2.009E+00   -2.038E+00   -2.067E+00   -2.095E+00   -2.123E+00   -2.151E+00   -2.178E+00   -2.205E+00   -2.232E+00
    -2.259E+00   -2.285E+00   -2.311E+00   -2.336E+00   -2.361E+00   -2.386E+00   -2.411E+00   -2.435E+00   -2.459E+00   -2.483E+00
    -2.506E+00   -2.529E+00   -2.552E+00   -2.574E+00   -2.597E+00   -2.618E+00   -2.640E+00   -2.662E+00   -2.683E+00   -2.703E+00
    -2.724E+00   -2.744E+00   -2.764E+00   -2.784E+00   -2.804E+00   -2.823E+00   -2.842E+00   -2.861E+00   -2.879E+00   -2.897E+00
    -2.915E+00   -2.933E+00   -2.951E+00   -2.968E+00   -2.985E+00   -3.002E+00   -3.019E+00   -3.035E+00   -3.051E+00   -3.067E+00
    -3.083E+00   -3.099E+00   -3.114E+00   -3.129E+00   -3.143E+00   -3.158E+00   -3.172E+00   -3.186E+00   -3.200E+00   -3.213E+00
    -3.226E+00   -3.239E+00   -3.252E+00   -3.264E+00   -3.276E+00   -3.287E+00   -3.299E+00   -3.310E+00   -3.320E+00   -3.331E+00
    -3.341E+00   -3.350E+00   -3.360E+00   -3.369E+00   -3.377E+00   -3.386E+00   -3.393E+00   -3.401E+00   -3.408E+00   -3.415E+00
    -3.421E+00   -3.428E+00   -3.433E+00   -3.438E+00   -3.443E+00   -3.448E+00   -3.452E+00   -3.456E+00   -3.459E+00   -3.462E+00
    -3.464E+00   -3.466E+00   -3.467E+00   -3.468E+00   -3.469E+00   -3.469E+00   -3.469E+00   -3.468E+00   -3.467E+00   -3.466E+00
    -3.464E+00   -3.461E+00   -3.458E+00   -3.455E+00   -3.451E+00   -3.447E+00   -3.442E+00   -3.437E+00   -3.431E+00   -3.425E+00
    -3.419E+00   -3.412E+00   -3.404E+00   -3.396E+00   -3.388E+00   -3.379E+00   -3.370E+00   -3.360E+00   -3.350E+00   -3.339E+00
    -3.328E+00   -3.316E+00   -3.304E+00   -3.291E+00   -3.278E+00   -3.264E+00   -3.250E+00   -3.236E+00   -3.220E+00   -3.205E+00
    -3.189E+00   -3.172E+00   -3.155E+00   -3.138E+00   -3.120E+00   -3.101E+00   -3.082E+00   -3.063E+00   -3.043E+00   -3.022E+00
    -3.002E+00   -2.980E+00   -2.958E+00   -2.936E+00   -2.913E+00   -2.890E+00   -2.866E+00   -2.842E+00   -2.817E+00   -2.792E+00
    -2.766E+00   -2.740E+00   -2.714E+00   -2.687E+00   -2.660E+00   -2.632E+00   -2.604E+00   -2.576E+00   -2.547E+00   -2.517E+00
    -2.488E+00   -2.458E+00   -2.427E+00   -2.396E+00   -2.365E+00   -2.333E+00   -2.301E+00   -2.269E+00   -2.236E+00   -2.203E+00
    -2.170E+00   -2.136E+00   -2.102E+00   -2.067E+00   -2.033E+00   -1.997E+00   -1.962E+00   -1.926E+00   -1.890E+00   -1.854E+00
    -1.817E+00   -1.780E+00   -1.742E+00   -1.705E+00   -1.667E+00   -1.629E+00   -1.590E+00   -1.551E+00   -1.512E+00   -1.473E+00
    -1.433E+00   -1.394E+00   -1.354E+00   -1.313E+00   -1.273E+00   -1.232E+00   -1.191E+00   -1.149E+00   -1.108E+00   -1.066E+00
    -1.024E+00   -9.821E-01   -9.397E-01   -8.972E-01   -8.544E-01   -8.114E-01   -7.683E-01   -7.250E-01   -6.815E-01   -6.378E-01
    -5.939E-01   -5.499E-01   -5.057E-01   -4.614E-01   -4.169E-01   -3.723E-01   -3.275E-01   -2.826E-01   -2.376E-01   -1.924E-01
    -1.471E-01   -1.017E-01   -5.623E-02   -1.061E-02    3.511E-02    8.094E-02    1.269E-01    1.729E-01    2.190E-01    2.651E-01
     3.114E-01    3.577E-01    4.041E-01    4.505E-01    4.970E-01    5.436E-01    5.902E-01    6.368E-01    6.835E-01    7.303E-01
     7.770E-01    8.238E-01    8.706E-01    9.174E-01    9.643E-01    1.011E+00    1.058E+00    1.105E+00    1.152E+00    1.198E+00
     1.245E+00    1.292E+00    1.339E+00    1.386E+00    1.432E+00    1.479E+00    1.526E+00    1.572E+00    1.619E+00    1.665E+00
     1.712E+00    1.758E+00    1.805E+00    1.851E+00    1.897E+00    1.943E+00    1.989E+00    2.035E+00    2.081E+00    2.127E+00
     2.172E+00    2.218E+00    2.263E+00    2.308E+00    2.354E+00    2.399E+00    2.444E+00    2.489E+00    2.533E+00    2.578E+00
     2.623E+00    2.667E+00    2.712E+00    2.756E+00    2.800E+00    2.844E+00    2.888E+00    2.932E+00    2.976E+00    3.020E+00
     3.064E+00    3.107E+00    3.151E+00    3.194E+00    3.238E+00    3.281E+00    3.325E+00    3.368E+00    3.411E+00    3.454E+00
     3.497E+00    3.540E+00    3.584E+00    3.626E+00    3.669E+00    3.712E+00    3.755E+00    3.798E+00    3.841E+00    3.884E+00
     3.926E+00    3.969E+00    4.012E+00    4.055E+00    4.097E+00    4.140E+00    4.182E+00    4.225E+00
 Ala      Conc. = 3.33E+01
