 LCModel (Version 6.3-1L) Copyright: S.W. Provencher.          Ref.: Magn. Reson. Med. 30:672-679 (1993).                
 Slice#2 Row#10 Col#11  PD_24_press_1_raw_act
 36 lines in following concentration table = NCONC+1
    Conc.  %SD /Cr+PCr  Metabolite                                         
  207.311  56%   0.185 Ala                                                 
    0.000 999%   0.000 Asp                                                 
    0.000 999%   0.000 Cr                                                  
 1.12E+03   4%   1.000 PCr                                                 
    0.000 999%   0.000 GABA                                                
   84.216 167% 7.5E-02 Glc                                                 
 1.20E+03  21%   1.074 Gln                                                 
 1.11E+03  24%   0.991 Glu                                                 
  411.960   5%   0.368 GPC                                                 
    0.000 999%   0.000 PCh                                                 
  321.718  22%   0.287 GSH                                                 
 1.42E+03  16%   1.271 Ins                                                 
  111.945 112%   0.100 Lac                                                 
 2.00E+03   6%   1.788 NAA                                                 
  149.912  93%   0.134 NAAG                                                
  161.926  15%   0.145 Scyllo                                              
  185.420  98%   0.165 Tau                                                 
  610.607  15%   0.545 -CrCH2                                              
  411.960   5%   0.368 GPC+PCh                                             
 2.15E+03   4%   1.922 NAA+NAAG                                            
 1.12E+03   4%   1.000 Cr+PCr                                              
 2.31E+03  18%   2.064 Glu+Gln                                             
  434.897  61%   0.388 Lip13a                                              
    0.000 999%   0.000 Lip13b                                              
    0.000 999%   0.000 Lip09                                               
 1.84E+03   9%   1.640 MM09                                                
  115.368 122%   0.103 Lip20                                               
 3.38E+03   9%   3.020 MM20                                                
  936.281  20%   0.836 MM12                                                
    0.000 999%   0.000 MM14                                                
  587.380  23%   0.524 MM17                                                
  434.897  61%   0.388 Lip13a+Lip13b                                       
 1.37E+03  16%   1.224 MM14+Lip13a+Lip13b+MM12                             
 1.84E+03   9%   1.640 MM09+Lip09                                          
 3.50E+03   9%   3.123 MM20+Lip20                                          
   6 lines in following misc. output table
  FWHM = 0.069 ppm    S/N =  12                                            
  Data shift = 0.000 ppm                                                   
  Ph:  -2 deg      -3.5 deg/ppm                                            
  alphaB,S = 4.3E+01,   2.5E+02                                            
   14 spline knots.   Ns = 8(1)                                            
  ( 4) 2 infls.   ( 1) 1 extrs.                                            
  498 points on ppm-axis = NY
      4.000000     3.992357     3.984714     3.977070     3.969427     3.961784     3.954141     3.946497     3.938854     3.931211
      3.923568     3.915925     3.908281     3.900638     3.892995     3.885352     3.877708     3.870065     3.862422     3.854779
      3.847136     3.839492     3.831849     3.824206     3.816563     3.808919     3.801276     3.793633     3.785990     3.778347
      3.770703     3.763060     3.755417     3.747774     3.740130     3.732487     3.724844     3.717201     3.709558     3.701914
      3.694271     3.686628     3.678985     3.671341     3.663698     3.656055     3.648412     3.640769     3.633125     3.625482
      3.617839     3.610196     3.602552     3.594909     3.587266     3.579623     3.571980     3.564336     3.556693     3.549050
      3.541407     3.533763     3.526120     3.518477     3.510834     3.503191     3.495547     3.487904     3.480261     3.472618
      3.464974     3.457331     3.449688     3.442045     3.434402     3.426758     3.419115     3.411472     3.403829     3.396185
      3.388542     3.380899     3.373256     3.365613     3.357969     3.350326     3.342683     3.335040     3.327396     3.319753
      3.312110     3.304467     3.296824     3.289180     3.281537     3.273894     3.266251     3.258607     3.250964     3.243321
      3.235678     3.228034     3.220391     3.212748     3.205105     3.197462     3.189818     3.182175     3.174532     3.166889
      3.159245     3.151602     3.143959     3.136316     3.128673     3.121029     3.113386     3.105743     3.098100     3.090456
      3.082813     3.075170     3.067527     3.059884     3.052240     3.044597     3.036954     3.029311     3.021667     3.014024
      3.006381     2.998738     2.991095     2.983451     2.975808     2.968165     2.960522     2.952878     2.945235     2.937592
      2.929949     2.922306     2.914662     2.907019     2.899376     2.891733     2.884089     2.876446     2.868803     2.861160
      2.853517     2.845873     2.838230     2.830587     2.822944     2.815300     2.807657     2.800014     2.792371     2.784728
      2.777084     2.769441     2.761798     2.754155     2.746511     2.738868     2.731225     2.723582     2.715939     2.708295
      2.700652     2.693009     2.685366     2.677722     2.670079     2.662436     2.654793     2.647150     2.639506     2.631863
      2.624220     2.616577     2.608933     2.601290     2.593647     2.586004     2.578361     2.570717     2.563074     2.555431
      2.547788     2.540144     2.532501     2.524858     2.517215     2.509572     2.501928     2.494285     2.486642     2.478999
      2.471355     2.463712     2.456069     2.448426     2.440783     2.433139     2.425496     2.417853     2.410210     2.402566
      2.394923     2.387280     2.379637     2.371994     2.364350     2.356707     2.349064     2.341421     2.333777     2.326134
      2.318491     2.310848     2.303205     2.295561     2.287918     2.280275     2.272632     2.264988     2.257345     2.249702
      2.242059     2.234416     2.226772     2.219129     2.211486     2.203843     2.196199     2.188556     2.180913     2.173270
      2.165627     2.157983     2.150340     2.142697     2.135054     2.127410     2.119767     2.112124     2.104481     2.096838
      2.089194     2.081551     2.073908     2.066265     2.058621     2.050978     2.043335     2.035692     2.028049     2.020405
      2.012762     2.005119     1.997476     1.989833     1.982190     1.974546     1.966903     1.959260     1.951617     1.943974
      1.936331     1.928688     1.921045     1.913402     1.905759     1.898115     1.890472     1.882829     1.875186     1.867543
      1.859900     1.852257     1.844614     1.836971     1.829327     1.821684     1.814041     1.806398     1.798755     1.791112
      1.783469     1.775826     1.768183     1.760540     1.752896     1.745253     1.737610     1.729967     1.722324     1.714681
      1.707038     1.699395     1.691752     1.684108     1.676465     1.668822     1.661179     1.653536     1.645893     1.638250
      1.630607     1.622964     1.615321     1.607677     1.600034     1.592391     1.584748     1.577105     1.569462     1.561819
      1.554176     1.546533     1.538890     1.531246     1.523603     1.515960     1.508317     1.500674     1.493031     1.485388
      1.477745     1.470102     1.462458     1.454815     1.447172     1.439529     1.431886     1.424243     1.416600     1.408957
      1.401314     1.393671     1.386027     1.378384     1.370741     1.363098     1.355455     1.347812     1.340169     1.332526
      1.324883     1.317240     1.309596     1.301953     1.294310     1.286667     1.279024     1.271381     1.263738     1.256095
      1.248452     1.240808     1.233165     1.225522     1.217879     1.210236     1.202593     1.194950     1.187307     1.179664
      1.172021     1.164377     1.156734     1.149091     1.141448     1.133805     1.126162     1.118519     1.110876     1.103233
      1.095590     1.087946     1.080303     1.072660     1.065017     1.057374     1.049731     1.042088     1.034445     1.026802
      1.019158     1.011515     1.003872     0.996229     0.988586     0.980943     0.973300     0.965657     0.958014     0.950371
      0.942727     0.935084     0.927441     0.919798     0.912155     0.904512     0.896869     0.889226     0.881583     0.873940
      0.866296     0.858653     0.851010     0.843367     0.835724     0.828081     0.820438     0.812795     0.805152     0.797508
      0.789865     0.782222     0.774579     0.766936     0.759293     0.751650     0.744007     0.736364     0.728721     0.721077
      0.713434     0.705791     0.698148     0.690505     0.682862     0.675219     0.667576     0.659933     0.652290     0.644646
      0.637003     0.629360     0.621717     0.614074     0.606431     0.598788     0.591145     0.583502     0.575858     0.568215
      0.560572     0.552929     0.545286     0.537643     0.530000     0.522357     0.514714     0.507071     0.499427     0.491784
      0.484141     0.476498     0.468855     0.461212     0.453569     0.445925     0.438282     0.430639     0.422996     0.415353
      0.407710     0.400067     0.392424     0.384780     0.377137     0.369494     0.361851     0.354208     0.346565     0.338922
      0.331278     0.323635     0.315992     0.308349     0.300706     0.293063     0.285420     0.277777     0.270133     0.262490
      0.254847     0.247204     0.239561     0.231918     0.224275     0.216631     0.208988     0.201345
 NY phased data points follow
   3.80232E+00  2.34420E+00  5.68632E+00  1.16931E+00  5.99466E+00  4.35105E+00  6.38563E+00  4.44621E+00  9.78252E+00  1.14502E+01
   1.38352E+01  1.31010E+01  1.51746E+01  1.05044E+01  1.01491E+01  8.22147E+00  7.82780E+00  5.71204E+00  8.69444E+00  5.31132E+00
   7.02439E+00  2.91092E+00  7.61709E+00  5.14387E+00  6.59901E+00  4.66143E+00  9.13661E+00  6.93970E+00  9.81791E+00  4.41287E+00
   6.16483E+00  7.81452E+00  9.82755E+00  5.34259E+00  8.70452E+00  5.17098E+00  8.10141E+00  3.53275E+00  6.51628E+00  5.91987E+00
   5.11384E+00  1.02176E+01  8.09759E+00  7.96836E+00  9.00137E+00  6.86440E+00  1.11187E+01  9.15404E+00  1.28032E+01  9.93067E+00
   9.41668E+00  5.53275E+00  8.25222E+00  9.01147E+00  7.13166E+00  9.25953E+00  4.51566E+00  7.90323E+00  5.06716E+00  6.17061E+00
   8.85215E+00  4.70231E+00  1.46827E+00  2.04712E+00  3.79073E+00  3.07016E+00  1.64211E+00 -2.12995E+00  4.97471E+00  1.47084E+00
   8.05721E-01  9.65874E-01  4.70744E+00  2.50691E+00  4.21084E+00  2.97585E+00  4.15556E+00  4.58749E+00  3.37088E+00  2.42467E+00
   7.43517E+00  1.23728E+00  4.57329E+00  8.39469E+00  6.38061E+00  5.42278E+00  7.10407E+00  6.77609E+00  6.30658E+00  4.56586E+00
   7.72791E+00  6.54376E+00  9.22710E+00  5.83199E+00  9.24506E+00  5.85416E+00  4.59753E+00  8.49602E+00  9.29761E+00  1.49259E+01
   2.02062E+01  2.19923E+01  3.13273E+01  3.20468E+01  3.30247E+01  3.09891E+01  2.48853E+01  2.14459E+01  1.78872E+01  1.28577E+01
   1.22709E+01  7.88698E+00  1.07148E+01  3.87332E+00  6.11488E+00  4.92648E+00  5.47537E+00  3.18635E+00  3.73460E+00  3.67061E+00
   7.65917E+00  3.81729E+00  9.96376E+00  9.26846E+00  1.83878E+01  2.45687E+01  3.01688E+01  3.49870E+01  3.68762E+01  3.18267E+01
   2.94652E+01  2.60724E+01  1.98797E+01  1.70200E+01  1.09337E+01  1.00188E+01  9.04543E+00  6.50395E+00  4.55377E+00  7.95653E+00
   5.19905E+00  2.74230E+00  5.67578E+00  3.02673E+00  4.84613E+00  1.31189E+00  8.83291E-01 -8.37023E-01  3.95261E+00  5.00029E-01
   4.39306E+00  1.79140E-01  1.99254E+00  2.31060E+00  3.83853E+00  2.68602E+00  1.76964E+00  3.72259E+00  5.30821E+00 -3.65843E-02
   3.13288E+00 -7.95100E-01  1.86699E+00 -3.81425E-01  8.31678E-01 -1.37994E+00  7.58603E-01 -1.24013E+00  5.66615E-01 -4.33920E+00
  -2.90205E+00 -7.44383E+00 -4.82453E+00 -8.09870E+00 -1.11713E+01 -8.26270E+00 -8.83250E+00 -7.98180E+00 -9.82312E+00 -9.18104E+00
  -6.34227E+00 -8.45724E+00 -5.65332E+00 -6.09877E+00 -5.99472E+00 -7.17444E+00 -6.37066E+00 -3.60311E+00 -6.62813E+00 -4.59792E+00
  -5.29899E-01 -5.12743E+00 -2.96505E+00 -1.37378E-01 -1.26936E+00 -2.95988E+00 -1.08436E+00 -7.03272E+00 -1.36182E+00 -6.75393E+00
   1.19346E-01 -2.29416E+00 -1.40531E+00  1.74071E+00 -6.36597E-01  9.60151E-01  6.72193E-01 -1.31190E-01  3.28829E+00 -1.68906E+00
   2.45989E+00  3.76875E+00  3.51107E+00  7.56794E+00  7.99008E+00  1.26811E+01  1.16736E+01  1.05771E+01  7.73515E+00  5.40505E+00
   6.45167E+00  3.06821E+00  3.62445E+00  1.65738E+00  5.00751E+00  4.45952E+00  6.53113E+00  6.29746E+00  6.71755E+00  1.04368E+01
   9.11486E+00  6.52318E+00  6.82380E+00  7.78009E+00  9.99473E+00  9.95118E+00  7.73121E+00  8.90368E+00  1.01734E+01  8.41391E+00
   6.58385E+00  4.61990E+00  6.25515E+00  7.48979E+00  6.89838E+00  6.20584E+00  9.03873E+00  1.07345E+01  9.83482E+00  1.19062E+01
   1.49493E+01  2.05481E+01  2.03556E+01  2.50390E+01  2.69279E+01  3.25648E+01  4.33699E+01  4.46495E+01  5.59109E+01  6.59100E+01
   7.07217E+01  7.15157E+01  6.51468E+01  5.39085E+01  4.82637E+01  3.71024E+01  3.24385E+01  2.56566E+01  2.07252E+01  1.66516E+01
   1.22233E+01  1.00613E+01  6.08616E+00  7.75747E+00  5.56557E+00  4.58915E+00  6.84479E+00  4.96797E+00  3.90571E+00  3.95293E+00
   3.89572E+00  4.75663E+00  4.25960E+00  3.10150E+00  7.52237E+00  1.41931E+00  2.48478E+00  2.86112E+00  2.38131E+00  1.04333E+00
   5.35534E+00  4.78804E+00  6.74546E+00  3.21586E+00  4.88784E+00  1.58624E-01  2.88819E+00  4.57426E+00  6.28684E+00  3.57037E+00
   1.82288E+00  2.91970E+00  3.73333E+00  3.36026E+00  5.66017E+00  8.33113E+00  8.87080E+00  6.93925E+00  7.21202E+00  1.01832E+01
   7.01254E+00  8.42302E+00  6.75833E+00  6.59883E+00  6.24897E+00  3.07367E+00  4.26113E+00  2.53134E+00  5.09766E+00  3.11658E+00
   3.93012E+00  3.66377E+00  3.71015E+00  1.01269E+00  3.25536E+00 -1.56206E+00  1.64999E+00 -2.68705E+00 -4.02606E+00 -1.04687E+00
  -1.44387E+00  1.19483E+00  8.40371E-01  9.75229E-01 -1.56007E+00  3.16769E+00  1.00258E+00  6.06115E+00  3.28722E+00  4.28951E+00
   4.39829E+00  3.37551E+00  5.40994E+00  2.86021E+00  3.73287E+00  5.13551E+00  4.02506E+00  2.78303E+00  5.95864E+00  5.46836E+00
   4.21356E+00  2.33295E+00  3.74906E+00  2.80196E+00  3.60041E+00  6.77782E+00  5.12399E+00  1.07844E+01  7.46032E+00  6.22214E+00
   5.34820E+00  8.83021E+00  6.22090E+00  7.60128E+00  9.42859E+00  9.42458E+00  6.20941E+00  8.47459E+00  8.32413E+00  6.27888E+00
   8.98071E+00  1.04599E+01  1.01634E+01  9.20229E+00  7.59154E+00  4.93556E+00  6.44251E+00  5.25802E+00  1.07909E+01  8.23557E+00
   8.37362E+00  5.52322E+00  8.59276E+00  1.08858E+01  7.28437E+00  7.96947E+00  5.53652E+00  6.68954E+00  9.84539E+00  9.68094E+00
   9.82170E+00  8.25282E+00  7.95259E+00  7.28091E+00  6.56698E+00  8.29754E+00  9.49129E+00  1.13506E+01  1.08965E+01  8.34900E+00
   1.01026E+01  1.08663E+01  6.72759E+00  9.38205E+00  9.88253E+00  8.93241E+00  1.12859E+01  1.12950E+01  1.26056E+01  1.26341E+01
   1.05237E+01  1.28664E+01  1.43896E+01  1.06707E+01  1.16626E+01  1.11254E+01  8.70874E+00  7.47980E+00  6.36533E+00  8.14246E+00
   7.78033E+00  6.03815E+00  5.49464E+00  6.45197E+00  7.64079E+00  3.22773E+00  2.56141E+00  3.08698E+00  3.98497E+00  4.70635E+00
   1.52997E+00  7.99236E+00  3.83802E+00  4.25439E+00  3.95824E+00  5.87589E-01  4.64731E+00  4.94358E+00  4.00405E+00  1.54175E+00
   5.54356E+00  3.64425E+00  4.15567E+00  2.28024E+00  5.72820E+00  4.11322E+00  3.47721E+00  4.94412E+00  5.22196E+00  1.55510E+00
   5.88846E+00  3.38334E-01  2.92209E+00  3.19323E+00 -1.58162E+00 -4.85868E-01  1.65188E+00  1.54728E+00 -1.63047E+00  1.13106E+00
   1.43542E+00  6.38989E+00  3.19368E+00  2.10356E+00  4.17741E+00  1.52070E+00 -1.17486E+00  2.19702E+00  2.22719E+00 -9.40398E-01
   3.77482E-01 -9.37636E-01  1.75358E+00  4.33839E+00 -1.92741E+00 -2.40070E+00  2.68911E+00  2.41584E+00  1.70783E+00  1.47763E+00
   6.66637E-01 -8.38848E-02  2.85152E+00  1.56207E+00 -8.23810E-01  2.49881E+00  3.10654E+00  2.01386E+00  4.79084E-01  1.47341E+00
   4.40865E+00 -3.02100E-02  1.60226E+00  4.50500E-01 -1.00174E+00  2.66685E+00 -1.13862E+00  2.51553E+00
 NY points of the fit to the data follow
   3.59589E+00  2.78964E+00  2.53323E+00  2.94661E+00  3.66172E+00  4.64081E+00  5.98695E+00  7.71297E+00  9.71566E+00  1.16526E+01
   1.30307E+01  1.34878E+01  1.30087E+01  1.19176E+01  1.06303E+01  9.43976E+00  8.44712E+00  7.53768E+00  6.48763E+00  5.25720E+00
   4.45958E+00  4.09310E+00  3.96367E+00  4.01502E+00  4.20656E+00  4.66114E+00  5.51515E+00  6.76777E+00  8.19184E+00  9.48878E+00
   1.03728E+01  1.06028E+01  1.02062E+01  9.38546E+00  8.34398E+00  7.24925E+00  6.24071E+00  5.33574E+00  4.52386E+00  4.10295E+00
   4.34464E+00  5.06833E+00  6.03915E+00  7.23749E+00  8.60565E+00  9.92889E+00  1.08671E+01  1.11979E+01  1.08401E+01  9.81115E+00
   8.39462E+00  6.95888E+00  5.75152E+00  4.88730E+00  4.33770E+00  3.96063E+00  3.75769E+00  3.87242E+00  4.25458E+00  4.63524E+00
   4.78804E+00  4.67729E+00  4.34064E+00  3.89462E+00  3.50460E+00  3.26941E+00  3.20947E+00  3.28464E+00  3.44595E+00  3.68288E+00
   3.97401E+00  4.26699E+00  4.50376E+00  4.61853E+00  4.59585E+00  4.44037E+00  4.17736E+00  3.87031E+00  3.61466E+00  3.62854E+00
   3.88939E+00  4.28593E+00  4.84467E+00  5.53926E+00  6.29281E+00  6.98294E+00  7.41780E+00  7.40843E+00  6.94402E+00  6.17097E+00
   5.29746E+00  4.50530E+00  3.85833E+00  3.34510E+00  3.00996E+00  3.33636E+00  4.92770E+00  7.57751E+00  1.10093E+01  1.51293E+01
   1.99065E+01  2.49567E+01  2.94144E+01  3.21787E+01  3.25146E+01  3.04618E+01  2.67981E+01  2.25140E+01  1.83363E+01  1.45847E+01
   1.12022E+01  8.01081E+00  5.08004E+00  3.06911E+00  2.34927E+00  2.13317E+00  2.06915E+00  2.09727E+00  2.26390E+00  2.88250E+00
   4.65368E+00  7.37033E+00  1.07137E+01  1.47106E+01  1.93797E+01  2.44764E+01  2.92899E+01  3.27448E+01  3.39676E+01  3.27476E+01
   2.96176E+01  2.55203E+01  2.12433E+01  1.72076E+01  1.34997E+01  1.00316E+01  6.82672E+00  4.39185E+00  3.41240E+00  3.24006E+00
   3.24214E+00  3.23525E+00  3.17179E+00  3.07656E+00  2.95346E+00  2.78027E+00  2.56135E+00  2.30117E+00  2.01016E+00  1.72163E+00
   1.45438E+00  1.24145E+00  1.07933E+00  9.12985E-01  7.28629E-01  5.45071E-01  3.63710E-01  1.93177E-01  3.41573E-03 -2.25207E-01
  -4.44510E-01 -5.89214E-01 -6.35299E-01 -6.22545E-01 -6.44540E-01 -7.81848E-01 -1.04893E+00 -1.40987E+00 -1.81289E+00 -2.20365E+00
  -2.52953E+00 -2.85061E+00 -3.20556E+00 -3.59026E+00 -3.94253E+00 -4.13332E+00 -4.15186E+00 -4.07470E+00 -3.97498E+00 -3.94180E+00
  -3.97056E+00 -3.95255E+00 -3.81768E+00 -3.54049E+00 -3.13498E+00 -2.64680E+00 -2.09721E+00 -1.49724E+00 -8.21108E-01 -1.68516E-01
   2.79225E-01  4.17608E-01  3.32376E-01  2.06786E-01  1.75671E-01  3.48169E-01  8.38790E-01  1.58048E+00  2.49001E+00  3.46740E+00
   4.26473E+00  4.66160E+00  4.62416E+00  4.11690E+00  3.09552E+00  1.57481E+00 -1.74361E-01 -1.72570E+00 -2.66326E+00 -2.75558E+00
  -2.05573E+00 -7.73394E-01  8.14382E-01  2.49767E+00  4.09162E+00  5.27196E+00  5.84909E+00  5.77143E+00  5.00298E+00  3.73682E+00
   2.45857E+00  1.55816E+00  1.20211E+00  1.35720E+00  1.94134E+00  2.83677E+00  3.85652E+00  4.73697E+00  5.36132E+00  5.80767E+00
   6.16975E+00  6.52826E+00  6.92117E+00  7.32199E+00  7.83251E+00  8.51477E+00  9.22299E+00  9.76852E+00  9.99446E+00  9.81809E+00
   9.31876E+00  8.71774E+00  8.30674E+00  8.27502E+00  8.58314E+00  9.12199E+00  9.87802E+00  1.08134E+01  1.19203E+01  1.31359E+01
   1.44023E+01  1.57788E+01  1.82087E+01  2.26016E+01  2.81032E+01  3.43653E+01  4.15014E+01  4.94439E+01  5.75888E+01  6.45857E+01
   6.86079E+01  6.83821E+01  6.39802E+01  5.67500E+01  4.84425E+01  4.03848E+01  3.32127E+01  2.67747E+01  2.06397E+01  1.49148E+01
   1.08738E+01  9.17311E+00  8.31318E+00  7.69868E+00  7.20863E+00  6.77957E+00  6.36022E+00  5.95465E+00  5.56643E+00  5.19976E+00
   4.85980E+00  4.54856E+00  4.26040E+00  3.99780E+00  3.77100E+00  3.58307E+00  3.42913E+00  3.30691E+00  3.22044E+00  3.17529E+00
   3.17217E+00  3.20808E+00  3.28499E+00  3.40469E+00  3.56525E+00  3.76321E+00  3.99568E+00  4.25890E+00  4.54682E+00  4.85147E+00
   5.16263E+00  5.46944E+00  5.76082E+00  6.02459E+00  6.24845E+00  6.42205E+00  6.53727E+00  6.58923E+00  6.57526E+00  6.49552E+00
   6.35392E+00  6.15756E+00  5.91535E+00  5.63892E+00  5.34123E+00  5.03665E+00  4.74083E+00  4.47411E+00  4.27018E+00  4.15982E+00
   4.08239E+00  4.00263E+00  3.91832E+00  3.80806E+00  3.62008E+00  3.27957E+00  2.73263E+00  2.05951E+00  1.37633E+00  7.85133E-01
   3.87876E-01  2.51748E-01  3.96668E-01  7.93418E-01  1.35844E+00  1.98580E+00  2.60143E+00  3.15879E+00  3.57703E+00  3.88853E+00
   4.14561E+00  4.35127E+00  4.50592E+00  4.58641E+00  4.57957E+00  4.54412E+00  4.46948E+00  4.34236E+00  4.19805E+00  4.08061E+00
   4.04989E+00  4.15514E+00  4.41571E+00  4.81823E+00  5.31455E+00  5.83831E+00  6.33827E+00  6.79678E+00  7.18290E+00  7.47042E+00
   7.68429E+00  7.84488E+00  7.95461E+00  8.00274E+00  7.98782E+00  7.95506E+00  7.92605E+00  7.88331E+00  7.81888E+00  7.73134E+00
   7.62169E+00  7.49287E+00  7.34862E+00  7.19384E+00  7.03368E+00  6.87389E+00  6.71998E+00  6.57765E+00  6.45207E+00  6.34841E+00
   6.27103E+00  6.22406E+00  6.21068E+00  6.23370E+00  6.29498E+00  6.39603E+00  6.53729E+00  6.71875E+00  6.93928E+00  7.19721E+00
   7.48978E+00  7.81367E+00  8.16433E+00  8.53661E+00  8.92419E+00  9.32029E+00  9.71720E+00  1.01070E+01  1.04812E+01  1.08313E+01
   1.11490E+01  1.14266E+01  1.16567E+01  1.18337E+01  1.19523E+01  1.20095E+01  1.20030E+01  1.19331E+01  1.18007E+01  1.16092E+01
   1.13625E+01  1.10662E+01  1.07266E+01  1.03509E+01  9.94627E+00  9.52047E+00  9.08060E+00  8.63372E+00  8.18606E+00  7.74346E+00
   7.31064E+00  6.89176E+00  6.48980E+00  6.10730E+00  5.74574E+00  5.40624E+00  5.08901E+00  4.79405E+00  4.52068E+00  4.26826E+00
   4.03562E+00  3.82177E+00  3.62528E+00  3.44500E+00  3.27948E+00  3.12765E+00  2.98819E+00  2.86014E+00  2.74228E+00  2.63379E+00
   2.53364E+00  2.44124E+00  2.35570E+00  2.27653E+00  2.20297E+00  2.13464E+00  2.07093E+00  2.01160E+00  1.95611E+00  1.90427E+00
   1.85560E+00  1.80998E+00  1.76705E+00  1.72674E+00  1.68869E+00  1.65287E+00  1.61893E+00  1.58691E+00  1.55652E+00  1.52782E+00
   1.50052E+00  1.47465E+00  1.44997E+00  1.42656E+00  1.40420E+00  1.38298E+00  1.36266E+00  1.34330E+00  1.32471E+00  1.30702E+00
   1.29003E+00  1.27384E+00  1.25822E+00  1.24330E+00  1.22891E+00  1.21517E+00  1.20190E+00  1.18921E+00  1.17690E+00  1.16511E+00
   1.15367E+00  1.14273E+00  1.13211E+00  1.12191E+00  1.11195E+00  1.10240E+00  1.09308E+00  1.08415E+00  1.07541E+00  1.06699E+00
   1.05872E+00  1.05076E+00  1.04295E+00  1.03544E+00  1.02802E+00  1.02084E+00  1.01374E+00  1.00687E+00
 NY background values follow
    -8.366E-01   -8.343E-01   -8.320E-01   -8.297E-01   -8.274E-01   -8.251E-01   -8.229E-01   -8.206E-01   -8.183E-01   -8.160E-01
    -8.137E-01   -8.114E-01   -8.091E-01   -8.068E-01   -8.046E-01   -8.023E-01   -8.000E-01   -7.977E-01   -7.954E-01   -7.931E-01
    -7.908E-01   -7.885E-01   -7.862E-01   -7.840E-01   -7.817E-01   -7.794E-01   -7.771E-01   -7.748E-01   -7.725E-01   -7.702E-01
    -7.679E-01   -7.656E-01   -7.634E-01   -7.611E-01   -7.588E-01   -7.565E-01   -7.542E-01   -7.519E-01   -7.496E-01   -7.473E-01
    -7.451E-01   -7.428E-01   -7.405E-01   -7.382E-01   -7.359E-01   -7.336E-01   -7.313E-01   -7.290E-01   -7.267E-01   -7.245E-01
    -7.222E-01   -7.199E-01   -7.176E-01   -7.153E-01   -7.130E-01   -7.107E-01   -7.084E-01   -7.061E-01   -7.039E-01   -7.016E-01
    -6.993E-01   -6.970E-01   -6.947E-01   -6.924E-01   -6.901E-01   -6.878E-01   -6.855E-01   -6.833E-01   -6.810E-01   -6.787E-01
    -6.764E-01   -6.741E-01   -6.718E-01   -6.695E-01   -6.672E-01   -6.649E-01   -6.626E-01   -6.604E-01   -6.581E-01   -6.558E-01
    -6.535E-01   -6.512E-01   -6.489E-01   -6.466E-01   -6.443E-01   -6.420E-01   -6.397E-01   -6.375E-01   -6.352E-01   -6.329E-01
    -6.306E-01   -6.283E-01   -6.260E-01   -6.237E-01   -6.214E-01   -6.191E-01   -6.168E-01   -6.146E-01   -6.123E-01   -6.100E-01
    -6.077E-01   -6.054E-01   -6.031E-01   -6.008E-01   -5.985E-01   -5.962E-01   -5.939E-01   -5.916E-01   -5.893E-01   -5.871E-01
    -5.848E-01   -5.825E-01   -5.802E-01   -5.779E-01   -5.756E-01   -5.733E-01   -5.710E-01   -5.687E-01   -5.664E-01   -5.641E-01
    -5.618E-01   -5.596E-01   -5.573E-01   -5.550E-01   -5.527E-01   -5.504E-01   -5.481E-01   -5.458E-01   -5.435E-01   -5.412E-01
    -5.389E-01   -5.366E-01   -5.343E-01   -5.320E-01   -5.297E-01   -5.274E-01   -5.251E-01   -5.228E-01   -5.206E-01   -5.183E-01
    -5.160E-01   -5.137E-01   -5.114E-01   -5.091E-01   -5.068E-01   -5.045E-01   -5.022E-01   -4.999E-01   -4.976E-01   -4.953E-01
    -4.930E-01   -4.907E-01   -4.884E-01   -4.861E-01   -4.838E-01   -4.815E-01   -4.792E-01   -4.769E-01   -4.746E-01   -4.723E-01
    -4.700E-01   -4.677E-01   -4.654E-01   -4.631E-01   -4.608E-01   -4.585E-01   -4.562E-01   -4.539E-01   -4.516E-01   -4.493E-01
    -4.470E-01   -4.447E-01   -4.424E-01   -4.401E-01   -4.378E-01   -4.355E-01   -4.332E-01   -4.309E-01   -4.286E-01   -4.263E-01
    -4.240E-01   -4.217E-01   -4.194E-01   -4.171E-01   -4.148E-01   -4.125E-01   -4.102E-01   -4.078E-01   -4.055E-01   -4.032E-01
    -4.009E-01   -3.986E-01   -3.963E-01   -3.940E-01   -3.917E-01   -3.894E-01   -3.871E-01   -3.848E-01   -3.824E-01   -3.801E-01
    -3.778E-01   -3.755E-01   -3.732E-01   -3.709E-01   -3.686E-01   -3.663E-01   -3.640E-01   -3.616E-01   -3.593E-01   -3.570E-01
    -3.547E-01   -3.524E-01   -3.501E-01   -3.478E-01   -3.454E-01   -3.431E-01   -3.408E-01   -3.385E-01   -3.362E-01   -3.339E-01
    -3.316E-01   -3.292E-01   -3.269E-01   -3.246E-01   -3.223E-01   -3.200E-01   -3.176E-01   -3.153E-01   -3.130E-01   -3.107E-01
    -3.084E-01   -3.061E-01   -3.037E-01   -3.014E-01   -2.991E-01   -2.968E-01   -2.945E-01   -2.921E-01   -2.898E-01   -2.875E-01
    -2.852E-01   -2.829E-01   -2.805E-01   -2.782E-01   -2.759E-01   -2.736E-01   -2.712E-01   -2.689E-01   -2.666E-01   -2.643E-01
    -2.619E-01   -2.596E-01   -2.573E-01   -2.550E-01   -2.527E-01   -2.503E-01   -2.480E-01   -2.457E-01   -2.434E-01   -2.410E-01
    -2.387E-01   -2.364E-01   -2.340E-01   -2.317E-01   -2.294E-01   -2.271E-01   -2.247E-01   -2.224E-01   -2.201E-01   -2.178E-01
    -2.154E-01   -2.131E-01   -2.108E-01   -2.084E-01   -2.061E-01   -2.038E-01   -2.014E-01   -1.991E-01   -1.968E-01   -1.945E-01
    -1.921E-01   -1.898E-01   -1.875E-01   -1.851E-01   -1.828E-01   -1.805E-01   -1.781E-01   -1.758E-01   -1.735E-01   -1.711E-01
    -1.688E-01   -1.665E-01   -1.641E-01   -1.618E-01   -1.595E-01   -1.571E-01   -1.548E-01   -1.525E-01   -1.501E-01   -1.478E-01
    -1.455E-01   -1.431E-01   -1.408E-01   -1.385E-01   -1.361E-01   -1.338E-01   -1.314E-01   -1.291E-01   -1.268E-01   -1.244E-01
    -1.221E-01   -1.198E-01   -1.174E-01   -1.151E-01   -1.127E-01   -1.104E-01   -1.081E-01   -1.057E-01   -1.034E-01   -1.010E-01
    -9.870E-02   -9.636E-02   -9.402E-02   -9.168E-02   -8.934E-02   -8.700E-02   -8.466E-02   -8.232E-02   -7.998E-02   -7.763E-02
    -7.529E-02   -7.295E-02   -7.061E-02   -6.827E-02   -6.592E-02   -6.358E-02   -6.124E-02   -5.890E-02   -5.655E-02   -5.421E-02
    -5.187E-02   -4.952E-02   -4.718E-02   -4.483E-02   -4.249E-02   -4.015E-02   -3.780E-02   -3.546E-02   -3.311E-02   -3.077E-02
    -2.842E-02   -2.608E-02   -2.373E-02   -2.139E-02   -1.904E-02   -1.670E-02   -1.435E-02   -1.200E-02   -9.659E-03   -7.313E-03
    -4.967E-03   -2.621E-03   -2.745E-04    2.072E-03    4.418E-03    6.765E-03    9.112E-03    1.146E-02    1.381E-02    1.615E-02
     1.850E-02    2.085E-02    2.319E-02    2.554E-02    2.789E-02    3.024E-02    3.258E-02    3.493E-02    3.728E-02    3.963E-02
     4.197E-02    4.432E-02    4.667E-02    4.902E-02    5.137E-02    5.371E-02    5.606E-02    5.841E-02    6.076E-02    6.311E-02
     6.546E-02    6.780E-02    7.015E-02    7.250E-02    7.485E-02    7.720E-02    7.955E-02    8.190E-02    8.424E-02    8.659E-02
     8.894E-02    9.129E-02    9.364E-02    9.599E-02    9.834E-02    1.007E-01    1.030E-01    1.054E-01    1.077E-01    1.101E-01
     1.124E-01    1.148E-01    1.171E-01    1.195E-01    1.218E-01    1.242E-01    1.265E-01    1.289E-01    1.312E-01    1.336E-01
     1.359E-01    1.383E-01    1.406E-01    1.430E-01    1.453E-01    1.477E-01    1.500E-01    1.524E-01    1.547E-01    1.571E-01
     1.594E-01    1.618E-01    1.641E-01    1.665E-01    1.688E-01    1.712E-01    1.735E-01    1.758E-01    1.782E-01    1.805E-01
     1.829E-01    1.852E-01    1.876E-01    1.899E-01    1.923E-01    1.946E-01    1.970E-01    1.993E-01    2.017E-01    2.040E-01
     2.064E-01    2.087E-01    2.111E-01    2.134E-01    2.158E-01    2.181E-01    2.205E-01    2.228E-01    2.252E-01    2.275E-01
     2.298E-01    2.322E-01    2.345E-01    2.369E-01    2.392E-01    2.416E-01    2.439E-01    2.463E-01    2.486E-01    2.510E-01
     2.533E-01    2.557E-01    2.580E-01    2.604E-01    2.627E-01    2.651E-01    2.674E-01    2.697E-01    2.721E-01    2.744E-01
     2.768E-01    2.791E-01    2.815E-01    2.838E-01    2.862E-01    2.885E-01    2.909E-01    2.932E-01    2.955E-01    2.979E-01
     3.002E-01    3.026E-01    3.049E-01    3.073E-01    3.096E-01    3.120E-01    3.143E-01    3.167E-01
 Ala      Conc. = 2.07E+02
