 LCModel (Version 6.3-1L) Copyright: S.W. Provencher.          Ref.: Magn. Reson. Med. 30:672-679 (1993).                
 Slice#1 Row#5 Col#1  PD_24_press_1_raw_act
 36 lines in following concentration table = NCONC+1
    Conc.  %SD /Cr+PCr  Metabolite                                         
   57.945  83%   0.796 Ala                                                 
   13.051 169%   0.179 Asp                                                 
    0.000 999%   0.000 Cr                                                  
   72.803  30%   1.000 PCr                                                 
    7.779 170%   0.107 GABA                                                
    9.661 137%   0.133 Glc                                                 
   26.015 371%   0.357 Gln                                                 
  240.388  45%   3.302 Glu                                                 
   31.847  28%   0.437 GPC                                                 
    0.000 999%   0.000 PCh                                                 
    0.000 999%   0.000 GSH                                                 
  290.880  36%   3.995 Ins                                                 
   52.366 100%   0.719 Lac                                                 
  153.272  17%   2.105 NAA                                                 
    0.000 999%   0.000 NAAG                                                
    3.655 116% 5.0E-02 Scyllo                                              
    9.239 235%   0.127 Tau                                                 
    0.000 999%   0.000 -CrCH2                                              
   31.847  28%   0.437 GPC+PCh                                             
  153.272  17%   2.105 NAA+NAAG                                            
   72.803  30%   1.000 Cr+PCr                                              
  266.403  54%   3.659 Glu+Gln                                             
    0.000 999%   0.000 Lip13a                                              
    0.000 999%   0.000 Lip13b                                              
    0.000 999%   0.000 Lip09                                               
  167.268  39%   2.298 MM09                                                
 9.42E-04 999% 1.3E-05 Lip20                                               
  250.904  39%   3.446 MM20                                                
   50.180  39%   0.689 MM12                                                
  125.449  39%   1.723 MM14                                                
   62.727  39%   0.862 MM17                                                
    0.000 999%   0.000 Lip13a+Lip13b                                       
  175.629  39%   2.412 MM14+Lip13a+Lip13b+MM12                             
  167.268  39%   2.298 MM09+Lip09                                          
  250.905  39%   3.446 MM20+Lip20                                          
   6 lines in following misc. output table
  FWHM = 0.054 ppm    S/N =   2                                            
  Data shift =-0.015 ppm                                                   
  Ph: 130 deg       5.4 deg/ppm                                            
  alphaB,S = 8.5E+01,   4.4E+01                                            
   14 spline knots.   Ns = 5(1)                                            
  ( 7) 3 infls.   ( 8) 1 extrs.                                            
  498 points on ppm-axis = NY
      4.000000     3.992357     3.984714     3.977070     3.969427     3.961784     3.954141     3.946497     3.938854     3.931211
      3.923568     3.915925     3.908281     3.900638     3.892995     3.885352     3.877708     3.870065     3.862422     3.854779
      3.847136     3.839492     3.831849     3.824206     3.816563     3.808919     3.801276     3.793633     3.785990     3.778347
      3.770703     3.763060     3.755417     3.747774     3.740130     3.732487     3.724844     3.717201     3.709558     3.701914
      3.694271     3.686628     3.678985     3.671341     3.663698     3.656055     3.648412     3.640769     3.633125     3.625482
      3.617839     3.610196     3.602552     3.594909     3.587266     3.579623     3.571980     3.564336     3.556693     3.549050
      3.541407     3.533763     3.526120     3.518477     3.510834     3.503191     3.495547     3.487904     3.480261     3.472618
      3.464974     3.457331     3.449688     3.442045     3.434402     3.426758     3.419115     3.411472     3.403829     3.396185
      3.388542     3.380899     3.373256     3.365613     3.357969     3.350326     3.342683     3.335040     3.327396     3.319753
      3.312110     3.304467     3.296824     3.289180     3.281537     3.273894     3.266251     3.258607     3.250964     3.243321
      3.235678     3.228034     3.220391     3.212748     3.205105     3.197462     3.189818     3.182175     3.174532     3.166889
      3.159245     3.151602     3.143959     3.136316     3.128673     3.121029     3.113386     3.105743     3.098100     3.090456
      3.082813     3.075170     3.067527     3.059884     3.052240     3.044597     3.036954     3.029311     3.021667     3.014024
      3.006381     2.998738     2.991095     2.983451     2.975808     2.968165     2.960522     2.952878     2.945235     2.937592
      2.929949     2.922306     2.914662     2.907019     2.899376     2.891733     2.884089     2.876446     2.868803     2.861160
      2.853517     2.845873     2.838230     2.830587     2.822944     2.815300     2.807657     2.800014     2.792371     2.784728
      2.777084     2.769441     2.761798     2.754155     2.746511     2.738868     2.731225     2.723582     2.715939     2.708295
      2.700652     2.693009     2.685366     2.677722     2.670079     2.662436     2.654793     2.647150     2.639506     2.631863
      2.624220     2.616577     2.608933     2.601290     2.593647     2.586004     2.578361     2.570717     2.563074     2.555431
      2.547788     2.540144     2.532501     2.524858     2.517215     2.509572     2.501928     2.494285     2.486642     2.478999
      2.471355     2.463712     2.456069     2.448426     2.440783     2.433139     2.425496     2.417853     2.410210     2.402566
      2.394923     2.387280     2.379637     2.371994     2.364350     2.356707     2.349064     2.341421     2.333777     2.326134
      2.318491     2.310848     2.303205     2.295561     2.287918     2.280275     2.272632     2.264988     2.257345     2.249702
      2.242059     2.234416     2.226772     2.219129     2.211486     2.203843     2.196199     2.188556     2.180913     2.173270
      2.165627     2.157983     2.150340     2.142697     2.135054     2.127410     2.119767     2.112124     2.104481     2.096838
      2.089194     2.081551     2.073908     2.066265     2.058621     2.050978     2.043335     2.035692     2.028049     2.020405
      2.012762     2.005119     1.997476     1.989833     1.982190     1.974546     1.966903     1.959260     1.951617     1.943974
      1.936331     1.928688     1.921045     1.913402     1.905759     1.898115     1.890472     1.882829     1.875186     1.867543
      1.859900     1.852257     1.844614     1.836971     1.829327     1.821684     1.814041     1.806398     1.798755     1.791112
      1.783469     1.775826     1.768183     1.760540     1.752896     1.745253     1.737610     1.729967     1.722324     1.714681
      1.707038     1.699395     1.691752     1.684108     1.676465     1.668822     1.661179     1.653536     1.645893     1.638250
      1.630607     1.622964     1.615321     1.607677     1.600034     1.592391     1.584748     1.577105     1.569462     1.561819
      1.554176     1.546533     1.538890     1.531246     1.523603     1.515960     1.508317     1.500674     1.493031     1.485388
      1.477745     1.470102     1.462458     1.454815     1.447172     1.439529     1.431886     1.424243     1.416600     1.408957
      1.401314     1.393671     1.386027     1.378384     1.370741     1.363098     1.355455     1.347812     1.340169     1.332526
      1.324883     1.317240     1.309596     1.301953     1.294310     1.286667     1.279024     1.271381     1.263738     1.256095
      1.248452     1.240808     1.233165     1.225522     1.217879     1.210236     1.202593     1.194950     1.187307     1.179664
      1.172021     1.164377     1.156734     1.149091     1.141448     1.133805     1.126162     1.118519     1.110876     1.103233
      1.095590     1.087946     1.080303     1.072660     1.065017     1.057374     1.049731     1.042088     1.034445     1.026802
      1.019158     1.011515     1.003872     0.996229     0.988586     0.980943     0.973300     0.965657     0.958014     0.950371
      0.942727     0.935084     0.927441     0.919798     0.912155     0.904512     0.896869     0.889226     0.881583     0.873940
      0.866296     0.858653     0.851010     0.843367     0.835724     0.828081     0.820438     0.812795     0.805152     0.797508
      0.789865     0.782222     0.774579     0.766936     0.759293     0.751650     0.744007     0.736364     0.728721     0.721077
      0.713434     0.705791     0.698148     0.690505     0.682862     0.675219     0.667576     0.659933     0.652290     0.644646
      0.637003     0.629360     0.621717     0.614074     0.606431     0.598788     0.591145     0.583502     0.575858     0.568215
      0.560572     0.552929     0.545286     0.537643     0.530000     0.522357     0.514714     0.507071     0.499427     0.491784
      0.484141     0.476498     0.468855     0.461212     0.453569     0.445925     0.438282     0.430639     0.422996     0.415353
      0.407710     0.400067     0.392424     0.384780     0.377137     0.369494     0.361851     0.354208     0.346565     0.338922
      0.331278     0.323635     0.315992     0.308349     0.300706     0.293063     0.285420     0.277777     0.270133     0.262490
      0.254847     0.247204     0.239561     0.231918     0.224275     0.216631     0.208988     0.201345
 NY phased data points follow
   7.46449E+00  8.77954E+00  9.21873E+00  1.16170E+01  8.95319E+00  7.89952E+00  8.46293E+00  1.19428E+01  7.49912E+00  9.13247E+00
   9.17729E+00  6.98456E+00  9.25045E+00  8.53425E+00  7.43851E+00  4.98078E+00  6.31745E+00  8.76619E+00  9.09119E+00  7.07059E+00
   7.88676E+00  6.33533E+00  7.93186E+00  7.24630E+00  5.46935E+00  6.98710E+00  8.77913E+00  5.12879E+00  4.69280E+00  4.85682E+00
   7.48372E+00  4.95192E+00  3.74279E+00  4.42677E+00  5.82126E+00  6.25298E+00  7.42731E+00  6.58243E+00  6.30597E+00  6.57545E+00
   9.00046E+00  7.50074E+00  8.73339E+00  9.18683E+00  5.55519E+00  6.14466E+00  9.66392E+00  8.32469E+00  7.20672E+00  6.62701E+00
   9.79036E+00  8.10278E+00  4.70539E+00  7.04854E+00  8.06176E+00  8.95508E+00  6.04930E+00  6.52002E+00  7.37301E+00  7.40501E+00
   5.23053E+00  5.36888E+00  6.12489E+00  6.29376E+00  7.46718E+00  3.88391E+00  6.41074E+00  3.31995E+00  3.91402E+00  6.92117E+00
   3.67051E+00  3.71094E+00  4.50361E+00  6.03957E+00  7.04885E+00  6.46456E+00  6.22135E+00  1.73611E+00  4.20660E+00  4.16104E+00
   4.54662E+00  7.23157E+00  3.32242E+00  3.59957E+00  5.06740E+00  5.73297E+00  7.84434E+00  6.08916E+00  4.75834E+00  2.02066E+00
   2.89144E+00  4.34000E+00  3.92591E+00  2.93122E+00  2.44299E+00  3.29477E+00  6.03863E-01  7.98401E+00  8.89448E+00  4.51405E+00
   6.83332E+00  6.58641E+00  5.28575E+00  9.29811E+00  6.53725E+00  5.93045E+00  7.62687E+00  1.89841E+00  3.67959E+00  3.17903E+00
   2.87403E+00  6.73635E+00  4.60404E+00  4.07352E+00  2.53586E+00  2.54462E+00  3.15938E-01  4.72713E+00  3.49222E+00  5.82592E-01
   3.40311E+00  4.53263E+00  7.16341E+00  6.20081E+00  4.46659E+00  4.37408E+00  4.33630E+00  6.14307E+00  7.04926E+00  3.71571E+00
   5.62119E+00  4.49841E+00  5.09326E+00  4.28619E+00  4.60546E+00  2.86012E+00  4.24123E+00  7.11887E+00  3.00221E+00  2.17493E+00
   4.13851E+00  6.90854E+00  5.80740E+00  3.43242E+00  3.58089E+00  6.22180E+00  6.39528E+00  3.59739E+00  3.32461E+00  4.72800E+00
   1.24494E+00  4.97690E+00  4.32946E+00  4.47987E+00  6.25599E+00  3.35028E+00  2.85128E+00  1.63767E+00  3.66010E+00  4.45529E+00
   4.15778E+00  5.10183E+00  3.57287E+00  3.97358E+00  3.62602E+00  3.95393E+00  5.85731E+00  4.66477E+00  4.07416E+00  3.06945E+00
   3.14401E+00  2.51151E+00  2.26661E+00  2.84570E+00  2.09683E+00  2.66016E+00  5.39773E+00  5.23866E+00  5.02501E+00  3.44451E+00
   1.45903E+00  2.46329E+00  2.56166E+00  1.43620E+00  3.77259E+00  4.70390E+00  3.27392E+00  3.12463E+00  3.92479E+00 -4.27588E-01
   6.58781E-01  3.34027E+00  4.95835E+00  3.38301E+00  2.76916E+00  2.86916E+00  3.19186E+00  7.08058E-01  2.04185E+00  1.96574E-01
   1.20734E+00  4.76584E+00  3.35681E+00  4.38095E+00  2.94832E+00  4.74719E+00  3.69340E+00  3.67977E+00  5.62365E+00  1.74639E+00
   3.74266E+00  5.27257E-01  4.80952E+00  2.82286E+00  2.64388E+00  1.13323E+00  3.77984E+00  8.11305E+00  6.24247E+00  1.96366E+00
   6.14187E+00  2.29561E+00  1.69969E+00  3.63427E-01  4.50506E+00  2.25380E+00  1.43948E+00 -8.64975E-01  3.86254E+00  5.00615E+00
   3.39194E+00  2.09788E+00  5.11493E+00  4.49401E-01  1.54822E+00  2.69592E+00  2.51535E+00  2.93548E+00  3.24032E+00  4.06498E+00
   3.62455E+00  2.80363E+00 -2.16133E-01  3.00488E+00  9.38468E-01  5.83094E+00  3.51353E+00  4.78940E+00  3.00459E+00  3.75199E+00
   1.38920E+00  2.69019E+00 -1.62442E+00  5.18314E+00  1.28738E+00  2.65680E+00  1.55612E+00  4.07448E+00  2.70954E+00  5.42161E+00
   5.18752E+00  8.22476E+00  8.00103E+00  1.08964E+01  6.95240E+00  4.52337E+00  1.65291E+00  2.34290E+00  5.86943E+00  4.25119E+00
   4.77781E+00  2.49886E+00  2.75345E+00  2.06977E+00  2.60473E-01  3.51799E+00  1.47376E+00  3.18375E+00  2.72254E+00  2.79298E+00
   4.81941E-01  1.86453E+00  2.13248E+00  4.35541E+00 -5.64146E-01  3.37521E+00  4.43411E+00  2.89021E+00  2.96223E+00  1.19400E+00
   2.40832E+00  2.79341E+00  2.11163E+00  1.13943E+00  3.09525E+00  2.28351E+00  9.34441E-01  2.97386E+00  3.02283E+00 -1.89915E-01
   1.88055E-01  1.90043E+00  1.55378E+00  1.74194E+00  6.24330E-01 -3.13787E-01  6.19695E+00  2.98733E+00  4.18919E-01  2.90101E+00
   5.01908E-02  1.20993E+00  3.68888E+00  4.10276E+00  4.81707E+00  2.02741E+00  2.45750E-01  3.45227E-01  2.15140E+00  4.01697E+00
   4.79905E+00  1.61655E+00  3.70392E+00  6.39640E+00 -5.04206E-01  4.21655E+00  3.35619E+00 -6.11184E-03  5.33446E+00 -2.81790E+00
   6.49638E-01  8.88006E-01  1.95853E+00  6.62905E-01 -6.22679E-01  2.28649E-01  1.41669E+00  1.69884E+00  3.51114E+00 -2.35573E-02
   1.10244E+00  2.94148E+00  4.44214E+00  1.44363E+00  2.02427E+00 -9.28535E-01  2.08014E+00  1.44141E+00 -6.76871E-01 -4.70408E-01
  -1.81269E-01 -2.91119E+00 -4.39438E+00 -5.00913E+00 -7.79468E-01  2.11349E-01 -1.68543E-01 -2.51684E+00 -2.47899E+00 -2.38392E+00
  -1.52484E+00 -1.05470E+00 -2.58749E-01 -2.68690E+00 -2.36827E+00  7.88829E-01  5.15890E-01  2.00026E+00  1.37337E+00 -4.48092E-01
   4.79517E-01  3.30081E+00  3.76427E+00  1.87782E+00  1.16299E+00 -4.90011E-01 -1.44232E+00 -1.17509E+00 -1.45011E+00  9.39350E-01
  -3.11134E+00 -5.05758E-01 -1.22974E-02  9.94636E-02 -1.18816E+00 -1.87640E+00  1.29779E+00  6.03296E-01  4.30560E-01  6.62478E-01
   6.27592E-01  1.07412E-01  3.72906E+00  4.25079E+00  3.07270E+00  1.65946E+00  1.26481E+00  2.52063E+00  9.48207E-01 -3.46997E-01
  -2.70819E-01  9.94467E-01  8.33501E-01  1.85370E+00  1.70301E+00  1.01895E+00 -1.24725E+00  4.55529E-01  2.21064E+00 -7.90587E-01
  -3.16308E+00  2.75704E+00 -8.37717E-01 -2.74977E-01  4.50993E-01  3.67088E-01 -1.96477E+00 -8.24014E-02  1.57230E-01  1.79772E+00
   1.21297E+00  2.24970E+00 -2.82886E+00  9.61524E-01  1.66021E+00 -3.02306E-01 -3.54240E-01 -1.81787E+00 -1.68798E+00 -9.88510E-01
  -1.08473E+00 -5.41286E-01 -1.01212E+00  1.58488E+00 -2.00972E+00  1.28982E+00  3.25759E+00 -1.66471E+00  3.38517E-01  1.94994E+00
   5.82009E-01  1.65570E+00 -2.95793E+00  1.55124E+00  2.82163E-01 -1.21661E+00 -3.85373E-01  8.99854E-01 -2.75018E+00  2.81974E-02
  -2.31733E+00 -7.27760E-01 -1.97873E+00 -1.30537E+00  3.71527E-01  2.34942E-01  1.74181E-01 -6.84880E-01  1.53205E+00  2.86212E-01
   2.81304E+00  9.87462E-01  2.53863E+00  1.91712E+00  2.77193E+00  2.47172E+00 -1.22174E+00  2.25028E+00  8.94824E-01 -8.06703E-01
   6.10751E-01  1.18781E+00  2.20215E+00  5.92756E-01  3.28049E-01 -3.07414E+00  1.71858E+00  2.16414E+00 -1.28008E+00  7.09097E-01
   2.47362E+00  2.00160E+00  2.98215E+00  2.65885E-01  2.41501E+00 -1.24794E+00 -1.86748E+00  2.65149E+00  1.86893E+00  5.25224E-02
   2.38288E+00 -6.14674E-01  2.16192E+00  4.19368E-02  1.21055E+00 -1.01026E+00 -4.82394E-01  7.85162E-01
 NY points of the fit to the data follow
   6.80918E+00  6.70657E+00  6.68887E+00  6.80309E+00  7.07449E+00  7.38350E+00  7.66501E+00  7.90837E+00  8.07912E+00  8.12284E+00
   7.99280E+00  7.69241E+00  7.27823E+00  6.84292E+00  6.49773E+00  6.30815E+00  6.25543E+00  6.25028E+00  6.26057E+00  6.29151E+00
   6.34842E+00  6.41702E+00  6.47916E+00  6.48550E+00  6.41984E+00  6.29412E+00  6.12516E+00  5.95583E+00  5.85817E+00  5.87777E+00
   6.02754E+00  6.28013E+00  6.59619E+00  6.89991E+00  7.07889E+00  7.05681E+00  6.85697E+00  6.55383E+00  6.23738E+00  5.98584E+00
   5.85821E+00  5.87701E+00  6.06836E+00  6.44694E+00  6.92742E+00  7.37918E+00  7.72929E+00  7.95271E+00  8.00190E+00  7.81150E+00
   7.36397E+00  6.73538E+00  6.08335E+00  5.57375E+00  5.33811E+00  5.39534E+00  5.61778E+00  5.88340E+00  6.12017E+00  6.29829E+00
   6.39805E+00  6.39909E+00  6.29824E+00  6.11284E+00  5.88141E+00  5.66402E+00  5.52391E+00  5.51527E+00  5.61580E+00  5.76488E+00
   5.90820E+00  6.01480E+00  6.06930E+00  6.06672E+00  6.01444E+00  5.92480E+00  5.81182E+00  5.69527E+00  5.59301E+00  5.51940E+00
   5.46994E+00  5.44290E+00  5.40725E+00  5.33180E+00  5.20881E+00  5.05207E+00  4.87470E+00  4.68811E+00  4.51555E+00  4.39678E+00
   4.36555E+00  4.43779E+00  4.60076E+00  4.79113E+00  4.94013E+00  5.01607E+00  5.04567E+00  5.18504E+00  5.55528E+00  5.99089E+00
   6.42894E+00  6.88359E+00  7.30031E+00  7.55216E+00  7.49895E+00  7.09076E+00  6.41435E+00  5.65707E+00  5.03859E+00  4.69646E+00
   4.58741E+00  4.54656E+00  4.52104E+00  4.50282E+00  4.48510E+00  4.46401E+00  4.43870E+00  4.41132E+00  4.38381E+00  4.36110E+00
   4.35960E+00  4.46645E+00  4.80090E+00  5.24389E+00  5.70302E+00  6.16004E+00  6.57171E+00  6.84520E+00  6.87211E+00  6.60462E+00
   6.09122E+00  5.46550E+00  4.90197E+00  4.53254E+00  4.36737E+00  4.28640E+00  4.23105E+00  4.18760E+00  4.15061E+00  4.11770E+00
   4.08692E+00  4.05776E+00  4.02923E+00  4.00043E+00  3.97182E+00  3.94421E+00  3.91764E+00  3.89024E+00  3.86005E+00  3.82671E+00
   3.79231E+00  3.75992E+00  3.73136E+00  3.70685E+00  3.68461E+00  3.66002E+00  3.62246E+00  3.57228E+00  3.51763E+00  3.46380E+00
   3.41991E+00  3.38409E+00  3.35612E+00  3.34308E+00  3.34531E+00  3.35357E+00  3.35193E+00  3.32678E+00  3.27551E+00  3.21021E+00
   3.14538E+00  3.08309E+00  3.02275E+00  2.97213E+00  2.93021E+00  2.89404E+00  2.85751E+00  2.82520E+00  2.80849E+00  2.80520E+00
   2.80548E+00  2.79627E+00  2.76598E+00  2.72594E+00  2.70097E+00  2.69859E+00  2.70888E+00  2.72287E+00  2.73815E+00  2.76029E+00
   2.79162E+00  2.82453E+00  2.85146E+00  2.85891E+00  2.84360E+00  2.81965E+00  2.79889E+00  2.78147E+00  2.76715E+00  2.76426E+00
   2.77646E+00  2.81038E+00  2.86458E+00  2.91888E+00  2.96612E+00  2.95596E+00  2.85965E+00  2.68872E+00  2.45295E+00  2.19601E+00
   1.99025E+00  1.93626E+00  2.08623E+00  2.36992E+00  2.73416E+00  3.12111E+00  3.43781E+00  3.53628E+00  3.30412E+00  2.78072E+00
   2.11309E+00  1.44438E+00  9.14617E-01  6.45230E-01  6.72152E-01  9.45024E-01  1.38186E+00  1.85964E+00  2.25521E+00  2.48193E+00
   2.53287E+00  2.47609E+00  2.38923E+00  2.30901E+00  2.25681E+00  2.24150E+00  2.24625E+00  2.26243E+00  2.25707E+00  2.21982E+00
   2.17063E+00  2.12062E+00  2.06623E+00  2.02211E+00  2.01744E+00  2.05338E+00  2.10343E+00  2.13716E+00  2.13713E+00  2.09880E+00
   2.01378E+00  1.90079E+00  1.78780E+00  1.67873E+00  1.57622E+00  1.70955E+00  2.33644E+00  3.21486E+00  4.18527E+00  5.24425E+00
   6.34332E+00  7.28125E+00  7.79006E+00  7.69449E+00  6.99665E+00  5.89948E+00  4.75932E+00  3.91173E+00  3.43065E+00  3.12185E+00
   2.89633E+00  2.72796E+00  2.60241E+00  2.50801E+00  2.44445E+00  2.40541E+00  2.37489E+00  2.33874E+00  2.28856E+00  2.22113E+00
   2.14178E+00  2.06079E+00  1.98535E+00  1.91851E+00  1.86140E+00  1.81395E+00  1.77437E+00  1.73941E+00  1.70615E+00  1.67395E+00
   1.64313E+00  1.61403E+00  1.58729E+00  1.56352E+00  1.54284E+00  1.52504E+00  1.50992E+00  1.49739E+00  1.48711E+00  1.47868E+00
   1.47160E+00  1.46525E+00  1.45911E+00  1.45271E+00  1.44562E+00  1.43741E+00  1.42764E+00  1.41600E+00  1.40230E+00  1.38660E+00
   1.36915E+00  1.35032E+00  1.33045E+00  1.30997E+00  1.28943E+00  1.26950E+00  1.25101E+00  1.23498E+00  1.22280E+00  1.21675E+00
   1.22160E+00  1.25249E+00  1.35068E+00  1.49683E+00  1.62518E+00  1.72030E+00  1.77304E+00  1.75444E+00  1.62232E+00  1.34076E+00
   9.60735E-01  6.10527E-01  3.62066E-01  2.60175E-01  3.23831E-01  5.17037E-01  7.82785E-01  1.06972E+00  1.31707E+00  1.47242E+00
   1.51617E+00  1.48458E+00  1.48101E+00  1.54977E+00  1.62538E+00  1.68219E+00  1.70852E+00  1.67555E+00  1.53851E+00  1.25958E+00
   9.00359E-01  5.58547E-01  2.93442E-01  1.58011E-01  1.80655E-01  3.31195E-01  5.45725E-01  7.69866E-01  9.48755E-01  1.03929E+00
   1.03091E+00  9.54173E-01  8.68741E-01  8.03862E-01  7.52721E-01  7.09586E-01  6.71428E-01  6.36462E-01  6.03561E-01  5.71991E-01
   5.41257E-01  5.11029E-01  4.81104E-01  4.51396E-01  4.21924E-01  3.92799E-01  3.64205E-01  3.36385E-01  3.09645E-01  2.84361E-01
   2.60974E-01  2.39983E-01  2.21924E-01  2.07363E-01  1.96889E-01  1.91107E-01  1.90608E-01  1.95943E-01  2.07587E-01  2.25905E-01
   2.51130E-01  2.83328E-01  3.22373E-01  3.67910E-01  4.19349E-01  4.75855E-01  5.36377E-01  5.99664E-01  6.64303E-01  7.28769E-01
   7.91477E-01  8.50860E-01  9.05438E-01  9.53880E-01  9.95056E-01  1.02808E+00  1.05235E+00  1.06755E+00  1.07367E+00  1.07096E+00
   1.05994E+00  1.04130E+00  1.01590E+00  9.84712E-01  9.48742E-01  9.09022E-01  8.66537E-01  8.22205E-01  7.76854E-01  7.31206E-01
   6.85871E-01  6.41341E-01  5.97994E-01  5.56105E-01  5.15865E-01  4.77389E-01  4.40731E-01  4.05892E-01  3.72832E-01  3.41487E-01
   3.11776E-01  2.83611E-01  2.56896E-01  2.31532E-01  2.07419E-01  1.84466E-01  1.62588E-01  1.41705E-01  1.21745E-01  1.02637E-01
   8.43176E-02  6.67312E-02  4.98301E-02  3.35703E-02  1.79095E-02  2.80828E-03 -1.17688E-02 -2.58511E-02 -3.94648E-02 -5.26353E-02
  -6.53872E-02 -7.77441E-02 -8.97253E-02 -1.01346E-01 -1.12621E-01 -1.23566E-01 -1.34196E-01 -1.44526E-01 -1.54567E-01 -1.64327E-01
  -1.73817E-01 -1.83047E-01 -1.92028E-01 -2.00771E-01 -2.09279E-01 -2.17560E-01 -2.25620E-01 -2.33467E-01 -2.41111E-01 -2.48556E-01
  -2.55807E-01 -2.62867E-01 -2.69744E-01 -2.76444E-01 -2.82972E-01 -2.89333E-01 -2.95527E-01 -3.01561E-01 -3.07440E-01 -3.13172E-01
  -3.18760E-01 -3.24208E-01 -3.29520E-01 -3.34699E-01 -3.39755E-01 -3.44693E-01 -3.49517E-01 -3.54232E-01 -3.58842E-01 -3.63356E-01
  -3.67783E-01 -3.72132E-01 -3.76408E-01 -3.80619E-01 -3.84777E-01 -3.88895E-01 -3.92987E-01 -3.97069E-01
 NY background values follow
     6.026E+00    6.015E+00    6.003E+00    5.992E+00    5.981E+00    5.969E+00    5.958E+00    5.946E+00    5.935E+00    5.923E+00
     5.911E+00    5.899E+00    5.887E+00    5.875E+00    5.863E+00    5.851E+00    5.839E+00    5.826E+00    5.814E+00    5.801E+00
     5.789E+00    5.776E+00    5.763E+00    5.750E+00    5.738E+00    5.725E+00    5.711E+00    5.698E+00    5.685E+00    5.672E+00
     5.659E+00    5.645E+00    5.632E+00    5.618E+00    5.604E+00    5.591E+00    5.577E+00    5.563E+00    5.549E+00    5.535E+00
     5.521E+00    5.507E+00    5.493E+00    5.479E+00    5.464E+00    5.450E+00    5.435E+00    5.421E+00    5.406E+00    5.392E+00
     5.377E+00    5.362E+00    5.347E+00    5.332E+00    5.318E+00    5.303E+00    5.287E+00    5.272E+00    5.257E+00    5.242E+00
     5.227E+00    5.211E+00    5.196E+00    5.180E+00    5.165E+00    5.149E+00    5.133E+00    5.118E+00    5.102E+00    5.086E+00
     5.070E+00    5.054E+00    5.038E+00    5.022E+00    5.006E+00    4.990E+00    4.974E+00    4.957E+00    4.941E+00    4.925E+00
     4.908E+00    4.892E+00    4.875E+00    4.859E+00    4.842E+00    4.826E+00    4.809E+00    4.792E+00    4.775E+00    4.759E+00
     4.742E+00    4.725E+00    4.708E+00    4.691E+00    4.674E+00    4.657E+00    4.639E+00    4.622E+00    4.605E+00    4.588E+00
     4.570E+00    4.553E+00    4.536E+00    4.518E+00    4.501E+00    4.483E+00    4.466E+00    4.448E+00    4.431E+00    4.413E+00
     4.395E+00    4.377E+00    4.360E+00    4.342E+00    4.324E+00    4.306E+00    4.288E+00    4.270E+00    4.252E+00    4.234E+00
     4.216E+00    4.198E+00    4.180E+00    4.162E+00    4.144E+00    4.126E+00    4.108E+00    4.089E+00    4.071E+00    4.053E+00
     4.035E+00    4.016E+00    3.998E+00    3.979E+00    3.961E+00    3.943E+00    3.924E+00    3.906E+00    3.887E+00    3.869E+00
     3.850E+00    3.832E+00    3.813E+00    3.794E+00    3.776E+00    3.757E+00    3.738E+00    3.720E+00    3.701E+00    3.682E+00
     3.664E+00    3.645E+00    3.626E+00    3.607E+00    3.589E+00    3.570E+00    3.551E+00    3.532E+00    3.513E+00    3.494E+00
     3.475E+00    3.457E+00    3.438E+00    3.419E+00    3.400E+00    3.381E+00    3.362E+00    3.343E+00    3.324E+00    3.305E+00
     3.286E+00    3.267E+00    3.248E+00    3.229E+00    3.210E+00    3.191E+00    3.172E+00    3.153E+00    3.134E+00    3.115E+00
     3.096E+00    3.077E+00    3.058E+00    3.039E+00    3.020E+00    3.001E+00    2.982E+00    2.963E+00    2.944E+00    2.925E+00
     2.906E+00    2.887E+00    2.868E+00    2.849E+00    2.830E+00    2.811E+00    2.792E+00    2.773E+00    2.754E+00    2.735E+00
     2.717E+00    2.698E+00    2.679E+00    2.660E+00    2.641E+00    2.622E+00    2.603E+00    2.584E+00    2.565E+00    2.546E+00
     2.528E+00    2.509E+00    2.490E+00    2.471E+00    2.452E+00    2.434E+00    2.415E+00    2.396E+00    2.377E+00    2.359E+00
     2.340E+00    2.321E+00    2.303E+00    2.284E+00    2.265E+00    2.247E+00    2.228E+00    2.209E+00    2.191E+00    2.172E+00
     2.154E+00    2.135E+00    2.117E+00    2.099E+00    2.080E+00    2.062E+00    2.043E+00    2.025E+00    2.007E+00    1.988E+00
     1.970E+00    1.952E+00    1.934E+00    1.915E+00    1.897E+00    1.879E+00    1.861E+00    1.843E+00    1.825E+00    1.807E+00
     1.789E+00    1.771E+00    1.753E+00    1.735E+00    1.717E+00    1.700E+00    1.682E+00    1.664E+00    1.646E+00    1.629E+00
     1.611E+00    1.593E+00    1.576E+00    1.558E+00    1.541E+00    1.523E+00    1.506E+00    1.488E+00    1.471E+00    1.454E+00
     1.436E+00    1.419E+00    1.402E+00    1.385E+00    1.368E+00    1.351E+00    1.334E+00    1.317E+00    1.300E+00    1.283E+00
     1.266E+00    1.249E+00    1.232E+00    1.216E+00    1.199E+00    1.182E+00    1.166E+00    1.149E+00    1.133E+00    1.116E+00
     1.100E+00    1.083E+00    1.067E+00    1.051E+00    1.035E+00    1.018E+00    1.002E+00    9.863E-01    9.703E-01    9.543E-01
     9.384E-01    9.225E-01    9.067E-01    8.910E-01    8.753E-01    8.597E-01    8.441E-01    8.286E-01    8.131E-01    7.977E-01
     7.823E-01    7.670E-01    7.517E-01    7.365E-01    7.214E-01    7.063E-01    6.913E-01    6.763E-01    6.614E-01    6.466E-01
     6.318E-01    6.171E-01    6.024E-01    5.878E-01    5.733E-01    5.588E-01    5.444E-01    5.300E-01    5.157E-01    5.015E-01
     4.873E-01    4.732E-01    4.592E-01    4.452E-01    4.313E-01    4.174E-01    4.037E-01    3.899E-01    3.763E-01    3.627E-01
     3.492E-01    3.357E-01    3.224E-01    3.091E-01    2.958E-01    2.826E-01    2.695E-01    2.565E-01    2.435E-01    2.306E-01
     2.178E-01    2.051E-01    1.924E-01    1.798E-01    1.672E-01    1.548E-01    1.424E-01    1.301E-01    1.178E-01    1.056E-01
     9.353E-02    8.150E-02    6.955E-02    5.767E-02    4.587E-02    3.414E-02    2.249E-02    1.092E-02   -5.773E-04   -1.200E-02
    -2.334E-02   -3.461E-02   -4.580E-02   -5.691E-02   -6.794E-02   -7.889E-02   -8.977E-02   -1.006E-01   -1.113E-01   -1.219E-01
    -1.325E-01   -1.429E-01   -1.533E-01   -1.637E-01   -1.739E-01   -1.840E-01   -1.941E-01   -2.041E-01   -2.140E-01   -2.238E-01
    -2.335E-01   -2.432E-01   -2.528E-01   -2.623E-01   -2.717E-01   -2.810E-01   -2.902E-01   -2.994E-01   -3.084E-01   -3.174E-01
    -3.263E-01   -3.351E-01   -3.438E-01   -3.524E-01   -3.610E-01   -3.694E-01   -3.778E-01   -3.861E-01   -3.943E-01   -4.024E-01
    -4.104E-01   -4.183E-01   -4.262E-01   -4.339E-01   -4.416E-01   -4.491E-01   -4.566E-01   -4.640E-01   -4.713E-01   -4.785E-01
    -4.856E-01   -4.926E-01   -4.996E-01   -5.064E-01   -5.132E-01   -5.198E-01   -5.264E-01   -5.329E-01   -5.392E-01   -5.455E-01
    -5.517E-01   -5.578E-01   -5.638E-01   -5.697E-01   -5.756E-01   -5.813E-01   -5.869E-01   -5.924E-01   -5.979E-01   -6.032E-01
    -6.085E-01   -6.136E-01   -6.187E-01   -6.236E-01   -6.285E-01   -6.333E-01   -6.379E-01   -6.425E-01   -6.470E-01   -6.514E-01
    -6.557E-01   -6.598E-01   -6.639E-01   -6.679E-01   -6.718E-01   -6.756E-01   -6.793E-01   -6.829E-01   -6.864E-01   -6.898E-01
    -6.931E-01   -6.963E-01   -6.994E-01   -7.024E-01   -7.053E-01   -7.081E-01   -7.107E-01   -7.133E-01   -7.158E-01   -7.182E-01
    -7.205E-01   -7.227E-01   -7.248E-01   -7.268E-01   -7.287E-01   -7.305E-01   -7.322E-01   -7.338E-01   -7.352E-01   -7.366E-01
    -7.379E-01   -7.391E-01   -7.401E-01   -7.411E-01   -7.420E-01   -7.427E-01   -7.434E-01   -7.440E-01   -7.444E-01   -7.448E-01
    -7.450E-01   -7.452E-01   -7.452E-01   -7.451E-01   -7.450E-01   -7.447E-01   -7.443E-01   -7.438E-01
 Ala      Conc. = 5.79E+01
