 LCModel (Version 6.3-1L) Copyright: S.W. Provencher.          Ref.: Magn. Reson. Med. 30:672-679 (1993).                
 Slice#1 Row#1 Col#5  PD_24_press_1_raw_act
 36 lines in following concentration table = NCONC+1
    Conc.  %SD /Cr+PCr  Metabolite                                         
   72.295  88%   0.464 Ala                                                 
   13.160 118% 8.4E-02 Asp                                                 
    0.000 999%   0.000 Cr                                                  
  155.819  18%   1.000 PCr                                                 
    7.416 125% 4.8E-02 GABA                                                
    8.528 109% 5.5E-02 Glc                                                 
    0.000 999%   0.000 Gln                                                 
    0.000 999%   0.000 Glu                                                 
   34.881  29%   0.224 GPC                                                 
    0.000 999%   0.000 PCh                                                 
   51.768  73%   0.332 GSH                                                 
  205.603  58%   1.319 Ins                                                 
    5.826 999% 3.7E-02 Lac                                                 
    0.000 999%   0.000 NAA                                                 
    3.310 849% 2.1E-02 NAAG                                                
    3.547  87% 2.3E-02 Scyllo                                              
   11.644 132% 7.5E-02 Tau                                                 
    0.000 999%   0.000 -CrCH2                                              
   34.881  29%   0.224 GPC+PCh                                             
    3.310 849% 2.1E-02 NAA+NAAG                                            
  155.819  18%   1.000 Cr+PCr                                              
    0.000 999%   0.000 Glu+Gln                                             
  266.786 271%   1.712 Lip13a                                              
  336.190 131%   2.158 Lip13b                                              
  255.173  65%   1.638 Lip09                                               
 1.71E+03  13%  10.978 MM09                                                
    0.000 999%   0.000 Lip20                                               
    0.000 999%   0.000 MM20                                                
  514.439  55%   3.302 MM12                                                
 2.78E+03  18%  17.827 MM14                                                
  715.000  31%   4.589 MM17                                                
  602.976  80%   3.870 Lip13a+Lip13b                                       
 3.90E+03   8%  24.998 MM14+Lip13a+Lip13b+MM12                             
 1.97E+03   8%  12.615 MM09+Lip09                                          
    0.000 999%   0.000 MM20+Lip20                                          
   6 lines in following misc. output table
  FWHM = 0.054 ppm    S/N =   4                                            
  Data shift =-0.008 ppm                                                   
  Ph:-108 deg      58.6 deg/ppm                                            
  alphaB,S = 8.5E+01,   4.3E+01                                            
   14 spline knots.   Ns = 6(1)                                            
   2 inflections.     1 extrema                                            
  498 points on ppm-axis = NY
      4.000000     3.992357     3.984714     3.977070     3.969427     3.961784     3.954141     3.946497     3.938854     3.931211
      3.923568     3.915925     3.908281     3.900638     3.892995     3.885352     3.877708     3.870065     3.862422     3.854779
      3.847136     3.839492     3.831849     3.824206     3.816563     3.808919     3.801276     3.793633     3.785990     3.778347
      3.770703     3.763060     3.755417     3.747774     3.740130     3.732487     3.724844     3.717201     3.709558     3.701914
      3.694271     3.686628     3.678985     3.671341     3.663698     3.656055     3.648412     3.640769     3.633125     3.625482
      3.617839     3.610196     3.602552     3.594909     3.587266     3.579623     3.571980     3.564336     3.556693     3.549050
      3.541407     3.533763     3.526120     3.518477     3.510834     3.503191     3.495547     3.487904     3.480261     3.472618
      3.464974     3.457331     3.449688     3.442045     3.434402     3.426758     3.419115     3.411472     3.403829     3.396185
      3.388542     3.380899     3.373256     3.365613     3.357969     3.350326     3.342683     3.335040     3.327396     3.319753
      3.312110     3.304467     3.296824     3.289180     3.281537     3.273894     3.266251     3.258607     3.250964     3.243321
      3.235678     3.228034     3.220391     3.212748     3.205105     3.197462     3.189818     3.182175     3.174532     3.166889
      3.159245     3.151602     3.143959     3.136316     3.128673     3.121029     3.113386     3.105743     3.098100     3.090456
      3.082813     3.075170     3.067527     3.059884     3.052240     3.044597     3.036954     3.029311     3.021667     3.014024
      3.006381     2.998738     2.991095     2.983451     2.975808     2.968165     2.960522     2.952878     2.945235     2.937592
      2.929949     2.922306     2.914662     2.907019     2.899376     2.891733     2.884089     2.876446     2.868803     2.861160
      2.853517     2.845873     2.838230     2.830587     2.822944     2.815300     2.807657     2.800014     2.792371     2.784728
      2.777084     2.769441     2.761798     2.754155     2.746511     2.738868     2.731225     2.723582     2.715939     2.708295
      2.700652     2.693009     2.685366     2.677722     2.670079     2.662436     2.654793     2.647150     2.639506     2.631863
      2.624220     2.616577     2.608933     2.601290     2.593647     2.586004     2.578361     2.570717     2.563074     2.555431
      2.547788     2.540144     2.532501     2.524858     2.517215     2.509572     2.501928     2.494285     2.486642     2.478999
      2.471355     2.463712     2.456069     2.448426     2.440783     2.433139     2.425496     2.417853     2.410210     2.402566
      2.394923     2.387280     2.379637     2.371994     2.364350     2.356707     2.349064     2.341421     2.333777     2.326134
      2.318491     2.310848     2.303205     2.295561     2.287918     2.280275     2.272632     2.264988     2.257345     2.249702
      2.242059     2.234416     2.226772     2.219129     2.211486     2.203843     2.196199     2.188556     2.180913     2.173270
      2.165627     2.157983     2.150340     2.142697     2.135054     2.127410     2.119767     2.112124     2.104481     2.096838
      2.089194     2.081551     2.073908     2.066265     2.058621     2.050978     2.043335     2.035692     2.028049     2.020405
      2.012762     2.005119     1.997476     1.989833     1.982190     1.974546     1.966903     1.959260     1.951617     1.943974
      1.936331     1.928688     1.921045     1.913402     1.905759     1.898115     1.890472     1.882829     1.875186     1.867543
      1.859900     1.852257     1.844614     1.836971     1.829327     1.821684     1.814041     1.806398     1.798755     1.791112
      1.783469     1.775826     1.768183     1.760540     1.752896     1.745253     1.737610     1.729967     1.722324     1.714681
      1.707038     1.699395     1.691752     1.684108     1.676465     1.668822     1.661179     1.653536     1.645893     1.638250
      1.630607     1.622964     1.615321     1.607677     1.600034     1.592391     1.584748     1.577105     1.569462     1.561819
      1.554176     1.546533     1.538890     1.531246     1.523603     1.515960     1.508317     1.500674     1.493031     1.485388
      1.477745     1.470102     1.462458     1.454815     1.447172     1.439529     1.431886     1.424243     1.416600     1.408957
      1.401314     1.393671     1.386027     1.378384     1.370741     1.363098     1.355455     1.347812     1.340169     1.332526
      1.324883     1.317240     1.309596     1.301953     1.294310     1.286667     1.279024     1.271381     1.263738     1.256095
      1.248452     1.240808     1.233165     1.225522     1.217879     1.210236     1.202593     1.194950     1.187307     1.179664
      1.172021     1.164377     1.156734     1.149091     1.141448     1.133805     1.126162     1.118519     1.110876     1.103233
      1.095590     1.087946     1.080303     1.072660     1.065017     1.057374     1.049731     1.042088     1.034445     1.026802
      1.019158     1.011515     1.003872     0.996229     0.988586     0.980943     0.973300     0.965657     0.958014     0.950371
      0.942727     0.935084     0.927441     0.919798     0.912155     0.904512     0.896869     0.889226     0.881583     0.873940
      0.866296     0.858653     0.851010     0.843367     0.835724     0.828081     0.820438     0.812795     0.805152     0.797508
      0.789865     0.782222     0.774579     0.766936     0.759293     0.751650     0.744007     0.736364     0.728721     0.721077
      0.713434     0.705791     0.698148     0.690505     0.682862     0.675219     0.667576     0.659933     0.652290     0.644646
      0.637003     0.629360     0.621717     0.614074     0.606431     0.598788     0.591145     0.583502     0.575858     0.568215
      0.560572     0.552929     0.545286     0.537643     0.530000     0.522357     0.514714     0.507071     0.499427     0.491784
      0.484141     0.476498     0.468855     0.461212     0.453569     0.445925     0.438282     0.430639     0.422996     0.415353
      0.407710     0.400067     0.392424     0.384780     0.377137     0.369494     0.361851     0.354208     0.346565     0.338922
      0.331278     0.323635     0.315992     0.308349     0.300706     0.293063     0.285420     0.277777     0.270133     0.262490
      0.254847     0.247204     0.239561     0.231918     0.224275     0.216631     0.208988     0.201345
 NY phased data points follow
   6.12185E+00  6.85048E+00  1.55841E+00  5.97020E+00  7.54253E+00  5.77602E+00  6.44781E+00  8.75129E+00  7.16546E+00  8.93508E+00
   5.01816E+00  2.10357E+00  5.97632E+00  9.87825E+00  3.42966E+00  1.49784E+00  4.64660E+00  3.71181E+00  1.61749E+00  7.67724E-01
   2.72237E+00  1.55352E+00  3.00982E+00  6.26178E+00  4.08126E+00  1.23638E+00  3.19607E+00  4.32595E+00  1.84706E+00  4.67537E+00
   5.38668E+00 -7.75488E-01  3.32790E+00  3.04443E+00  1.51490E+00  1.19525E+00  1.18572E-01  2.20749E+00  4.63565E+00  2.39160E+00
   3.72777E+00  7.62785E-01 -1.28349E-01  4.92577E+00  1.17369E+00  4.24071E+00  1.29517E+00  2.36574E+00  1.49688E+00  3.57820E+00
   2.38279E-01  3.43470E+00 -1.00160E+00  7.15487E-01  2.94565E+00  1.44187E-01 -4.02953E-01  3.44856E+00  1.72741E+00 -1.57175E+00
  -2.51906E+00  1.46310E+00 -9.05042E-01  1.38382E+00  2.70999E+00  8.80286E-01  1.57425E+00 -2.03009E+00  4.23378E+00  6.68162E-01
   2.41236E+00  2.61133E-01  1.20769E+00  1.05922E+00  2.01785E+00  1.20839E+00  2.99679E+00  6.25863E-01  1.38147E-01  3.07058E-01
   1.98847E+00  1.76284E+00  2.81226E+00  1.09607E+00 -4.54910E-02  2.31841E+00  2.26833E+00  7.49297E-02  7.88970E-01  3.85455E+00
  -9.48337E-01  3.29558E-01  3.92208E+00 -3.15214E-02 -1.88358E+00 -5.31815E-01  1.57248E+00  1.58148E-02  1.36894E+00  3.34487E+00
   5.22254E+00  2.60529E+00  3.26569E+00  7.95030E-01  1.74742E+00  2.63020E+00  1.91980E+00 -2.38753E+00 -1.63343E+00  6.23055E-01
  -6.30534E-01 -1.90051E-01  3.33524E-01 -2.74992E+00 -1.52051E+00  2.77108E+00 -2.97553E+00  2.88679E+00  1.18189E-01  1.99142E+00
  -3.23034E+00  5.16833E+00  6.43106E-01  2.37586E+00  6.64504E+00  3.92384E+00  2.73769E+00  2.46454E+00 -5.91518E-01  3.58983E-01
  -5.96057E-01  1.46359E-01 -2.24904E+00 -3.55460E+00  1.50178E+00  1.14529E+00 -1.10909E+00 -1.14194E+00 -1.48454E+00 -1.59349E-01
   6.22848E-01 -1.03351E+00 -8.37024E-01 -2.80278E-01 -1.63305E+00  1.36141E+00 -5.27622E-01  2.33711E+00 -1.47242E-01 -4.66374E+00
  -7.63322E-01  1.58894E+00 -2.39583E+00 -1.08956E+00 -1.88943E+00  1.31612E+00 -2.72140E+00  7.42693E-01 -1.12889E+00 -1.57191E+00
   9.11602E-01 -1.77487E+00  3.56030E-01  3.72442E-01 -2.03840E+00  9.19756E-01  2.71654E+00 -1.31282E+00 -1.40123E+00 -1.61615E-01
  -1.74824E+00 -1.64872E+00  1.23230E-01 -1.09746E+00 -3.46861E+00 -2.04614E+00  2.80898E+00 -2.77079E+00 -1.35973E+00  4.76583E-01
  -1.26853E+00  5.94263E-01  1.84971E+00 -3.51376E+00 -1.15481E+00  1.30946E+00 -2.36954E+00 -2.58467E+00  1.53905E+00  5.92614E-01
   2.99388E-01 -1.87771E+00 -2.61817E+00 -3.57252E+00 -5.10456E+00 -1.59153E+00  3.27961E-01 -6.15550E-01 -3.12030E+00 -1.14758E+00
  -3.90851E+00 -4.40614E+00 -3.41681E+00 -2.75824E-01 -3.69636E+00 -2.23745E+00 -2.70754E+00 -2.86147E+00 -3.75396E+00 -1.06629E+00
  -4.40861E+00  4.72087E-01 -5.31518E+00 -3.89316E+00 -5.09270E+00 -2.21389E+00 -4.47866E+00 -2.56545E+00  5.96719E-01 -3.75454E+00
   3.42031E-01 -1.30728E+00 -2.33975E+00 -1.66583E+00 -6.54397E-01 -4.94392E+00 -1.66876E+00 -1.08357E+00 -2.48365E+00 -3.86752E+00
   1.88864E+00 -3.49700E+00 -2.59690E+00 -3.22964E+00 -5.06434E+00 -8.81518E-01 -3.70931E+00 -4.76373E+00 -9.49860E+00 -8.85129E-01
  -1.87954E+00 -2.13907E+00 -1.33485E+00  3.52414E-01 -4.77816E+00 -8.45076E-01 -9.94510E-02 -6.80925E-01 -2.93294E+00 -1.42221E+00
  -2.37734E+00 -1.19611E+00 -4.28268E+00 -1.46770E+00  2.48058E-01 -1.98991E+00 -1.51769E+00 -2.52657E-01 -3.90284E+00 -4.37995E+00
  -3.68366E+00 -5.17231E-01 -2.35236E+00 -2.72949E+00 -7.18755E+00 -3.80654E+00 -5.26584E+00 -2.29185E+00 -5.25608E+00 -6.06930E+00
  -4.13521E+00 -5.56918E+00 -8.22607E-01 -5.00442E+00 -4.07751E+00 -4.39082E+00 -9.90412E-01 -4.09326E+00 -1.41163E+00 -4.38794E+00
  -1.68873E+00 -2.56553E+00 -1.10492E+00 -7.45187E-01 -1.88426E+00 -2.95364E+00  7.89166E-01 -1.81899E+00 -2.98118E+00 -1.00586E+00
  -5.74085E-01 -3.31650E+00  1.92880E+00  1.46664E+00 -1.37077E+00  5.54958E-01  6.65280E-01  1.86685E-01  1.70806E+00  8.89649E-01
  -2.75383E+00 -2.06668E-02 -1.93960E+00  1.45142E+00  4.45513E+00  3.44007E-01 -1.58758E+00  3.34488E+00  9.01567E-01  6.44081E-01
   3.30292E+00  3.35788E+00  4.48940E+00  1.96504E+00  1.83669E+00  4.57596E+00  5.12993E+00  6.66425E+00  4.49954E+00  4.37287E+00
   4.12959E+00  5.61505E+00  5.01662E+00  8.82691E+00  1.64233E+00  7.70539E+00  2.99416E+00  3.22474E+00  6.73837E+00  8.98861E+00
   5.86254E+00  9.50568E+00  8.16719E+00  7.26801E+00  9.09530E+00  1.26073E+01  1.13728E+01  1.24709E+01  1.08402E+01  1.30150E+01
   1.34754E+01  1.42674E+01  1.27190E+01  1.13694E+01  1.27068E+01  1.59783E+01  1.23764E+01  1.52728E+01  9.67113E+00  1.08434E+01
   1.20671E+01  1.20598E+01  1.26156E+01  1.27489E+01  1.00789E+01  7.90540E+00  1.07255E+01  1.08778E+01  7.52036E+00  6.65190E+00
   8.52008E+00  3.99600E+00  5.98065E+00  5.26198E+00  2.25502E+00  5.30449E+00  4.62303E+00  2.68374E+00  4.36904E+00  2.78216E+00
   5.50240E-01  1.59414E+00  3.35670E+00  1.38638E+00  4.97041E+00  5.57410E-01  5.05247E+00  4.32191E+00  5.82142E+00  4.51405E+00
   5.59884E+00  6.95964E+00  6.16858E+00  3.23384E+00  1.06492E+01  6.90776E+00  1.22475E+01  6.76130E+00  7.48098E+00  9.03343E+00
   1.07654E+01  1.03908E+01  7.64246E+00  1.14231E+01  7.19309E+00  6.55900E+00  8.15326E+00  8.34188E+00  1.15430E+01  6.64475E+00
   7.94798E+00  4.57738E+00  4.92839E+00  8.36524E+00  1.56472E+00  2.50826E+00  6.57414E+00  4.91710E+00  3.33950E+00  3.33019E+00
   1.35221E+00  1.33999E+00  2.23797E+00  2.44424E+00  1.17428E+00  2.84535E+00 -6.93952E-01 -8.88908E-01 -8.84449E-01  2.35086E+00
  -1.38285E+00 -3.26070E+00 -4.47611E+00 -1.53769E+00 -1.05475E+00 -1.81443E+00 -3.96535E+00 -4.78732E+00 -2.70965E+00 -1.02721E+00
  -3.48138E+00 -3.75396E+00 -1.38195E+00 -2.86822E+00 -5.28294E+00 -6.71848E+00 -7.65473E+00 -8.10531E+00 -6.46773E+00 -5.38852E+00
  -1.31455E+00 -3.98484E+00 -4.40606E+00 -4.49117E+00 -5.63759E+00 -4.40598E+00 -4.51864E+00 -2.20907E+00 -3.36682E+00 -4.38705E+00
  -5.61833E+00 -5.41084E+00 -1.72654E+00 -7.70591E+00 -3.96666E+00 -4.32923E+00 -3.99540E+00 -6.23266E+00 -3.54320E+00 -2.18644E+00
  -4.71761E+00 -5.63115E+00 -5.97549E+00 -7.21589E+00 -5.29126E+00 -3.48320E+00 -6.49928E+00 -7.37643E+00 -5.89904E+00 -2.51598E+00
  -4.79567E+00 -6.26881E+00 -6.47466E+00 -7.10980E+00 -2.08067E+00 -7.75436E+00 -5.29002E+00 -3.27420E+00 -4.82587E+00 -6.16262E+00
  -5.03497E+00 -5.63557E+00 -5.20181E+00 -3.07788E+00 -2.49404E+00 -3.77529E+00 -3.79948E+00 -4.04778E+00 -4.69267E+00 -5.86078E+00
  -5.69794E+00 -6.89583E+00 -4.64337E+00 -4.47943E+00 -3.04441E+00 -2.62844E-01 -6.67769E+00 -4.28712E+00
 NY points of the fit to the data follow
   2.29598E+00  2.33005E+00  2.61510E+00  3.38623E+00  4.35955E+00  5.17363E+00  5.61821E+00  5.61938E+00  5.24613E+00  4.66710E+00
   4.06460E+00  3.55499E+00  3.13197E+00  2.73944E+00  2.37180E+00  2.09248E+00  1.94598E+00  1.90353E+00  1.89661E+00  1.90428E+00
   1.89821E+00  1.85586E+00  1.79369E+00  1.78864E+00  1.97346E+00  2.27598E+00  2.54638E+00  2.71175E+00  2.75643E+00  2.68723E+00
   2.54808E+00  2.41837E+00  2.35686E+00  2.33356E+00  2.26075E+00  2.09430E+00  1.88156E+00  1.69177E+00  1.54665E+00  1.44784E+00
   1.43597E+00  1.58988E+00  1.93710E+00  2.36719E+00  2.71845E+00  2.88038E+00  2.82089E+00  2.57455E+00  2.22972E+00  1.89057E+00
   1.62751E+00  1.44569E+00  1.31102E+00  1.23496E+00  1.25672E+00  1.37293E+00  1.53891E+00  1.67437E+00  1.72370E+00  1.67371E+00
   1.54593E+00  1.39243E+00  1.26243E+00  1.18498E+00  1.15440E+00  1.15312E+00  1.18952E+00  1.25210E+00  1.31630E+00  1.36682E+00
   1.39645E+00  1.39685E+00  1.36603E+00  1.31112E+00  1.24267E+00  1.17106E+00  1.10365E+00  1.04360E+00  9.94423E-01  9.61526E-01
   9.51470E-01  9.28887E-01  8.53310E-01  7.16980E-01  5.50010E-01  3.94700E-01  2.87310E-01  2.45009E-01  2.66035E-01  3.26699E-01
   4.04510E-01  4.78546E-01  5.27810E-01  5.49078E-01  5.45526E-01  5.47273E-01  7.24299E-01  1.37090E+00  2.27456E+00  3.07796E+00
   3.55514E+00  3.60824E+00  3.29045E+00  2.75607E+00  2.17968E+00  1.68532E+00  1.29161E+00  9.44446E-01  6.20099E-01  3.65914E-01
   2.20185E-01  1.61763E-01  1.35044E-01  1.14189E-01  9.13595E-02  6.78159E-02  4.98054E-02  4.48670E-02  7.18544E-02  1.99998E-01
   7.57725E-01  2.01911E+00  3.49774E+00  4.68360E+00  5.28482E+00  5.22474E+00  4.64486E+00  3.82069E+00  3.00968E+00  2.32109E+00
   1.71258E+00  1.09417E+00  4.74454E-01 -1.72104E-02 -2.94691E-01 -3.83790E-01 -3.64342E-01 -3.01702E-01 -2.40229E-01 -2.01326E-01
  -1.86289E-01 -1.90569E-01 -2.10005E-01 -2.39208E-01 -2.76735E-01 -3.22833E-01 -3.75382E-01 -4.29154E-01 -4.79873E-01 -5.26203E-01
  -5.64975E-01 -5.94721E-01 -6.16106E-01 -6.32239E-01 -6.48376E-01 -6.66143E-01 -6.84894E-01 -7.04013E-01 -7.23423E-01 -7.43082E-01
  -7.62874E-01 -7.79795E-01 -7.92256E-01 -8.00679E-01 -8.06381E-01 -8.11192E-01 -8.16542E-01 -8.22638E-01 -8.29813E-01 -8.39548E-01
  -8.53785E-01 -8.73443E-01 -8.98057E-01 -9.25664E-01 -9.53944E-01 -9.81550E-01 -1.00850E+00 -1.03514E+00 -1.05907E+00 -1.08504E+00
  -1.11428E+00 -1.14351E+00 -1.16941E+00 -1.18336E+00 -1.17107E+00 -1.12522E+00 -1.05494E+00 -9.88597E-01 -9.52971E-01 -9.60596E-01
  -1.01374E+00 -1.11411E+00 -1.24798E+00 -1.36531E+00 -1.43272E+00 -1.44708E+00 -1.42138E+00 -1.37448E+00 -1.32493E+00 -1.28694E+00
  -1.26632E+00 -1.25888E+00 -1.25645E+00 -1.25691E+00 -1.26444E+00 -1.27983E+00 -1.29879E+00 -1.31770E+00 -1.33875E+00 -1.36425E+00
  -1.39246E+00 -1.42086E+00 -1.44754E+00 -1.47070E+00 -1.48963E+00 -1.50434E+00 -1.51501E+00 -1.52069E+00 -1.52022E+00 -1.51499E+00
  -1.50993E+00 -1.50991E+00 -1.51790E+00 -1.53515E+00 -1.56577E+00 -1.62301E+00 -1.70571E+00 -1.78557E+00 -1.83770E+00 -1.84870E+00
  -1.81368E+00 -1.73222E+00 -1.62590E+00 -1.55084E+00 -1.54385E+00 -1.60467E+00 -1.71148E+00 -1.83794E+00 -1.96029E+00 -2.04552E+00
  -2.07023E+00 -2.04447E+00 -1.99336E+00 -1.93735E+00 -1.88840E+00 -1.85622E+00 -1.84937E+00 -1.86612E+00 -1.89588E+00 -1.92480E+00
  -1.93873E+00 -1.93879E+00 -1.93338E+00 -1.92940E+00 -1.93342E+00 -1.94787E+00 -1.96889E+00 -1.99015E+00 -2.00690E+00 -2.01907E+00
  -2.03006E+00 -2.04214E+00 -2.05431E+00 -2.06565E+00 -2.07720E+00 -2.08915E+00 -2.10038E+00 -2.10943E+00 -2.11498E+00 -2.11648E+00
  -2.11368E+00 -2.10717E+00 -2.09916E+00 -2.09153E+00 -2.08464E+00 -2.07867E+00 -2.07342E+00 -2.06793E+00 -2.06099E+00 -2.05088E+00
  -2.03582E+00 -2.01494E+00 -1.98786E+00 -1.95410E+00 -1.91328E+00 -1.86522E+00 -1.80919E+00 -1.74390E+00 -1.66820E+00 -1.58085E+00
  -1.48057E+00 -1.36600E+00 -1.23573E+00 -1.08859E+00 -9.23712E-01 -7.40680E-01 -5.39601E-01 -3.21203E-01 -8.68963E-02  1.61225E-01
   4.20368E-01  6.87068E-01  9.57349E-01  1.22690E+00  1.49122E+00  1.74581E+00  1.98647E+00  2.20959E+00  2.41242E+00  2.59333E+00
   2.75199E+00  2.88958E+00  3.00883E+00  3.11405E+00  3.21113E+00  3.30747E+00  3.41185E+00  3.53466E+00  3.68854E+00  3.89100E+00
   4.17454E+00  4.58434E+00  5.02599E+00  5.36382E+00  5.57152E+00  5.68402E+00  5.76597E+00  5.88152E+00  6.07049E+00  6.44010E+00
   7.08136E+00  7.92119E+00  8.84966E+00  9.77519E+00  1.06181E+01  1.13183E+01  1.18540E+01  1.22506E+01  1.25491E+01  1.27636E+01
   1.28858E+01  1.29208E+01  1.28899E+01  1.28112E+01  1.26950E+01  1.25470E+01  1.23803E+01  1.22088E+01  1.20420E+01  1.18903E+01
   1.17508E+01  1.16016E+01  1.14147E+01  1.11634E+01  1.08261E+01  1.03895E+01  9.85235E+00  9.22707E+00  8.53646E+00  7.80777E+00
   7.06984E+00  6.35192E+00  5.68055E+00  5.07543E+00  4.54750E+00  4.10054E+00  3.73344E+00  3.44184E+00  3.21975E+00  3.06101E+00
   2.96024E+00  2.91342E+00  2.91789E+00  2.97227E+00  3.07608E+00  3.22931E+00  3.43197E+00  3.68368E+00  3.98326E+00  4.32845E+00
   4.71560E+00  5.13954E+00  5.59346E+00  6.06892E+00  6.55595E+00  7.04333E+00  7.51882E+00  7.96967E+00  8.38303E+00  8.74655E+00
   9.04888E+00  9.28021E+00  9.43270E+00  9.50090E+00  9.48191E+00  9.37552E+00  9.18414E+00  8.91260E+00  8.56787E+00  8.15854E+00
   7.69445E+00  7.18611E+00  6.64422E+00  6.07922E+00  5.50090E+00  4.91810E+00  4.33851E+00  3.76857E+00  3.21345E+00  2.67712E+00
   2.16244E+00  1.67130E+00  1.20482E+00  7.63489E-01  3.47311E-01 -4.40480E-02 -4.11157E-01 -7.54745E-01 -1.07564E+00 -1.37473E+00
  -1.65294E+00 -1.91122E+00 -2.15057E+00 -2.37199E+00 -2.57650E+00 -2.76515E+00 -2.93898E+00 -3.09906E+00 -3.24642E+00 -3.38209E+00
  -3.50706E+00 -3.62229E+00 -3.72869E+00 -3.82710E+00 -3.91830E+00 -4.00303E+00 -4.08195E+00 -4.15565E+00 -4.22468E+00 -4.28952E+00
  -4.35059E+00 -4.40829E+00 -4.46295E+00 -4.51487E+00 -4.56431E+00 -4.61152E+00 -4.65669E+00 -4.70002E+00 -4.74166E+00 -4.78176E+00
  -4.82045E+00 -4.85784E+00 -4.89405E+00 -4.92915E+00 -4.96324E+00 -4.99639E+00 -5.02867E+00 -5.06013E+00 -5.09085E+00 -5.12086E+00
  -5.15022E+00 -5.17896E+00 -5.20713E+00 -5.23476E+00 -5.26188E+00 -5.28853E+00 -5.31474E+00 -5.34052E+00 -5.36590E+00 -5.39091E+00
  -5.41557E+00 -5.43989E+00 -5.46390E+00 -5.48761E+00 -5.51102E+00 -5.53417E+00 -5.55707E+00 -5.57972E+00 -5.60213E+00 -5.62433E+00
  -5.64631E+00 -5.66809E+00 -5.68968E+00 -5.71109E+00 -5.73232E+00 -5.75338E+00 -5.77428E+00 -5.79503E+00 -5.81564E+00 -5.83610E+00
  -5.85642E+00 -5.87661E+00 -5.89668E+00 -5.91663E+00 -5.93646E+00 -5.95618E+00 -5.97578E+00 -5.99528E+00
 NY background values follow
     1.757E+00    1.741E+00    1.725E+00    1.709E+00    1.693E+00    1.677E+00    1.661E+00    1.645E+00    1.629E+00    1.613E+00
     1.597E+00    1.581E+00    1.565E+00    1.549E+00    1.533E+00    1.517E+00    1.501E+00    1.485E+00    1.469E+00    1.453E+00
     1.437E+00    1.421E+00    1.405E+00    1.389E+00    1.373E+00    1.357E+00    1.341E+00    1.325E+00    1.309E+00    1.293E+00
     1.277E+00    1.261E+00    1.245E+00    1.229E+00    1.213E+00    1.197E+00    1.181E+00    1.165E+00    1.149E+00    1.133E+00
     1.117E+00    1.101E+00    1.085E+00    1.069E+00    1.053E+00    1.037E+00    1.021E+00    1.005E+00    9.889E-01    9.729E-01
     9.569E-01    9.409E-01    9.248E-01    9.088E-01    8.928E-01    8.768E-01    8.608E-01    8.448E-01    8.288E-01    8.128E-01
     7.968E-01    7.808E-01    7.648E-01    7.488E-01    7.328E-01    7.168E-01    7.008E-01    6.848E-01    6.688E-01    6.528E-01
     6.368E-01    6.208E-01    6.047E-01    5.887E-01    5.727E-01    5.567E-01    5.407E-01    5.247E-01    5.087E-01    4.927E-01
     4.767E-01    4.607E-01    4.447E-01    4.287E-01    4.127E-01    3.967E-01    3.807E-01    3.647E-01    3.487E-01    3.327E-01
     3.167E-01    3.007E-01    2.847E-01    2.687E-01    2.526E-01    2.366E-01    2.206E-01    2.046E-01    1.886E-01    1.726E-01
     1.566E-01    1.406E-01    1.246E-01    1.086E-01    9.261E-02    7.660E-02    6.060E-02    4.459E-02    2.859E-02    1.258E-02
    -3.419E-03   -1.942E-02   -3.543E-02   -5.143E-02   -6.744E-02   -8.344E-02   -9.944E-02   -1.154E-01   -1.315E-01   -1.475E-01
    -1.635E-01   -1.795E-01   -1.955E-01   -2.115E-01   -2.275E-01   -2.435E-01   -2.595E-01   -2.755E-01   -2.915E-01   -3.075E-01
    -3.235E-01   -3.395E-01   -3.555E-01   -3.715E-01   -3.875E-01   -4.035E-01   -4.195E-01   -4.355E-01   -4.515E-01   -4.675E-01
    -4.835E-01   -4.995E-01   -5.155E-01   -5.315E-01   -5.475E-01   -5.635E-01   -5.795E-01   -5.956E-01   -6.116E-01   -6.276E-01
    -6.436E-01   -6.596E-01   -6.756E-01   -6.916E-01   -7.076E-01   -7.236E-01   -7.396E-01   -7.556E-01   -7.716E-01   -7.876E-01
    -8.036E-01   -8.196E-01   -8.356E-01   -8.516E-01   -8.676E-01   -8.836E-01   -8.996E-01   -9.156E-01   -9.316E-01   -9.476E-01
    -9.636E-01   -9.796E-01   -9.956E-01   -1.012E+00   -1.028E+00   -1.044E+00   -1.060E+00   -1.076E+00   -1.092E+00   -1.108E+00
    -1.124E+00   -1.140E+00   -1.156E+00   -1.172E+00   -1.188E+00   -1.204E+00   -1.220E+00   -1.236E+00   -1.252E+00   -1.268E+00
    -1.284E+00   -1.300E+00   -1.316E+00   -1.332E+00   -1.348E+00   -1.364E+00   -1.380E+00   -1.396E+00   -1.412E+00   -1.428E+00
    -1.444E+00   -1.460E+00   -1.476E+00   -1.492E+00   -1.508E+00   -1.524E+00   -1.540E+00   -1.556E+00   -1.572E+00   -1.588E+00
    -1.604E+00   -1.620E+00   -1.636E+00   -1.652E+00   -1.668E+00   -1.684E+00   -1.700E+00   -1.716E+00   -1.732E+00   -1.748E+00
    -1.764E+00   -1.780E+00   -1.796E+00   -1.812E+00   -1.828E+00   -1.844E+00   -1.860E+00   -1.876E+00   -1.892E+00   -1.908E+00
    -1.924E+00   -1.940E+00   -1.956E+00   -1.972E+00   -1.988E+00   -2.004E+00   -2.020E+00   -2.036E+00   -2.052E+00   -2.068E+00
    -2.084E+00   -2.100E+00   -2.116E+00   -2.132E+00   -2.148E+00   -2.164E+00   -2.180E+00   -2.196E+00   -2.212E+00   -2.228E+00
    -2.244E+00   -2.260E+00   -2.276E+00   -2.292E+00   -2.308E+00   -2.324E+00   -2.340E+00   -2.356E+00   -2.372E+00   -2.388E+00
    -2.404E+00   -2.420E+00   -2.436E+00   -2.452E+00   -2.468E+00   -2.484E+00   -2.500E+00   -2.516E+00   -2.532E+00   -2.548E+00
    -2.564E+00   -2.580E+00   -2.596E+00   -2.612E+00   -2.628E+00   -2.644E+00   -2.660E+00   -2.676E+00   -2.692E+00   -2.708E+00
    -2.724E+00   -2.740E+00   -2.756E+00   -2.772E+00   -2.788E+00   -2.804E+00   -2.820E+00   -2.836E+00   -2.852E+00   -2.868E+00
    -2.884E+00   -2.900E+00   -2.916E+00   -2.932E+00   -2.948E+00   -2.964E+00   -2.980E+00   -2.996E+00   -3.012E+00   -3.028E+00
    -3.044E+00   -3.060E+00   -3.076E+00   -3.092E+00   -3.108E+00   -3.124E+00   -3.140E+00   -3.156E+00   -3.172E+00   -3.188E+00
    -3.204E+00   -3.220E+00   -3.236E+00   -3.252E+00   -3.268E+00   -3.284E+00   -3.300E+00   -3.316E+00   -3.332E+00   -3.348E+00
    -3.364E+00   -3.380E+00   -3.396E+00   -3.412E+00   -3.428E+00   -3.444E+00   -3.460E+00   -3.476E+00   -3.492E+00   -3.508E+00
    -3.524E+00   -3.540E+00   -3.556E+00   -3.572E+00   -3.588E+00   -3.604E+00   -3.620E+00   -3.636E+00   -3.652E+00   -3.668E+00
    -3.684E+00   -3.700E+00   -3.716E+00   -3.732E+00   -3.748E+00   -3.764E+00   -3.780E+00   -3.795E+00   -3.811E+00   -3.827E+00
    -3.843E+00   -3.859E+00   -3.875E+00   -3.891E+00   -3.907E+00   -3.923E+00   -3.939E+00   -3.955E+00   -3.971E+00   -3.987E+00
    -4.003E+00   -4.019E+00   -4.035E+00   -4.051E+00   -4.067E+00   -4.083E+00   -4.099E+00   -4.115E+00   -4.131E+00   -4.147E+00
    -4.163E+00   -4.179E+00   -4.195E+00   -4.211E+00   -4.227E+00   -4.243E+00   -4.259E+00   -4.275E+00   -4.291E+00   -4.307E+00
    -4.323E+00   -4.339E+00   -4.355E+00   -4.371E+00   -4.387E+00   -4.403E+00   -4.419E+00   -4.435E+00   -4.451E+00   -4.467E+00
    -4.483E+00   -4.499E+00   -4.515E+00   -4.531E+00   -4.547E+00   -4.563E+00   -4.579E+00   -4.595E+00   -4.611E+00   -4.627E+00
    -4.643E+00   -4.659E+00   -4.675E+00   -4.691E+00   -4.707E+00   -4.723E+00   -4.739E+00   -4.755E+00   -4.771E+00   -4.787E+00
    -4.803E+00   -4.819E+00   -4.835E+00   -4.851E+00   -4.867E+00   -4.883E+00   -4.899E+00   -4.915E+00   -4.931E+00   -4.947E+00
    -4.963E+00   -4.979E+00   -4.995E+00   -5.011E+00   -5.027E+00   -5.043E+00   -5.059E+00   -5.075E+00   -5.091E+00   -5.107E+00
    -5.123E+00   -5.139E+00   -5.155E+00   -5.171E+00   -5.187E+00   -5.203E+00   -5.219E+00   -5.235E+00   -5.251E+00   -5.267E+00
    -5.283E+00   -5.299E+00   -5.315E+00   -5.331E+00   -5.347E+00   -5.363E+00   -5.379E+00   -5.395E+00   -5.411E+00   -5.427E+00
    -5.443E+00   -5.459E+00   -5.475E+00   -5.491E+00   -5.507E+00   -5.523E+00   -5.539E+00   -5.555E+00   -5.571E+00   -5.587E+00
    -5.603E+00   -5.619E+00   -5.635E+00   -5.651E+00   -5.667E+00   -5.683E+00   -5.699E+00   -5.715E+00   -5.731E+00   -5.747E+00
    -5.763E+00   -5.779E+00   -5.795E+00   -5.811E+00   -5.827E+00   -5.843E+00   -5.859E+00   -5.875E+00   -5.891E+00   -5.907E+00
    -5.923E+00   -5.939E+00   -5.955E+00   -5.971E+00   -5.987E+00   -6.003E+00   -6.019E+00   -6.035E+00   -6.051E+00   -6.067E+00
    -6.083E+00   -6.099E+00   -6.115E+00   -6.131E+00   -6.147E+00   -6.163E+00   -6.179E+00   -6.195E+00
 Ala      Conc. = 7.23E+01
