 LCModel (Version 6.3-1L) Copyright: S.W. Provencher.          Ref.: Magn. Reson. Med. 30:672-679 (1993).                
 Slice#2 Row#5 Col#7  PD_24_press_1_raw_act
 36 lines in following concentration table = NCONC+1
    Conc.  %SD /Cr+PCr  Metabolite                                         
  197.097  69%   0.113 Ala                                                 
    0.000 999%   0.000 Asp                                                 
  919.123  28%   0.528 Cr                                                  
  820.628  31%   0.472 PCr                                                 
    0.000 999%   0.000 GABA                                                
    0.000 999%   0.000 Glc                                                 
 1.11E+03  25%   0.640 Gln                                                 
 1.77E+03  17%   1.018 Glu                                                 
  894.049   3%   0.514 GPC                                                 
    0.000 999%   0.000 PCh                                                 
  639.613  13%   0.368 GSH                                                 
 2.19E+03  13%   1.258 Ins                                                 
  452.068  33%   0.260 Lac                                                 
 2.27E+03   5%   1.303 NAA                                                 
  124.237 101% 7.1E-02 NAAG                                                
  145.193  21% 8.3E-02 Scyllo                                              
    0.000 999%   0.000 Tau                                                 
    0.000 999%   0.000 -CrCH2                                              
  894.049   3%   0.514 GPC+PCh                                             
 2.39E+03   4%   1.375 NAA+NAAG                                            
 1.74E+03   4%   1.000 Cr+PCr                                              
 2.88E+03  16%   1.657 Glu+Gln                                             
 1.61E+03  45%   0.923 Lip13a                                              
    0.000 999%   0.000 Lip13b                                              
  215.613 136%   0.124 Lip09                                               
 2.03E+03  18%   1.166 MM09                                                
  203.095  92%   0.117 Lip20                                               
 4.17E+03  12%   2.398 MM20                                                
  708.172  38%   0.407 MM12                                                
 3.86E+03  17%   2.220 MM14                                                
 1.74E+03  22%   1.002 MM17                                                
 1.61E+03  45%   0.923 Lip13a+Lip13b                                       
 6.18E+03   9%   3.550 MM14+Lip13a+Lip13b+MM12                             
 2.24E+03  11%   1.290 MM09+Lip09                                          
 4.38E+03  11%   2.515 MM20+Lip20                                          
   6 lines in following misc. output table
  FWHM = 0.054 ppm    S/N =  11                                            
  Data shift =-0.015 ppm                                                   
  Ph: -26 deg      -3.0 deg/ppm                                            
  alphaB,S = 1.5E+00,   1.9E+02                                            
   14 spline knots.   Ns = 7(1)                                            
  (11) 4 infls.   ( 6) 1 extrs.                                            
  498 points on ppm-axis = NY
      4.000000     3.992357     3.984714     3.977070     3.969427     3.961784     3.954141     3.946497     3.938854     3.931211
      3.923568     3.915925     3.908281     3.900638     3.892995     3.885352     3.877708     3.870065     3.862422     3.854779
      3.847136     3.839492     3.831849     3.824206     3.816563     3.808919     3.801276     3.793633     3.785990     3.778347
      3.770703     3.763060     3.755417     3.747774     3.740130     3.732487     3.724844     3.717201     3.709558     3.701914
      3.694271     3.686628     3.678985     3.671341     3.663698     3.656055     3.648412     3.640769     3.633125     3.625482
      3.617839     3.610196     3.602552     3.594909     3.587266     3.579623     3.571980     3.564336     3.556693     3.549050
      3.541407     3.533763     3.526120     3.518477     3.510834     3.503191     3.495547     3.487904     3.480261     3.472618
      3.464974     3.457331     3.449688     3.442045     3.434402     3.426758     3.419115     3.411472     3.403829     3.396185
      3.388542     3.380899     3.373256     3.365613     3.357969     3.350326     3.342683     3.335040     3.327396     3.319753
      3.312110     3.304467     3.296824     3.289180     3.281537     3.273894     3.266251     3.258607     3.250964     3.243321
      3.235678     3.228034     3.220391     3.212748     3.205105     3.197462     3.189818     3.182175     3.174532     3.166889
      3.159245     3.151602     3.143959     3.136316     3.128673     3.121029     3.113386     3.105743     3.098100     3.090456
      3.082813     3.075170     3.067527     3.059884     3.052240     3.044597     3.036954     3.029311     3.021667     3.014024
      3.006381     2.998738     2.991095     2.983451     2.975808     2.968165     2.960522     2.952878     2.945235     2.937592
      2.929949     2.922306     2.914662     2.907019     2.899376     2.891733     2.884089     2.876446     2.868803     2.861160
      2.853517     2.845873     2.838230     2.830587     2.822944     2.815300     2.807657     2.800014     2.792371     2.784728
      2.777084     2.769441     2.761798     2.754155     2.746511     2.738868     2.731225     2.723582     2.715939     2.708295
      2.700652     2.693009     2.685366     2.677722     2.670079     2.662436     2.654793     2.647150     2.639506     2.631863
      2.624220     2.616577     2.608933     2.601290     2.593647     2.586004     2.578361     2.570717     2.563074     2.555431
      2.547788     2.540144     2.532501     2.524858     2.517215     2.509572     2.501928     2.494285     2.486642     2.478999
      2.471355     2.463712     2.456069     2.448426     2.440783     2.433139     2.425496     2.417853     2.410210     2.402566
      2.394923     2.387280     2.379637     2.371994     2.364350     2.356707     2.349064     2.341421     2.333777     2.326134
      2.318491     2.310848     2.303205     2.295561     2.287918     2.280275     2.272632     2.264988     2.257345     2.249702
      2.242059     2.234416     2.226772     2.219129     2.211486     2.203843     2.196199     2.188556     2.180913     2.173270
      2.165627     2.157983     2.150340     2.142697     2.135054     2.127410     2.119767     2.112124     2.104481     2.096838
      2.089194     2.081551     2.073908     2.066265     2.058621     2.050978     2.043335     2.035692     2.028049     2.020405
      2.012762     2.005119     1.997476     1.989833     1.982190     1.974546     1.966903     1.959260     1.951617     1.943974
      1.936331     1.928688     1.921045     1.913402     1.905759     1.898115     1.890472     1.882829     1.875186     1.867543
      1.859900     1.852257     1.844614     1.836971     1.829327     1.821684     1.814041     1.806398     1.798755     1.791112
      1.783469     1.775826     1.768183     1.760540     1.752896     1.745253     1.737610     1.729967     1.722324     1.714681
      1.707038     1.699395     1.691752     1.684108     1.676465     1.668822     1.661179     1.653536     1.645893     1.638250
      1.630607     1.622964     1.615321     1.607677     1.600034     1.592391     1.584748     1.577105     1.569462     1.561819
      1.554176     1.546533     1.538890     1.531246     1.523603     1.515960     1.508317     1.500674     1.493031     1.485388
      1.477745     1.470102     1.462458     1.454815     1.447172     1.439529     1.431886     1.424243     1.416600     1.408957
      1.401314     1.393671     1.386027     1.378384     1.370741     1.363098     1.355455     1.347812     1.340169     1.332526
      1.324883     1.317240     1.309596     1.301953     1.294310     1.286667     1.279024     1.271381     1.263738     1.256095
      1.248452     1.240808     1.233165     1.225522     1.217879     1.210236     1.202593     1.194950     1.187307     1.179664
      1.172021     1.164377     1.156734     1.149091     1.141448     1.133805     1.126162     1.118519     1.110876     1.103233
      1.095590     1.087946     1.080303     1.072660     1.065017     1.057374     1.049731     1.042088     1.034445     1.026802
      1.019158     1.011515     1.003872     0.996229     0.988586     0.980943     0.973300     0.965657     0.958014     0.950371
      0.942727     0.935084     0.927441     0.919798     0.912155     0.904512     0.896869     0.889226     0.881583     0.873940
      0.866296     0.858653     0.851010     0.843367     0.835724     0.828081     0.820438     0.812795     0.805152     0.797508
      0.789865     0.782222     0.774579     0.766936     0.759293     0.751650     0.744007     0.736364     0.728721     0.721077
      0.713434     0.705791     0.698148     0.690505     0.682862     0.675219     0.667576     0.659933     0.652290     0.644646
      0.637003     0.629360     0.621717     0.614074     0.606431     0.598788     0.591145     0.583502     0.575858     0.568215
      0.560572     0.552929     0.545286     0.537643     0.530000     0.522357     0.514714     0.507071     0.499427     0.491784
      0.484141     0.476498     0.468855     0.461212     0.453569     0.445925     0.438282     0.430639     0.422996     0.415353
      0.407710     0.400067     0.392424     0.384780     0.377137     0.369494     0.361851     0.354208     0.346565     0.338922
      0.331278     0.323635     0.315992     0.308349     0.300706     0.293063     0.285420     0.277777     0.270133     0.262490
      0.254847     0.247204     0.239561     0.231918     0.224275     0.216631     0.208988     0.201345
 NY phased data points follow
   1.31837E+01  7.49008E+00  1.04706E+01  1.25632E+01  1.90845E+01  1.32996E+01  3.64654E+01  3.61812E+01  4.75663E+01  5.30956E+01
   6.12581E+01  5.62304E+01  5.54099E+01  5.45695E+01  4.64035E+01  3.69236E+01  3.25104E+01  3.76344E+01  3.17226E+01  2.53200E+01
   2.46158E+01  2.13322E+01  2.19781E+01  1.77737E+01  2.10343E+01  2.09584E+01  1.52415E+01  2.46552E+01  2.58471E+01  2.68000E+01
   3.00450E+01  3.54809E+01  2.58465E+01  2.51297E+01  2.40576E+01  2.11443E+01  2.01592E+01  1.97193E+01  1.91542E+01  1.84471E+01
   2.32668E+01  1.77036E+01  2.38979E+01  2.26761E+01  2.84885E+01  2.92951E+01  2.86126E+01  3.03106E+01  3.38181E+01  2.97203E+01
   2.65773E+01  2.23472E+01  2.06560E+01  1.92111E+01  1.93826E+01  1.86858E+01  1.88756E+01  2.19531E+01  1.82612E+01  1.62313E+01
   2.08083E+01  1.57549E+01  1.21227E+01  1.19859E+01  7.41925E+00  5.19286E+00  4.42110E+00  8.80398E-01  6.64043E+00  4.46288E+00
   8.68552E+00  9.19175E+00  1.27563E+01  8.47817E+00  1.12894E+01  1.21167E+01  8.48846E+00  1.05608E+01  1.39582E+01  1.57434E+01
   5.28667E+00  4.93008E+00  5.74447E+00  1.12006E+01  1.02110E+01  1.14192E+01  1.03947E+01  8.94399E+00  1.08840E+01  1.24886E+01
   1.26675E+01  7.84552E+00  1.43198E+01  1.01199E+01  8.95191E+00  3.65889E+00  2.39576E+00  9.87500E+00  1.62273E+01  2.90158E+01
   5.24667E+01  7.02833E+01  8.44461E+01  8.81755E+01  7.99976E+01  6.92397E+01  5.65751E+01  4.21292E+01  4.09710E+01  3.84349E+01
   2.78646E+01  2.22382E+01  1.67677E+01  8.88061E+00  1.83193E+01  1.48923E+01  9.63420E+00  3.78716E+00  6.73505E+00  5.16952E+00
   6.46198E+00  2.18715E-01  9.83754E+00  1.86002E+01  3.44819E+01  4.44938E+01  5.43235E+01  6.28267E+01  5.69304E+01  5.06817E+01
   4.76541E+01  3.85438E+01  3.48435E+01  2.39692E+01  2.25943E+01  1.11003E+01  1.08862E+01  3.08868E+00  1.17616E+01  6.66131E+00
   1.46818E+01  4.76494E+00  5.26942E+00  5.67258E+00  2.91525E+00  1.15594E+01  5.09251E+00  9.95775E-01  5.63256E+00 -1.02131E+00
   3.24362E+00  2.95472E+00 -1.11460E+00  1.32088E+00  7.96914E+00  3.80519E+00  2.74717E+00  1.46416E+00  2.78704E+00  1.68411E+00
  -2.97347E+00 -2.52145E+00 -3.17495E+00 -5.26895E-01 -6.86420E-01 -1.13930E+00 -3.34234E+00  4.31328E-01  3.62580E+00 -2.19449E+00
  -6.10977E+00 -8.97236E+00 -1.31693E+00 -5.59170E+00 -5.81199E+00 -1.28086E+01 -1.06576E+01 -3.77232E+00 -9.67161E+00 -6.00761E+00
  -9.25891E+00 -7.88226E+00 -1.17496E+01 -1.03618E+01 -1.23141E+01 -1.04620E+01 -7.41795E+00 -7.99109E+00 -2.85721E-01 -6.78079E-02
   2.31117E+00  2.69256E+00  4.19638E+00  2.26488E-01  9.80306E+00  6.16103E+00  2.85099E+00  7.44075E-01  5.53822E-01  1.51274E+00
   2.90296E+00  4.27859E+00  4.28637E+00  5.25142E+00  8.42828E+00  5.72206E+00  9.38043E+00  3.90888E+00 -1.79368E+00 -1.02190E+00
  -2.39793E+00 -2.44223E+00  3.50394E+00  8.28269E+00  1.50684E+01  1.69927E+01  1.17347E+01  1.40150E+01  7.65470E+00 -1.86934E-01
   3.50557E+00  4.03737E+00  5.30859E+00  2.14448E+00  9.34902E+00  6.80926E+00  7.93314E+00  9.26110E+00  1.41359E+01  1.58850E+01
   1.50869E+01  1.01641E+01  5.17029E+00  1.28470E+01  3.44811E+00  1.02882E+01  6.16537E+00  1.54288E+01  1.04001E+01  4.72297E+00
   8.31292E+00  2.54579E+00  5.49757E+00  1.14203E+01  8.16676E+00  1.11196E+01  1.29788E+01  1.32411E+01  1.89431E+01  1.68462E+01
   1.82674E+01  2.00778E+01  2.14949E+01  1.87187E+01  2.78562E+01  3.07311E+01  3.63644E+01  5.30885E+01  6.78638E+01  8.00163E+01
   8.79445E+01  8.93166E+01  7.67604E+01  6.28402E+01  5.13407E+01  4.43327E+01  3.39739E+01  2.22737E+01  1.79011E+01  1.27928E+01
   1.87038E+01  1.51345E+01  9.41451E+00  9.16266E+00  1.19761E+01  6.62192E+00  1.05146E+01  5.49391E+00  9.06057E+00  7.05316E+00
   5.53939E+00  6.86458E+00  3.86916E+00  4.05620E+00  3.73104E+00  5.97377E+00  2.07229E+00  9.50043E+00  3.48369E+00  2.22998E+00
   1.33215E+00  2.86118E+00  6.71161E-01  5.20964E+00  5.78073E+00  4.03842E+00  6.25828E+00  6.52319E+00  7.12476E+00  9.10188E+00
   9.41288E+00  4.01680E+00  4.55031E+00  9.80624E+00  7.64508E+00  7.09657E+00  1.57145E+01  1.47945E+01  1.34910E+01  1.99118E+01
   1.30279E+01  1.50683E+01  1.45070E+01  9.28830E+00  9.35288E+00  1.18798E+01  1.43601E+01  1.59945E+01  1.47918E+01  1.71772E+01
   1.88337E+01  1.33521E+01  1.39484E+01  2.09423E+01  1.66018E+01  1.98934E+01  2.02602E+01  1.48722E+01  1.49121E+01  1.40788E+01
   1.28383E+01  2.17222E+01  1.95948E+01  1.72618E+01  2.26542E+01  2.24661E+01  2.44472E+01  1.74871E+01  2.26986E+01  1.82402E+01
   1.94085E+01  2.13272E+01  2.35042E+01  1.88091E+01  2.47015E+01  2.24068E+01  2.66999E+01  1.97718E+01  2.19432E+01  1.60600E+01
   1.05143E+01  1.02864E+01  1.10881E+01  1.02813E+01  1.51767E+01  9.28331E+00  1.82875E+01  1.24467E+01  1.35998E+01  1.31658E+01
   1.74082E+01  6.30503E+00  1.05007E+01  1.52140E+01  8.50791E+00  6.84282E+00  6.68891E+00  7.67960E+00  3.65208E+00  8.33170E+00
   1.02145E+01  6.46824E+00  6.81899E+00  1.02888E+01  2.94225E+00  2.94843E+00  1.24980E+01  4.32428E+00  4.39094E+00  4.83760E+00
   8.74486E-01  7.16633E+00  7.38059E+00  8.89131E+00  3.39222E+00  2.00412E+00  3.57466E+00  5.40843E+00  9.82485E+00  4.81186E+00
   8.54405E+00  5.45309E+00  4.54670E-01  5.06786E+00  6.69457E+00  4.95023E+00  5.74848E+00  5.61278E+00  8.57534E+00  1.35815E+01
   5.84600E+00  1.22399E+01  1.29231E+01  1.21773E+01  1.40998E+01  1.38305E+01  1.18960E+01  1.50397E+01  1.43843E+01  9.32558E+00
   1.21337E+01  8.56452E+00  1.00831E+01  1.10625E-01  8.26450E+00  1.17318E+01  5.74783E+00  3.41917E+00  3.34546E+00  6.53304E+00
   7.39002E+00 -1.56462E+00  4.44618E+00  4.87845E+00  4.68898E+00 -2.58630E+00 -8.96227E-01 -3.20227E+00 -1.57637E+00 -4.52904E+00
  -1.90140E+00 -5.16794E+00 -4.73567E+00 -4.05679E+00 -4.45235E+00 -7.61747E+00 -2.89354E+00 -5.39264E+00 -1.32479E+00 -7.07586E+00
  -2.51760E+00 -2.87875E+00 -8.30796E-01 -2.27071E+00 -6.69482E+00  4.37791E-01 -2.81821E+00 -7.90640E-01  3.25274E+00 -5.77923E+00
  -5.89650E+00 -1.53260E+00  2.26963E+00 -4.54076E+00 -4.32869E+00  1.70103E-01 -8.06009E+00 -4.44397E+00 -5.98805E+00 -6.88032E+00
  -3.07359E+00 -1.31805E-01 -2.80072E+00 -7.47298E+00 -8.88946E+00 -1.01886E+01 -4.84094E+00 -2.64593E+00 -5.93967E+00 -5.06073E+00
  -5.91754E+00 -3.32550E+00  9.19804E-01  1.43043E+00 -5.87389E+00 -2.35339E+00 -7.70640E+00 -6.18759E+00 -2.71589E+00 -3.00763E+00
  -8.67673E+00 -6.06066E+00 -8.66162E+00 -5.49818E+00 -8.72941E+00 -6.18924E+00 -4.02548E+00 -8.21865E+00 -1.39351E+00 -5.98257E+00
  -6.05430E+00 -1.96491E+00 -5.55830E+00 -1.28294E+00 -2.89425E+00 -7.56937E+00 -3.45944E+00 -7.54494E+00
 NY points of the fit to the data follow
   1.68698E+01  1.60342E+01  1.58171E+01  1.62192E+01  1.78452E+01  2.14090E+01  2.72087E+01  3.47486E+01  4.27298E+01  4.94238E+01
   5.33418E+01  5.38546E+01  5.13932E+01  4.71597E+01  4.24721E+01  3.81195E+01  3.41638E+01  3.02657E+01  2.63875E+01  2.31659E+01
   2.09523E+01  1.97199E+01  1.86418E+01  1.74551E+01  1.66054E+01  1.67341E+01  1.83093E+01  2.12652E+01  2.50046E+01  2.85725E+01
   3.09809E+01  3.16509E+01  3.06104E+01  2.84241E+01  2.59120E+01  2.34966E+01  2.12016E+01  1.89969E+01  1.72453E+01  1.63716E+01
   1.61605E+01  1.68993E+01  1.89332E+01  2.21146E+01  2.57069E+01  2.87169E+01  3.03388E+01  3.01195E+01  2.82480E+01  2.54884E+01
   2.25318E+01  1.99447E+01  1.79781E+01  1.64526E+01  1.51395E+01  1.43998E+01  1.47111E+01  1.57065E+01  1.65766E+01  1.68516E+01
   1.64305E+01  1.53952E+01  1.40424E+01  1.27568E+01  1.18484E+01  1.14199E+01  1.13444E+01  1.15003E+01  1.18674E+01  1.23312E+01
   1.27609E+01  1.30195E+01  1.30060E+01  1.27343E+01  1.22796E+01  1.17566E+01  1.12724E+01  1.08311E+01  1.04138E+01  1.00038E+01
   9.75337E+00  9.86697E+00  1.03351E+01  1.09903E+01  1.15419E+01  1.17129E+01  1.13624E+01  1.05599E+01  9.57230E+00  8.73067E+00
   8.26518E+00  8.15699E+00  8.14453E+00  7.91689E+00  7.37212E+00  6.80974E+00  7.23239E+00  1.04883E+01  1.88893E+01  3.31308E+01
   5.12268E+01  6.89638E+01  8.17496E+01  8.64698E+01  8.27720E+01  7.31401E+01  6.13384E+01  5.04764E+01  4.15043E+01  3.32976E+01
   2.45229E+01  1.57374E+01  1.00232E+01  8.15035E+00  7.44271E+00  7.02978E+00  6.73399E+00  6.51717E+00  6.39981E+00  6.46713E+00
   7.03604E+00  9.12187E+00  1.42974E+01  2.32881E+01  3.52008E+01  4.75607E+01  5.73534E+01  6.22712E+01  6.16170E+01  5.64964E+01
   4.91273E+01  4.15842E+01  3.47616E+01  2.82201E+01  2.12204E+01  1.40830E+01  8.85775E+00  7.09172E+00  7.03119E+00  7.41328E+00
   7.74153E+00  7.84237E+00  7.79213E+00  7.67395E+00  7.45041E+00  7.13830E+00  6.74288E+00  6.22871E+00  5.63329E+00  5.00923E+00
   4.43863E+00  3.99224E+00  3.65491E+00  3.42769E+00  3.28826E+00  3.15724E+00  2.92562E+00  2.53407E+00  2.02095E+00  1.51850E+00
   1.19106E+00  1.11870E+00  1.24120E+00  1.38034E+00  1.34895E+00  1.06481E+00  5.74740E-01  3.44207E-02 -3.99287E-01 -7.06296E-01
  -1.05535E+00 -1.60937E+00 -2.32362E+00 -3.03222E+00 -3.51022E+00 -3.69531E+00 -3.70537E+00 -3.63915E+00 -3.59682E+00 -3.64831E+00
  -3.79412E+00 -3.98469E+00 -4.14066E+00 -4.16278E+00 -3.95970E+00 -3.44190E+00 -2.51097E+00 -1.07751E+00  6.41372E-01  2.19443E+00
   3.11319E+00  3.17955E+00  2.54897E+00  1.55295E+00  5.42663E-01 -1.60763E-01 -3.79067E-01 -1.29924E-02  1.02763E+00  2.64159E+00
   4.57667E+00  6.45357E+00  7.81977E+00  8.25108E+00  7.47079E+00  5.45368E+00  2.57893E+00 -4.69604E-01 -2.85951E+00 -3.90590E+00
  -3.21647E+00 -9.49209E-01  2.23933E+00  5.51944E+00  8.11598E+00  9.40949E+00  9.07144E+00  7.22853E+00  4.32232E+00  1.08261E+00
  -1.36332E+00 -2.37926E+00 -2.03658E+00 -6.19767E-01  1.55198E+00  4.02763E+00  6.02676E+00  7.28421E+00  8.01925E+00  8.50755E+00
   8.80548E+00  8.87538E+00  8.95573E+00  9.38785E+00  1.01672E+01  1.10400E+01  1.17899E+01  1.21831E+01  1.20988E+01  1.15714E+01
   1.07679E+01  1.00570E+01  9.84161E+00  1.02027E+01  1.08950E+01  1.16094E+01  1.23186E+01  1.30161E+01  1.37064E+01  1.45886E+01
   1.59011E+01  1.75331E+01  1.91873E+01  2.10281E+01  2.41322E+01  3.04554E+01  4.11119E+01  5.53259E+01  7.01596E+01  8.17607E+01
   8.69851E+01  8.46907E+01  7.62673E+01  6.48390E+01  5.36387E+01  4.43319E+01  3.62960E+01  2.80928E+01  1.95630E+01  1.28138E+01
   9.90783E+00  8.79304E+00  8.16465E+00  7.74511E+00  7.35876E+00  6.93545E+00  6.49460E+00  6.05285E+00  5.63688E+00  5.26127E+00
   4.91855E+00  4.60206E+00  4.33180E+00  4.12248E+00  3.96363E+00  3.84405E+00  3.76419E+00  3.73350E+00  3.75792E+00  3.83248E+00
   3.95511E+00  4.13103E+00  4.36107E+00  4.64269E+00  4.97257E+00  5.35028E+00  5.77523E+00  6.24468E+00  6.75518E+00  7.30113E+00
   7.87404E+00  8.46544E+00  9.06437E+00  9.65838E+00  1.02357E+01  1.07862E+01  1.13011E+01  1.17729E+01  1.21947E+01  1.25635E+01
   1.28793E+01  1.31449E+01  1.33668E+01  1.35534E+01  1.37156E+01  1.38663E+01  1.40202E+01  1.41944E+01  1.44084E+01  1.46885E+01
   1.50747E+01  1.56055E+01  1.62484E+01  1.68873E+01  1.73680E+01  1.75710E+01  1.74659E+01  1.71194E+01  1.66793E+01  1.63577E+01
   1.63539E+01  1.67593E+01  1.75216E+01  1.84920E+01  1.95139E+01  2.04753E+01  2.12888E+01  2.18087E+01  2.20442E+01  2.21452E+01
   2.22453E+01  2.24340E+01  2.27187E+01  2.29553E+01  2.29666E+01  2.24698E+01  2.11998E+01  1.91440E+01  1.65471E+01  1.38911E+01
   1.17745E+01  1.06243E+01  1.05135E+01  1.11577E+01  1.21345E+01  1.31089E+01  1.39275E+01  1.44601E+01  1.44638E+01  1.41004E+01
   1.36131E+01  1.30587E+01  1.23377E+01  1.13690E+01  1.03334E+01  9.51474E+00  8.84009E+00  8.23540E+00  7.67491E+00  7.14855E+00
   6.65242E+00  6.18560E+00  5.74880E+00  5.34371E+00  4.97262E+00  4.63804E+00  4.34253E+00  4.08864E+00  3.87891E+00  3.71590E+00
   3.60210E+00  3.53985E+00  3.53130E+00  3.57846E+00  3.68313E+00  3.84684E+00  4.07061E+00  4.35478E+00  4.69883E+00  5.10124E+00
   5.55930E+00  6.06881E+00  6.62388E+00  7.21677E+00  7.83791E+00  8.47593E+00  9.11784E+00  9.74920E+00  1.03544E+01  1.09175E+01
   1.14222E+01  1.18534E+01  1.21970E+01  1.24411E+01  1.25760E+01  1.25954E+01  1.24962E+01  1.22789E+01  1.19475E+01  1.15091E+01
   1.09739E+01  1.03544E+01  9.66478E+00  8.92054E+00  8.13746E+00  7.33103E+00  6.51595E+00  5.70569E+00  4.91208E+00  4.14507E+00
   3.41256E+00  2.72043E+00  2.07271E+00  1.47170E+00  9.18251E-01  4.11887E-01 -4.89132E-02 -4.66430E-01 -8.43420E-01 -1.18292E+00
  -1.48814E+00 -1.76235E+00 -2.00874E+00 -2.23036E+00 -2.42997E+00 -2.61009E+00 -2.77299E+00 -2.92078E+00 -3.05531E+00 -3.17820E+00
  -3.29079E+00 -3.39429E+00 -3.48975E+00 -3.57814E+00 -3.66029E+00 -3.73687E+00 -3.80846E+00 -3.87555E+00 -3.93863E+00 -3.99814E+00
  -4.05444E+00 -4.10781E+00 -4.15847E+00 -4.20667E+00 -4.25265E+00 -4.29664E+00 -4.33880E+00 -4.37923E+00 -4.41806E+00 -4.45542E+00
  -4.49146E+00 -4.52629E+00 -4.55997E+00 -4.59255E+00 -4.62409E+00 -4.65471E+00 -4.68449E+00 -4.71348E+00 -4.74169E+00 -4.76916E+00
  -4.79592E+00 -4.82206E+00 -4.84763E+00 -4.87263E+00 -4.89707E+00 -4.92096E+00 -4.94435E+00 -4.96731E+00 -4.98985E+00 -5.01195E+00
  -5.03362E+00 -5.05486E+00 -5.07574E+00 -5.09629E+00 -5.11649E+00 -5.13632E+00 -5.15577E+00 -5.17488E+00 -5.19368E+00 -5.21218E+00
  -5.23036E+00 -5.24817E+00 -5.26562E+00 -5.28274E+00 -5.29954E+00 -5.31600E+00 -5.33206E+00 -5.34769E+00
 NY background values follow
     1.255E+01    1.247E+01    1.238E+01    1.230E+01    1.221E+01    1.213E+01    1.204E+01    1.196E+01    1.187E+01    1.179E+01
     1.170E+01    1.162E+01    1.153E+01    1.145E+01    1.136E+01    1.128E+01    1.119E+01    1.111E+01    1.102E+01    1.094E+01
     1.085E+01    1.077E+01    1.068E+01    1.060E+01    1.051E+01    1.043E+01    1.034E+01    1.026E+01    1.017E+01    1.009E+01
     1.000E+01    9.919E+00    9.834E+00    9.749E+00    9.665E+00    9.580E+00    9.495E+00    9.411E+00    9.326E+00    9.242E+00
     9.157E+00    9.073E+00    8.989E+00    8.905E+00    8.821E+00    8.737E+00    8.653E+00    8.569E+00    8.485E+00    8.402E+00
     8.318E+00    8.235E+00    8.151E+00    8.068E+00    7.985E+00    7.902E+00    7.820E+00    7.737E+00    7.654E+00    7.572E+00
     7.490E+00    7.408E+00    7.326E+00    7.244E+00    7.163E+00    7.082E+00    7.001E+00    6.920E+00    6.839E+00    6.758E+00
     6.678E+00    6.598E+00    6.518E+00    6.439E+00    6.359E+00    6.280E+00    6.201E+00    6.123E+00    6.044E+00    5.966E+00
     5.889E+00    5.811E+00    5.734E+00    5.657E+00    5.580E+00    5.504E+00    5.428E+00    5.352E+00    5.277E+00    5.201E+00
     5.127E+00    5.052E+00    4.978E+00    4.904E+00    4.831E+00    4.758E+00    4.685E+00    4.613E+00    4.541E+00    4.469E+00
     4.398E+00    4.327E+00    4.256E+00    4.186E+00    4.116E+00    4.047E+00    3.978E+00    3.909E+00    3.841E+00    3.773E+00
     3.706E+00    3.639E+00    3.572E+00    3.506E+00    3.440E+00    3.375E+00    3.310E+00    3.245E+00    3.181E+00    3.117E+00
     3.054E+00    2.991E+00    2.929E+00    2.867E+00    2.806E+00    2.745E+00    2.684E+00    2.624E+00    2.565E+00    2.506E+00
     2.447E+00    2.389E+00    2.331E+00    2.274E+00    2.217E+00    2.161E+00    2.105E+00    2.050E+00    1.995E+00    1.941E+00
     1.888E+00    1.834E+00    1.782E+00    1.729E+00    1.678E+00    1.626E+00    1.576E+00    1.525E+00    1.476E+00    1.426E+00
     1.378E+00    1.329E+00    1.281E+00    1.234E+00    1.187E+00    1.141E+00    1.095E+00    1.050E+00    1.005E+00    9.604E-01
     9.165E-01    8.730E-01    8.300E-01    7.876E-01    7.456E-01    7.040E-01    6.630E-01    6.224E-01    5.823E-01    5.427E-01
     5.036E-01    4.649E-01    4.268E-01    3.891E-01    3.518E-01    3.151E-01    2.788E-01    2.430E-01    2.076E-01    1.727E-01
     1.383E-01    1.044E-01    7.092E-02    3.791E-02    5.355E-03   -2.676E-02   -5.844E-02   -8.969E-02   -1.205E-01   -1.509E-01
    -1.810E-01   -2.106E-01   -2.398E-01   -2.686E-01   -2.971E-01   -3.252E-01   -3.530E-01   -3.804E-01   -4.074E-01   -4.341E-01
    -4.605E-01   -4.866E-01   -5.123E-01   -5.378E-01   -5.629E-01   -5.878E-01   -6.124E-01   -6.367E-01   -6.607E-01   -6.845E-01
    -7.080E-01   -7.313E-01   -7.543E-01   -7.772E-01   -7.998E-01   -8.221E-01   -8.443E-01   -8.663E-01   -8.881E-01   -9.097E-01
    -9.312E-01   -9.524E-01   -9.736E-01   -9.945E-01   -1.015E+00   -1.036E+00   -1.057E+00   -1.077E+00   -1.097E+00   -1.118E+00
    -1.138E+00   -1.158E+00   -1.177E+00   -1.197E+00   -1.217E+00   -1.236E+00   -1.256E+00   -1.275E+00   -1.294E+00   -1.313E+00
    -1.332E+00   -1.351E+00   -1.370E+00   -1.389E+00   -1.407E+00   -1.426E+00   -1.444E+00   -1.463E+00   -1.481E+00   -1.499E+00
    -1.517E+00   -1.535E+00   -1.553E+00   -1.571E+00   -1.589E+00   -1.607E+00   -1.624E+00   -1.642E+00   -1.659E+00   -1.677E+00
    -1.694E+00   -1.711E+00   -1.728E+00   -1.745E+00   -1.763E+00   -1.780E+00   -1.796E+00   -1.813E+00   -1.830E+00   -1.847E+00
    -1.864E+00   -1.880E+00   -1.897E+00   -1.913E+00   -1.930E+00   -1.946E+00   -1.963E+00   -1.979E+00   -1.996E+00   -2.012E+00
    -2.028E+00   -2.044E+00   -2.060E+00   -2.077E+00   -2.093E+00   -2.109E+00   -2.125E+00   -2.141E+00   -2.157E+00   -2.173E+00
    -2.188E+00   -2.204E+00   -2.220E+00   -2.236E+00   -2.252E+00   -2.267E+00   -2.283E+00   -2.299E+00   -2.314E+00   -2.330E+00
    -2.346E+00   -2.361E+00   -2.377E+00   -2.392E+00   -2.408E+00   -2.423E+00   -2.439E+00   -2.454E+00   -2.470E+00   -2.485E+00
    -2.501E+00   -2.516E+00   -2.532E+00   -2.547E+00   -2.562E+00   -2.578E+00   -2.593E+00   -2.609E+00   -2.624E+00   -2.639E+00
    -2.655E+00   -2.670E+00   -2.686E+00   -2.701E+00   -2.716E+00   -2.732E+00   -2.747E+00   -2.763E+00   -2.778E+00   -2.793E+00
    -2.809E+00   -2.824E+00   -2.839E+00   -2.855E+00   -2.870E+00   -2.885E+00   -2.901E+00   -2.916E+00   -2.932E+00   -2.947E+00
    -2.962E+00   -2.978E+00   -2.993E+00   -3.008E+00   -3.024E+00   -3.039E+00   -3.054E+00   -3.070E+00   -3.085E+00   -3.101E+00
    -3.116E+00   -3.131E+00   -3.147E+00   -3.162E+00   -3.177E+00   -3.193E+00   -3.208E+00   -3.224E+00   -3.239E+00   -3.254E+00
    -3.270E+00   -3.285E+00   -3.300E+00   -3.316E+00   -3.331E+00   -3.347E+00   -3.362E+00   -3.378E+00   -3.393E+00   -3.408E+00
    -3.424E+00   -3.439E+00   -3.455E+00   -3.470E+00   -3.485E+00   -3.501E+00   -3.516E+00   -3.531E+00   -3.547E+00   -3.562E+00
    -3.577E+00   -3.593E+00   -3.608E+00   -3.623E+00   -3.639E+00   -3.654E+00   -3.669E+00   -3.684E+00   -3.700E+00   -3.715E+00
    -3.730E+00   -3.745E+00   -3.760E+00   -3.775E+00   -3.790E+00   -3.805E+00   -3.820E+00   -3.835E+00   -3.850E+00   -3.865E+00
    -3.880E+00   -3.895E+00   -3.910E+00   -3.925E+00   -3.940E+00   -3.954E+00   -3.969E+00   -3.984E+00   -3.999E+00   -4.013E+00
    -4.028E+00   -4.042E+00   -4.057E+00   -4.071E+00   -4.086E+00   -4.100E+00   -4.115E+00   -4.129E+00   -4.143E+00   -4.158E+00
    -4.172E+00   -4.186E+00   -4.200E+00   -4.215E+00   -4.229E+00   -4.243E+00   -4.257E+00   -4.271E+00   -4.285E+00   -4.299E+00
    -4.313E+00   -4.327E+00   -4.341E+00   -4.355E+00   -4.369E+00   -4.383E+00   -4.397E+00   -4.411E+00   -4.425E+00   -4.439E+00
    -4.452E+00   -4.466E+00   -4.480E+00   -4.494E+00   -4.507E+00   -4.521E+00   -4.535E+00   -4.549E+00   -4.562E+00   -4.576E+00
    -4.590E+00   -4.603E+00   -4.617E+00   -4.630E+00   -4.644E+00   -4.658E+00   -4.671E+00   -4.685E+00   -4.698E+00   -4.712E+00
    -4.725E+00   -4.739E+00   -4.752E+00   -4.766E+00   -4.779E+00   -4.793E+00   -4.806E+00   -4.820E+00   -4.833E+00   -4.847E+00
    -4.860E+00   -4.873E+00   -4.887E+00   -4.900E+00   -4.914E+00   -4.927E+00   -4.940E+00   -4.954E+00   -4.967E+00   -4.981E+00
    -4.994E+00   -5.007E+00   -5.021E+00   -5.034E+00   -5.047E+00   -5.061E+00   -5.074E+00   -5.087E+00   -5.101E+00   -5.114E+00
    -5.127E+00   -5.141E+00   -5.154E+00   -5.167E+00   -5.181E+00   -5.194E+00   -5.207E+00   -5.221E+00
 Ala      Conc. = 1.97E+02
