 LCModel (Version 6.3-1L) Copyright: S.W. Provencher.          Ref.: Magn. Reson. Med. 30:672-679 (1993).                
 Slice#1 Row#3 Col#8  PD_24_press_1_raw_act
 36 lines in following concentration table = NCONC+1
    Conc.  %SD /Cr+PCr  Metabolite                                         
  185.216  95%   0.215 Ala                                                 
  103.539 169%   0.120 Asp                                                 
  636.140  34%   0.739 Cr                                                  
  224.345  96%   0.261 PCr                                                 
  102.565 110%   0.119 GABA                                                
  104.306 105%   0.121 Glc                                                 
 1.12E+03  29%   1.297 Gln                                                 
 1.73E+03  22%   2.011 Glu                                                 
  351.438   8%   0.408 GPC                                                 
    0.000 999%   0.000 PCh                                                 
  399.335  21%   0.464 GSH                                                 
 1.87E+03  15%   2.178 Ins                                                 
   58.056 346% 6.7E-02 Lac                                                 
 1.01E+03  11%   1.178 NAA                                                 
  302.997  38%   0.352 NAAG                                                
   68.624  37% 8.0E-02 Scyllo                                              
    0.000 999%   0.000 Tau                                                 
    0.000 999%   0.000 -CrCH2                                              
  351.438   8%   0.408 GPC+PCh                                             
 1.32E+03   7%   1.530 NAA+NAAG                                            
  860.485   8%   1.000 Cr+PCr                                              
 2.85E+03  20%   3.307 Glu+Gln                                             
 5.16E+03  15%   5.996 Lip13a                                              
  344.836  60%   0.401 Lip13b                                              
  622.822  64%   0.724 Lip09                                               
  533.474  69%   0.620 MM09                                                
 1.11E+03  30%   1.293 Lip20                                               
  571.042  82%   0.664 MM20                                                
  162.519 101%   0.189 MM12                                                
 1.30E+03  34%   1.515 MM14                                                
  914.155  26%   1.062 MM17                                                
 5.50E+03  14%   6.397 Lip13a+Lip13b                                       
 6.97E+03   7%   8.101 MM14+Lip13a+Lip13b+MM12                             
 1.16E+03  15%   1.344 MM09+Lip09                                          
 1.68E+03  23%   1.957 MM20+Lip20                                          
   6 lines in following misc. output table
  FWHM = 0.076 ppm    S/N =   6                                            
  Data shift =-0.031 ppm                                                   
  Ph: -26 deg      -4.2 deg/ppm                                            
  alphaB,S = 2.5E+00,   2.2E+01                                            
   14 spline knots.   Ns =11(1)                                            
  (20)11 infls.   (23) 9 extrs.                                            
  498 points on ppm-axis = NY
      4.000000     3.992357     3.984714     3.977070     3.969427     3.961784     3.954141     3.946497     3.938854     3.931211
      3.923568     3.915925     3.908281     3.900638     3.892995     3.885352     3.877708     3.870065     3.862422     3.854779
      3.847136     3.839492     3.831849     3.824206     3.816563     3.808919     3.801276     3.793633     3.785990     3.778347
      3.770703     3.763060     3.755417     3.747774     3.740130     3.732487     3.724844     3.717201     3.709558     3.701914
      3.694271     3.686628     3.678985     3.671341     3.663698     3.656055     3.648412     3.640769     3.633125     3.625482
      3.617839     3.610196     3.602552     3.594909     3.587266     3.579623     3.571980     3.564336     3.556693     3.549050
      3.541407     3.533763     3.526120     3.518477     3.510834     3.503191     3.495547     3.487904     3.480261     3.472618
      3.464974     3.457331     3.449688     3.442045     3.434402     3.426758     3.419115     3.411472     3.403829     3.396185
      3.388542     3.380899     3.373256     3.365613     3.357969     3.350326     3.342683     3.335040     3.327396     3.319753
      3.312110     3.304467     3.296824     3.289180     3.281537     3.273894     3.266251     3.258607     3.250964     3.243321
      3.235678     3.228034     3.220391     3.212748     3.205105     3.197462     3.189818     3.182175     3.174532     3.166889
      3.159245     3.151602     3.143959     3.136316     3.128673     3.121029     3.113386     3.105743     3.098100     3.090456
      3.082813     3.075170     3.067527     3.059884     3.052240     3.044597     3.036954     3.029311     3.021667     3.014024
      3.006381     2.998738     2.991095     2.983451     2.975808     2.968165     2.960522     2.952878     2.945235     2.937592
      2.929949     2.922306     2.914662     2.907019     2.899376     2.891733     2.884089     2.876446     2.868803     2.861160
      2.853517     2.845873     2.838230     2.830587     2.822944     2.815300     2.807657     2.800014     2.792371     2.784728
      2.777084     2.769441     2.761798     2.754155     2.746511     2.738868     2.731225     2.723582     2.715939     2.708295
      2.700652     2.693009     2.685366     2.677722     2.670079     2.662436     2.654793     2.647150     2.639506     2.631863
      2.624220     2.616577     2.608933     2.601290     2.593647     2.586004     2.578361     2.570717     2.563074     2.555431
      2.547788     2.540144     2.532501     2.524858     2.517215     2.509572     2.501928     2.494285     2.486642     2.478999
      2.471355     2.463712     2.456069     2.448426     2.440783     2.433139     2.425496     2.417853     2.410210     2.402566
      2.394923     2.387280     2.379637     2.371994     2.364350     2.356707     2.349064     2.341421     2.333777     2.326134
      2.318491     2.310848     2.303205     2.295561     2.287918     2.280275     2.272632     2.264988     2.257345     2.249702
      2.242059     2.234416     2.226772     2.219129     2.211486     2.203843     2.196199     2.188556     2.180913     2.173270
      2.165627     2.157983     2.150340     2.142697     2.135054     2.127410     2.119767     2.112124     2.104481     2.096838
      2.089194     2.081551     2.073908     2.066265     2.058621     2.050978     2.043335     2.035692     2.028049     2.020405
      2.012762     2.005119     1.997476     1.989833     1.982190     1.974546     1.966903     1.959260     1.951617     1.943974
      1.936331     1.928688     1.921045     1.913402     1.905759     1.898115     1.890472     1.882829     1.875186     1.867543
      1.859900     1.852257     1.844614     1.836971     1.829327     1.821684     1.814041     1.806398     1.798755     1.791112
      1.783469     1.775826     1.768183     1.760540     1.752896     1.745253     1.737610     1.729967     1.722324     1.714681
      1.707038     1.699395     1.691752     1.684108     1.676465     1.668822     1.661179     1.653536     1.645893     1.638250
      1.630607     1.622964     1.615321     1.607677     1.600034     1.592391     1.584748     1.577105     1.569462     1.561819
      1.554176     1.546533     1.538890     1.531246     1.523603     1.515960     1.508317     1.500674     1.493031     1.485388
      1.477745     1.470102     1.462458     1.454815     1.447172     1.439529     1.431886     1.424243     1.416600     1.408957
      1.401314     1.393671     1.386027     1.378384     1.370741     1.363098     1.355455     1.347812     1.340169     1.332526
      1.324883     1.317240     1.309596     1.301953     1.294310     1.286667     1.279024     1.271381     1.263738     1.256095
      1.248452     1.240808     1.233165     1.225522     1.217879     1.210236     1.202593     1.194950     1.187307     1.179664
      1.172021     1.164377     1.156734     1.149091     1.141448     1.133805     1.126162     1.118519     1.110876     1.103233
      1.095590     1.087946     1.080303     1.072660     1.065017     1.057374     1.049731     1.042088     1.034445     1.026802
      1.019158     1.011515     1.003872     0.996229     0.988586     0.980943     0.973300     0.965657     0.958014     0.950371
      0.942727     0.935084     0.927441     0.919798     0.912155     0.904512     0.896869     0.889226     0.881583     0.873940
      0.866296     0.858653     0.851010     0.843367     0.835724     0.828081     0.820438     0.812795     0.805152     0.797508
      0.789865     0.782222     0.774579     0.766936     0.759293     0.751650     0.744007     0.736364     0.728721     0.721077
      0.713434     0.705791     0.698148     0.690505     0.682862     0.675219     0.667576     0.659933     0.652290     0.644646
      0.637003     0.629360     0.621717     0.614074     0.606431     0.598788     0.591145     0.583502     0.575858     0.568215
      0.560572     0.552929     0.545286     0.537643     0.530000     0.522357     0.514714     0.507071     0.499427     0.491784
      0.484141     0.476498     0.468855     0.461212     0.453569     0.445925     0.438282     0.430639     0.422996     0.415353
      0.407710     0.400067     0.392424     0.384780     0.377137     0.369494     0.361851     0.354208     0.346565     0.338922
      0.331278     0.323635     0.315992     0.308349     0.300706     0.293063     0.285420     0.277777     0.270133     0.262490
      0.254847     0.247204     0.239561     0.231918     0.224275     0.216631     0.208988     0.201345
 NY phased data points follow
   1.99994E+01  2.00619E+01  1.85140E+01  2.74670E+01  1.91300E+01  2.13521E+01  1.51812E+01  2.25438E+01  2.16393E+01  2.41573E+01
   2.41853E+01  2.98343E+01  1.85007E+01  2.53299E+01  1.65869E+01  2.14328E+01  1.72556E+01  2.18667E+01  1.78628E+01  1.91727E+01
   1.94974E+01  1.98656E+01  2.06131E+01  1.39008E+01  1.76847E+01  1.79379E+01  1.47473E+01  1.75047E+01  1.50576E+01  1.68550E+01
   1.69149E+01  1.67284E+01  1.52198E+01  1.75127E+01  1.89225E+01  1.92365E+01  1.48753E+01  1.43085E+01  1.05301E+01  1.73931E+01
   1.12976E+01  1.68518E+01  1.52679E+01  1.58085E+01  1.60154E+01  1.97810E+01  1.34057E+01  2.02768E+01  1.54788E+01  1.68278E+01
   1.45709E+01  1.26710E+01  1.26702E+01  1.32621E+01  1.28597E+01  1.42062E+01  1.49235E+01  1.40298E+01  8.48997E+00  1.70540E+01
   7.54517E+00  1.15128E+01  1.02096E+01  1.14266E+01  7.33886E+00  7.75423E+00  5.02593E+00  5.03251E+00  2.64894E+00  3.18521E+00
   9.73800E+00  1.10496E+01  1.08346E+01  1.05343E+01  8.28573E+00  1.00395E+01  6.69803E+00  1.10343E+01  7.00661E+00  6.38614E+00
   5.68301E+00  8.91229E+00  8.77731E+00  7.69838E+00  7.88762E+00  6.29618E+00  9.83317E+00  9.34504E+00  6.29924E+00  8.22333E+00
   9.71907E+00  4.70331E+00  9.01781E+00  9.30050E+00  9.41572E+00  9.88723E+00  7.85559E+00  5.51982E+00  5.69309E+00  9.38529E+00
   1.80047E+01  2.35708E+01  2.73630E+01  3.23645E+01  2.15801E+01  2.05350E+01  1.56365E+01  1.34700E+01  1.06463E+01  1.66095E+01
   1.00702E+01  1.23612E+01  1.13389E+01  1.43703E+01  7.97139E+00  7.47280E+00  4.55845E+00  6.20660E+00  3.30955E+00  4.14649E+00
   1.59922E+00  5.21954E+00  5.60207E+00  6.41089E+00  1.07631E+01  2.16746E+01  2.12319E+01  2.38862E+01  2.26127E+01  1.73977E+01
   2.06151E+01  1.00510E+01  5.21048E+00  1.25071E+01  1.52406E+01  1.16466E+01  9.27785E+00  1.05727E+01  6.36331E+00  7.07807E+00
   5.55795E+00  6.27271E+00  4.28665E+00  5.26099E+00  4.22764E+00  3.42445E+00  6.25775E+00  2.35407E+00  2.57938E+00  1.82526E+00
   1.51180E+00 -1.06118E+00  6.55536E-01 -1.26238E+00  6.07896E-01  5.46426E+00  5.46600E+00  4.46560E+00  1.94952E+00  1.39506E+00
   1.45327E+00  1.98603E+00  2.43742E+00  4.16562E+00  1.75355E+00  2.32039E+00  4.50939E+00  8.55100E-01 -2.35014E+00  9.48753E-01
  -3.74740E+00 -1.93721E+00 -3.83093E+00  2.43349E+00 -2.52333E+00 -5.60829E-02 -2.67054E+00 -1.85893E+00 -8.77741E-01 -2.70105E+00
  -4.48519E+00  2.43012E+00 -1.05478E+00 -2.13754E+00  1.52469E-01 -2.45150E+00 -3.94493E+00 -4.54923E+00 -3.54934E+00 -2.15424E+00
  -1.36887E+00  1.49198E+00  1.63912E+00 -5.83036E-01 -4.93135E+00 -2.55179E+00  1.82975E+00 -1.06680E+00 -3.78050E+00 -4.68045E+00
  -4.77126E+00 -4.72362E+00 -4.83505E+00  8.65774E-01  2.34922E+00  1.36807E-01  2.53088E+00 -1.04844E+00 -4.31440E+00  2.69105E+00
   4.29976E-01  1.36315E+00 -5.36639E-01  1.94760E+00  1.29473E+00  7.46075E+00  5.62173E+00  7.29565E+00 -2.57297E+00  3.59106E-01
  -1.48997E+00 -2.01648E+00 -2.20326E+00  2.12347E+00 -1.46350E-01  1.92902E+00 -1.90493E+00  5.30595E+00  3.09153E+00  1.04814E+01
   3.47018E+00 -1.78799E+00  3.32028E+00  6.95815E+00  1.82239E+00  5.77571E+00  2.16779E+00  3.40014E+00  6.99130E+00  4.98642E+00
   4.78769E+00  5.20548E+00 -1.52420E+00  6.87424E+00  4.94031E+00  3.52218E+00 -5.39050E-02  7.43162E+00  6.14097E+00  1.17131E+01
   5.56072E+00  6.20427E+00  4.32648E+00  9.44780E+00  1.33589E+01  1.34182E+01  2.02494E+01  2.08603E+01  2.52736E+01  3.11159E+01
   3.42950E+01  3.44902E+01  2.22926E+01  2.46351E+01  2.25025E+01  1.96844E+01  2.21809E+01  1.93688E+01  1.57214E+01  1.18965E+01
   1.03353E+01  4.03050E+00  8.23766E+00  3.81013E+00  5.30457E+00  3.69936E+00 -8.07319E-01  7.32562E+00 -6.93857E-01 -2.74559E-01
  -5.83514E-01 -3.90723E+00  3.68354E+00  3.49111E+00 -1.52600E+00  4.23658E+00 -3.65462E+00 -1.60620E+00 -3.95854E-01  5.64653E-01
   4.21859E-01  5.62270E-01 -1.49218E+00 -2.55992E+00  4.39820E-01  2.03662E+00  5.33429E-01  6.26319E-01 -3.93154E+00 -1.59009E+00
   1.94672E+00  1.03254E+00  3.54127E+00  4.49472E+00  5.64460E+00  2.17666E+00  9.88875E+00  4.53989E+00  5.26380E+00  1.13727E+01
   6.75011E+00  5.37258E+00  8.74668E+00  7.41263E+00  6.66229E+00  1.01651E+01  4.38191E+00  8.28474E+00  1.21706E+01  7.40618E+00
   8.11909E+00  7.13024E+00  1.16314E+01  7.44133E+00  5.05373E+00  1.13150E+01  1.05252E+01  1.14417E+01  8.59051E+00  1.63013E+01
   7.42364E+00  9.36198E+00  1.05644E+01  9.26229E+00  8.13736E+00  1.42067E+01  9.08020E+00  6.18954E+00  1.50720E+01  1.18690E+01
   1.31090E+01  1.26825E+01  1.57694E+01  2.05496E+01  1.78278E+01  1.74103E+01  1.75268E+01  2.05227E+01  1.82892E+01  2.21465E+01
   2.22196E+01  2.29352E+01  2.59124E+01  2.36442E+01  2.35603E+01  2.27274E+01  2.45368E+01  2.49447E+01  2.18819E+01  1.97576E+01
   1.76714E+01  1.57967E+01  1.29461E+01  1.57270E+01  1.63790E+01  1.51168E+01  1.83010E+01  1.15651E+01  1.09836E+01  1.02076E+01
   8.85314E+00  9.83488E+00  5.64178E+00  8.69636E+00  8.66254E+00 -6.71852E-01  1.48518E+00  7.97563E+00 -6.11659E-01  4.32366E+00
   1.79707E+00  2.78335E+00  2.68242E+00  4.90651E+00  7.62808E+00  9.11256E-01  4.84362E-01  7.60146E-01  7.03741E+00  2.01225E-01
   3.75058E+00  6.68163E+00 -2.41621E+00  1.49229E+00  2.17676E+00  3.50885E+00  1.82934E+00  2.80963E+00  3.88963E+00  2.83031E+00
   4.84125E+00  5.00711E+00  7.99475E+00  7.57647E+00  4.09197E+00  9.33637E+00  1.02728E+01  3.33385E+00  5.54933E+00  3.00789E+00
   1.89124E+00  8.05856E+00  1.63633E-01  5.39764E+00  3.74399E-01  2.49186E+00  3.36254E+00  6.03551E+00 -4.40786E-01  4.43642E+00
   3.01212E+00  7.83245E-01 -4.16776E+00 -4.27229E+00  1.14036E+00 -1.06277E+00 -2.21957E+00 -6.41307E+00 -5.94006E+00 -3.31135E+00
  -5.32430E+00 -4.49942E+00 -4.01487E+00 -4.47331E+00 -3.23172E+00 -4.17153E+00 -6.65289E+00 -6.03803E+00 -5.88458E+00 -7.31508E+00
  -6.67506E+00 -7.22244E+00 -6.71172E-01 -3.52484E+00 -7.36099E+00 -4.86082E+00 -5.49334E+00 -7.37445E+00 -3.64108E+00 -2.20830E+00
  -9.13600E+00 -3.45549E+00 -7.11294E+00 -4.66865E+00 -8.56995E+00 -5.85497E+00 -1.72472E+00 -2.81299E+00 -6.17701E+00 -2.26950E-02
  -1.21919E+00 -5.38023E+00 -3.47072E+00  2.90358E-01 -4.39034E+00 -2.00114E+00 -5.74118E+00 -7.40682E+00 -3.95169E+00 -7.20601E+00
  -4.77723E+00 -6.04115E+00 -3.67771E-02  1.33203E-02 -2.19818E-01 -3.08474E+00 -5.12045E+00 -1.92178E+00 -3.53044E+00 -4.92098E+00
  -3.24833E+00 -6.24485E+00 -7.06805E+00 -3.14204E+00 -6.34103E+00 -3.50002E+00 -6.29326E+00 -5.74788E+00 -7.17970E-01 -3.42825E+00
  -2.31287E+00  1.62689E+00 -4.07728E+00 -2.84079E+00 -1.31691E+00 -4.94541E-01 -3.84506E+00 -2.80051E+00
 NY points of the fit to the data follow
   1.85686E+01  1.82297E+01  1.79538E+01  1.81338E+01  1.77672E+01  1.71586E+01  1.75471E+01  1.89495E+01  2.11343E+01  2.36358E+01
   2.52579E+01  2.55041E+01  2.38658E+01  2.17420E+01  2.05361E+01  1.94621E+01  1.85909E+01  1.88133E+01  1.91125E+01  1.87767E+01
   1.79064E+01  1.73617E+01  1.67379E+01  1.50252E+01  1.39142E+01  1.36319E+01  1.36313E+01  1.40937E+01  1.49257E+01  1.59573E+01
   1.70535E+01  1.78304E+01  1.88749E+01  1.90907E+01  1.78470E+01  1.68447E+01  1.63168E+01  1.51464E+01  1.41001E+01  1.41822E+01
   1.47405E+01  1.47184E+01  1.39510E+01  1.39476E+01  1.46063E+01  1.58567E+01  1.74426E+01  1.84846E+01  1.84764E+01  1.70622E+01
   1.50325E+01  1.35241E+01  1.25833E+01  1.22030E+01  1.24654E+01  1.26480E+01  1.26266E+01  1.27018E+01  1.28667E+01  1.25607E+01
   1.14481E+01  1.03289E+01  9.62434E+00  9.00049E+00  8.41380E+00  8.29115E+00  8.67044E+00  9.20038E+00  9.67177E+00  1.00832E+01
   1.04265E+01  1.03872E+01  9.98187E+00  9.38998E+00  8.92748E+00  8.94484E+00  8.91240E+00  8.79481E+00  8.88689E+00  8.86142E+00
   8.55344E+00  8.22536E+00  8.20072E+00  8.45288E+00  8.50506E+00  8.29830E+00  7.67576E+00  6.43564E+00  5.32618E+00  4.94469E+00
   5.07271E+00  6.21602E+00  8.39277E+00  9.22347E+00  9.75553E+00  9.91884E+00  9.28846E+00  8.32170E+00  7.94076E+00  1.07001E+01
   1.67375E+01  2.32811E+01  2.79642E+01  2.82257E+01  2.37290E+01  2.00329E+01  1.72312E+01  1.36837E+01  1.27734E+01  1.47686E+01
   1.50244E+01  1.35766E+01  1.28796E+01  1.22228E+01  9.06376E+00  5.12362E+00  5.12383E+00  5.43490E+00  5.63444E+00  6.14631E+00
   6.21873E+00  6.12608E+00  6.49736E+00  8.54315E+00  1.29062E+01  1.82265E+01  2.25413E+01  2.40425E+01  2.13388E+01  1.81807E+01
   1.64469E+01  1.40811E+01  1.25939E+01  1.36087E+01  1.36858E+01  1.18395E+01  1.04725E+01  9.94219E+00  8.30554E+00  5.14163E+00
   3.66130E+00  3.44939E+00  3.24785E+00  2.96684E+00  2.64405E+00  2.35329E+00  2.30669E+00  2.56783E+00  2.83477E+00  2.98028E+00
   2.97004E+00  2.81182E+00  2.57274E+00  2.24777E+00  2.06842E+00  2.04207E+00  2.07886E+00  1.98765E+00  1.72192E+00  1.37851E+00
   1.00630E+00  7.96052E-01  8.60716E-01  9.37683E-01  8.91996E-01  7.48690E-01  4.85655E-01  1.62344E-01 -1.63630E-01 -4.01691E-01
  -5.45965E-01 -6.05730E-01 -7.37187E-01 -9.89284E-01 -1.30336E+00 -1.56149E+00 -1.75888E+00 -1.77171E+00 -1.69788E+00 -1.77125E+00
  -1.82071E+00 -1.81292E+00 -1.83643E+00 -1.90828E+00 -1.97800E+00 -2.01114E+00 -1.95506E+00 -1.53662E+00 -6.79591E-01  9.64070E-02
   5.62677E-01  7.92462E-01  6.72766E-01  1.94018E-01 -4.07133E-01 -8.78411E-01 -1.22765E+00 -1.26986E+00 -6.51117E-01  1.85426E-01
   8.38788E-01  1.77346E+00  2.50767E+00  2.75879E+00  2.82141E+00  2.86463E+00  2.53785E+00  8.63818E-01 -1.08756E+00 -2.29147E+00
  -3.06525E+00 -2.88605E+00 -1.45729E+00  3.50122E-01  2.58424E+00  4.77255E+00  5.53122E+00  4.81539E+00  3.14224E+00  1.29824E+00
  -7.81882E-01 -2.78682E+00 -2.99703E+00 -1.27390E+00  7.03124E-01  2.51778E+00  3.84111E+00  4.53373E+00  4.07070E+00  2.23734E+00
   9.06793E-01  8.48050E-01  1.32841E+00  1.81780E+00  2.70950E+00  4.03722E+00  5.07502E+00  5.50348E+00  5.59197E+00  5.36945E+00
   4.89062E+00  4.06847E+00  2.95031E+00  2.35818E+00  2.89843E+00  4.04364E+00  4.55727E+00  5.06149E+00  6.20252E+00  7.52462E+00
   7.80719E+00  8.05956E+00  9.64269E+00  1.15734E+01  1.34877E+01  1.56313E+01  1.80912E+01  2.11192E+01  2.53425E+01  3.00456E+01
   3.26883E+01  3.06792E+01  2.71083E+01  2.49541E+01  2.17455E+01  1.82189E+01  1.78935E+01  1.83352E+01  1.58997E+01  1.30836E+01
   1.19023E+01  1.03539E+01  6.13972E+00  2.56015E+00  1.65050E+00  1.35860E+00  9.98335E-01  6.15887E-01  3.78426E-01  1.44824E-01
  -1.01790E-01 -1.92874E-01 -1.76933E-01 -1.53081E-01 -1.27388E-01 -7.95813E-02 -8.05305E-02 -1.78307E-01 -2.87870E-01 -3.07162E-01
  -2.53107E-01 -1.70842E-01 -4.28489E-02  1.40273E-01  3.48568E-01  5.65266E-01  7.96921E-01  1.05134E+00  1.34285E+00  1.68661E+00
   2.07689E+00  2.50472E+00  2.96470E+00  3.45129E+00  3.93724E+00  4.41298E+00  4.88491E+00  5.34774E+00  5.78633E+00  6.19095E+00
   6.56093E+00  6.89462E+00  7.18054E+00  7.41759E+00  7.61633E+00  7.79312E+00  7.97439E+00  8.06248E+00  8.04555E+00  8.07271E+00
   8.07319E+00  8.06144E+00  8.12519E+00  8.33021E+00  8.76499E+00  9.28426E+00  9.51561E+00  9.46224E+00  9.11952E+00  8.73622E+00
   8.61176E+00  8.54157E+00  8.70696E+00  9.45693E+00  1.04833E+01  1.14420E+01  1.22761E+01  1.27789E+01  1.31036E+01  1.33080E+01
   1.35164E+01  1.41084E+01  1.50370E+01  1.60053E+01  1.69544E+01  1.79762E+01  1.90321E+01  1.98424E+01  2.03119E+01  2.08797E+01
   2.15813E+01  2.22597E+01  2.29128E+01  2.35443E+01  2.39695E+01  2.40421E+01  2.37150E+01  2.30472E+01  2.21144E+01  2.09248E+01
   1.96573E+01  1.84890E+01  1.73552E+01  1.61957E+01  1.50546E+01  1.39926E+01  1.29736E+01  1.19103E+01  1.08710E+01  9.91610E+00
   9.02308E+00  8.18182E+00  7.38974E+00  6.64683E+00  5.95411E+00  5.31293E+00  4.72459E+00  4.19006E+00  3.70985E+00  3.28412E+00
   2.91284E+00  2.59592E+00  2.33327E+00  2.12473E+00  1.97008E+00  1.86906E+00  1.82141E+00  1.82678E+00  1.88451E+00  1.99336E+00
   2.15139E+00  2.35579E+00  2.60279E+00  2.88748E+00  3.20360E+00  3.54344E+00  3.89803E+00  4.25725E+00  4.61020E+00  4.94541E+00
   5.25121E+00  5.51616E+00  5.72972E+00  5.88273E+00  5.96786E+00  5.97994E+00  5.91613E+00  5.77610E+00  5.56213E+00  5.27896E+00
   4.93346E+00  4.53413E+00  4.09072E+00  3.61368E+00  3.11379E+00  2.60164E+00  2.08716E+00  1.57920E+00  1.08534E+00  6.11812E-01
   1.63471E-01 -2.56197E-01 -6.45085E-01 -1.00231E+00 -1.32799E+00 -1.62300E+00 -1.88875E+00 -2.12707E+00 -2.34016E+00 -2.53037E+00
  -2.70005E+00 -2.85141E+00 -2.98650E+00 -3.10726E+00 -3.21553E+00 -3.31293E+00 -3.40091E+00 -3.48062E+00 -3.55307E+00 -3.61920E+00
  -3.67985E+00 -3.73573E+00 -3.78739E+00 -3.83526E+00 -3.87975E+00 -3.92124E+00 -3.96012E+00 -3.99666E+00 -4.03106E+00 -4.06347E+00
  -4.09406E+00 -4.12305E+00 -4.15061E+00 -4.17686E+00 -4.20182E+00 -4.22559E+00 -4.24826E+00 -4.26997E+00 -4.29082E+00 -4.31085E+00
  -4.33004E+00 -4.34845E+00 -4.36616E+00 -4.38328E+00 -4.39981E+00 -4.41576E+00 -4.43112E+00 -4.44594E+00 -4.46032E+00 -4.47430E+00
  -4.48789E+00 -4.50104E+00 -4.51376E+00 -4.52611E+00 -4.53817E+00 -4.54994E+00 -4.56141E+00 -4.57254E+00 -4.58336E+00 -4.59395E+00
  -4.60435E+00 -4.61454E+00 -4.62448E+00 -4.63416E+00 -4.64363E+00 -4.65295E+00 -4.66215E+00 -4.67117E+00 -4.68000E+00 -4.68864E+00
  -4.69715E+00 -4.70558E+00 -4.71392E+00 -4.72212E+00 -4.73015E+00 -4.73806E+00 -4.74591E+00 -4.75372E+00
 NY background values follow
     7.739E+00    7.687E+00    7.634E+00    7.582E+00    7.529E+00    7.477E+00    7.424E+00    7.372E+00    7.319E+00    7.267E+00
     7.214E+00    7.162E+00    7.109E+00    7.057E+00    7.004E+00    6.952E+00    6.899E+00    6.846E+00    6.794E+00    6.741E+00
     6.689E+00    6.637E+00    6.584E+00    6.532E+00    6.479E+00    6.427E+00    6.374E+00    6.322E+00    6.270E+00    6.217E+00
     6.165E+00    6.113E+00    6.060E+00    6.008E+00    5.956E+00    5.904E+00    5.852E+00    5.800E+00    5.748E+00    5.696E+00
     5.644E+00    5.592E+00    5.540E+00    5.488E+00    5.437E+00    5.385E+00    5.333E+00    5.282E+00    5.230E+00    5.179E+00
     5.127E+00    5.076E+00    5.024E+00    4.973E+00    4.922E+00    4.871E+00    4.820E+00    4.769E+00    4.718E+00    4.667E+00
     4.616E+00    4.566E+00    4.515E+00    4.465E+00    4.414E+00    4.364E+00    4.314E+00    4.263E+00    4.213E+00    4.163E+00
     4.113E+00    4.064E+00    4.014E+00    3.964E+00    3.915E+00    3.865E+00    3.816E+00    3.767E+00    3.718E+00    3.669E+00
     3.620E+00    3.571E+00    3.522E+00    3.474E+00    3.425E+00    3.377E+00    3.329E+00    3.281E+00    3.233E+00    3.185E+00
     3.137E+00    3.090E+00    3.042E+00    2.995E+00    2.948E+00    2.901E+00    2.854E+00    2.807E+00    2.760E+00    2.714E+00
     2.667E+00    2.621E+00    2.575E+00    2.529E+00    2.483E+00    2.437E+00    2.391E+00    2.346E+00    2.301E+00    2.255E+00
     2.210E+00    2.165E+00    2.120E+00    2.076E+00    2.031E+00    1.987E+00    1.943E+00    1.899E+00    1.855E+00    1.811E+00
     1.767E+00    1.724E+00    1.680E+00    1.637E+00    1.594E+00    1.551E+00    1.508E+00    1.465E+00    1.423E+00    1.380E+00
     1.338E+00    1.296E+00    1.254E+00    1.212E+00    1.170E+00    1.129E+00    1.088E+00    1.046E+00    1.005E+00    9.643E-01
     9.235E-01    8.829E-01    8.425E-01    8.021E-01    7.620E-01    7.219E-01    6.821E-01    6.424E-01    6.028E-01    5.634E-01
     5.242E-01    4.851E-01    4.462E-01    4.074E-01    3.688E-01    3.303E-01    2.920E-01    2.539E-01    2.159E-01    1.781E-01
     1.404E-01    1.029E-01    6.559E-02    2.842E-02   -8.589E-03   -4.544E-02   -8.212E-02   -1.186E-01   -1.550E-01   -1.912E-01
    -2.272E-01   -2.631E-01   -2.987E-01   -3.343E-01   -3.696E-01   -4.048E-01   -4.398E-01   -4.747E-01   -5.093E-01   -5.438E-01
    -5.782E-01   -6.123E-01   -6.463E-01   -6.801E-01   -7.138E-01   -7.473E-01   -7.806E-01   -8.137E-01   -8.467E-01   -8.795E-01
    -9.121E-01   -9.446E-01   -9.769E-01   -1.009E+00   -1.041E+00   -1.073E+00   -1.104E+00   -1.136E+00   -1.167E+00   -1.198E+00
    -1.229E+00   -1.260E+00   -1.291E+00   -1.321E+00   -1.351E+00   -1.382E+00   -1.412E+00   -1.441E+00   -1.471E+00   -1.501E+00
    -1.530E+00   -1.559E+00   -1.588E+00   -1.617E+00   -1.646E+00   -1.674E+00   -1.702E+00   -1.731E+00   -1.759E+00   -1.787E+00
    -1.814E+00   -1.842E+00   -1.869E+00   -1.897E+00   -1.924E+00   -1.951E+00   -1.978E+00   -2.004E+00   -2.031E+00   -2.057E+00
    -2.083E+00   -2.109E+00   -2.135E+00   -2.161E+00   -2.187E+00   -2.212E+00   -2.238E+00   -2.263E+00   -2.288E+00   -2.313E+00
    -2.337E+00   -2.362E+00   -2.386E+00   -2.411E+00   -2.435E+00   -2.459E+00   -2.483E+00   -2.507E+00   -2.530E+00   -2.554E+00
    -2.577E+00   -2.600E+00   -2.623E+00   -2.646E+00   -2.669E+00   -2.692E+00   -2.714E+00   -2.737E+00   -2.759E+00   -2.781E+00
    -2.803E+00   -2.825E+00   -2.847E+00   -2.869E+00   -2.891E+00   -2.912E+00   -2.933E+00   -2.955E+00   -2.976E+00   -2.997E+00
    -3.017E+00   -3.038E+00   -3.059E+00   -3.079E+00   -3.100E+00   -3.120E+00   -3.140E+00   -3.160E+00   -3.180E+00   -3.200E+00
    -3.220E+00   -3.239E+00   -3.259E+00   -3.278E+00   -3.298E+00   -3.317E+00   -3.336E+00   -3.355E+00   -3.374E+00   -3.392E+00
    -3.411E+00   -3.430E+00   -3.448E+00   -3.466E+00   -3.485E+00   -3.503E+00   -3.521E+00   -3.539E+00   -3.556E+00   -3.574E+00
    -3.592E+00   -3.609E+00   -3.627E+00   -3.644E+00   -3.661E+00   -3.678E+00   -3.695E+00   -3.712E+00   -3.729E+00   -3.746E+00
    -3.762E+00   -3.779E+00   -3.795E+00   -3.811E+00   -3.828E+00   -3.844E+00   -3.860E+00   -3.876E+00   -3.892E+00   -3.907E+00
    -3.923E+00   -3.939E+00   -3.954E+00   -3.969E+00   -3.985E+00   -4.000E+00   -4.015E+00   -4.030E+00   -4.045E+00   -4.060E+00
    -4.075E+00   -4.089E+00   -4.104E+00   -4.118E+00   -4.133E+00   -4.147E+00   -4.161E+00   -4.175E+00   -4.189E+00   -4.203E+00
    -4.217E+00   -4.231E+00   -4.244E+00   -4.258E+00   -4.271E+00   -4.285E+00   -4.298E+00   -4.311E+00   -4.324E+00   -4.337E+00
    -4.350E+00   -4.363E+00   -4.376E+00   -4.388E+00   -4.401E+00   -4.413E+00   -4.426E+00   -4.438E+00   -4.450E+00   -4.462E+00
    -4.474E+00   -4.486E+00   -4.498E+00   -4.510E+00   -4.521E+00   -4.533E+00   -4.545E+00   -4.556E+00   -4.567E+00   -4.578E+00
    -4.590E+00   -4.601E+00   -4.612E+00   -4.622E+00   -4.633E+00   -4.644E+00   -4.655E+00   -4.665E+00   -4.675E+00   -4.686E+00
    -4.696E+00   -4.706E+00   -4.716E+00   -4.726E+00   -4.736E+00   -4.746E+00   -4.755E+00   -4.765E+00   -4.774E+00   -4.784E+00
    -4.793E+00   -4.802E+00   -4.812E+00   -4.821E+00   -4.829E+00   -4.838E+00   -4.847E+00   -4.856E+00   -4.864E+00   -4.873E+00
    -4.881E+00   -4.889E+00   -4.898E+00   -4.906E+00   -4.914E+00   -4.921E+00   -4.929E+00   -4.937E+00   -4.945E+00   -4.952E+00
    -4.959E+00   -4.967E+00   -4.974E+00   -4.981E+00   -4.988E+00   -4.995E+00   -5.002E+00   -5.009E+00   -5.015E+00   -5.022E+00
    -5.028E+00   -5.035E+00   -5.041E+00   -5.047E+00   -5.054E+00   -5.060E+00   -5.066E+00   -5.071E+00   -5.077E+00   -5.083E+00
    -5.089E+00   -5.094E+00   -5.100E+00   -5.105E+00   -5.110E+00   -5.116E+00   -5.121E+00   -5.126E+00   -5.131E+00   -5.136E+00
    -5.140E+00   -5.145E+00   -5.150E+00   -5.154E+00   -5.159E+00   -5.163E+00   -5.168E+00   -5.172E+00   -5.176E+00   -5.181E+00
    -5.185E+00   -5.189E+00   -5.193E+00   -5.196E+00   -5.200E+00   -5.204E+00   -5.208E+00   -5.211E+00   -5.215E+00   -5.218E+00
    -5.222E+00   -5.225E+00   -5.229E+00   -5.232E+00   -5.235E+00   -5.238E+00   -5.241E+00   -5.244E+00   -5.248E+00   -5.251E+00
    -5.254E+00   -5.256E+00   -5.259E+00   -5.262E+00   -5.265E+00   -5.268E+00   -5.271E+00   -5.273E+00   -5.276E+00   -5.279E+00
    -5.281E+00   -5.284E+00   -5.287E+00   -5.289E+00   -5.292E+00   -5.295E+00   -5.297E+00   -5.300E+00   -5.302E+00   -5.305E+00
    -5.308E+00   -5.310E+00   -5.313E+00   -5.315E+00   -5.318E+00   -5.320E+00   -5.323E+00   -5.326E+00
 Ala      Conc. = 1.85E+02
