 LCModel (Version 6.3-1L) Copyright: S.W. Provencher.          Ref.: Magn. Reson. Med. 30:672-679 (1993).                
 Slice#1 Row#3 Col#2  PD_24_press_1_raw_act
 36 lines in following concentration table = NCONC+1
    Conc.  %SD /Cr+PCr  Metabolite                                         
  278.233  44%   2.365 Ala                                                 
   18.025  33%   0.153 Asp                                                 
    0.000 999%   0.000 Cr                                                  
  117.653  35%   1.000 PCr                                                 
   10.874  33% 9.2E-02 GABA                                                
   10.896  33% 9.3E-02 Glc                                                 
  220.561  86%   1.875 Gln                                                 
  421.526  50%   3.583 Glu                                                 
   46.862  34%   0.398 GPC                                                 
    0.000 999%   0.000 PCh                                                 
    0.000 999%   0.000 GSH                                                 
  570.438  32%   4.848 Ins                                                 
   25.947 395%   0.221 Lac                                                 
  103.875  40%   0.883 NAA                                                 
    0.000 999%   0.000 NAAG                                                
    3.669  33% 3.1E-02 Scyllo                                              
   18.134  33%   0.154 Tau                                                 
   11.318  51% 9.6E-02 -CrCH2                                              
   46.862  34%   0.398 GPC+PCh                                             
  103.875  40%   0.883 NAA+NAAG                                            
  117.653  35%   1.000 Cr+PCr                                              
  642.087  49%   5.457 Glu+Gln                                             
    0.000 999%   0.000 Lip13a                                              
    0.000 999%   0.000 Lip13b                                              
    0.262 999% 2.2E-03 Lip09                                               
  620.467  16%   5.274 MM09                                                
    0.000 999%   0.000 Lip20                                               
    0.000 999%   0.000 MM20                                                
  260.917  28%   2.218 MM12                                                
  505.851  31%   4.300 MM14                                                
  701.260  20%   5.960 MM17                                                
    0.000 999%   0.000 Lip13a+Lip13b                                       
  766.768  23%   6.517 MM14+Lip13a+Lip13b+MM12                             
  620.729  16%   5.276 MM09+Lip09                                          
    0.000 999%   0.000 MM20+Lip20                                          
   6 lines in following misc. output table
  FWHM = 0.084 ppm    S/N =   1                                            
  Data shift =-0.023 ppm                                                   
  Ph: 105 deg      -4.9 deg/ppm                                            
  alphaB,S = 5.0E-01,   2.0E+01                                            
   14 spline knots.   Ns =11(1)                                            
  (14) 6 infls.   (13) 5 extrs.                                            
  498 points on ppm-axis = NY
      4.000000     3.992357     3.984714     3.977070     3.969427     3.961784     3.954141     3.946497     3.938854     3.931211
      3.923568     3.915925     3.908281     3.900638     3.892995     3.885352     3.877708     3.870065     3.862422     3.854779
      3.847136     3.839492     3.831849     3.824206     3.816563     3.808919     3.801276     3.793633     3.785990     3.778347
      3.770703     3.763060     3.755417     3.747774     3.740130     3.732487     3.724844     3.717201     3.709558     3.701914
      3.694271     3.686628     3.678985     3.671341     3.663698     3.656055     3.648412     3.640769     3.633125     3.625482
      3.617839     3.610196     3.602552     3.594909     3.587266     3.579623     3.571980     3.564336     3.556693     3.549050
      3.541407     3.533763     3.526120     3.518477     3.510834     3.503191     3.495547     3.487904     3.480261     3.472618
      3.464974     3.457331     3.449688     3.442045     3.434402     3.426758     3.419115     3.411472     3.403829     3.396185
      3.388542     3.380899     3.373256     3.365613     3.357969     3.350326     3.342683     3.335040     3.327396     3.319753
      3.312110     3.304467     3.296824     3.289180     3.281537     3.273894     3.266251     3.258607     3.250964     3.243321
      3.235678     3.228034     3.220391     3.212748     3.205105     3.197462     3.189818     3.182175     3.174532     3.166889
      3.159245     3.151602     3.143959     3.136316     3.128673     3.121029     3.113386     3.105743     3.098100     3.090456
      3.082813     3.075170     3.067527     3.059884     3.052240     3.044597     3.036954     3.029311     3.021667     3.014024
      3.006381     2.998738     2.991095     2.983451     2.975808     2.968165     2.960522     2.952878     2.945235     2.937592
      2.929949     2.922306     2.914662     2.907019     2.899376     2.891733     2.884089     2.876446     2.868803     2.861160
      2.853517     2.845873     2.838230     2.830587     2.822944     2.815300     2.807657     2.800014     2.792371     2.784728
      2.777084     2.769441     2.761798     2.754155     2.746511     2.738868     2.731225     2.723582     2.715939     2.708295
      2.700652     2.693009     2.685366     2.677722     2.670079     2.662436     2.654793     2.647150     2.639506     2.631863
      2.624220     2.616577     2.608933     2.601290     2.593647     2.586004     2.578361     2.570717     2.563074     2.555431
      2.547788     2.540144     2.532501     2.524858     2.517215     2.509572     2.501928     2.494285     2.486642     2.478999
      2.471355     2.463712     2.456069     2.448426     2.440783     2.433139     2.425496     2.417853     2.410210     2.402566
      2.394923     2.387280     2.379637     2.371994     2.364350     2.356707     2.349064     2.341421     2.333777     2.326134
      2.318491     2.310848     2.303205     2.295561     2.287918     2.280275     2.272632     2.264988     2.257345     2.249702
      2.242059     2.234416     2.226772     2.219129     2.211486     2.203843     2.196199     2.188556     2.180913     2.173270
      2.165627     2.157983     2.150340     2.142697     2.135054     2.127410     2.119767     2.112124     2.104481     2.096838
      2.089194     2.081551     2.073908     2.066265     2.058621     2.050978     2.043335     2.035692     2.028049     2.020405
      2.012762     2.005119     1.997476     1.989833     1.982190     1.974546     1.966903     1.959260     1.951617     1.943974
      1.936331     1.928688     1.921045     1.913402     1.905759     1.898115     1.890472     1.882829     1.875186     1.867543
      1.859900     1.852257     1.844614     1.836971     1.829327     1.821684     1.814041     1.806398     1.798755     1.791112
      1.783469     1.775826     1.768183     1.760540     1.752896     1.745253     1.737610     1.729967     1.722324     1.714681
      1.707038     1.699395     1.691752     1.684108     1.676465     1.668822     1.661179     1.653536     1.645893     1.638250
      1.630607     1.622964     1.615321     1.607677     1.600034     1.592391     1.584748     1.577105     1.569462     1.561819
      1.554176     1.546533     1.538890     1.531246     1.523603     1.515960     1.508317     1.500674     1.493031     1.485388
      1.477745     1.470102     1.462458     1.454815     1.447172     1.439529     1.431886     1.424243     1.416600     1.408957
      1.401314     1.393671     1.386027     1.378384     1.370741     1.363098     1.355455     1.347812     1.340169     1.332526
      1.324883     1.317240     1.309596     1.301953     1.294310     1.286667     1.279024     1.271381     1.263738     1.256095
      1.248452     1.240808     1.233165     1.225522     1.217879     1.210236     1.202593     1.194950     1.187307     1.179664
      1.172021     1.164377     1.156734     1.149091     1.141448     1.133805     1.126162     1.118519     1.110876     1.103233
      1.095590     1.087946     1.080303     1.072660     1.065017     1.057374     1.049731     1.042088     1.034445     1.026802
      1.019158     1.011515     1.003872     0.996229     0.988586     0.980943     0.973300     0.965657     0.958014     0.950371
      0.942727     0.935084     0.927441     0.919798     0.912155     0.904512     0.896869     0.889226     0.881583     0.873940
      0.866296     0.858653     0.851010     0.843367     0.835724     0.828081     0.820438     0.812795     0.805152     0.797508
      0.789865     0.782222     0.774579     0.766936     0.759293     0.751650     0.744007     0.736364     0.728721     0.721077
      0.713434     0.705791     0.698148     0.690505     0.682862     0.675219     0.667576     0.659933     0.652290     0.644646
      0.637003     0.629360     0.621717     0.614074     0.606431     0.598788     0.591145     0.583502     0.575858     0.568215
      0.560572     0.552929     0.545286     0.537643     0.530000     0.522357     0.514714     0.507071     0.499427     0.491784
      0.484141     0.476498     0.468855     0.461212     0.453569     0.445925     0.438282     0.430639     0.422996     0.415353
      0.407710     0.400067     0.392424     0.384780     0.377137     0.369494     0.361851     0.354208     0.346565     0.338922
      0.331278     0.323635     0.315992     0.308349     0.300706     0.293063     0.285420     0.277777     0.270133     0.262490
      0.254847     0.247204     0.239561     0.231918     0.224275     0.216631     0.208988     0.201345
 NY phased data points follow
   8.47611E+00  6.27068E+00  7.78582E+00  2.32524E+00  8.90616E+00  4.05575E+00  5.42031E+00  3.68325E+00  7.90390E+00  4.45555E+00
   4.06518E+00  3.51372E+00  7.66609E+00  2.38757E+00  3.50119E+00  1.65263E+00  4.36285E+00  4.01772E+00  6.23300E+00  3.69119E+00
   1.64308E+00  3.00267E+00  2.51353E+00  4.56754E+00  4.48484E+00  5.39209E+00  3.99580E+00  4.04321E+00  1.92201E+00  9.67324E-01
   4.42213E+00  5.14823E+00  3.44183E+00  3.82825E+00  6.55118E+00  3.45354E+00  2.75424E+00  3.12229E+00  2.24408E+00  2.51735E+00
   1.12501E+01  2.17715E+00  1.19173E+00  7.29062E-01  3.34761E+00  1.39265E+00  6.80582E+00  1.95726E+00  2.76008E+00  2.44935E+00
   4.72999E+00  1.44596E+00  4.40383E+00 -2.50216E-01  3.80352E+00  3.34302E+00  1.85199E+00  1.87304E+00  3.33017E+00  2.77857E+00
  -5.93100E-01  3.34153E-01  2.66422E+00  1.57114E+00  1.70387E+00  2.36321E+00  2.52042E+00 -3.67994E-01  4.68459E+00  8.44628E-01
   7.77778E+00  3.12718E+00  4.25622E+00 -6.76770E-01  3.19221E+00  1.30720E+00 -1.00482E+00  3.07465E-01  1.63690E+00 -8.59245E-01
   1.91745E+00  7.87819E-01  7.60429E-01  3.82517E+00  6.79758E-01  4.91430E-01  2.38270E+00  2.16534E+00  2.66031E+00  2.88684E+00
   4.02782E+00  7.54645E-01  5.93221E+00 -2.03169E+00  1.30125E+00  2.07216E+00  2.56855E+00  2.54423E+00 -2.42723E-01  3.46506E-01
   2.14879E+00 -4.53406E-01  3.27543E+00  4.41999E+00  3.73611E+00 -2.42799E+00 -7.12026E-01 -3.02621E+00 -5.62589E-01 -3.30996E+00
  -3.05337E+00 -3.76036E+00  1.78907E+00 -1.44812E+00  3.94641E-01 -1.14378E+00  2.25774E+00  1.52526E-02  8.62156E-01  8.82705E-01
  -2.30342E+00 -2.60093E-01  3.71786E+00 -2.85596E+00  4.21526E-01 -2.32687E-01  1.15258E-01  1.47092E+00  3.28103E+00 -4.32962E-01
   1.82090E+00 -1.41367E-03 -3.17618E+00 -3.67424E+00 -2.36395E+00 -3.36381E+00 -5.08785E-01  4.89019E-01 -1.58536E+00 -1.25868E+00
   1.98658E+00 -2.03421E+00  7.25545E-02 -2.58607E+00 -3.76736E+00  2.38532E-01  8.72054E-01 -3.48411E+00 -6.69738E-01 -3.06945E+00
   7.86369E-01 -2.57588E+00  9.82079E-01 -3.50477E+00 -5.25027E-01 -4.27814E+00 -6.87364E-01 -5.78178E-01 -1.00639E+00 -5.36215E-01
   1.93555E+00  1.20199E+00  1.40384E+00 -3.28536E+00 -1.09917E+00 -4.38055E+00 -1.34308E+00 -1.99261E+00 -8.68275E-01 -8.20427E-01
  -4.49797E+00 -3.11727E+00 -2.81300E+00  2.36868E-01  2.07051E+00 -1.25640E+00 -1.11015E+00 -8.72624E-01  3.05084E-01 -8.96858E-01
  -1.00606E+00 -3.00823E-02 -3.33402E+00 -1.98973E+00 -4.40257E+00 -1.78738E+00  1.75944E+00 -5.60909E-01 -2.51750E-01 -5.46366E-01
  -2.56876E+00 -2.94641E+00 -5.88738E-01 -3.16766E+00 -2.12779E+00 -3.57888E+00 -1.60736E+00 -3.15079E+00 -3.44280E+00 -3.62774E+00
  -3.99687E+00 -2.66965E+00 -3.75670E+00 -4.76728E+00 -1.43806E+00 -1.89403E+00 -3.35696E+00 -3.76491E+00 -2.77702E+00 -5.44975E+00
  -2.65275E+00 -3.20676E+00 -4.11722E+00 -5.43700E+00 -1.97725E+00 -2.01632E+00 -5.16842E+00 -4.61897E+00 -2.52418E+00 -2.61825E+00
  -4.30458E+00 -6.28374E+00 -5.67160E+00 -2.92917E+00 -2.95559E+00 -5.48783E+00 -2.33637E+00 -4.37541E+00 -1.16783E+00 -2.73673E+00
  -5.16889E+00 -4.65850E+00 -3.00137E+00  9.29367E-01 -2.79292E+00 -2.38886E+00 -5.16614E+00 -8.09565E-01 -3.12599E+00 -4.85178E+00
  -2.37067E+00 -2.85666E+00 -4.52959E+00 -2.31633E+00 -5.85866E-01 -4.35473E+00 -4.64373E+00 -2.33949E+00 -2.99478E+00 -7.92246E-01
  -1.70672E-01 -2.16632E+00 -3.17262E+00  1.73811E+00 -8.98925E-01 -2.48006E+00  1.35566E+00  1.56964E-01  1.12221E+00  1.48448E+00
   3.60679E+00  2.69210E+00  4.93335E-02  1.14688E-02 -8.70500E-01 -4.79792E+00  1.85097E+00 -1.91705E+00 -2.92605E+00 -4.80140E-01
   2.76058E+00  5.41396E-01 -8.44204E-02  1.00147E+00  2.43574E+00  1.07253E+00  1.28062E+00  6.26745E-01  1.86047E+00 -1.50761E+00
   2.37059E+00  2.00714E+00  3.53237E+00  1.94253E+00  1.11139E+00  1.73282E+00  1.45327E+00  1.72164E+00  2.94610E+00  2.42445E+00
   1.28782E+00  2.22882E+00  3.48090E+00  3.51848E+00  3.13306E+00 -8.67407E-01  1.79223E+00  1.45085E+00  4.20515E+00  6.08065E+00
   3.79694E+00  2.88787E+00  2.15617E+00  3.13807E+00  2.14455E+00  2.70133E+00  4.33735E+00  4.52026E+00  1.47179E+00  2.40603E+00
   3.21978E+00  4.05608E+00  2.57934E+00  6.02522E+00  3.11247E+00 -2.74258E-01  2.31198E+00  3.37890E+00  6.64274E+00  5.87049E+00
   3.08743E+00  6.60226E-01  4.42717E-01  3.89423E+00  1.34552E+00  1.10137E+00  4.52053E+00  5.13749E+00  1.47200E+00  1.19688E+00
   3.44812E-02  3.73127E+00  1.85163E+00  1.66673E+00  3.96870E+00  6.28260E+00  4.32782E+00  6.67392E+00  3.60707E+00  3.22016E+00
   6.16641E-01  4.68467E+00 -9.59288E-01  2.75552E+00  3.66386E+00  2.39603E+00 -6.16588E-01  1.19841E+00  5.74222E+00  2.53686E+00
   3.09730E+00  2.77694E+00  2.05940E+00 -3.25894E-01  2.67831E+00  2.15073E+00  3.57211E+00  5.14714E-01  2.80432E+00 -1.67715E+00
   4.70050E+00  1.56261E+00 -2.10108E+00  9.94895E-01  1.25169E+00  5.29401E+00  2.99283E+00  3.57252E+00  1.23914E+00  6.01489E+00
   1.90890E+00  4.72432E+00  8.07740E+00  6.17849E+00  4.74488E+00  7.18592E+00  7.38600E+00  1.07220E+01  6.66715E+00  6.45182E+00
   7.27483E+00  7.93912E+00  7.65801E+00  4.31563E+00  5.01875E+00  4.85643E+00  8.38999E+00  6.50966E+00  5.34292E+00  2.70097E+00
   6.11363E+00  4.41707E+00  5.34729E+00  7.11011E+00  8.17477E+00  7.67860E+00  5.24791E+00  4.37113E+00  5.90151E+00  4.18742E+00
   5.17463E+00  5.32615E+00  4.49956E+00  2.40563E+00  5.62540E+00  2.57516E+00  2.04529E+00  1.91756E+00  2.89783E+00  4.00220E+00
   3.87963E+00  3.70510E+00  4.64059E+00  2.22581E+00  5.72628E+00  7.36202E+00  3.67503E+00  7.14377E+00  4.55295E+00  2.52734E+00
   4.08522E+00  3.58237E+00  3.37635E+00  4.17916E+00  4.11696E+00  1.54305E+00  6.59610E+00  4.51756E+00  2.41605E+00  2.67790E+00
   7.01394E+00  3.62962E-01  3.57140E+00  8.19117E-01  5.32931E+00 -2.87187E-01  1.66546E+00  2.24887E+00  3.23337E+00  2.35976E+00
   4.21585E+00  2.68243E+00  2.65424E+00  5.36001E+00  3.07555E+00  3.19405E+00  4.24818E+00  2.91611E+00  3.22410E+00  3.40863E+00
   4.25144E+00  5.44396E+00  4.17060E+00  2.44526E+00  2.92551E+00  2.45900E+00  5.35446E+00  1.52403E+00  2.40537E+00  2.36494E+00
   4.13627E+00  1.99731E+00  3.80228E+00  3.46259E+00  5.82470E+00  4.69165E+00  2.98582E+00  4.93130E+00  6.23860E+00  2.79844E+00
   3.57211E+00  4.89679E+00  2.65595E+00  6.34287E+00  2.91287E+00  4.80960E+00  8.89981E-01  5.38179E+00 -9.39674E-02 -4.65053E-02
   4.31899E+00  3.70682E+00  2.96370E+00  5.45318E+00  1.17947E+00  3.84730E+00  4.13242E+00  3.96142E+00  1.86116E+00  7.17305E+00
   1.98235E-01  3.18071E+00  3.26039E+00  5.23769E+00  4.53030E+00  9.01044E-02 -1.56748E+00  7.31823E-01
 NY points of the fit to the data follow
   5.07327E+00  5.40674E+00  5.42919E+00  5.14731E+00  4.81744E+00  4.61057E+00  4.57453E+00  4.68249E+00  4.83867E+00  4.79766E+00
   4.47074E+00  4.06297E+00  3.73723E+00  3.52690E+00  3.49796E+00  3.61499E+00  3.74735E+00  3.74616E+00  3.51117E+00  3.07744E+00
   2.69664E+00  2.63577E+00  3.00044E+00  3.62488E+00  4.08439E+00  4.02471E+00  3.43451E+00  2.68603E+00  2.19058E+00  2.14887E+00
   2.57443E+00  3.32769E+00  4.07488E+00  4.40925E+00  4.15428E+00  3.51742E+00  2.96033E+00  2.86560E+00  3.30485E+00  3.96229E+00
   4.39610E+00  4.39968E+00  4.11042E+00  3.76534E+00  3.60062E+00  3.82327E+00  4.28818E+00  4.49613E+00  4.12232E+00  3.36504E+00
   2.65786E+00  2.21181E+00  1.99062E+00  1.99291E+00  2.23270E+00  2.65319E+00  3.05103E+00  3.20624E+00  3.10512E+00  2.86304E+00
   2.61613E+00  2.41062E+00  2.18203E+00  1.94206E+00  1.76049E+00  1.68216E+00  1.74568E+00  1.96683E+00  2.24278E+00  2.43334E+00
   2.47075E+00  2.32876E+00  2.05067E+00  1.74457E+00  1.51636E+00  1.38253E+00  1.25235E+00  1.07547E+00  8.32335E-01  5.78532E-01
   4.22382E-01  3.92435E-01  4.36487E-01  4.86638E-01  4.84771E-01  4.01085E-01  2.06546E-01 -2.01678E-02 -1.62171E-01 -1.82372E-01
  -8.02704E-02  2.05216E-01  8.14795E-01  1.60076E+00  2.33519E+00  2.63809E+00  2.23899E+00  1.45313E+00  8.49437E-01  6.96177E-01
   1.00749E+00  1.72946E+00  2.44005E+00  2.55176E+00  2.00146E+00  1.17830E+00  3.47673E-01 -3.63953E-01 -7.59026E-01 -7.34645E-01
  -3.47161E-01  2.04117E-01  5.40360E-01  4.31637E-01  4.75182E-02 -2.72796E-01 -1.25649E-01  3.82161E-01  9.99703E-01  1.43383E+00
   1.38635E+00  9.68663E-01  5.62096E-01  3.98275E-01  5.50307E-01  1.03373E+00  1.55447E+00  1.60830E+00  1.08853E+00  3.39680E-01
  -3.65194E-01 -9.48861E-01 -1.28730E+00 -1.29572E+00 -1.00025E+00 -5.35078E-01 -2.16721E-01 -2.87061E-01 -6.44811E-01 -1.04291E+00
  -1.25945E+00 -1.33069E+00 -1.36826E+00 -1.39089E+00 -1.40361E+00 -1.41450E+00 -1.43001E+00 -1.45014E+00 -1.47247E+00 -1.49763E+00
  -1.53106E+00 -1.56973E+00 -1.60462E+00 -1.62639E+00 -1.62756E+00 -1.61969E+00 -1.61813E+00 -1.63298E+00 -1.66761E+00 -1.71391E+00
  -1.75563E+00 -1.77813E+00 -1.77885E+00 -1.76773E+00 -1.76080E+00 -1.77353E+00 -1.80716E+00 -1.84897E+00 -1.88993E+00 -1.91919E+00
  -1.93372E+00 -1.94084E+00 -1.94840E+00 -1.95653E+00 -1.96586E+00 -1.97559E+00 -1.97892E+00 -1.97405E+00 -1.96935E+00 -1.97022E+00
  -1.96446E+00 -1.94839E+00 -1.93663E+00 -1.94649E+00 -1.98093E+00 -2.03808E+00 -2.08801E+00 -2.11011E+00 -2.11378E+00 -2.10867E+00
  -2.07504E+00 -1.99336E+00 -1.87352E+00 -1.73998E+00 -1.62415E+00 -1.55854E+00 -1.54354E+00 -1.56455E+00 -1.67242E+00 -1.90724E+00
  -2.16242E+00 -2.36499E+00 -2.42956E+00 -2.24201E+00 -1.88124E+00 -1.52044E+00 -1.32166E+00 -1.33078E+00 -1.63495E+00 -2.12495E+00
  -2.44137E+00 -2.46509E+00 -2.34076E+00 -2.08716E+00 -1.65826E+00 -1.26106E+00 -1.20004E+00 -1.58968E+00 -2.24837E+00 -2.90011E+00
  -3.38100E+00 -3.51560E+00 -3.14187E+00 -2.33958E+00 -1.43159E+00 -8.23403E-01 -6.67646E-01 -8.71360E-01 -1.26255E+00 -1.64579E+00
  -1.96030E+00 -2.12382E+00 -2.07406E+00 -1.89647E+00 -1.80597E+00 -1.81684E+00 -1.76328E+00 -1.60559E+00 -1.47374E+00 -1.44028E+00
  -1.50868E+00 -1.71759E+00 -1.96848E+00 -2.09082E+00 -2.06301E+00 -1.94852E+00 -1.75884E+00 -1.56304E+00 -1.45622E+00 -1.32527E+00
  -9.59118E-01 -3.58684E-01  3.27045E-01  7.17293E-01  6.26960E-01  2.82830E-01 -4.71695E-02 -1.75286E-01  7.73811E-02  6.57879E-01
   1.10313E+00  1.05864E+00  6.53197E-01  1.24295E-01 -4.40275E-01 -9.03377E-01 -1.08604E+00 -9.50101E-01 -5.43297E-01 -8.56798E-02
   1.05410E-01 -3.10704E-02 -2.86057E-01 -4.39241E-01 -4.28340E-01 -3.71891E-01 -3.08357E-01 -2.46991E-01 -1.97889E-01 -1.49031E-01
  -6.94217E-02  5.80776E-02  2.29261E-01  4.21689E-01  6.17221E-01  8.08115E-01  9.96427E-01  1.18703E+00  1.38096E+00  1.57927E+00
   1.78352E+00  1.99202E+00  2.19984E+00  2.39988E+00  2.58630E+00  2.75587E+00  2.90439E+00  3.02881E+00  3.12800E+00  3.20086E+00
   3.24664E+00  3.26573E+00  3.25972E+00  3.23081E+00  3.18175E+00  3.11627E+00  3.03896E+00  2.95450E+00  2.86823E+00  2.78595E+00
   2.71395E+00  2.65929E+00  2.63050E+00  2.63976E+00  2.70974E+00  2.89662E+00  3.28151E+00  3.68192E+00  3.86891E+00  3.60108E+00
   2.83013E+00  1.96620E+00  1.42689E+00  1.23564E+00  1.42844E+00  2.01555E+00  2.66350E+00  2.95279E+00  2.71108E+00  2.14174E+00
   1.55190E+00  1.17829E+00  1.27321E+00  2.08319E+00  3.55865E+00  5.01858E+00  5.61548E+00  5.24547E+00  4.43043E+00  3.55023E+00
   2.81933E+00  2.29069E+00  2.04984E+00  2.26504E+00  2.82897E+00  3.33873E+00  3.51079E+00  3.32475E+00  3.00804E+00  2.76437E+00
   2.58848E+00  2.47358E+00  2.43037E+00  2.48027E+00  2.61034E+00  2.75077E+00  2.82273E+00  2.81126E+00  2.76013E+00  2.71009E+00
   2.68910E+00  2.70403E+00  2.75017E+00  2.83652E+00  2.94757E+00  3.04576E+00  3.11163E+00  3.15124E+00  3.19042E+00  3.24247E+00
   3.30322E+00  3.37134E+00  3.44731E+00  3.53215E+00  3.62711E+00  3.73333E+00  3.85177E+00  3.98303E+00  4.12732E+00  4.28425E+00
   4.45286E+00  4.63146E+00  4.81772E+00  5.00864E+00  5.20069E+00  5.38985E+00  5.57176E+00  5.74188E+00  5.89575E+00  6.02913E+00
   6.13829E+00  6.22007E+00  6.27213E+00  6.29298E+00  6.28216E+00  6.24017E+00  6.16847E+00  6.06936E+00  5.94584E+00  5.80147E+00
   5.64022E+00  5.46626E+00  5.28376E+00  5.09670E+00  4.90879E+00  4.72333E+00  4.54318E+00  4.37065E+00  4.20755E+00  4.05515E+00
   3.91427E+00  3.78529E+00  3.66829E+00  3.56304E+00  3.46907E+00  3.38575E+00  3.31235E+00  3.24809E+00  3.19219E+00  3.14386E+00
   3.10233E+00  3.06685E+00  3.03678E+00  3.01152E+00  2.99054E+00  2.97334E+00  2.95949E+00  2.94859E+00  2.94032E+00  2.93439E+00
   2.93056E+00  2.92859E+00  2.92827E+00  2.92943E+00  2.93194E+00  2.93565E+00  2.94047E+00  2.94627E+00  2.95295E+00  2.96042E+00
   2.96864E+00  2.97755E+00  2.98708E+00  2.99717E+00  3.00776E+00  3.01881E+00  3.03031E+00  3.04222E+00  3.05450E+00  3.06710E+00
   3.08001E+00  3.09320E+00  3.10668E+00  3.12041E+00  3.13436E+00  3.14852E+00  3.16286E+00  3.17740E+00  3.19213E+00  3.20701E+00
   3.22203E+00  3.23717E+00  3.25245E+00  3.26786E+00  3.28341E+00  3.29905E+00  3.31478E+00  3.33060E+00  3.34651E+00  3.36251E+00
   3.37860E+00  3.39475E+00  3.41096E+00  3.42723E+00  3.44357E+00  3.45999E+00  3.47646E+00  3.49296E+00  3.50950E+00  3.52608E+00
   3.54272E+00  3.55941E+00  3.57612E+00  3.59286E+00  3.60962E+00  3.62641E+00  3.64325E+00  3.66011E+00  3.67698E+00  3.69385E+00
   3.71073E+00  3.72764E+00  3.74457E+00  3.76150E+00  3.77841E+00  3.79530E+00  3.81219E+00  3.82908E+00
 NY background values follow
     2.732E+00    2.700E+00    2.668E+00    2.636E+00    2.604E+00    2.572E+00    2.540E+00    2.508E+00    2.476E+00    2.444E+00
     2.412E+00    2.380E+00    2.348E+00    2.316E+00    2.284E+00    2.252E+00    2.220E+00    2.187E+00    2.155E+00    2.123E+00
     2.091E+00    2.059E+00    2.027E+00    1.996E+00    1.964E+00    1.932E+00    1.900E+00    1.868E+00    1.836E+00    1.804E+00
     1.772E+00    1.741E+00    1.709E+00    1.677E+00    1.645E+00    1.614E+00    1.582E+00    1.550E+00    1.519E+00    1.487E+00
     1.456E+00    1.424E+00    1.393E+00    1.362E+00    1.330E+00    1.299E+00    1.268E+00    1.236E+00    1.205E+00    1.174E+00
     1.143E+00    1.112E+00    1.081E+00    1.050E+00    1.020E+00    9.887E-01    9.580E-01    9.274E-01    8.968E-01    8.663E-01
     8.358E-01    8.054E-01    7.751E-01    7.449E-01    7.147E-01    6.846E-01    6.546E-01    6.246E-01    5.947E-01    5.650E-01
     5.352E-01    5.056E-01    4.761E-01    4.466E-01    4.173E-01    3.880E-01    3.588E-01    3.297E-01    3.007E-01    2.718E-01
     2.430E-01    2.143E-01    1.857E-01    1.572E-01    1.288E-01    1.005E-01    7.232E-02    4.424E-02    1.627E-02   -1.159E-02
    -3.934E-02   -6.698E-02   -9.449E-02   -1.219E-01   -1.492E-01   -1.763E-01   -2.034E-01   -2.303E-01   -2.571E-01   -2.837E-01
    -3.102E-01   -3.366E-01   -3.629E-01   -3.890E-01   -4.149E-01   -4.408E-01   -4.665E-01   -4.920E-01   -5.174E-01   -5.426E-01
    -5.677E-01   -5.927E-01   -6.174E-01   -6.421E-01   -6.665E-01   -6.908E-01   -7.150E-01   -7.389E-01   -7.627E-01   -7.864E-01
    -8.098E-01   -8.331E-01   -8.562E-01   -8.791E-01   -9.019E-01   -9.245E-01   -9.469E-01   -9.691E-01   -9.911E-01   -1.013E+00
    -1.035E+00   -1.056E+00   -1.077E+00   -1.098E+00   -1.119E+00   -1.140E+00   -1.160E+00   -1.180E+00   -1.200E+00   -1.220E+00
    -1.240E+00   -1.259E+00   -1.278E+00   -1.297E+00   -1.316E+00   -1.335E+00   -1.353E+00   -1.371E+00   -1.389E+00   -1.407E+00
    -1.424E+00   -1.441E+00   -1.458E+00   -1.475E+00   -1.491E+00   -1.508E+00   -1.524E+00   -1.540E+00   -1.555E+00   -1.570E+00
    -1.586E+00   -1.600E+00   -1.615E+00   -1.629E+00   -1.644E+00   -1.658E+00   -1.671E+00   -1.685E+00   -1.698E+00   -1.711E+00
    -1.723E+00   -1.736E+00   -1.748E+00   -1.760E+00   -1.771E+00   -1.783E+00   -1.794E+00   -1.805E+00   -1.815E+00   -1.826E+00
    -1.836E+00   -1.846E+00   -1.855E+00   -1.864E+00   -1.873E+00   -1.882E+00   -1.890E+00   -1.899E+00   -1.906E+00   -1.914E+00
    -1.921E+00   -1.928E+00   -1.935E+00   -1.941E+00   -1.948E+00   -1.953E+00   -1.959E+00   -1.964E+00   -1.969E+00   -1.974E+00
    -1.978E+00   -1.982E+00   -1.986E+00   -1.989E+00   -1.992E+00   -1.995E+00   -1.997E+00   -1.999E+00   -2.001E+00   -2.003E+00
    -2.004E+00   -2.004E+00   -2.005E+00   -2.005E+00   -2.005E+00   -2.004E+00   -2.003E+00   -2.002E+00   -2.000E+00   -1.998E+00
    -1.996E+00   -1.993E+00   -1.990E+00   -1.987E+00   -1.983E+00   -1.979E+00   -1.974E+00   -1.969E+00   -1.964E+00   -1.958E+00
    -1.952E+00   -1.946E+00   -1.939E+00   -1.932E+00   -1.925E+00   -1.917E+00   -1.909E+00   -1.901E+00   -1.892E+00   -1.883E+00
    -1.874E+00   -1.864E+00   -1.854E+00   -1.844E+00   -1.834E+00   -1.823E+00   -1.812E+00   -1.800E+00   -1.788E+00   -1.776E+00
    -1.764E+00   -1.752E+00   -1.739E+00   -1.726E+00   -1.712E+00   -1.699E+00   -1.685E+00   -1.671E+00   -1.657E+00   -1.642E+00
    -1.627E+00   -1.612E+00   -1.597E+00   -1.581E+00   -1.566E+00   -1.550E+00   -1.534E+00   -1.517E+00   -1.501E+00   -1.484E+00
    -1.467E+00   -1.450E+00   -1.433E+00   -1.415E+00   -1.397E+00   -1.379E+00   -1.361E+00   -1.343E+00   -1.325E+00   -1.306E+00
    -1.287E+00   -1.269E+00   -1.249E+00   -1.230E+00   -1.211E+00   -1.191E+00   -1.172E+00   -1.152E+00   -1.132E+00   -1.112E+00
    -1.091E+00   -1.071E+00   -1.050E+00   -1.030E+00   -1.009E+00   -9.878E-01   -9.667E-01   -9.455E-01   -9.242E-01   -9.027E-01
    -8.811E-01   -8.594E-01   -8.376E-01   -8.156E-01   -7.936E-01   -7.714E-01   -7.492E-01   -7.268E-01   -7.043E-01   -6.818E-01
    -6.591E-01   -6.363E-01   -6.135E-01   -5.906E-01   -5.675E-01   -5.444E-01   -5.213E-01   -4.980E-01   -4.746E-01   -4.512E-01
    -4.277E-01   -4.042E-01   -3.805E-01   -3.568E-01   -3.331E-01   -3.092E-01   -2.853E-01   -2.614E-01   -2.374E-01   -2.133E-01
    -1.892E-01   -1.650E-01   -1.408E-01   -1.165E-01   -9.217E-02   -6.780E-02   -4.338E-02   -1.892E-02    5.584E-03    3.012E-02
     5.470E-02    7.931E-02    1.040E-01    1.286E-01    1.533E-01    1.781E-01    2.028E-01    2.276E-01    2.524E-01    2.773E-01
     3.021E-01    3.270E-01    3.518E-01    3.767E-01    4.016E-01    4.265E-01    4.515E-01    4.764E-01    5.013E-01    5.262E-01
     5.512E-01    5.761E-01    6.010E-01    6.260E-01    6.509E-01    6.758E-01    7.007E-01    7.256E-01    7.505E-01    7.753E-01
     8.002E-01    8.250E-01    8.499E-01    8.747E-01    8.995E-01    9.242E-01    9.490E-01    9.737E-01    9.984E-01    1.023E+00
     1.048E+00    1.072E+00    1.097E+00    1.122E+00    1.146E+00    1.171E+00    1.195E+00    1.220E+00    1.244E+00    1.268E+00
     1.293E+00    1.317E+00    1.341E+00    1.365E+00    1.390E+00    1.414E+00    1.438E+00    1.462E+00    1.486E+00    1.510E+00
     1.534E+00    1.557E+00    1.581E+00    1.605E+00    1.629E+00    1.652E+00    1.676E+00    1.699E+00    1.723E+00    1.746E+00
     1.769E+00    1.793E+00    1.816E+00    1.839E+00    1.862E+00    1.885E+00    1.908E+00    1.931E+00    1.954E+00    1.977E+00
     2.000E+00    2.022E+00    2.045E+00    2.067E+00    2.090E+00    2.112E+00    2.135E+00    2.157E+00    2.179E+00    2.202E+00
     2.224E+00    2.246E+00    2.268E+00    2.290E+00    2.312E+00    2.334E+00    2.356E+00    2.377E+00    2.399E+00    2.421E+00
     2.442E+00    2.464E+00    2.485E+00    2.507E+00    2.528E+00    2.549E+00    2.571E+00    2.592E+00    2.613E+00    2.634E+00
     2.655E+00    2.676E+00    2.697E+00    2.718E+00    2.739E+00    2.760E+00    2.780E+00    2.801E+00    2.822E+00    2.842E+00
     2.863E+00    2.883E+00    2.904E+00    2.924E+00    2.944E+00    2.965E+00    2.985E+00    3.005E+00    3.025E+00    3.045E+00
     3.065E+00    3.086E+00    3.106E+00    3.126E+00    3.146E+00    3.165E+00    3.185E+00    3.205E+00    3.225E+00    3.245E+00
     3.265E+00    3.285E+00    3.304E+00    3.324E+00    3.344E+00    3.364E+00    3.383E+00    3.403E+00    3.423E+00    3.442E+00
     3.462E+00    3.481E+00    3.501E+00    3.521E+00    3.540E+00    3.560E+00    3.579E+00    3.599E+00
 Ala      Conc. = 2.78E+02
