 LCModel (Version 6.3-1L) Copyright: S.W. Provencher.          Ref.: Magn. Reson. Med. 30:672-679 (1993).                
 Slice#1 Row#8 Col#12  PD_24_press_1_raw_act
 36 lines in following concentration table = NCONC+1
    Conc.  %SD /Cr+PCr  Metabolite                                         
  232.812  30%   1.866 Ala                                                 
   51.667 145%   0.414 Asp                                                 
    0.000 999%   0.000 Cr                                                  
  124.793  25%   1.000 PCr                                                 
   34.679 134%   0.278 GABA                                                
   58.487  79%   0.469 Glc                                                 
  184.306  79%   1.477 Gln                                                 
  679.253  24%   5.443 Glu                                                 
    0.000 999%   0.000 GPC                                                 
   49.636  24%   0.398 PCh                                                 
   43.763 101%   0.351 GSH                                                 
  308.830  46%   2.475 Ins                                                 
    0.000 999%   0.000 Lac                                                 
 1.16E+03   8%   9.286 NAA                                                 
   93.557 108%   0.750 NAAG                                                
   25.164  47%   0.202 Scyllo                                              
  125.892  57%   1.009 Tau                                                 
   61.945  58%   0.496 -CrCH2                                              
   49.636  24%   0.398 GPC+PCh                                             
 1.25E+03   5%  10.035 NAA+NAAG                                            
  124.793  25%   1.000 Cr+PCr                                              
  863.559  27%   6.920 Glu+Gln                                             
 1.19E+03  22%   9.543 Lip13a                                              
    0.000 999%   0.000 Lip13b                                              
  213.178  76%   1.708 Lip09                                               
  681.983  24%   5.465 MM09                                                
  280.589  41%   2.248 Lip20                                               
 1.46E+03  15%  11.728 MM20                                                
  160.917  68%   1.289 MM12                                                
  286.514  73%   2.296 MM14                                                
    0.000 999%   0.000 MM17                                                
 1.19E+03  22%   9.543 Lip13a+Lip13b                                       
 1.64E+03  12%  13.129 MM14+Lip13a+Lip13b+MM12                             
  895.161  11%   7.173 MM09+Lip09                                          
 1.74E+03  12%  13.976 MM20+Lip20                                          
   6 lines in following misc. output table
  FWHM = 0.046 ppm    S/N =  10                                            
  Data shift =-0.031 ppm                                                   
  Ph: -17 deg      -3.4 deg/ppm                                            
  alphaB,S = 3.4E+00,   8.2E+01                                            
   14 spline knots.   Ns = 7(1)                                            
  (11) 3 infls.   (13) 1 extrs.                                            
  498 points on ppm-axis = NY
      4.000000     3.992357     3.984714     3.977070     3.969427     3.961784     3.954141     3.946497     3.938854     3.931211
      3.923568     3.915925     3.908281     3.900638     3.892995     3.885352     3.877708     3.870065     3.862422     3.854779
      3.847136     3.839492     3.831849     3.824206     3.816563     3.808919     3.801276     3.793633     3.785990     3.778347
      3.770703     3.763060     3.755417     3.747774     3.740130     3.732487     3.724844     3.717201     3.709558     3.701914
      3.694271     3.686628     3.678985     3.671341     3.663698     3.656055     3.648412     3.640769     3.633125     3.625482
      3.617839     3.610196     3.602552     3.594909     3.587266     3.579623     3.571980     3.564336     3.556693     3.549050
      3.541407     3.533763     3.526120     3.518477     3.510834     3.503191     3.495547     3.487904     3.480261     3.472618
      3.464974     3.457331     3.449688     3.442045     3.434402     3.426758     3.419115     3.411472     3.403829     3.396185
      3.388542     3.380899     3.373256     3.365613     3.357969     3.350326     3.342683     3.335040     3.327396     3.319753
      3.312110     3.304467     3.296824     3.289180     3.281537     3.273894     3.266251     3.258607     3.250964     3.243321
      3.235678     3.228034     3.220391     3.212748     3.205105     3.197462     3.189818     3.182175     3.174532     3.166889
      3.159245     3.151602     3.143959     3.136316     3.128673     3.121029     3.113386     3.105743     3.098100     3.090456
      3.082813     3.075170     3.067527     3.059884     3.052240     3.044597     3.036954     3.029311     3.021667     3.014024
      3.006381     2.998738     2.991095     2.983451     2.975808     2.968165     2.960522     2.952878     2.945235     2.937592
      2.929949     2.922306     2.914662     2.907019     2.899376     2.891733     2.884089     2.876446     2.868803     2.861160
      2.853517     2.845873     2.838230     2.830587     2.822944     2.815300     2.807657     2.800014     2.792371     2.784728
      2.777084     2.769441     2.761798     2.754155     2.746511     2.738868     2.731225     2.723582     2.715939     2.708295
      2.700652     2.693009     2.685366     2.677722     2.670079     2.662436     2.654793     2.647150     2.639506     2.631863
      2.624220     2.616577     2.608933     2.601290     2.593647     2.586004     2.578361     2.570717     2.563074     2.555431
      2.547788     2.540144     2.532501     2.524858     2.517215     2.509572     2.501928     2.494285     2.486642     2.478999
      2.471355     2.463712     2.456069     2.448426     2.440783     2.433139     2.425496     2.417853     2.410210     2.402566
      2.394923     2.387280     2.379637     2.371994     2.364350     2.356707     2.349064     2.341421     2.333777     2.326134
      2.318491     2.310848     2.303205     2.295561     2.287918     2.280275     2.272632     2.264988     2.257345     2.249702
      2.242059     2.234416     2.226772     2.219129     2.211486     2.203843     2.196199     2.188556     2.180913     2.173270
      2.165627     2.157983     2.150340     2.142697     2.135054     2.127410     2.119767     2.112124     2.104481     2.096838
      2.089194     2.081551     2.073908     2.066265     2.058621     2.050978     2.043335     2.035692     2.028049     2.020405
      2.012762     2.005119     1.997476     1.989833     1.982190     1.974546     1.966903     1.959260     1.951617     1.943974
      1.936331     1.928688     1.921045     1.913402     1.905759     1.898115     1.890472     1.882829     1.875186     1.867543
      1.859900     1.852257     1.844614     1.836971     1.829327     1.821684     1.814041     1.806398     1.798755     1.791112
      1.783469     1.775826     1.768183     1.760540     1.752896     1.745253     1.737610     1.729967     1.722324     1.714681
      1.707038     1.699395     1.691752     1.684108     1.676465     1.668822     1.661179     1.653536     1.645893     1.638250
      1.630607     1.622964     1.615321     1.607677     1.600034     1.592391     1.584748     1.577105     1.569462     1.561819
      1.554176     1.546533     1.538890     1.531246     1.523603     1.515960     1.508317     1.500674     1.493031     1.485388
      1.477745     1.470102     1.462458     1.454815     1.447172     1.439529     1.431886     1.424243     1.416600     1.408957
      1.401314     1.393671     1.386027     1.378384     1.370741     1.363098     1.355455     1.347812     1.340169     1.332526
      1.324883     1.317240     1.309596     1.301953     1.294310     1.286667     1.279024     1.271381     1.263738     1.256095
      1.248452     1.240808     1.233165     1.225522     1.217879     1.210236     1.202593     1.194950     1.187307     1.179664
      1.172021     1.164377     1.156734     1.149091     1.141448     1.133805     1.126162     1.118519     1.110876     1.103233
      1.095590     1.087946     1.080303     1.072660     1.065017     1.057374     1.049731     1.042088     1.034445     1.026802
      1.019158     1.011515     1.003872     0.996229     0.988586     0.980943     0.973300     0.965657     0.958014     0.950371
      0.942727     0.935084     0.927441     0.919798     0.912155     0.904512     0.896869     0.889226     0.881583     0.873940
      0.866296     0.858653     0.851010     0.843367     0.835724     0.828081     0.820438     0.812795     0.805152     0.797508
      0.789865     0.782222     0.774579     0.766936     0.759293     0.751650     0.744007     0.736364     0.728721     0.721077
      0.713434     0.705791     0.698148     0.690505     0.682862     0.675219     0.667576     0.659933     0.652290     0.644646
      0.637003     0.629360     0.621717     0.614074     0.606431     0.598788     0.591145     0.583502     0.575858     0.568215
      0.560572     0.552929     0.545286     0.537643     0.530000     0.522357     0.514714     0.507071     0.499427     0.491784
      0.484141     0.476498     0.468855     0.461212     0.453569     0.445925     0.438282     0.430639     0.422996     0.415353
      0.407710     0.400067     0.392424     0.384780     0.377137     0.369494     0.361851     0.354208     0.346565     0.338922
      0.331278     0.323635     0.315992     0.308349     0.300706     0.293063     0.285420     0.277777     0.270133     0.262490
      0.254847     0.247204     0.239561     0.231918     0.224275     0.216631     0.208988     0.201345
 NY phased data points follow
  -2.12274E+00 -3.54456E+00 -1.34015E+00 -2.81097E+00 -1.63465E+00 -7.39004E-01 -1.42274E-01 -2.47308E-01 -3.74952E+00 -5.15902E+00
  -1.24297E+00 -3.09260E-01 -3.03235E+00 -3.19190E+00 -4.45269E+00  4.03579E-01 -2.11343E+00 -1.06703E+00  1.72503E+00  1.57122E+00
  -1.46981E+00  1.88083E+00 -1.78440E+00 -2.62671E-01 -3.45762E+00  1.97009E+00 -3.26099E+00 -2.07125E+00 -9.35974E-01 -1.26199E+00
  -2.21643E+00 -2.61875E-01 -2.87851E-01 -3.03803E+00 -4.66964E-01  2.21068E+00  1.85194E+00 -2.37534E+00 -4.53763E+00 -4.24053E+00
  -2.05029E+00 -1.87706E+00 -1.32400E+00 -1.92710E+00 -2.38621E+00 -8.35947E-02 -3.76079E+00  1.58526E+00  1.21983E-01 -1.51521E+00
   1.23454E+00 -6.25100E-01  3.14806E-01 -3.87963E-01 -2.78576E+00 -3.10472E-02  1.17618E+00 -5.65080E-02  1.40073E+00  9.01321E-02
  -1.43268E-01  1.65500E+00  1.22589E+00 -9.78629E-01 -8.04199E-01 -1.27470E-01 -2.58483E+00  6.12705E+00 -1.99398E+00 -1.32560E+00
  -2.07545E+00 -8.17459E-01 -3.38148E+00  1.00804E+00 -2.68745E+00 -3.53925E+00 -2.14906E+00  3.28278E+00 -9.09943E-01  2.11212E+00
   6.34012E-01  1.86116E+00 -2.71936E+00 -1.85641E+00 -6.99707E-01  9.53844E-01  1.59176E+00 -1.14179E+00 -2.14107E+00  1.21549E+00
  -2.49640E+00  1.07009E+00 -1.87013E+00 -1.78549E+00 -5.10175E-01 -5.56086E-01  1.50852E+00  9.58255E-01 -2.03990E+00  2.32852E+00
   9.97542E-01 -7.89292E-01  5.11046E+00  1.11416E+00  4.26862E+00  3.57089E+00  1.56215E+00 -1.34279E+00  1.13216E-01 -2.45566E+00
  -2.72510E+00  1.46831E+00  9.86258E-01  1.10505E+00 -1.44817E-01  1.36436E+00  4.58782E-01  2.66000E-01  8.98391E-01 -1.74243E+00
  -2.86441E+00 -2.01958E+00 -1.35073E+00  4.10158E+00  3.85954E-01 -5.45964E-01  4.92550E+00  5.16350E+00  6.62836E+00  4.58268E+00
   1.55712E+00  2.23051E+00  1.25283E-01 -1.68085E-01  1.51774E+00  8.99470E-01  1.83628E+00 -6.09099E-01  3.37845E+00 -3.97464E-01
   2.77385E+00  1.82820E+00 -5.07498E-02  9.68571E-01  2.27602E+00 -2.38280E+00  1.33361E+00  1.27687E+00  2.16220E+00 -3.28750E+00
  -4.82930E+00  1.46381E+00 -2.12562E+00  1.60143E+00 -1.19313E+00  1.69195E+00  3.68033E-01  4.89802E-01  6.62975E-01 -6.70817E-01
   1.58097E-01 -3.05773E+00 -2.01692E+00 -5.05861E+00 -1.76960E+00 -1.37192E+00 -2.15200E+00 -1.74440E+00 -8.74492E-01 -2.25033E+00
  -4.51737E+00 -1.79797E+00 -3.66772E+00 -9.67343E-01 -1.61273E+00 -9.41287E-01 -4.08066E+00 -1.66872E+00 -6.17480E+00 -2.92267E+00
  -6.71346E+00 -4.51554E+00 -3.25485E+00 -3.02475E+00 -4.10770E+00 -3.20489E+00 -2.85685E+00 -3.75395E+00 -1.38240E+00 -1.23910E+00
  -3.29918E+00 -1.27609E+00 -3.83884E+00 -4.29778E+00 -3.44480E+00 -2.89874E+00 -4.53200E+00 -5.18246E-01 -7.80320E+00 -4.77496E+00
  -3.38590E+00 -1.78083E+00 -4.78041E+00 -3.24496E+00  4.89271E-01 -1.07283E+00  1.06036E+00  1.21560E+00 -1.96896E+00  4.85607E-02
  -3.32979E-01 -2.91017E-01  1.15889E+00  1.63770E+00  3.83483E+00  5.18726E+00  5.38532E+00  2.66259E+00  3.26867E+00  8.33270E-01
  -2.46162E+00 -3.66761E+00 -3.54778E+00 -1.76398E+00 -9.23250E-01  1.65025E+00  4.55853E+00  3.47560E+00  3.84212E+00  4.02293E+00
   4.28377E+00  1.22239E+00  4.44287E+00  7.34083E-01  2.48736E+00  6.20101E+00  2.18545E+00 -4.27865E-01  4.95211E+00  6.02751E+00
   6.16268E+00  2.84624E+00  6.03672E+00  3.95144E+00  4.03842E+00  5.86060E+00  5.13604E+00  4.89972E+00  5.35271E+00  7.59944E+00
   6.00969E+00  1.39474E+01  1.00904E+01  1.32234E+01  1.62499E+01  1.94106E+01  2.67904E+01  3.05653E+01  3.69843E+01  4.28765E+01
   4.54431E+01  4.63850E+01  3.84798E+01  2.85658E+01  1.75639E+01  1.56000E+01  1.06082E+01  1.16397E+01  6.00802E+00  4.87624E+00
   4.38892E+00  6.16475E+00  3.05622E+00  3.31583E+00  3.85573E+00  2.26709E+00 -4.11315E-01 -1.33218E+00 -1.68419E-01 -3.73866E+00
  -7.03887E-01 -3.53750E+00 -3.57461E+00 -2.36899E-01 -8.64797E-01 -1.30970E+00 -5.92004E+00  1.09841E+00 -4.42494E-01 -2.35909E-01
   1.34802E-01 -3.60030E+00 -3.44590E+00 -1.03894E+00 -5.47036E+00 -1.04401E+00 -2.99621E+00 -2.02557E+00 -4.49335E+00 -7.34340E-01
  -2.58041E+00  3.24920E+00 -1.40639E+00 -1.39572E+00  2.99346E+00 -1.19637E+00 -7.57305E-01  9.03279E-01 -1.13560E+00 -1.92182E+00
   2.51495E+00  2.06465E+00  1.51636E+00  2.88585E+00  4.39408E+00  2.24690E+00  3.93285E+00  4.66838E+00  5.54002E+00  3.75863E+00
   1.76510E+00  5.96154E+00  1.89406E+00  4.49760E-01  2.68132E+00 -2.69255E+00 -8.16163E-01  7.58500E-01 -1.68169E-01 -2.60085E+00
  -3.11116E-02  8.70289E-01  1.62735E+00  2.75685E-01  9.86267E-01  4.73884E+00  5.46755E+00  5.74421E+00  5.30417E+00  5.27422E+00
   6.09100E+00  2.92451E+00  5.79510E+00  5.54021E+00  5.11322E+00  7.55307E+00  6.88482E+00  6.85109E+00  9.50310E+00  1.00285E+01
   8.37408E+00  1.13385E+01  7.75925E+00  7.22790E+00  9.57813E+00  7.83937E+00  5.72258E+00  4.73523E+00  4.49804E+00  8.74547E+00
   1.18497E+01  8.00067E+00  7.87265E+00  1.00943E+01  8.15522E+00  6.41032E+00  7.78811E+00  6.60196E+00  6.47474E+00  3.33400E+00
   4.28126E+00  3.22454E+00  5.88737E+00  1.49931E+00  2.80791E+00  7.51252E-01 -1.36658E+00  2.22865E+00  1.20581E-01  2.55189E+00
   2.00832E+00  2.45448E-01  2.28469E+00  7.11231E-01  5.30969E-01  6.62063E-01  3.35662E+00  3.82253E-01 -5.43172E-01  4.79010E+00
   6.34705E+00  6.66181E+00  3.51525E+00  3.02795E+00  4.36274E+00  4.34348E+00  9.16961E+00  7.63118E+00  6.60876E+00  7.59496E+00
   9.02896E+00  8.91343E+00  7.75230E+00  7.41687E+00  9.01727E+00  5.49304E+00  1.20210E+01  9.24702E+00  9.24820E+00  1.01095E+01
   8.83445E+00  7.62809E+00  8.49045E+00  7.19160E+00  5.85917E+00  7.35563E+00  6.32814E+00  4.97679E+00  3.11635E+00  1.27160E+00
   1.78047E+00  4.55653E+00  7.50506E-01  2.42241E+00  1.97940E+00  1.22630E+00  1.39787E+00  1.74980E+00  4.90237E+00  2.48240E+00
   1.03148E+00  1.22277E+00 -1.81484E-02  5.13060E+00  3.70151E+00  2.45044E+00 -1.19244E+00  9.52828E-01  3.29982E+00  1.55820E+00
   2.67347E+00  2.20546E+00  1.01593E+00  4.44376E-01  1.21538E+00  7.23865E+00  2.92295E+00  2.16409E+00  3.35551E+00  2.92192E-01
   4.39654E-01 -5.57217E-01  3.21502E+00  2.26907E+00  2.19492E+00  1.13731E+00 -2.23454E-01  5.27475E+00  8.83750E-01  2.01301E+00
   3.26605E+00  2.49474E+00  1.82207E+00  2.06932E+00  2.54704E+00  4.74002E-01  9.08909E-01  5.43412E-01  5.08731E+00  2.70300E+00
   1.82719E+00  4.84604E+00  2.85690E+00  4.01525E+00  3.64556E+00  6.57955E+00  2.83090E+00  2.62407E+00  2.46107E+00  4.02408E+00
   2.35205E+00  3.25589E+00  2.51245E+00 -2.00964E-01  1.80430E+00  1.59163E+00  3.01099E+00  4.52448E+00  2.79191E+00  2.72044E+00
   3.29899E+00  1.49536E+00  2.13859E+00  2.14909E+00  2.77058E+00  3.16114E+00  5.76425E+00  3.10334E+00
 NY points of the fit to the data follow
  -1.85000E+00 -1.97111E+00 -1.99966E+00 -1.93321E+00 -1.82008E+00 -1.66428E+00 -1.48296E+00 -1.28738E+00 -1.09677E+00 -9.61096E-01
  -9.54182E-01 -1.12213E+00 -1.42051E+00 -1.73444E+00 -1.95551E+00 -2.05444E+00 -2.06252E+00 -2.00600E+00 -1.85615E+00 -1.59715E+00
  -1.30557E+00 -1.08506E+00 -9.89300E-01 -1.02547E+00 -1.21016E+00 -1.49557E+00 -1.76796E+00 -1.89696E+00 -1.75304E+00 -1.30189E+00
  -6.04730E-01  1.40576E-01  6.69811E-01  8.07770E-01  4.95775E-01 -1.86374E-01 -1.00516E+00 -1.72017E+00 -2.13563E+00 -2.20286E+00
  -2.02858E+00 -1.70095E+00 -1.29639E+00 -9.05680E-01 -5.39471E-01 -1.84491E-01  1.45031E-01  3.36531E-01  2.45398E-01 -1.53914E-01
  -7.40559E-01 -1.31050E+00 -1.67778E+00 -1.79406E+00 -1.75455E+00 -1.66476E+00 -1.54606E+00 -1.37201E+00 -1.16556E+00 -9.81254E-01
  -8.65637E-01 -8.55215E-01 -9.44762E-01 -1.09377E+00 -1.23086E+00 -1.28499E+00 -1.25206E+00 -1.17958E+00 -1.08525E+00 -9.63714E-01
  -8.27741E-01 -6.83990E-01 -5.49799E-01 -4.49739E-01 -4.11391E-01 -4.47429E-01 -5.61828E-01 -7.49550E-01 -9.48178E-01 -1.05243E+00
  -1.01757E+00 -8.66749E-01 -6.72116E-01 -5.01501E-01 -3.74427E-01 -3.14797E-01 -3.86725E-01 -6.23724E-01 -9.76032E-01 -1.31554E+00
  -1.51873E+00 -1.56135E+00 -1.52087E+00 -1.50105E+00 -1.50093E+00 -1.40553E+00 -1.09552E+00 -5.63281E-01  5.73943E-02  6.96901E-01
   1.35092E+00  2.04900E+00  2.71046E+00  3.11957E+00  3.03640E+00  2.39354E+00  1.42163E+00  5.13626E-01 -7.88086E-02 -4.12955E-01
  -6.67787E-01 -9.30632E-01 -1.10171E+00 -1.12349E+00 -1.09980E+00 -1.06532E+00 -1.02880E+00 -9.80602E-01 -9.14457E-01 -7.96900E-01
  -5.15565E-01 -4.53605E-02  5.42554E-01  1.21517E+00  1.96117E+00  2.74430E+00  3.43091E+00  3.80121E+00  3.65764E+00  3.00163E+00
   2.09576E+00  1.28159E+00  7.21840E-01  3.44115E-01 -2.33069E-03 -3.56351E-01 -5.84815E-01 -6.52143E-01 -6.38473E-01 -5.79847E-01
  -5.14134E-01 -4.75614E-01 -4.72089E-01 -4.93769E-01 -5.30329E-01 -5.70993E-01 -6.17895E-01 -6.80753E-01 -7.55321E-01 -8.27074E-01
  -8.84457E-01 -9.24287E-01 -9.53108E-01 -9.84432E-01 -1.05082E+00 -1.14987E+00 -1.26480E+00 -1.39018E+00 -1.51751E+00 -1.67032E+00
  -1.83350E+00 -1.93328E+00 -1.89805E+00 -1.73970E+00 -1.57805E+00 -1.56106E+00 -1.75267E+00 -2.07819E+00 -2.39389E+00 -2.63251E+00
  -2.83165E+00 -3.00228E+00 -3.16477E+00 -3.32482E+00 -3.46721E+00 -3.56760E+00 -3.56241E+00 -3.41372E+00 -3.18324E+00 -3.01156E+00
  -2.99794E+00 -3.06550E+00 -3.03887E+00 -2.83539E+00 -2.52026E+00 -2.22468E+00 -1.96387E+00 -1.61904E+00 -1.13088E+00 -5.68429E-01
  -1.03936E-01  1.28033E-01  1.52545E-01  8.52791E-02  3.07735E-02  1.47329E-02  2.52457E-03  1.92706E-02  9.56151E-02  2.56009E-01
   5.21743E-01  8.72857E-01  1.21522E+00  1.36632E+00  1.22355E+00  7.69687E-01  4.65182E-02 -8.07449E-01 -1.56084E+00 -1.94379E+00
  -1.85886E+00 -1.35149E+00 -4.90521E-01  5.96525E-01  1.66599E+00  2.38558E+00  2.45083E+00  1.79125E+00  6.19347E-01 -7.27577E-01
  -1.81027E+00 -2.35491E+00 -2.31898E+00 -1.70547E+00 -6.11856E-01  7.34344E-01  1.92532E+00  2.66664E+00  3.00091E+00  3.11432E+00
   3.16406E+00  3.18234E+00  3.18853E+00  3.26871E+00  3.45757E+00  3.68584E+00  3.87883E+00  4.04843E+00  4.21425E+00  4.36317E+00
   4.45320E+00  4.51525E+00  4.64291E+00  4.89997E+00  5.28964E+00  5.74286E+00  6.18595E+00  6.55809E+00  6.88492E+00  7.30043E+00
   7.87149E+00  8.63139E+00  9.72360E+00  1.20154E+01  1.60214E+01  2.08928E+01  2.60929E+01  3.14981E+01  3.71024E+01  4.22020E+01
   4.51369E+01  4.39947E+01  3.81202E+01  2.92996E+01  2.07993E+01  1.48581E+01  1.12575E+01  8.50083E+00  5.70179E+00  3.63635E+00
   2.86138E+00  2.50955E+00  2.29700E+00  2.17304E+00  2.08080E+00  1.95996E+00  1.79834E+00  1.60189E+00  1.39238E+00  1.19341E+00
   1.01805E+00  8.64749E-01  7.35936E-01  6.36599E-01  5.60577E-01  4.97008E-01  4.39123E-01  3.85859E-01  3.39561E-01  3.01279E-01
   2.69714E-01  2.46229E-01  2.29849E-01  2.16994E-01  2.04484E-01  1.92678E-01  1.83226E-01  1.77564E-01  1.76859E-01  1.81677E-01
   1.92124E-01  2.09013E-01  2.31628E-01  2.57753E-01  2.86194E-01  3.16918E-01  3.50683E-01  3.88186E-01  4.29780E-01  4.76597E-01
   5.29683E-01  5.89756E-01  6.58097E-01  7.36522E-01  8.27529E-01  9.34755E-01  1.06384E+00  1.22472E+00  1.43927E+00  1.75523E+00
   2.15331E+00  2.51425E+00  2.79441E+00  2.96995E+00  2.99365E+00  2.75526E+00  2.12935E+00  1.14852E+00  1.15234E-01 -6.30402E-01
  -8.39007E-01 -4.87918E-01  2.83380E-01  1.32537E+00  2.52157E+00  3.74075E+00  4.70708E+00  5.17113E+00  5.25245E+00  5.23434E+00
   5.30465E+00  5.46553E+00  5.61461E+00  5.74286E+00  5.96408E+00  6.26047E+00  6.59481E+00  6.94707E+00  7.30253E+00  7.64810E+00
   7.97142E+00  8.26081E+00  8.50565E+00  8.69667E+00  8.82632E+00  8.88898E+00  8.88134E+00  8.80258E+00  8.65449E+00  8.44124E+00
   8.16911E+00  7.84602E+00  7.48123E+00  7.08483E+00  6.66735E+00  6.23908E+00  5.80971E+00  5.38789E+00  4.98118E+00  4.59586E+00
   4.23690E+00  3.90787E+00  3.61107E+00  3.34770E+00  3.11819E+00  2.92235E+00  2.75959E+00  2.62902E+00  2.52968E+00  2.46071E+00
   2.42161E+00  2.41224E+00  2.43281E+00  2.48387E+00  2.56634E+00  2.68143E+00  2.83066E+00  3.01553E+00  3.23731E+00  3.49679E+00
   3.79407E+00  4.12835E+00  4.49766E+00  4.89850E+00  5.32574E+00  5.77244E+00  6.23007E+00  6.68859E+00  7.13676E+00  7.56244E+00
   7.95312E+00  8.29661E+00  8.58171E+00  8.79881E+00  8.94044E+00  9.00164E+00  8.98032E+00  8.87738E+00  8.69677E+00  8.44509E+00
   8.13120E+00  7.76561E+00  7.35995E+00  6.92635E+00  6.47687E+00  6.02283E+00  5.57442E+00  5.14026E+00  4.72739E+00  4.34112E+00
   3.98513E+00  3.66148E+00  3.37083E+00  3.11268E+00  2.88569E+00  2.68791E+00  2.51701E+00  2.37033E+00  2.24518E+00  2.13886E+00
   2.04894E+00  1.97317E+00  1.90956E+00  1.85625E+00  1.81165E+00  1.77439E+00  1.74339E+00  1.71771E+00  1.69657E+00  1.67925E+00
   1.66517E+00  1.65386E+00  1.64501E+00  1.63828E+00  1.63342E+00  1.63014E+00  1.62823E+00  1.62755E+00  1.62803E+00  1.62952E+00
   1.63190E+00  1.63504E+00  1.63888E+00  1.64337E+00  1.64851E+00  1.65419E+00  1.66037E+00  1.66694E+00  1.67392E+00  1.68130E+00
   1.68908E+00  1.69717E+00  1.70555E+00  1.71415E+00  1.72303E+00  1.73218E+00  1.74158E+00  1.75117E+00  1.76093E+00  1.77083E+00
   1.78094E+00  1.79124E+00  1.80170E+00  1.81228E+00  1.82296E+00  1.83375E+00  1.84471E+00  1.85580E+00  1.86699E+00  1.87824E+00
   1.88957E+00  1.90099E+00  1.91255E+00  1.92419E+00  1.93590E+00  1.94763E+00  1.95944E+00  1.97133E+00  1.98333E+00  1.99538E+00
   2.00747E+00  2.01957E+00  2.03175E+00  2.04402E+00  2.05637E+00  2.06874E+00  2.08114E+00  2.09357E+00
 NY background values follow
    -2.920E+00   -2.914E+00   -2.907E+00   -2.900E+00   -2.893E+00   -2.886E+00   -2.879E+00   -2.873E+00   -2.866E+00   -2.859E+00
    -2.852E+00   -2.845E+00   -2.839E+00   -2.832E+00   -2.825E+00   -2.818E+00   -2.811E+00   -2.805E+00   -2.798E+00   -2.791E+00
    -2.784E+00   -2.777E+00   -2.770E+00   -2.764E+00   -2.757E+00   -2.750E+00   -2.743E+00   -2.736E+00   -2.730E+00   -2.723E+00
    -2.716E+00   -2.709E+00   -2.702E+00   -2.695E+00   -2.689E+00   -2.682E+00   -2.675E+00   -2.668E+00   -2.661E+00   -2.655E+00
    -2.648E+00   -2.641E+00   -2.634E+00   -2.627E+00   -2.621E+00   -2.614E+00   -2.607E+00   -2.600E+00   -2.593E+00   -2.586E+00
    -2.580E+00   -2.573E+00   -2.566E+00   -2.559E+00   -2.552E+00   -2.546E+00   -2.539E+00   -2.532E+00   -2.525E+00   -2.518E+00
    -2.512E+00   -2.505E+00   -2.498E+00   -2.491E+00   -2.484E+00   -2.478E+00   -2.471E+00   -2.464E+00   -2.457E+00   -2.450E+00
    -2.444E+00   -2.437E+00   -2.430E+00   -2.423E+00   -2.416E+00   -2.410E+00   -2.403E+00   -2.396E+00   -2.389E+00   -2.382E+00
    -2.376E+00   -2.369E+00   -2.362E+00   -2.355E+00   -2.348E+00   -2.341E+00   -2.335E+00   -2.328E+00   -2.321E+00   -2.314E+00
    -2.307E+00   -2.301E+00   -2.294E+00   -2.287E+00   -2.280E+00   -2.273E+00   -2.267E+00   -2.260E+00   -2.253E+00   -2.246E+00
    -2.239E+00   -2.232E+00   -2.226E+00   -2.219E+00   -2.212E+00   -2.205E+00   -2.198E+00   -2.191E+00   -2.185E+00   -2.178E+00
    -2.171E+00   -2.164E+00   -2.157E+00   -2.150E+00   -2.143E+00   -2.137E+00   -2.130E+00   -2.123E+00   -2.116E+00   -2.109E+00
    -2.102E+00   -2.095E+00   -2.088E+00   -2.081E+00   -2.074E+00   -2.068E+00   -2.061E+00   -2.054E+00   -2.047E+00   -2.040E+00
    -2.033E+00   -2.026E+00   -2.019E+00   -2.012E+00   -2.005E+00   -1.998E+00   -1.991E+00   -1.984E+00   -1.977E+00   -1.970E+00
    -1.963E+00   -1.956E+00   -1.949E+00   -1.942E+00   -1.935E+00   -1.928E+00   -1.921E+00   -1.914E+00   -1.907E+00   -1.900E+00
    -1.893E+00   -1.886E+00   -1.878E+00   -1.871E+00   -1.864E+00   -1.857E+00   -1.850E+00   -1.843E+00   -1.836E+00   -1.828E+00
    -1.821E+00   -1.814E+00   -1.807E+00   -1.799E+00   -1.792E+00   -1.785E+00   -1.777E+00   -1.770E+00   -1.763E+00   -1.755E+00
    -1.748E+00   -1.741E+00   -1.733E+00   -1.726E+00   -1.718E+00   -1.711E+00   -1.703E+00   -1.696E+00   -1.688E+00   -1.681E+00
    -1.673E+00   -1.666E+00   -1.658E+00   -1.650E+00   -1.643E+00   -1.635E+00   -1.627E+00   -1.620E+00   -1.612E+00   -1.604E+00
    -1.596E+00   -1.589E+00   -1.581E+00   -1.573E+00   -1.565E+00   -1.557E+00   -1.549E+00   -1.541E+00   -1.533E+00   -1.525E+00
    -1.517E+00   -1.509E+00   -1.501E+00   -1.493E+00   -1.485E+00   -1.477E+00   -1.469E+00   -1.461E+00   -1.452E+00   -1.444E+00
    -1.436E+00   -1.428E+00   -1.419E+00   -1.411E+00   -1.403E+00   -1.394E+00   -1.386E+00   -1.377E+00   -1.369E+00   -1.361E+00
    -1.352E+00   -1.343E+00   -1.335E+00   -1.326E+00   -1.318E+00   -1.309E+00   -1.300E+00   -1.292E+00   -1.283E+00   -1.274E+00
    -1.266E+00   -1.257E+00   -1.248E+00   -1.239E+00   -1.230E+00   -1.221E+00   -1.212E+00   -1.203E+00   -1.194E+00   -1.185E+00
    -1.176E+00   -1.167E+00   -1.158E+00   -1.149E+00   -1.140E+00   -1.131E+00   -1.122E+00   -1.112E+00   -1.103E+00   -1.094E+00
    -1.084E+00   -1.075E+00   -1.066E+00   -1.056E+00   -1.047E+00   -1.037E+00   -1.028E+00   -1.018E+00   -1.009E+00   -9.993E-01
    -9.897E-01   -9.800E-01   -9.704E-01   -9.607E-01   -9.509E-01   -9.412E-01   -9.314E-01   -9.215E-01   -9.117E-01   -9.018E-01
    -8.919E-01   -8.819E-01   -8.719E-01   -8.619E-01   -8.519E-01   -8.418E-01   -8.317E-01   -8.216E-01   -8.114E-01   -8.012E-01
    -7.910E-01   -7.807E-01   -7.704E-01   -7.601E-01   -7.498E-01   -7.394E-01   -7.290E-01   -7.186E-01   -7.081E-01   -6.976E-01
    -6.871E-01   -6.765E-01   -6.659E-01   -6.553E-01   -6.446E-01   -6.340E-01   -6.233E-01   -6.125E-01   -6.017E-01   -5.910E-01
    -5.801E-01   -5.693E-01   -5.584E-01   -5.475E-01   -5.365E-01   -5.256E-01   -5.146E-01   -5.035E-01   -4.925E-01   -4.814E-01
    -4.703E-01   -4.591E-01   -4.479E-01   -4.367E-01   -4.255E-01   -4.142E-01   -4.030E-01   -3.916E-01   -3.803E-01   -3.689E-01
    -3.575E-01   -3.461E-01   -3.346E-01   -3.231E-01   -3.116E-01   -3.001E-01   -2.885E-01   -2.769E-01   -2.653E-01   -2.537E-01
    -2.420E-01   -2.303E-01   -2.186E-01   -2.068E-01   -1.950E-01   -1.832E-01   -1.714E-01   -1.595E-01   -1.477E-01   -1.357E-01
    -1.238E-01   -1.119E-01   -9.987E-02   -8.786E-02   -7.582E-02   -6.377E-02   -5.168E-02   -3.958E-02   -2.745E-02   -1.529E-02
    -3.112E-03    9.091E-03    2.132E-02    3.357E-02    4.584E-02    5.814E-02    7.046E-02    8.280E-02    9.517E-02    1.076E-01
     1.200E-01    1.324E-01    1.449E-01    1.573E-01    1.698E-01    1.824E-01    1.949E-01    2.075E-01    2.201E-01    2.327E-01
     2.453E-01    2.579E-01    2.706E-01    2.833E-01    2.960E-01    3.087E-01    3.215E-01    3.343E-01    3.471E-01    3.599E-01
     3.727E-01    3.856E-01    3.984E-01    4.113E-01    4.242E-01    4.371E-01    4.501E-01    4.631E-01    4.760E-01    4.890E-01
     5.021E-01    5.151E-01    5.282E-01    5.412E-01    5.543E-01    5.674E-01    5.805E-01    5.937E-01    6.068E-01    6.200E-01
     6.332E-01    6.464E-01    6.596E-01    6.729E-01    6.861E-01    6.994E-01    7.127E-01    7.260E-01    7.393E-01    7.527E-01
     7.660E-01    7.794E-01    7.928E-01    8.061E-01    8.195E-01    8.330E-01    8.464E-01    8.598E-01    8.733E-01    8.868E-01
     9.003E-01    9.138E-01    9.273E-01    9.408E-01    9.543E-01    9.679E-01    9.814E-01    9.950E-01    1.009E+00    1.022E+00
     1.036E+00    1.049E+00    1.063E+00    1.077E+00    1.090E+00    1.104E+00    1.118E+00    1.131E+00    1.145E+00    1.159E+00
     1.172E+00    1.186E+00    1.200E+00    1.213E+00    1.227E+00    1.241E+00    1.254E+00    1.268E+00    1.282E+00    1.296E+00
     1.309E+00    1.323E+00    1.337E+00    1.351E+00    1.364E+00    1.378E+00    1.392E+00    1.406E+00    1.420E+00    1.433E+00
     1.447E+00    1.461E+00    1.475E+00    1.489E+00    1.502E+00    1.516E+00    1.530E+00    1.544E+00    1.558E+00    1.571E+00
     1.585E+00    1.599E+00    1.613E+00    1.627E+00    1.641E+00    1.654E+00    1.668E+00    1.682E+00    1.696E+00    1.710E+00
     1.724E+00    1.737E+00    1.751E+00    1.765E+00    1.779E+00    1.793E+00    1.807E+00    1.821E+00    1.834E+00    1.848E+00
     1.862E+00    1.876E+00    1.890E+00    1.904E+00    1.917E+00    1.931E+00    1.945E+00    1.959E+00
 Ala      Conc. = 2.33E+02
