 LCModel (Version 6.3-1L) Copyright: S.W. Provencher.          Ref.: Magn. Reson. Med. 30:672-679 (1993).                
 Slice#1 Row#3 Col#4  PD_24_press_1_raw_act
 36 lines in following concentration table = NCONC+1
    Conc.  %SD /Cr+PCr  Metabolite                                         
    0.000 999%   0.000 Ala                                                 
    2.228 999% 9.0E-03 Asp                                                 
  194.091  64%   0.783 Cr                                                  
   53.935 233%   0.217 PCr                                                 
   15.279 255% 6.2E-02 GABA                                                
   33.849 115%   0.136 Glc                                                 
   91.421 168%   0.369 Gln                                                 
  295.980  58%   1.193 Glu                                                 
    0.000 999%   0.000 GPC                                                 
  104.866  14%   0.423 PCh                                                 
   33.607 137%   0.135 GSH                                                 
   37.677 396%   0.152 Ins                                                 
    0.000 999%   0.000 Lac                                                 
  478.191  11%   1.928 NAA                                                 
    0.000 999%   0.000 NAAG                                                
    9.397 114% 3.8E-02 Scyllo                                              
   82.567  74%   0.333 Tau                                                 
  199.802  27%   0.806 -CrCH2                                              
  104.866  14%   0.423 GPC+PCh                                             
  478.191  11%   1.928 NAA+NAAG                                            
  248.026  15%   1.000 Cr+PCr                                              
  387.401  66%   1.562 Glu+Gln                                             
    0.000 999%   0.000 Lip13a                                              
    0.000 999%   0.000 Lip13b                                              
 3.08E-03 999% 1.2E-05 Lip09                                               
 1.11E+03   9%   4.490 MM09                                                
 1.69E-03 999% 6.8E-06 Lip20                                               
 1.47E+03  14%   5.918 MM20                                                
   21.309 503% 8.6E-02 MM12                                                
  911.250  15%   3.674 MM14                                                
    0.000 999%   0.000 MM17                                                
    0.000 999%   0.000 Lip13a+Lip13b                                       
  932.559  18%   3.760 MM14+Lip13a+Lip13b+MM12                             
 1.11E+03   9%   4.490 MM09+Lip09                                          
 1.47E+03  14%   5.918 MM20+Lip20                                          
   6 lines in following misc. output table
  FWHM = 0.099 ppm    S/N =   3                                            
  Data shift = 0.061 ppm                                                   
  Ph: -50 deg     -12.8 deg/ppm                                            
  alphaB,S = 1.9E+00,   6.0E+00                                            
   14 spline knots.   Ns =10(1)                                            
  (17)14 infls.   (20) 8 extrs.                                            
  498 points on ppm-axis = NY
      4.000000     3.992357     3.984714     3.977070     3.969427     3.961784     3.954141     3.946497     3.938854     3.931211
      3.923568     3.915925     3.908281     3.900638     3.892995     3.885352     3.877708     3.870065     3.862422     3.854779
      3.847136     3.839492     3.831849     3.824206     3.816563     3.808919     3.801276     3.793633     3.785990     3.778347
      3.770703     3.763060     3.755417     3.747774     3.740130     3.732487     3.724844     3.717201     3.709558     3.701914
      3.694271     3.686628     3.678985     3.671341     3.663698     3.656055     3.648412     3.640769     3.633125     3.625482
      3.617839     3.610196     3.602552     3.594909     3.587266     3.579623     3.571980     3.564336     3.556693     3.549050
      3.541407     3.533763     3.526120     3.518477     3.510834     3.503191     3.495547     3.487904     3.480261     3.472618
      3.464974     3.457331     3.449688     3.442045     3.434402     3.426758     3.419115     3.411472     3.403829     3.396185
      3.388542     3.380899     3.373256     3.365613     3.357969     3.350326     3.342683     3.335040     3.327396     3.319753
      3.312110     3.304467     3.296824     3.289180     3.281537     3.273894     3.266251     3.258607     3.250964     3.243321
      3.235678     3.228034     3.220391     3.212748     3.205105     3.197462     3.189818     3.182175     3.174532     3.166889
      3.159245     3.151602     3.143959     3.136316     3.128673     3.121029     3.113386     3.105743     3.098100     3.090456
      3.082813     3.075170     3.067527     3.059884     3.052240     3.044597     3.036954     3.029311     3.021667     3.014024
      3.006381     2.998738     2.991095     2.983451     2.975808     2.968165     2.960522     2.952878     2.945235     2.937592
      2.929949     2.922306     2.914662     2.907019     2.899376     2.891733     2.884089     2.876446     2.868803     2.861160
      2.853517     2.845873     2.838230     2.830587     2.822944     2.815300     2.807657     2.800014     2.792371     2.784728
      2.777084     2.769441     2.761798     2.754155     2.746511     2.738868     2.731225     2.723582     2.715939     2.708295
      2.700652     2.693009     2.685366     2.677722     2.670079     2.662436     2.654793     2.647150     2.639506     2.631863
      2.624220     2.616577     2.608933     2.601290     2.593647     2.586004     2.578361     2.570717     2.563074     2.555431
      2.547788     2.540144     2.532501     2.524858     2.517215     2.509572     2.501928     2.494285     2.486642     2.478999
      2.471355     2.463712     2.456069     2.448426     2.440783     2.433139     2.425496     2.417853     2.410210     2.402566
      2.394923     2.387280     2.379637     2.371994     2.364350     2.356707     2.349064     2.341421     2.333777     2.326134
      2.318491     2.310848     2.303205     2.295561     2.287918     2.280275     2.272632     2.264988     2.257345     2.249702
      2.242059     2.234416     2.226772     2.219129     2.211486     2.203843     2.196199     2.188556     2.180913     2.173270
      2.165627     2.157983     2.150340     2.142697     2.135054     2.127410     2.119767     2.112124     2.104481     2.096838
      2.089194     2.081551     2.073908     2.066265     2.058621     2.050978     2.043335     2.035692     2.028049     2.020405
      2.012762     2.005119     1.997476     1.989833     1.982190     1.974546     1.966903     1.959260     1.951617     1.943974
      1.936331     1.928688     1.921045     1.913402     1.905759     1.898115     1.890472     1.882829     1.875186     1.867543
      1.859900     1.852257     1.844614     1.836971     1.829327     1.821684     1.814041     1.806398     1.798755     1.791112
      1.783469     1.775826     1.768183     1.760540     1.752896     1.745253     1.737610     1.729967     1.722324     1.714681
      1.707038     1.699395     1.691752     1.684108     1.676465     1.668822     1.661179     1.653536     1.645893     1.638250
      1.630607     1.622964     1.615321     1.607677     1.600034     1.592391     1.584748     1.577105     1.569462     1.561819
      1.554176     1.546533     1.538890     1.531246     1.523603     1.515960     1.508317     1.500674     1.493031     1.485388
      1.477745     1.470102     1.462458     1.454815     1.447172     1.439529     1.431886     1.424243     1.416600     1.408957
      1.401314     1.393671     1.386027     1.378384     1.370741     1.363098     1.355455     1.347812     1.340169     1.332526
      1.324883     1.317240     1.309596     1.301953     1.294310     1.286667     1.279024     1.271381     1.263738     1.256095
      1.248452     1.240808     1.233165     1.225522     1.217879     1.210236     1.202593     1.194950     1.187307     1.179664
      1.172021     1.164377     1.156734     1.149091     1.141448     1.133805     1.126162     1.118519     1.110876     1.103233
      1.095590     1.087946     1.080303     1.072660     1.065017     1.057374     1.049731     1.042088     1.034445     1.026802
      1.019158     1.011515     1.003872     0.996229     0.988586     0.980943     0.973300     0.965657     0.958014     0.950371
      0.942727     0.935084     0.927441     0.919798     0.912155     0.904512     0.896869     0.889226     0.881583     0.873940
      0.866296     0.858653     0.851010     0.843367     0.835724     0.828081     0.820438     0.812795     0.805152     0.797508
      0.789865     0.782222     0.774579     0.766936     0.759293     0.751650     0.744007     0.736364     0.728721     0.721077
      0.713434     0.705791     0.698148     0.690505     0.682862     0.675219     0.667576     0.659933     0.652290     0.644646
      0.637003     0.629360     0.621717     0.614074     0.606431     0.598788     0.591145     0.583502     0.575858     0.568215
      0.560572     0.552929     0.545286     0.537643     0.530000     0.522357     0.514714     0.507071     0.499427     0.491784
      0.484141     0.476498     0.468855     0.461212     0.453569     0.445925     0.438282     0.430639     0.422996     0.415353
      0.407710     0.400067     0.392424     0.384780     0.377137     0.369494     0.361851     0.354208     0.346565     0.338922
      0.331278     0.323635     0.315992     0.308349     0.300706     0.293063     0.285420     0.277777     0.270133     0.262490
      0.254847     0.247204     0.239561     0.231918     0.224275     0.216631     0.208988     0.201345
 NY phased data points follow
  -2.23952E+01 -1.88430E+01 -2.07844E+01 -1.62997E+01 -1.77360E+01 -8.95802E+00 -1.20704E+01 -1.20826E+01 -9.93721E+00 -1.06624E+01
  -1.09065E+01 -1.09622E+01 -1.45637E+01 -1.15107E+01 -1.34912E+01 -1.35898E+01 -1.38131E+01 -1.30570E+01 -1.29492E+01 -1.18355E+01
  -1.37110E+01 -1.02589E+01 -1.57818E+01 -1.19954E+01 -1.48527E+01 -9.90888E+00 -1.23037E+01 -6.43516E+00 -1.07320E+01 -6.41378E+00
  -1.17196E+01 -9.40063E+00 -1.26155E+01 -7.34819E+00 -9.34991E+00 -1.13154E+01 -1.14896E+01 -9.81387E+00 -1.34990E+01 -1.13108E+01
  -1.06522E+01 -7.70172E+00 -1.09430E+01 -5.77250E+00 -6.80182E+00 -8.07307E+00 -7.86265E+00 -1.12809E+01 -1.09225E+01 -1.10333E+01
  -7.65279E+00 -5.47020E+00 -7.08611E+00 -4.15682E+00 -9.44052E+00 -6.36188E+00 -1.10866E+01 -6.40575E+00 -1.15088E+01 -5.74182E+00
  -1.28781E+01 -8.70776E+00 -1.13675E+01 -1.34692E+01 -1.33907E+01 -1.05887E+01 -7.90702E+00 -7.05099E+00 -9.71233E+00 -4.48261E+00
  -6.36644E+00 -6.31324E+00 -4.85365E+00 -8.76375E+00 -1.19776E+01 -5.91635E+00 -9.98402E+00 -9.54221E+00 -6.41369E+00 -5.43614E+00
  -9.04350E+00 -5.09517E+00 -8.27159E+00 -7.00854E+00 -8.94897E+00 -6.96366E+00 -6.33788E+00 -7.95906E+00 -6.66817E+00 -4.84851E+00
  -1.11439E+01 -1.24304E+01 -1.03359E+01 -1.07178E+01 -9.61229E+00 -9.13624E+00 -1.08828E+01 -4.63705E+00 -4.88937E+00  7.03769E-01
  -4.76590E-01  2.12907E+00 -3.83032E-01  5.45314E+00 -4.58726E+00  2.04310E+00  1.20520E-01  2.07367E+00 -5.90474E-01 -4.29058E-01
  -3.36513E+00 -1.96182E+00 -6.24682E+00 -3.76914E+00 -3.57677E+00 -7.68591E+00 -8.03467E+00 -9.38023E+00 -7.02373E+00 -4.21729E+00
  -8.04529E+00 -2.56061E+00 -4.66270E+00  4.28168E+00  4.04463E+00  2.27407E+00 -3.01434E-01  4.46165E+00 -5.59332E+00 -2.87993E-01
   1.57920E+00  2.51064E+00 -1.62469E+00 -2.01720E+00 -2.19998E+00 -3.80289E+00 -5.65216E+00 -5.89221E+00 -7.42203E+00  2.06615E-01
  -5.74786E+00 -5.11868E+00 -5.39656E+00 -3.04753E+00 -3.55441E+00 -4.44662E+00 -7.91158E+00 -4.12192E+00 -6.89638E+00 -6.90402E+00
  -8.96701E+00 -6.22528E+00 -6.82278E+00 -1.94428E+00 -3.36269E+00 -5.02414E+00 -4.17224E+00 -2.49647E+00 -4.21667E+00 -4.67911E+00
  -5.58745E+00 -3.60317E+00 -2.84510E+00 -2.10679E+00 -4.67321E+00 -1.35413E+00 -4.39422E+00 -8.11384E+00 -5.08610E+00 -6.98483E+00
  -5.67411E+00 -7.38746E+00 -5.93152E+00 -6.23933E+00 -7.17224E+00 -6.86910E+00 -7.14126E+00 -6.38580E+00 -7.54149E+00 -2.23117E+00
  -5.08058E+00 -4.55413E+00 -4.39301E+00 -6.85473E+00 -4.76826E+00 -5.49819E+00 -2.57201E+00 -5.38202E+00 -2.77432E+00 -4.10504E+00
  -7.61318E-01 -1.26145E+00 -1.89039E+00 -3.86982E+00 -5.40240E+00 -3.32432E+00 -6.23080E+00 -2.00691E+00 -4.07955E+00 -4.38774E+00
  -2.25611E+00 -8.32393E-01 -1.11511E-01 -3.83043E+00 -5.32378E+00 -4.55809E+00 -5.13049E+00 -7.36636E+00 -1.88485E+00 -4.08976E+00
  -4.94899E-01 -6.28320E-01 -7.62560E-01 -1.95819E+00 -2.60454E-01  5.54736E+00 -2.30083E+00 -1.78776E+00 -2.17492E+00  8.88645E-02
   1.87000E-01  1.91649E-02 -3.83985E+00  1.78627E-01 -5.76329E+00 -4.41223E-01  5.29700E-01 -1.29261E-01 -1.25889E+00 -2.97096E+00
   1.95348E+00 -2.29759E+00 -1.82081E+00  1.82144E+00  9.68963E-02  1.29179E+00  5.64665E-01  1.93455E-01  1.08014E+00 -1.25519E+00
   7.33071E-01  4.38653E+00  3.65934E+00  3.16689E+00  1.16433E+00  1.55630E-01  9.42767E-01  4.41563E-01 -1.57816E+00 -3.71731E+00
  -3.40925E+00 -2.27166E+00 -2.37532E+00 -1.41413E+00 -7.20173E-01  5.76949E+00  3.20342E+00  1.06744E+01  1.32126E+01  1.37278E+01
   1.38984E+01  1.28419E+01  1.59754E+01  1.46562E+01  1.48487E+01  1.19748E+01  9.48671E+00  8.01519E+00  1.00299E+01  1.14257E+01
   4.73810E+00  2.43311E+00  4.55483E+00 -2.97641E-02 -4.99688E+00 -1.13165E+00  2.52387E+00  7.66219E-01  1.02312E-01 -1.16642E+00
  -8.28682E-01 -4.91599E+00 -4.09026E+00  3.39097E-02 -4.53379E-01 -2.29499E+00  1.35393E+00  1.83865E+00 -3.72918E+00 -3.39883E-01
  -7.58690E-01  1.00068E+00 -2.04260E+00 -6.38019E-02 -8.64753E-01 -3.13982E+00 -3.44209E+00 -3.89092E+00 -2.55421E+00 -1.47706E+00
  -8.89270E-01 -1.55103E-01 -4.05409E+00 -3.81060E+00 -2.25662E-01  3.67601E-01 -2.09978E+00 -1.45211E+00 -5.16770E-01 -3.28127E-02
  -2.66083E+00  5.45205E+00  2.84623E+00  2.50398E+00  1.28192E+00  2.66299E+00  2.23841E+00  2.05291E+00  2.46911E+00  1.94054E+00
   3.55605E+00  6.46240E-01 -9.91764E-01  3.09099E+00  9.03027E-01  4.89646E+00  6.08326E+00  5.89539E+00  3.97348E+00  4.16282E+00
   1.63924E+00  6.48166E+00  5.43795E+00  4.41302E+00  4.80951E+00  4.01169E-01  7.00620E-01  5.89897E+00  5.56963E+00  5.07481E+00
   6.07172E+00  3.70635E+00  3.96673E+00  9.77860E-01  2.53820E+00  6.51598E+00  3.40597E+00  2.44738E+00  7.48594E-01  1.82246E+00
   6.97080E-01  3.81862E+00 -1.34527E+00  1.37847E+00  8.52303E-01 -3.47045E+00  7.82123E-01 -1.01079E+00  3.38462E-02 -2.20878E+00
  -7.46311E-03 -2.01846E+00  1.12355E+00 -3.36543E+00 -3.10656E+00 -4.73166E+00 -3.24022E+00  2.95195E+00 -2.11052E-01  2.30472E+00
   4.20564E-01  4.85377E+00  1.62414E+00  3.89319E+00  2.36320E+00  8.00128E-01  1.95142E+00 -5.84512E-01  3.56786E+00  2.36120E+00
   7.52136E+00  7.44126E-01  5.25660E+00  1.32382E+00  3.80584E+00  6.11747E+00  5.21329E+00  6.39208E+00  1.79508E+00  3.98310E+00
   2.78315E+00  4.73991E+00  3.65599E+00  2.57251E+00  2.66440E+00  7.84473E+00  6.19232E+00  5.83633E+00  8.20187E+00  7.04856E+00
   1.05688E+01  5.82990E+00  1.09640E+01  1.15216E+01  9.36648E+00  1.20784E+01  8.07051E+00  9.82105E+00  1.06662E+01  1.06204E+01
   1.13678E+01  1.02259E+01  9.56960E+00  6.58106E+00  6.84722E+00  7.82016E+00  1.15715E+01  6.25705E+00  5.27514E+00  8.80434E+00
   8.87116E+00  7.72344E+00  6.11982E+00  6.15966E+00  7.80822E+00  4.69020E+00  5.19654E+00  7.21830E+00  2.59734E+00  4.97905E+00
   1.35100E+00  1.52366E+00  1.67327E+00  6.55454E+00  2.56856E+00  6.39788E+00  2.46341E+00  1.09396E+00  2.92322E+00  5.57989E+00
   4.38005E+00  3.78935E+00  6.69458E+00  2.87731E+00 -6.32412E-01  4.41645E+00  3.97258E+00 -1.38081E+00  2.35278E+00  2.64189E+00
   2.77040E+00  5.69009E+00  5.63754E+00  4.74970E+00  4.79867E+00  5.24230E+00  1.57933E+00  5.53405E+00  3.95655E+00  1.85998E+00
   3.39173E+00 -4.98681E-01  5.49483E-01 -6.37528E-01  6.48074E+00  2.29776E+00  5.60906E+00 -5.75137E-01  1.87575E+00  2.09871E+00
   1.75350E+00  3.25461E+00  3.64223E+00 -1.53833E-01  7.47113E+00  1.07055E+00  2.63356E+00  2.08788E+00  1.82319E+00  7.66895E-01
   1.79559E-01  5.02103E+00  3.56593E+00  6.99892E+00  4.39325E+00  1.21484E+00 -2.07655E+00  2.22398E+00  4.98098E+00  5.70651E+00
   4.29740E-01 -4.48849E-02  5.39991E-01  1.42883E+00  6.81049E+00  3.09381E+00  8.77166E-01  5.79526E+00
 NY points of the fit to the data follow
  -1.22849E+01 -1.33122E+01 -1.32832E+01 -1.34233E+01 -1.34038E+01 -1.31086E+01 -1.26618E+01 -1.13866E+01 -1.07592E+01 -1.04445E+01
  -1.02506E+01 -1.07841E+01 -1.12514E+01 -1.03498E+01 -9.57390E+00 -1.00229E+01 -1.08195E+01 -1.04131E+01 -9.54540E+00 -9.47119E+00
  -1.00193E+01 -1.04096E+01 -1.10683E+01 -1.13540E+01 -1.12571E+01 -1.10833E+01 -1.05736E+01 -1.00705E+01 -9.60663E+00 -9.24334E+00
  -9.28635E+00 -9.53073E+00 -9.58868E+00 -9.61692E+00 -9.67219E+00 -9.77468E+00 -9.82325E+00 -9.71985E+00 -9.69169E+00 -9.78798E+00
  -9.72410E+00 -9.78905E+00 -9.91775E+00 -9.87452E+00 -9.82899E+00 -9.90347E+00 -9.89600E+00 -9.77256E+00 -9.62286E+00 -9.54551E+00
  -9.49111E+00 -9.49069E+00 -9.50148E+00 -9.51063E+00 -9.46268E+00 -9.39582E+00 -9.34859E+00 -9.33989E+00 -9.30760E+00 -9.29781E+00
  -9.17687E+00 -9.09745E+00 -9.07358E+00 -8.98431E+00 -8.95488E+00 -9.08201E+00 -9.11855E+00 -8.99503E+00 -8.88319E+00 -8.67379E+00
  -8.49085E+00 -8.39737E+00 -8.30113E+00 -8.26842E+00 -8.30534E+00 -8.35850E+00 -8.53234E+00 -8.54605E+00 -8.34478E+00 -8.14850E+00
  -8.00999E+00 -7.95992E+00 -7.83711E+00 -7.61824E+00 -7.51364E+00 -7.49877E+00 -7.47948E+00 -7.60119E+00 -7.73416E+00 -7.77432E+00
  -7.79175E+00 -8.18937E+00 -9.60946E+00 -1.23783E+01 -1.15548E+01 -9.90182E+00 -8.82561E+00 -6.29085E+00 -4.43665E+00 -1.84354E+00
   4.46853E-01  9.73572E-01  1.00796E+00  9.86012E-01 -7.60341E-02  2.68341E-01  1.36038E+00  8.30326E-01 -9.66158E-01 -1.98642E+00
  -1.83113E+00 -2.01632E+00 -3.64796E+00 -4.79434E+00 -6.18719E+00 -7.25674E+00 -9.16996E+00 -1.06997E+01 -9.23546E+00 -8.26611E+00
  -6.90260E+00 -4.75271E+00 -3.18063E+00 -9.41461E-01  3.70565E-01  5.07789E-01  6.51635E-01  3.72543E-01 -2.32634E-01  4.99996E-01
   9.55776E-01 -9.08960E-02 -1.55800E+00 -1.95882E+00 -1.76137E+00 -2.47428E+00 -3.75418E+00 -4.58441E+00 -5.57133E+00 -5.85366E+00
  -5.87993E+00 -5.87371E+00 -5.86440E+00 -5.86947E+00 -5.85363E+00 -5.84697E+00 -5.83719E+00 -5.82549E+00 -5.81288E+00 -5.80302E+00
  -5.77745E+00 -5.66128E+00 -5.59818E+00 -5.67319E+00 -5.73600E+00 -5.90753E+00 -5.94121E+00 -5.86988E+00 -5.91709E+00 -5.85222E+00
  -5.74629E+00 -5.67678E+00 -5.55799E+00 -5.54413E+00 -5.63335E+00 -5.65037E+00 -5.56475E+00 -5.47766E+00 -5.61682E+00 -5.77278E+00
  -5.87577E+00 -5.88452E+00 -5.79457E+00 -5.88037E+00 -5.94036E+00 -5.91592E+00 -5.89073E+00 -5.79686E+00 -5.81397E+00 -6.04755E+00
  -6.08599E+00 -6.05565E+00 -5.98742E+00 -5.91416E+00 -5.90620E+00 -5.69940E+00 -5.29856E+00 -5.04396E+00 -4.76339E+00 -4.60770E+00
  -4.57931E+00 -4.43923E+00 -4.28576E+00 -4.18697E+00 -4.28690E+00 -4.30965E+00 -4.13247E+00 -3.80906E+00 -3.49036E+00 -3.09687E+00
  -2.55179E+00 -2.44109E+00 -2.52196E+00 -2.49170E+00 -2.81975E+00 -3.31815E+00 -3.98897E+00 -4.07679E+00 -3.76266E+00 -3.51910E+00
  -3.06778E+00 -2.41460E+00 -1.60641E+00 -1.30485E+00 -1.61348E+00 -2.02153E+00 -2.38612E+00 -3.00976E+00 -3.21254E+00 -3.04166E+00
  -2.99674E+00 -2.74932E+00 -2.37209E+00 -1.98930E+00 -1.70199E+00 -1.84461E+00 -1.86812E+00 -1.73634E+00 -1.53432E+00 -1.32032E+00
  -1.09371E+00 -6.67072E-01 -1.26203E-01  4.61153E-01  6.90302E-01  8.02122E-01  9.04036E-01  9.81610E-01  9.96292E-01  9.99736E-01
   1.20570E+00  1.53160E+00  1.78400E+00  1.84493E+00  1.98522E+00  2.10889E+00  2.09436E+00  2.10074E+00  2.15594E+00  1.58436E+00
  -1.51324E+00 -4.95991E+00 -2.69812E+00 -9.18734E-01  1.08836E+00  5.01500E+00  7.82699E+00  1.18454E+01  1.44935E+01  1.46517E+01
   1.46058E+01  1.40369E+01  1.23998E+01  1.33000E+01  1.41720E+01  1.23254E+01  9.41378E+00  8.29000E+00  8.46425E+00  7.29049E+00
   4.62731E+00  2.89642E+00  7.92230E-01 -5.55282E-02 -2.87807E-01 -4.32993E-01 -5.42210E-01 -6.06508E-01 -6.81281E-01 -7.54250E-01
  -8.12640E-01 -8.44957E-01 -8.74331E-01 -9.15086E-01 -9.54869E-01 -9.95259E-01 -1.02633E+00 -1.05073E+00 -1.06975E+00 -1.07486E+00
  -1.06806E+00 -1.06155E+00 -1.04534E+00 -1.02479E+00 -1.00230E+00 -9.77925E-01 -9.49146E-01 -9.16527E-01 -8.79357E-01 -8.38461E-01
  -7.90664E-01 -7.39037E-01 -6.81572E-01 -6.17996E-01 -5.48022E-01 -4.71413E-01 -3.85588E-01 -2.91822E-01 -1.88111E-01 -7.49506E-02
   5.04942E-02  1.87759E-01  3.38837E-01  5.02993E-01  6.82010E-01  8.74428E-01  1.08194E+00  1.30254E+00  1.53667E+00  1.78118E+00
   2.03531E+00  2.29496E+00  2.55859E+00  2.82124E+00  3.08026E+00  3.32973E+00  3.56650E+00  3.78469E+00  3.98149E+00  4.15143E+00
   4.29227E+00  4.39951E+00  4.47234E+00  4.50817E+00  4.50812E+00  4.47134E+00  4.40065E+00  4.29693E+00  4.16477E+00  4.00674E+00
   3.82854E+00  3.63336E+00  3.42721E+00  3.21340E+00  2.99789E+00  2.78366E+00  2.57582E+00  2.37622E+00  2.18875E+00  2.01421E+00
   1.85555E+00  1.71247E+00  1.58671E+00  1.47687E+00  1.38384E+00  1.30571E+00  1.24300E+00  1.19340E+00  1.15699E+00  1.13124E+00
   1.11625E+00  1.10975E+00  1.11205E+00  1.12096E+00  1.13684E+00  1.15768E+00  1.18422E+00  1.21490E+00  1.25069E+00  1.29012E+00
   1.33426E+00  1.38193E+00  1.43458E+00  1.49134E+00  1.55381E+00  1.62119E+00  1.69522E+00  1.77548E+00  1.86411E+00  1.96098E+00
   2.06843E+00  2.18651E+00  2.31788E+00  2.46307E+00  2.62515E+00  2.80487E+00  3.00530E+00  3.22721E+00  3.47364E+00  3.74517E+00
   4.04433E+00  4.37074E+00  4.72554E+00  5.10678E+00  5.51382E+00  5.94257E+00  6.38985E+00  6.84880E+00  7.31347E+00  7.77453E+00
   8.22390E+00  8.65061E+00  9.04543E+00  9.39702E+00  9.69680E+00  9.93514E+00  1.01062E+01  1.02037E+01  1.02260E+01  1.01711E+01
   1.00423E+01  9.84263E+00  9.57969E+00  9.26053E+00  8.89562E+00  8.49419E+00  8.06799E+00  7.62662E+00  7.18115E+00  6.73962E+00
   6.31088E+00  5.90043E+00  5.51443E+00  5.15561E+00  4.82731E+00  4.52956E+00  4.26340E+00  4.02703E+00  3.82010E+00  3.63977E+00
   3.48481E+00  3.35184E+00  3.23946E+00  3.14441E+00  3.06556E+00  2.99993E+00  2.94664E+00  2.90302E+00  2.86862E+00  2.84128E+00
   2.82096E+00  2.80576E+00  2.79579E+00  2.78941E+00  2.78703E+00  2.78728E+00  2.79073E+00  2.79607E+00  2.80387E+00  2.81296E+00
   2.82409E+00  2.83621E+00  2.85009E+00  2.86461E+00  2.88053E+00  2.89684E+00  2.91444E+00  2.93236E+00  2.95142E+00  2.97058E+00
   2.99068E+00  3.01081E+00  3.03188E+00  3.05295E+00  3.07485E+00  3.09660E+00  3.11907E+00  3.14139E+00  3.16449E+00  3.18741E+00
   3.21099E+00  3.23428E+00  3.25819E+00  3.28189E+00  3.30624E+00  3.33032E+00  3.35494E+00  3.37922E+00  3.40407E+00  3.42866E+00
   3.45382E+00  3.47865E+00  3.50396E+00  3.52891E+00  3.55440E+00  3.57960E+00  3.60531E+00  3.63065E+00  3.65643E+00  3.68186E+00
   3.70781E+00  3.73346E+00  3.75956E+00  3.78526E+00  3.81139E+00  3.83718E+00  3.86348E+00  3.88943E+00
 NY background values follow
    -1.243E+01   -1.239E+01   -1.235E+01   -1.231E+01   -1.227E+01   -1.222E+01   -1.218E+01   -1.214E+01   -1.210E+01   -1.206E+01
    -1.202E+01   -1.198E+01   -1.193E+01   -1.189E+01   -1.185E+01   -1.181E+01   -1.177E+01   -1.173E+01   -1.168E+01   -1.164E+01
    -1.160E+01   -1.156E+01   -1.152E+01   -1.148E+01   -1.143E+01   -1.139E+01   -1.135E+01   -1.131E+01   -1.127E+01   -1.123E+01
    -1.119E+01   -1.114E+01   -1.110E+01   -1.106E+01   -1.102E+01   -1.098E+01   -1.094E+01   -1.089E+01   -1.085E+01   -1.081E+01
    -1.077E+01   -1.073E+01   -1.069E+01   -1.065E+01   -1.061E+01   -1.056E+01   -1.052E+01   -1.048E+01   -1.044E+01   -1.040E+01
    -1.036E+01   -1.032E+01   -1.028E+01   -1.023E+01   -1.019E+01   -1.015E+01   -1.011E+01   -1.007E+01   -1.003E+01   -9.987E+00
    -9.946E+00   -9.906E+00   -9.865E+00   -9.824E+00   -9.783E+00   -9.742E+00   -9.701E+00   -9.660E+00   -9.620E+00   -9.579E+00
    -9.538E+00   -9.498E+00   -9.457E+00   -9.416E+00   -9.376E+00   -9.335E+00   -9.295E+00   -9.254E+00   -9.214E+00   -9.173E+00
    -9.133E+00   -9.093E+00   -9.052E+00   -9.012E+00   -8.972E+00   -8.932E+00   -8.892E+00   -8.852E+00   -8.812E+00   -8.772E+00
    -8.732E+00   -8.692E+00   -8.652E+00   -8.612E+00   -8.572E+00   -8.532E+00   -8.493E+00   -8.453E+00   -8.413E+00   -8.374E+00
    -8.334E+00   -8.295E+00   -8.255E+00   -8.216E+00   -8.177E+00   -8.137E+00   -8.098E+00   -8.059E+00   -8.020E+00   -7.981E+00
    -7.942E+00   -7.903E+00   -7.864E+00   -7.825E+00   -7.786E+00   -7.747E+00   -7.709E+00   -7.670E+00   -7.631E+00   -7.593E+00
    -7.554E+00   -7.516E+00   -7.477E+00   -7.439E+00   -7.400E+00   -7.362E+00   -7.324E+00   -7.286E+00   -7.248E+00   -7.210E+00
    -7.172E+00   -7.134E+00   -7.096E+00   -7.058E+00   -7.020E+00   -6.983E+00   -6.945E+00   -6.907E+00   -6.870E+00   -6.833E+00
    -6.795E+00   -6.758E+00   -6.720E+00   -6.683E+00   -6.646E+00   -6.609E+00   -6.572E+00   -6.535E+00   -6.498E+00   -6.461E+00
    -6.424E+00   -6.388E+00   -6.351E+00   -6.314E+00   -6.278E+00   -6.241E+00   -6.205E+00   -6.168E+00   -6.132E+00   -6.096E+00
    -6.060E+00   -6.024E+00   -5.987E+00   -5.951E+00   -5.916E+00   -5.880E+00   -5.844E+00   -5.808E+00   -5.772E+00   -5.737E+00
    -5.701E+00   -5.666E+00   -5.630E+00   -5.595E+00   -5.559E+00   -5.524E+00   -5.489E+00   -5.454E+00   -5.419E+00   -5.384E+00
    -5.349E+00   -5.314E+00   -5.279E+00   -5.244E+00   -5.209E+00   -5.175E+00   -5.140E+00   -5.106E+00   -5.071E+00   -5.037E+00
    -5.002E+00   -4.968E+00   -4.934E+00   -4.900E+00   -4.866E+00   -4.832E+00   -4.798E+00   -4.764E+00   -4.730E+00   -4.696E+00
    -4.662E+00   -4.629E+00   -4.595E+00   -4.561E+00   -4.528E+00   -4.494E+00   -4.461E+00   -4.428E+00   -4.394E+00   -4.361E+00
    -4.328E+00   -4.295E+00   -4.262E+00   -4.229E+00   -4.196E+00   -4.163E+00   -4.130E+00   -4.097E+00   -4.064E+00   -4.032E+00
    -3.999E+00   -3.967E+00   -3.934E+00   -3.902E+00   -3.869E+00   -3.837E+00   -3.804E+00   -3.772E+00   -3.740E+00   -3.708E+00
    -3.676E+00   -3.644E+00   -3.612E+00   -3.580E+00   -3.548E+00   -3.516E+00   -3.484E+00   -3.452E+00   -3.421E+00   -3.389E+00
    -3.357E+00   -3.326E+00   -3.294E+00   -3.263E+00   -3.231E+00   -3.200E+00   -3.169E+00   -3.137E+00   -3.106E+00   -3.075E+00
    -3.044E+00   -3.013E+00   -2.982E+00   -2.951E+00   -2.920E+00   -2.889E+00   -2.858E+00   -2.827E+00   -2.796E+00   -2.765E+00
    -2.734E+00   -2.704E+00   -2.673E+00   -2.642E+00   -2.612E+00   -2.581E+00   -2.551E+00   -2.520E+00   -2.490E+00   -2.459E+00
    -2.429E+00   -2.399E+00   -2.369E+00   -2.338E+00   -2.308E+00   -2.278E+00   -2.248E+00   -2.218E+00   -2.188E+00   -2.157E+00
    -2.127E+00   -2.097E+00   -2.068E+00   -2.038E+00   -2.008E+00   -1.978E+00   -1.948E+00   -1.918E+00   -1.889E+00   -1.859E+00
    -1.829E+00   -1.800E+00   -1.770E+00   -1.740E+00   -1.711E+00   -1.681E+00   -1.652E+00   -1.622E+00   -1.593E+00   -1.563E+00
    -1.534E+00   -1.505E+00   -1.475E+00   -1.446E+00   -1.417E+00   -1.388E+00   -1.358E+00   -1.329E+00   -1.300E+00   -1.271E+00
    -1.242E+00   -1.213E+00   -1.184E+00   -1.155E+00   -1.126E+00   -1.097E+00   -1.068E+00   -1.039E+00   -1.010E+00   -9.811E-01
    -9.522E-01   -9.234E-01   -8.946E-01   -8.659E-01   -8.371E-01   -8.084E-01   -7.797E-01   -7.510E-01   -7.224E-01   -6.937E-01
    -6.651E-01   -6.366E-01   -6.080E-01   -5.795E-01   -5.509E-01   -5.224E-01   -4.940E-01   -4.655E-01   -4.371E-01   -4.087E-01
    -3.803E-01   -3.519E-01   -3.235E-01   -2.952E-01   -2.669E-01   -2.386E-01   -2.103E-01   -1.821E-01   -1.538E-01   -1.256E-01
    -9.740E-02   -6.922E-02   -4.105E-02   -1.290E-02    1.524E-02    4.335E-02    7.145E-02    9.954E-02    1.276E-01    1.557E-01
     1.837E-01    2.117E-01    2.397E-01    2.677E-01    2.957E-01    3.236E-01    3.516E-01    3.795E-01    4.074E-01    4.353E-01
     4.632E-01    4.911E-01    5.189E-01    5.468E-01    5.746E-01    6.024E-01    6.302E-01    6.580E-01    6.857E-01    7.135E-01
     7.412E-01    7.689E-01    7.966E-01    8.243E-01    8.520E-01    8.796E-01    9.073E-01    9.349E-01    9.625E-01    9.901E-01
     1.018E+00    1.045E+00    1.073E+00    1.100E+00    1.128E+00    1.155E+00    1.183E+00    1.210E+00    1.238E+00    1.265E+00
     1.293E+00    1.320E+00    1.347E+00    1.375E+00    1.402E+00    1.429E+00    1.457E+00    1.484E+00    1.511E+00    1.539E+00
     1.566E+00    1.593E+00    1.620E+00    1.647E+00    1.675E+00    1.702E+00    1.729E+00    1.756E+00    1.783E+00    1.810E+00
     1.838E+00    1.865E+00    1.892E+00    1.919E+00    1.946E+00    1.973E+00    2.000E+00    2.027E+00    2.054E+00    2.081E+00
     2.108E+00    2.135E+00    2.162E+00    2.189E+00    2.216E+00    2.243E+00    2.270E+00    2.296E+00    2.323E+00    2.350E+00
     2.377E+00    2.404E+00    2.431E+00    2.458E+00    2.484E+00    2.511E+00    2.538E+00    2.565E+00    2.592E+00    2.618E+00
     2.645E+00    2.672E+00    2.699E+00    2.726E+00    2.752E+00    2.779E+00    2.806E+00    2.832E+00    2.859E+00    2.886E+00
     2.913E+00    2.939E+00    2.966E+00    2.993E+00    3.019E+00    3.046E+00    3.073E+00    3.099E+00    3.126E+00    3.153E+00
     3.179E+00    3.206E+00    3.233E+00    3.259E+00    3.286E+00    3.312E+00    3.339E+00    3.366E+00    3.392E+00    3.419E+00
     3.446E+00    3.472E+00    3.499E+00    3.525E+00    3.552E+00    3.579E+00    3.605E+00    3.632E+00    3.658E+00    3.685E+00
     3.712E+00    3.738E+00    3.765E+00    3.792E+00    3.818E+00    3.845E+00    3.871E+00    3.898E+00
 Asp      Conc. = 2.23E+00
