 LCModel (Version 6.3-1L) Copyright: S.W. Provencher.          Ref.: Magn. Reson. Med. 30:672-679 (1993).                
 Slice#2 Row#3 Col#8  PD_24_press_1_raw_act
 36 lines in following concentration table = NCONC+1
    Conc.  %SD /Cr+PCr  Metabolite                                         
   50.722 174% 6.4E-02 Ala                                                 
    0.000 999%   0.000 Asp                                                 
  542.211  27%   0.684 Cr                                                  
  250.090  61%   0.316 PCr                                                 
   36.290 233% 4.6E-02 GABA                                                
  129.268  65%   0.163 Glc                                                 
  350.063  49%   0.442 Gln                                                 
 1.12E+03  18%   1.410 Glu                                                 
  332.076   5%   0.419 GPC                                                 
    0.000 999%   0.000 PCh                                                 
  266.551  21%   0.336 GSH                                                 
  919.316  20%   1.160 Ins                                                 
  470.975  28%   0.594 Lac                                                 
  981.671   7%   1.239 NAA                                                 
   96.607  78%   0.122 NAAG                                                
   64.824  29% 8.2E-02 Scyllo                                              
   95.594 126%   0.121 Tau                                                 
   84.087  99%   0.106 -CrCH2                                              
  332.076   5%   0.419 GPC+PCh                                             
 1.08E+03   6%   1.361 NAA+NAAG                                            
  792.301   6%   1.000 Cr+PCr                                              
 1.47E+03  18%   1.852 Glu+Gln                                             
    0.000 999%   0.000 Lip13a                                              
 1.70E+03  30%   2.145 Lip13b                                              
  289.744  87%   0.366 Lip09                                               
  950.082  26%   1.199 MM09                                                
  116.754 140%   0.147 Lip20                                               
 2.23E+03  13%   2.820 MM20                                                
  247.236  74%   0.312 MM12                                                
 2.07E+03  23%   2.616 MM14                                                
  514.666  35%   0.650 MM17                                                
 1.70E+03  30%   2.145 Lip13a+Lip13b                                       
 4.02E+03   7%   5.073 MM14+Lip13a+Lip13b+MM12                             
 1.24E+03  11%   1.565 MM09+Lip09                                          
 2.35E+03  12%   2.968 MM20+Lip20                                          
   6 lines in following misc. output table
  FWHM = 0.046 ppm    S/N =   7                                            
  Data shift =-0.031 ppm                                                   
  Ph: -15 deg      -2.0 deg/ppm                                            
  alphaB,S = 8.5E+01,   5.4E+01                                            
   14 spline knots.   Ns = 6(1)                                            
   4 inflections.     1 extrema                                            
  498 points on ppm-axis = NY
      4.000000     3.992357     3.984714     3.977070     3.969427     3.961784     3.954141     3.946497     3.938854     3.931211
      3.923568     3.915925     3.908281     3.900638     3.892995     3.885352     3.877708     3.870065     3.862422     3.854779
      3.847136     3.839492     3.831849     3.824206     3.816563     3.808919     3.801276     3.793633     3.785990     3.778347
      3.770703     3.763060     3.755417     3.747774     3.740130     3.732487     3.724844     3.717201     3.709558     3.701914
      3.694271     3.686628     3.678985     3.671341     3.663698     3.656055     3.648412     3.640769     3.633125     3.625482
      3.617839     3.610196     3.602552     3.594909     3.587266     3.579623     3.571980     3.564336     3.556693     3.549050
      3.541407     3.533763     3.526120     3.518477     3.510834     3.503191     3.495547     3.487904     3.480261     3.472618
      3.464974     3.457331     3.449688     3.442045     3.434402     3.426758     3.419115     3.411472     3.403829     3.396185
      3.388542     3.380899     3.373256     3.365613     3.357969     3.350326     3.342683     3.335040     3.327396     3.319753
      3.312110     3.304467     3.296824     3.289180     3.281537     3.273894     3.266251     3.258607     3.250964     3.243321
      3.235678     3.228034     3.220391     3.212748     3.205105     3.197462     3.189818     3.182175     3.174532     3.166889
      3.159245     3.151602     3.143959     3.136316     3.128673     3.121029     3.113386     3.105743     3.098100     3.090456
      3.082813     3.075170     3.067527     3.059884     3.052240     3.044597     3.036954     3.029311     3.021667     3.014024
      3.006381     2.998738     2.991095     2.983451     2.975808     2.968165     2.960522     2.952878     2.945235     2.937592
      2.929949     2.922306     2.914662     2.907019     2.899376     2.891733     2.884089     2.876446     2.868803     2.861160
      2.853517     2.845873     2.838230     2.830587     2.822944     2.815300     2.807657     2.800014     2.792371     2.784728
      2.777084     2.769441     2.761798     2.754155     2.746511     2.738868     2.731225     2.723582     2.715939     2.708295
      2.700652     2.693009     2.685366     2.677722     2.670079     2.662436     2.654793     2.647150     2.639506     2.631863
      2.624220     2.616577     2.608933     2.601290     2.593647     2.586004     2.578361     2.570717     2.563074     2.555431
      2.547788     2.540144     2.532501     2.524858     2.517215     2.509572     2.501928     2.494285     2.486642     2.478999
      2.471355     2.463712     2.456069     2.448426     2.440783     2.433139     2.425496     2.417853     2.410210     2.402566
      2.394923     2.387280     2.379637     2.371994     2.364350     2.356707     2.349064     2.341421     2.333777     2.326134
      2.318491     2.310848     2.303205     2.295561     2.287918     2.280275     2.272632     2.264988     2.257345     2.249702
      2.242059     2.234416     2.226772     2.219129     2.211486     2.203843     2.196199     2.188556     2.180913     2.173270
      2.165627     2.157983     2.150340     2.142697     2.135054     2.127410     2.119767     2.112124     2.104481     2.096838
      2.089194     2.081551     2.073908     2.066265     2.058621     2.050978     2.043335     2.035692     2.028049     2.020405
      2.012762     2.005119     1.997476     1.989833     1.982190     1.974546     1.966903     1.959260     1.951617     1.943974
      1.936331     1.928688     1.921045     1.913402     1.905759     1.898115     1.890472     1.882829     1.875186     1.867543
      1.859900     1.852257     1.844614     1.836971     1.829327     1.821684     1.814041     1.806398     1.798755     1.791112
      1.783469     1.775826     1.768183     1.760540     1.752896     1.745253     1.737610     1.729967     1.722324     1.714681
      1.707038     1.699395     1.691752     1.684108     1.676465     1.668822     1.661179     1.653536     1.645893     1.638250
      1.630607     1.622964     1.615321     1.607677     1.600034     1.592391     1.584748     1.577105     1.569462     1.561819
      1.554176     1.546533     1.538890     1.531246     1.523603     1.515960     1.508317     1.500674     1.493031     1.485388
      1.477745     1.470102     1.462458     1.454815     1.447172     1.439529     1.431886     1.424243     1.416600     1.408957
      1.401314     1.393671     1.386027     1.378384     1.370741     1.363098     1.355455     1.347812     1.340169     1.332526
      1.324883     1.317240     1.309596     1.301953     1.294310     1.286667     1.279024     1.271381     1.263738     1.256095
      1.248452     1.240808     1.233165     1.225522     1.217879     1.210236     1.202593     1.194950     1.187307     1.179664
      1.172021     1.164377     1.156734     1.149091     1.141448     1.133805     1.126162     1.118519     1.110876     1.103233
      1.095590     1.087946     1.080303     1.072660     1.065017     1.057374     1.049731     1.042088     1.034445     1.026802
      1.019158     1.011515     1.003872     0.996229     0.988586     0.980943     0.973300     0.965657     0.958014     0.950371
      0.942727     0.935084     0.927441     0.919798     0.912155     0.904512     0.896869     0.889226     0.881583     0.873940
      0.866296     0.858653     0.851010     0.843367     0.835724     0.828081     0.820438     0.812795     0.805152     0.797508
      0.789865     0.782222     0.774579     0.766936     0.759293     0.751650     0.744007     0.736364     0.728721     0.721077
      0.713434     0.705791     0.698148     0.690505     0.682862     0.675219     0.667576     0.659933     0.652290     0.644646
      0.637003     0.629360     0.621717     0.614074     0.606431     0.598788     0.591145     0.583502     0.575858     0.568215
      0.560572     0.552929     0.545286     0.537643     0.530000     0.522357     0.514714     0.507071     0.499427     0.491784
      0.484141     0.476498     0.468855     0.461212     0.453569     0.445925     0.438282     0.430639     0.422996     0.415353
      0.407710     0.400067     0.392424     0.384780     0.377137     0.369494     0.361851     0.354208     0.346565     0.338922
      0.331278     0.323635     0.315992     0.308349     0.300706     0.293063     0.285420     0.277777     0.270133     0.262490
      0.254847     0.247204     0.239561     0.231918     0.224275     0.216631     0.208988     0.201345
 NY phased data points follow
  -2.58306E+00 -2.52934E+00 -3.80661E+00  1.76010E+00  6.61385E-01  5.96982E+00  2.89033E+00  6.56816E+00  1.00694E+01  1.30290E+01
   1.77365E+01  2.33186E+01  1.68329E+01  1.99060E+01  1.26297E+01  7.75264E+00  8.96416E+00  4.38166E+00  6.74638E+00  1.01308E+01
   3.83714E+00  5.77925E+00  1.02565E+01  6.57165E+00  4.72304E+00  4.04442E+00  6.77302E+00  8.43216E+00  5.15741E+00  7.24166E+00
   1.01050E+01  9.47400E+00  1.25981E+01  1.26841E+01  9.23134E+00  5.49813E+00  6.91018E+00  8.76591E+00  5.84821E+00  5.91681E+00
   3.78951E+00  6.57489E+00  4.91928E+00  8.88776E+00  8.46211E+00  9.52446E+00  1.35775E+01  1.05579E+01  9.84974E+00  1.26064E+01
   8.82336E+00  1.05598E+01  7.56486E+00  6.27929E+00  5.39622E+00  7.15426E+00  9.61010E+00  1.11107E+01  6.15102E+00  9.43498E+00
   8.95948E+00  1.47173E+00  4.33784E+00  3.91318E+00  3.71099E+00  8.42742E-01 -2.72925E+00  6.40650E-01 -3.45476E+00 -3.62132E+00
   6.63905E-01 -7.15980E-01  2.52346E+00  1.79722E+00  1.31956E+00  2.17832E+00  4.25982E+00  9.22884E+00  6.56648E+00  2.88515E+00
   1.99686E+00  2.73149E+00  3.33043E+00  4.00915E+00  7.07092E+00  3.12287E+00  2.18223E+00  3.72714E+00  3.04624E+00  5.57520E+00
   4.89534E+00  9.93775E-01  3.37524E+00  9.51122E+00  6.39555E+00  3.53805E+00  4.91005E+00  4.47466E+00  9.44470E-01  6.98557E+00
   1.32084E+01  2.00266E+01  2.70439E+01  3.32470E+01  3.19836E+01  3.05678E+01  2.78545E+01  2.07861E+01  1.51979E+01  1.33808E+01
   7.72931E+00  1.25547E+01  6.98599E+00  1.11744E+01  1.19518E+01  8.83480E+00  4.94722E+00  3.27714E+00  7.60229E+00  6.40486E+00
   3.57719E+00  1.97941E+00  6.90366E+00  8.97778E+00  1.53115E+01  2.58380E+01  2.47943E+01  3.05612E+01  3.00517E+01  2.86410E+01
   2.76253E+01  1.77779E+01  1.08382E+01  1.09292E+01  1.67682E+01  1.10972E+01  7.48537E+00  8.00107E+00  7.22168E+00  3.01268E+00
   3.84396E+00  4.17399E+00  5.05403E-01 -2.83323E-01  4.60950E+00  3.69388E+00  4.49924E+00  2.10409E+00  3.86263E+00  1.04889E-01
   1.09777E+00 -2.51205E+00 -2.48574E+00  1.58622E+00 -1.64897E+00  3.93223E+00  5.25968E+00  8.51360E+00  3.45586E+00  1.17884E+00
   3.91325E-01  1.15822E+00  1.15978E+00  3.08216E+00  4.34420E+00  2.04393E+00  2.73343E+00 -1.91704E+00 -1.06339E+00 -3.40906E+00
  -1.58889E+00 -4.69583E+00 -3.85760E+00 -3.64537E+00 -2.74831E+00 -6.94080E+00 -6.34045E+00 -3.46848E+00 -3.45608E-01 -1.54232E+00
  -9.10119E-01 -4.24584E+00 -4.73934E+00 -3.30097E+00 -1.68748E+00 -2.16204E+00 -1.09682E+00 -3.69281E+00 -7.81693E-01 -2.24914E+00
   2.58031E+00  3.27376E+00  2.95041E+00  4.05122E+00 -2.17547E+00 -3.41796E+00  6.52354E-01  4.30824E+00  4.26575E+00 -1.15814E+00
  -1.35319E+00  1.10249E-01  6.84990E-01  2.70709E+00  5.54006E+00  5.90621E+00  2.63915E+00 -4.04058E-03 -3.54962E+00  1.82245E+00
  -3.61006E+00  1.03148E+00  4.17249E+00  4.45252E+00  2.52672E+00  8.73386E+00  1.23203E+01  6.80202E+00  5.23259E+00  3.78061E+00
  -1.00660E+00 -2.88901E+00 -1.21917E+00 -2.24408E+00 -7.09723E-01  2.75021E+00  6.45070E+00  5.12941E+00  6.10421E+00  7.26482E+00
   5.27310E+00  5.84229E+00  4.60148E+00  3.16980E+00  3.66293E+00  9.36835E+00  7.65615E+00  7.47793E+00  1.26864E+01  9.03374E+00
   6.42483E+00  7.17677E+00  3.99981E+00  7.41592E+00  9.74716E+00  1.14827E+01  1.07739E+01  1.33849E+01  9.65267E+00  1.67066E+01
   8.65583E+00  1.11840E+01  1.36060E+01  1.76855E+01  1.87831E+01  1.68680E+01  2.25769E+01  2.98938E+01  3.63804E+01  4.16885E+01
   4.94703E+01  4.68161E+01  3.54900E+01  2.75301E+01  1.72771E+01  1.73135E+01  1.60869E+01  1.42853E+01  1.06311E+01  6.76237E+00
   8.93050E+00  1.82727E+00  1.49129E+00  2.27833E+00  4.07924E+00  7.19699E+00 -1.02927E+00  4.82923E+00 -1.51085E+00  1.74360E+00
  -5.77597E-01  1.64279E+00  1.31459E+00 -2.87230E-01  4.77162E+00  2.56024E+00 -1.44163E+00  8.95809E-02  1.69368E+00  1.59818E+00
   2.20305E+00  1.54419E+00  2.54626E-01 -3.88286E-01  8.82326E-01 -3.42118E-01 -1.80787E+00  3.50746E+00 -3.27278E-01  2.63498E-01
   2.25538E+00  1.48957E+00  3.29983E+00  7.12678E+00  5.41403E+00  3.48252E+00  6.52682E+00  6.21738E+00  5.90527E+00  1.05590E+01
   5.36177E+00  7.33629E+00  7.02388E+00  5.79033E+00  1.42485E+01  7.88860E+00  4.02670E+00  8.95490E+00  8.05308E+00  4.20989E+00
   3.41154E+00  4.25222E+00  8.98120E+00  9.57766E+00  6.56720E+00  9.90599E+00  9.85683E+00  1.16582E+01  1.32886E+01  1.20818E+01
   1.28641E+01  1.27893E+01  7.80850E+00  1.05276E+01  1.21245E+01  1.71754E+01  1.40202E+01  1.26554E+01  1.76735E+01  1.74815E+01
   1.70831E+01  2.12489E+01  2.10774E+01  2.51536E+01  2.24371E+01  2.55158E+01  2.46732E+01  2.51336E+01  1.73312E+01  1.83481E+01
   1.90298E+01  2.20237E+01  2.12768E+01  2.27105E+01  2.47496E+01  2.20951E+01  2.45455E+01  1.69085E+01  1.66439E+01  1.43608E+01
   1.21309E+01  1.22722E+01  9.59648E+00  6.74283E+00  7.43876E+00  1.00797E+01  7.42187E+00  4.48209E+00  3.42223E+00  1.83392E+00
   3.31329E+00  3.07190E+00  1.46358E+00  4.52689E+00  3.17183E+00 -4.62649E+00 -1.33752E+00  4.46289E+00 -6.26727E-01 -1.24792E+00
   1.08622E+00  7.84706E-01  3.60643E+00  2.82441E-01  3.32131E+00  1.82363E+00  1.66067E+00  5.30931E+00  2.58322E+00  1.39458E+00
   6.73066E+00  5.61809E+00  1.18387E+00  9.11375E+00  4.86031E+00  1.12500E+01  4.34839E+00  6.36782E+00  5.17459E+00  5.49940E+00
   6.61178E+00  7.03750E+00  1.18830E+01  8.61717E+00  5.95367E+00  8.62475E+00  9.83658E+00  6.98156E+00  1.21676E+01  6.73417E+00
   6.18782E+00  8.96801E+00  6.48222E+00  6.73193E+00  3.16328E+00  3.58311E+00  5.41950E+00  7.77441E+00  5.21478E+00  8.72122E+00
   2.31381E+00  4.05793E+00 -1.63634E-01  2.22278E-01  3.33170E+00  3.06763E+00 -2.76734E-03  4.43143E-01  9.79553E-01 -2.65037E-01
  -4.75505E-01  3.29356E+00 -2.92189E+00  3.26473E+00  6.11339E+00 -2.68659E+00  1.43919E+00  2.13873E+00 -1.17810E+00  3.45717E-01
  -1.53756E-01  8.17688E-01 -1.91058E+00 -3.12818E+00 -2.16505E+00  4.91976E-01 -3.29225E+00 -1.00317E+00 -3.55882E+00 -4.44963E-01
   1.89526E+00  9.30883E-01 -1.63334E+00 -2.32635E+00 -3.19921E+00 -2.07225E+00 -1.94149E+00  8.91016E-01 -6.99322E-01  1.04460E+00
  -3.22945E+00  2.16328E+00  5.48940E-01 -2.18206E-01  2.47959E-01  1.31465E+00 -1.65493E+00  3.49940E-01 -5.19184E-01 -1.04804E+00
  -4.13984E+00 -3.39033E+00  5.47896E+00  6.02965E+00 -3.13290E-01  3.00656E+00 -4.30240E+00  8.75004E-01  2.29153E+00 -2.49020E+00
  -2.47839E+00  4.07497E-01 -2.36915E+00  6.95540E-01 -2.83750E+00 -7.05488E-01  8.90211E-01  1.21538E+00  3.93204E+00 -8.04025E-01
   3.88354E+00  1.63662E+00 -2.07184E+00  1.37472E-01  4.91848E+00 -1.66940E+00  1.79422E-01  3.28021E-01
 NY points of the fit to the data follow
   2.18723E+00  1.95898E+00  1.83231E+00  1.75258E+00  2.08816E+00  2.99172E+00  4.63542E+00  7.22855E+00  1.06204E+01  1.42177E+01
   1.72450E+01  1.90292E+01  1.90518E+01  1.73437E+01  1.46684E+01  1.20492E+01  1.01256E+01  8.90492E+00  7.95295E+00  6.44423E+00
   5.48307E+00  5.13835E+00  4.93151E+00  4.61490E+00  4.16307E+00  3.85572E+00  4.05362E+00  4.87484E+00  6.29331E+00  8.20788E+00
   1.02090E+01  1.16407E+01  1.19497E+01  1.10462E+01  9.41978E+00  7.90435E+00  6.61863E+00  5.17324E+00  3.96217E+00  3.57060E+00
   3.61140E+00  3.93595E+00  4.66885E+00  6.02963E+00  7.67937E+00  9.31521E+00  1.06997E+01  1.11838E+01  1.05246E+01  9.07622E+00
   7.24691E+00  5.71403E+00  4.99700E+00  4.73253E+00  4.23426E+00  3.80834E+00  4.01739E+00  4.64637E+00  5.19704E+00  5.52131E+00
   5.53303E+00  5.17626E+00  4.49666E+00  3.72344E+00  3.21508E+00  3.06096E+00  3.08802E+00  3.24779E+00  3.48260E+00  3.73887E+00
   4.03617E+00  4.33660E+00  4.59352E+00  4.71897E+00  4.66524E+00  4.50507E+00  4.26003E+00  4.00681E+00  3.68910E+00  3.33564E+00
   3.18049E+00  3.31044E+00  3.64444E+00  4.03681E+00  4.37519E+00  4.52572E+00  4.37954E+00  3.88393E+00  3.13395E+00  2.37915E+00
   1.92709E+00  1.90625E+00  2.05935E+00  1.94389E+00  1.57838E+00  1.43216E+00  1.39748E+00  1.60866E+00  2.97281E+00  6.55551E+00
   1.25496E+01  1.99645E+01  2.72999E+01  3.28957E+01  3.49860E+01  3.26000E+01  2.67232E+01  2.00258E+01  1.52401E+01  1.29863E+01
   1.09565E+01  7.25601E+00  4.62004E+00  3.74941E+00  3.38532E+00  3.15130E+00  2.99022E+00  2.86988E+00  2.77795E+00  2.73504E+00
   2.83055E+00  3.45445E+00  5.49232E+00  9.58560E+00  1.54051E+01  2.18322E+01  2.76093E+01  3.13443E+01  3.16509E+01  2.83844E+01
   2.30367E+01  1.79458E+01  1.48443E+01  1.31319E+01  1.03526E+01  6.44120E+00  4.33572E+00  3.54437E+00  3.42530E+00  3.72864E+00
   4.10167E+00  4.29673E+00  4.35005E+00  4.27564E+00  4.06691E+00  3.83418E+00  3.62031E+00  3.39366E+00  3.17440E+00  2.88836E+00
   2.61655E+00  2.38526E+00  2.18983E+00  2.04938E+00  1.97398E+00  1.93029E+00  1.84969E+00  1.69327E+00  1.46770E+00  1.21437E+00
   1.01270E+00  9.45277E-01  1.02840E+00  1.18411E+00  1.28334E+00  1.19166E+00  8.70652E-01  4.85031E-01  2.47264E-01  1.39235E-01
   4.86243E-02 -1.38640E-01 -4.71839E-01 -7.68462E-01 -9.44773E-01 -1.04733E+00 -1.05848E+00 -9.74085E-01 -8.58381E-01 -8.01538E-01
  -8.71417E-01 -1.04283E+00 -1.16378E+00 -1.11176E+00 -9.71487E-01 -8.60564E-01 -5.99223E-01 -2.33769E-02  8.92152E-01  1.85961E+00
   2.53198E+00  2.76945E+00  2.59572E+00  2.15434E+00  1.61704E+00  1.09590E+00  7.38843E-01  7.06959E-01  1.01403E+00  1.66467E+00
   2.60949E+00  3.65596E+00  4.44432E+00  4.76159E+00  4.52908E+00  3.83056E+00  2.62412E+00  1.09233E+00 -3.14994E-01 -1.19447E+00
  -1.19076E+00 -1.49668E-01  1.77688E+00  4.09718E+00  6.21523E+00  7.62355E+00  7.89572E+00  6.87171E+00  4.40399E+00  1.34318E+00
  -1.07666E+00 -2.37196E+00 -2.59148E+00 -1.93636E+00 -3.10807E-01  2.10588E+00  4.15676E+00  5.25312E+00  5.56678E+00  5.74939E+00
   6.01717E+00  6.02209E+00  5.90176E+00  6.19366E+00  6.86324E+00  7.61470E+00  8.23426E+00  8.56212E+00  8.57637E+00  8.26349E+00
   7.63697E+00  7.05499E+00  6.96559E+00  7.49280E+00  8.34297E+00  9.28918E+00  1.01650E+01  1.07507E+01  1.09740E+01  1.10833E+01
   1.14883E+01  1.21813E+01  1.31178E+01  1.42551E+01  1.60001E+01  1.92141E+01  2.43642E+01  3.08780E+01  3.75167E+01  4.30317E+01
   4.57692E+01  4.40617E+01  3.78606E+01  2.93448E+01  2.21378E+01  1.82792E+01  1.61913E+01  1.24292E+01  8.00198E+00  6.29917E+00
   5.61680E+00  5.16536E+00  4.89448E+00  4.81377E+00  4.72258E+00  4.57351E+00  4.35409E+00  4.06647E+00  3.75715E+00  3.49021E+00
   3.25293E+00  3.01949E+00  2.81877E+00  2.67377E+00  2.56907E+00  2.47975E+00  2.39479E+00  2.32662E+00  2.29083E+00  2.27205E+00
   2.26981E+00  2.29403E+00  2.34342E+00  2.41124E+00  2.49929E+00  2.61143E+00  2.75097E+00  2.91978E+00  3.11868E+00  3.34512E+00
   3.59928E+00  3.87890E+00  4.17626E+00  4.48302E+00  4.79134E+00  5.09546E+00  5.38934E+00  5.66427E+00  5.91538E+00  6.13905E+00
   6.33137E+00  6.49108E+00  6.62029E+00  6.72274E+00  6.80452E+00  6.87374E+00  6.94013E+00  7.01493E+00  7.11041E+00  7.24000E+00
   7.41946E+00  7.66956E+00  8.00060E+00  8.39089E+00  8.79664E+00  9.18079E+00  9.52237E+00  9.80960E+00  1.00583E+01  1.03336E+01
   1.07283E+01  1.13028E+01  1.20291E+01  1.28091E+01  1.35842E+01  1.43906E+01  1.51808E+01  1.58537E+01  1.64433E+01  1.70721E+01
   1.79302E+01  1.91927E+01  2.07602E+01  2.23005E+01  2.34727E+01  2.39812E+01  2.36437E+01  2.23916E+01  2.05730E+01  1.90348E+01
   1.86220E+01  1.95463E+01  2.11155E+01  2.23606E+01  2.30553E+01  2.35433E+01  2.29598E+01  2.09599E+01  1.81746E+01  1.55155E+01
   1.34581E+01  1.15285E+01  9.25624E+00  7.42084E+00  6.10186E+00  5.11386E+00  4.36618E+00  3.80020E+00  3.37155E+00  3.04589E+00
   2.79691E+00  2.60513E+00  2.45664E+00  2.34210E+00  2.25544E+00  2.19288E+00  2.15202E+00  2.13159E+00  2.13119E+00  2.15124E+00
   2.19258E+00  2.25629E+00  2.34346E+00  2.45535E+00  2.59333E+00  2.75897E+00  2.95359E+00  3.17818E+00  3.43316E+00  3.71853E+00
   4.03360E+00  4.37699E+00  4.74613E+00  5.13724E+00  5.54522E+00  5.96383E+00  6.38569E+00  6.80245E+00  7.20470E+00  7.58246E+00
   7.92544E+00  8.22379E+00  8.46833E+00  8.65104E+00  8.76528E+00  8.80631E+00  8.77154E+00  8.66086E+00  8.47648E+00  8.22284E+00
   7.90621E+00  7.53461E+00  7.11732E+00  6.66459E+00  6.18691E+00  5.69466E+00  5.19753E+00  4.70446E+00  4.22327E+00  3.76063E+00
   3.32168E+00  2.91020E+00  2.52856E+00  2.17807E+00  1.85903E+00  1.57097E+00  1.31261E+00  1.08219E+00  8.77567E-01  6.96561E-01
   5.36919E-01  3.96457E-01  2.72928E-01  1.64257E-01  6.85174E-02 -1.58893E-02 -9.04256E-02 -1.56359E-01 -2.14931E-01 -2.67160E-01
  -3.13930E-01 -3.55877E-01 -3.93615E-01 -4.27663E-01 -4.58588E-01 -4.86783E-01 -5.12587E-01 -5.36185E-01 -5.57840E-01 -5.77775E-01
  -5.96275E-01 -6.13468E-01 -6.29473E-01 -6.44321E-01 -6.58163E-01 -6.71116E-01 -6.83342E-01 -6.94858E-01 -7.05703E-01 -7.15872E-01
  -7.25487E-01 -7.34613E-01 -7.43343E-01 -7.51630E-01 -7.59493E-01 -7.66923E-01 -7.74036E-01 -7.80867E-01 -7.87460E-01 -7.93743E-01
  -7.99730E-01 -8.05427E-01 -8.10938E-01 -8.16263E-01 -8.21413E-01 -8.26309E-01 -8.30987E-01 -8.35463E-01 -8.39830E-01 -8.44054E-01
  -8.48125E-01 -8.51970E-01 -8.55645E-01 -8.59169E-01 -8.62608E-01 -8.65898E-01 -8.69022E-01 -8.71925E-01 -8.74678E-01 -8.77289E-01
  -8.79794E-01 -8.82105E-01 -8.84208E-01 -8.86063E-01 -8.87740E-01 -8.89224E-01 -8.90511E-01 -8.91495E-01
 NY background values follow
     1.623E+00    1.620E+00    1.616E+00    1.612E+00    1.608E+00    1.604E+00    1.600E+00    1.596E+00    1.592E+00    1.589E+00
     1.585E+00    1.581E+00    1.577E+00    1.573E+00    1.569E+00    1.565E+00    1.561E+00    1.558E+00    1.554E+00    1.550E+00
     1.546E+00    1.542E+00    1.538E+00    1.534E+00    1.530E+00    1.526E+00    1.522E+00    1.518E+00    1.515E+00    1.511E+00
     1.507E+00    1.503E+00    1.499E+00    1.495E+00    1.491E+00    1.487E+00    1.483E+00    1.479E+00    1.475E+00    1.471E+00
     1.467E+00    1.463E+00    1.460E+00    1.456E+00    1.452E+00    1.448E+00    1.444E+00    1.440E+00    1.436E+00    1.432E+00
     1.428E+00    1.424E+00    1.420E+00    1.416E+00    1.412E+00    1.408E+00    1.404E+00    1.400E+00    1.396E+00    1.392E+00
     1.388E+00    1.384E+00    1.380E+00    1.376E+00    1.372E+00    1.368E+00    1.364E+00    1.360E+00    1.356E+00    1.352E+00
     1.348E+00    1.344E+00    1.340E+00    1.336E+00    1.332E+00    1.328E+00    1.324E+00    1.320E+00    1.316E+00    1.312E+00
     1.308E+00    1.304E+00    1.300E+00    1.296E+00    1.292E+00    1.288E+00    1.284E+00    1.280E+00    1.276E+00    1.272E+00
     1.268E+00    1.264E+00    1.260E+00    1.256E+00    1.252E+00    1.248E+00    1.244E+00    1.240E+00    1.235E+00    1.231E+00
     1.227E+00    1.223E+00    1.219E+00    1.215E+00    1.211E+00    1.207E+00    1.203E+00    1.199E+00    1.195E+00    1.191E+00
     1.187E+00    1.183E+00    1.179E+00    1.175E+00    1.171E+00    1.166E+00    1.162E+00    1.158E+00    1.154E+00    1.150E+00
     1.146E+00    1.142E+00    1.138E+00    1.134E+00    1.130E+00    1.126E+00    1.122E+00    1.118E+00    1.113E+00    1.109E+00
     1.105E+00    1.101E+00    1.097E+00    1.093E+00    1.089E+00    1.085E+00    1.081E+00    1.077E+00    1.073E+00    1.068E+00
     1.064E+00    1.060E+00    1.056E+00    1.052E+00    1.048E+00    1.044E+00    1.040E+00    1.036E+00    1.032E+00    1.027E+00
     1.023E+00    1.019E+00    1.015E+00    1.011E+00    1.007E+00    1.003E+00    9.987E-01    9.946E-01    9.905E-01    9.864E-01
     9.823E-01    9.782E-01    9.741E-01    9.700E-01    9.659E-01    9.618E-01    9.577E-01    9.536E-01    9.494E-01    9.453E-01
     9.412E-01    9.371E-01    9.330E-01    9.289E-01    9.248E-01    9.207E-01    9.166E-01    9.125E-01    9.084E-01    9.043E-01
     9.002E-01    8.961E-01    8.920E-01    8.878E-01    8.837E-01    8.796E-01    8.755E-01    8.714E-01    8.673E-01    8.632E-01
     8.591E-01    8.550E-01    8.509E-01    8.468E-01    8.427E-01    8.386E-01    8.345E-01    8.304E-01    8.263E-01    8.222E-01
     8.181E-01    8.140E-01    8.099E-01    8.058E-01    8.017E-01    7.976E-01    7.935E-01    7.894E-01    7.853E-01    7.812E-01
     7.771E-01    7.731E-01    7.690E-01    7.649E-01    7.608E-01    7.567E-01    7.526E-01    7.485E-01    7.444E-01    7.403E-01
     7.362E-01    7.322E-01    7.281E-01    7.240E-01    7.199E-01    7.158E-01    7.117E-01    7.076E-01    7.036E-01    6.995E-01
     6.954E-01    6.913E-01    6.872E-01    6.832E-01    6.791E-01    6.750E-01    6.709E-01    6.669E-01    6.628E-01    6.587E-01
     6.546E-01    6.506E-01    6.465E-01    6.424E-01    6.383E-01    6.343E-01    6.302E-01    6.261E-01    6.221E-01    6.180E-01
     6.140E-01    6.099E-01    6.058E-01    6.018E-01    5.977E-01    5.936E-01    5.896E-01    5.855E-01    5.815E-01    5.774E-01
     5.734E-01    5.693E-01    5.653E-01    5.612E-01    5.572E-01    5.531E-01    5.491E-01    5.450E-01    5.410E-01    5.369E-01
     5.329E-01    5.289E-01    5.248E-01    5.208E-01    5.167E-01    5.127E-01    5.087E-01    5.046E-01    5.006E-01    4.966E-01
     4.926E-01    4.885E-01    4.845E-01    4.805E-01    4.765E-01    4.724E-01    4.684E-01    4.644E-01    4.604E-01    4.564E-01
     4.523E-01    4.483E-01    4.443E-01    4.403E-01    4.363E-01    4.323E-01    4.283E-01    4.243E-01    4.203E-01    4.163E-01
     4.122E-01    4.082E-01    4.042E-01    4.002E-01    3.963E-01    3.923E-01    3.883E-01    3.843E-01    3.803E-01    3.763E-01
     3.723E-01    3.683E-01    3.643E-01    3.603E-01    3.564E-01    3.524E-01    3.484E-01    3.444E-01    3.404E-01    3.365E-01
     3.325E-01    3.285E-01    3.245E-01    3.206E-01    3.166E-01    3.126E-01    3.087E-01    3.047E-01    3.007E-01    2.968E-01
     2.928E-01    2.888E-01    2.849E-01    2.809E-01    2.770E-01    2.730E-01    2.691E-01    2.651E-01    2.612E-01    2.572E-01
     2.533E-01    2.493E-01    2.454E-01    2.414E-01    2.375E-01    2.335E-01    2.296E-01    2.257E-01    2.217E-01    2.178E-01
     2.139E-01    2.099E-01    2.060E-01    2.021E-01    1.981E-01    1.942E-01    1.903E-01    1.864E-01    1.824E-01    1.785E-01
     1.746E-01    1.707E-01    1.668E-01    1.629E-01    1.589E-01    1.550E-01    1.511E-01    1.472E-01    1.433E-01    1.394E-01
     1.355E-01    1.316E-01    1.277E-01    1.238E-01    1.199E-01    1.160E-01    1.121E-01    1.082E-01    1.043E-01    1.004E-01
     9.650E-02    9.261E-02    8.872E-02    8.484E-02    8.095E-02    7.707E-02    7.318E-02    6.930E-02    6.542E-02    6.154E-02
     5.766E-02    5.379E-02    4.991E-02    4.604E-02    4.217E-02    3.830E-02    3.443E-02    3.056E-02    2.669E-02    2.283E-02
     1.897E-02    1.510E-02    1.124E-02    7.384E-03    3.527E-03   -3.295E-04   -4.184E-03   -8.038E-03   -1.189E-02   -1.574E-02
    -1.959E-02   -2.344E-02   -2.728E-02   -3.113E-02   -3.497E-02   -3.881E-02   -4.266E-02   -4.649E-02   -5.033E-02   -5.417E-02
    -5.800E-02   -6.184E-02   -6.567E-02   -6.950E-02   -7.333E-02   -7.716E-02   -8.098E-02   -8.481E-02   -8.863E-02   -9.246E-02
    -9.628E-02   -1.001E-01   -1.039E-01   -1.077E-01   -1.115E-01   -1.154E-01   -1.192E-01   -1.230E-01   -1.268E-01   -1.306E-01
    -1.344E-01   -1.382E-01   -1.420E-01   -1.458E-01   -1.496E-01   -1.534E-01   -1.572E-01   -1.610E-01   -1.648E-01   -1.686E-01
    -1.724E-01   -1.762E-01   -1.800E-01   -1.838E-01   -1.876E-01   -1.914E-01   -1.951E-01   -1.989E-01   -2.027E-01   -2.065E-01
    -2.103E-01   -2.141E-01   -2.178E-01   -2.216E-01   -2.254E-01   -2.292E-01   -2.329E-01   -2.367E-01   -2.405E-01   -2.442E-01
    -2.480E-01   -2.518E-01   -2.555E-01   -2.593E-01   -2.630E-01   -2.668E-01   -2.706E-01   -2.743E-01   -2.781E-01   -2.818E-01
    -2.856E-01   -2.893E-01   -2.931E-01   -2.968E-01   -3.006E-01   -3.043E-01   -3.081E-01   -3.118E-01   -3.156E-01   -3.193E-01
    -3.230E-01   -3.268E-01   -3.305E-01   -3.342E-01   -3.380E-01   -3.417E-01   -3.454E-01   -3.492E-01
 Ala      Conc. = 5.07E+01
