 LCModel (Version 6.3-1L) Copyright: S.W. Provencher.          Ref.: Magn. Reson. Med. 30:672-679 (1993).                
 Slice#2 Row#7 Col#6  PD_24_press_1_raw_act
 36 lines in following concentration table = NCONC+1
    Conc.  %SD /Cr+PCr  Metabolite                                         
    0.000 999%   0.000 Ala                                                 
    0.000 999%   0.000 Asp                                                 
  544.655  65%   0.327 Cr                                                  
 1.12E+03  32%   0.673 PCr                                                 
    0.000 999%   0.000 GABA                                                
  381.048  57%   0.229 Glc                                                 
  859.140  42%   0.516 Gln                                                 
 1.55E+03  26%   0.928 Glu                                                 
  918.226   4%   0.552 GPC                                                 
    0.000 999%   0.000 PCh                                                 
  338.408  32%   0.203 GSH                                                 
 2.00E+03  19%   1.202 Ins                                                 
    0.000 999%   0.000 Lac                                                 
 2.65E+03   6%   1.593 NAA                                                 
  158.838 110% 9.5E-02 NAAG                                                
  283.205  15%   0.170 Scyllo                                              
  767.854  38%   0.461 Tau                                                 
  580.882  28%   0.349 -CrCH2                                              
  918.226   4%   0.552 GPC+PCh                                             
 2.81E+03   4%   1.689 NAA+NAAG                                            
 1.66E+03   5%   1.000 Cr+PCr                                              
 2.40E+03  26%   1.444 Glu+Gln                                             
    0.000 999%   0.000 Lip13a                                              
    0.000 999%   0.000 Lip13b                                              
 1.39E-02 999% 8.4E-06 Lip09                                               
 1.53E+03  14%   0.920 MM09                                                
 6.15E-03 999% 3.7E-06 Lip20                                               
 2.53E+03  18%   1.518 MM20                                                
   93.635 198% 5.6E-02 MM12                                                
    0.000 999%   0.000 MM14                                                
  993.657  28%   0.597 MM17                                                
    0.000 999%   0.000 Lip13a+Lip13b                                       
   93.635 198% 5.6E-02 MM14+Lip13a+Lip13b+MM12                             
 1.53E+03  14%   0.920 MM09+Lip09                                          
 2.53E+03  18%   1.518 MM20+Lip20                                          
   6 lines in following misc. output table
  FWHM = 0.069 ppm    S/N =  10                                            
  Data shift = 0.008 ppm                                                   
  Ph: -70 deg     -17.7 deg/ppm                                            
  alphaB,S = 1.4E+00,   2.2E+01                                            
   14 spline knots.   Ns = 8(1)                                            
  (13) 6 infls.   (15) 1 extrs.                                            
  498 points on ppm-axis = NY
      4.000000     3.992357     3.984714     3.977070     3.969427     3.961784     3.954141     3.946497     3.938854     3.931211
      3.923568     3.915925     3.908281     3.900638     3.892995     3.885352     3.877708     3.870065     3.862422     3.854779
      3.847136     3.839492     3.831849     3.824206     3.816563     3.808919     3.801276     3.793633     3.785990     3.778347
      3.770703     3.763060     3.755417     3.747774     3.740130     3.732487     3.724844     3.717201     3.709558     3.701914
      3.694271     3.686628     3.678985     3.671341     3.663698     3.656055     3.648412     3.640769     3.633125     3.625482
      3.617839     3.610196     3.602552     3.594909     3.587266     3.579623     3.571980     3.564336     3.556693     3.549050
      3.541407     3.533763     3.526120     3.518477     3.510834     3.503191     3.495547     3.487904     3.480261     3.472618
      3.464974     3.457331     3.449688     3.442045     3.434402     3.426758     3.419115     3.411472     3.403829     3.396185
      3.388542     3.380899     3.373256     3.365613     3.357969     3.350326     3.342683     3.335040     3.327396     3.319753
      3.312110     3.304467     3.296824     3.289180     3.281537     3.273894     3.266251     3.258607     3.250964     3.243321
      3.235678     3.228034     3.220391     3.212748     3.205105     3.197462     3.189818     3.182175     3.174532     3.166889
      3.159245     3.151602     3.143959     3.136316     3.128673     3.121029     3.113386     3.105743     3.098100     3.090456
      3.082813     3.075170     3.067527     3.059884     3.052240     3.044597     3.036954     3.029311     3.021667     3.014024
      3.006381     2.998738     2.991095     2.983451     2.975808     2.968165     2.960522     2.952878     2.945235     2.937592
      2.929949     2.922306     2.914662     2.907019     2.899376     2.891733     2.884089     2.876446     2.868803     2.861160
      2.853517     2.845873     2.838230     2.830587     2.822944     2.815300     2.807657     2.800014     2.792371     2.784728
      2.777084     2.769441     2.761798     2.754155     2.746511     2.738868     2.731225     2.723582     2.715939     2.708295
      2.700652     2.693009     2.685366     2.677722     2.670079     2.662436     2.654793     2.647150     2.639506     2.631863
      2.624220     2.616577     2.608933     2.601290     2.593647     2.586004     2.578361     2.570717     2.563074     2.555431
      2.547788     2.540144     2.532501     2.524858     2.517215     2.509572     2.501928     2.494285     2.486642     2.478999
      2.471355     2.463712     2.456069     2.448426     2.440783     2.433139     2.425496     2.417853     2.410210     2.402566
      2.394923     2.387280     2.379637     2.371994     2.364350     2.356707     2.349064     2.341421     2.333777     2.326134
      2.318491     2.310848     2.303205     2.295561     2.287918     2.280275     2.272632     2.264988     2.257345     2.249702
      2.242059     2.234416     2.226772     2.219129     2.211486     2.203843     2.196199     2.188556     2.180913     2.173270
      2.165627     2.157983     2.150340     2.142697     2.135054     2.127410     2.119767     2.112124     2.104481     2.096838
      2.089194     2.081551     2.073908     2.066265     2.058621     2.050978     2.043335     2.035692     2.028049     2.020405
      2.012762     2.005119     1.997476     1.989833     1.982190     1.974546     1.966903     1.959260     1.951617     1.943974
      1.936331     1.928688     1.921045     1.913402     1.905759     1.898115     1.890472     1.882829     1.875186     1.867543
      1.859900     1.852257     1.844614     1.836971     1.829327     1.821684     1.814041     1.806398     1.798755     1.791112
      1.783469     1.775826     1.768183     1.760540     1.752896     1.745253     1.737610     1.729967     1.722324     1.714681
      1.707038     1.699395     1.691752     1.684108     1.676465     1.668822     1.661179     1.653536     1.645893     1.638250
      1.630607     1.622964     1.615321     1.607677     1.600034     1.592391     1.584748     1.577105     1.569462     1.561819
      1.554176     1.546533     1.538890     1.531246     1.523603     1.515960     1.508317     1.500674     1.493031     1.485388
      1.477745     1.470102     1.462458     1.454815     1.447172     1.439529     1.431886     1.424243     1.416600     1.408957
      1.401314     1.393671     1.386027     1.378384     1.370741     1.363098     1.355455     1.347812     1.340169     1.332526
      1.324883     1.317240     1.309596     1.301953     1.294310     1.286667     1.279024     1.271381     1.263738     1.256095
      1.248452     1.240808     1.233165     1.225522     1.217879     1.210236     1.202593     1.194950     1.187307     1.179664
      1.172021     1.164377     1.156734     1.149091     1.141448     1.133805     1.126162     1.118519     1.110876     1.103233
      1.095590     1.087946     1.080303     1.072660     1.065017     1.057374     1.049731     1.042088     1.034445     1.026802
      1.019158     1.011515     1.003872     0.996229     0.988586     0.980943     0.973300     0.965657     0.958014     0.950371
      0.942727     0.935084     0.927441     0.919798     0.912155     0.904512     0.896869     0.889226     0.881583     0.873940
      0.866296     0.858653     0.851010     0.843367     0.835724     0.828081     0.820438     0.812795     0.805152     0.797508
      0.789865     0.782222     0.774579     0.766936     0.759293     0.751650     0.744007     0.736364     0.728721     0.721077
      0.713434     0.705791     0.698148     0.690505     0.682862     0.675219     0.667576     0.659933     0.652290     0.644646
      0.637003     0.629360     0.621717     0.614074     0.606431     0.598788     0.591145     0.583502     0.575858     0.568215
      0.560572     0.552929     0.545286     0.537643     0.530000     0.522357     0.514714     0.507071     0.499427     0.491784
      0.484141     0.476498     0.468855     0.461212     0.453569     0.445925     0.438282     0.430639     0.422996     0.415353
      0.407710     0.400067     0.392424     0.384780     0.377137     0.369494     0.361851     0.354208     0.346565     0.338922
      0.331278     0.323635     0.315992     0.308349     0.300706     0.293063     0.285420     0.277777     0.270133     0.262490
      0.254847     0.247204     0.239561     0.231918     0.224275     0.216631     0.208988     0.201345
 NY phased data points follow
  -7.96827E+01 -7.68901E+01 -8.44382E+01 -6.67354E+01 -6.96097E+01 -5.63794E+01 -5.86867E+01 -4.95325E+01 -5.25506E+01 -4.15109E+01
  -4.28097E+01 -3.95323E+01 -5.08414E+01 -5.42278E+01 -5.42632E+01 -6.36185E+01 -6.59073E+01 -6.03571E+01 -7.48717E+01 -6.58901E+01
  -7.66964E+01 -6.44840E+01 -6.97322E+01 -5.95298E+01 -6.52664E+01 -5.67817E+01 -6.28338E+01 -5.49527E+01 -5.42398E+01 -4.41655E+01
  -6.15069E+01 -5.46150E+01 -5.39311E+01 -5.30784E+01 -5.19963E+01 -5.13564E+01 -5.42185E+01 -4.70769E+01 -5.46805E+01 -4.99691E+01
  -4.88098E+01 -3.93756E+01 -4.82928E+01 -4.52066E+01 -3.94859E+01 -4.11774E+01 -4.64528E+01 -3.97409E+01 -4.60136E+01 -4.30215E+01
  -4.37944E+01 -4.67904E+01 -4.92364E+01 -4.34812E+01 -4.21432E+01 -4.33710E+01 -4.59530E+01 -4.50137E+01 -4.96032E+01 -5.00928E+01
  -4.62436E+01 -5.12538E+01 -5.24742E+01 -4.73499E+01 -5.13746E+01 -4.67101E+01 -5.00322E+01 -4.24446E+01 -5.74491E+01 -4.44970E+01
  -4.77981E+01 -4.68001E+01 -3.80318E+01 -3.90303E+01 -4.19872E+01 -3.74511E+01 -3.53892E+01 -4.04735E+01 -3.57883E+01 -3.68618E+01
  -3.83568E+01 -3.79167E+01 -3.85526E+01 -3.42777E+01 -3.66394E+01 -2.89334E+01 -2.92524E+01 -3.40565E+01 -3.04586E+01 -2.84582E+01
  -3.51526E+01 -2.70171E+01 -2.97484E+01 -2.50719E+01 -2.66533E+01 -1.85522E+01 -1.64904E+01 -4.30767E+00  6.65741E-01  1.16311E+01
   2.54495E+01  2.67416E+01  3.41825E+01  3.11965E+01  2.64920E+01  2.06022E+01  1.21782E+00 -5.33065E+00 -2.04386E+01 -1.84084E+01
  -2.86725E+01 -2.59574E+01 -3.27015E+01 -2.96690E+01 -3.59003E+01 -2.85455E+01 -3.39011E+01 -3.18637E+01 -2.80901E+01 -2.04278E+01
  -1.86241E+01 -1.43988E+01 -9.32522E+00 -7.38694E-01 -5.45525E-01  9.00335E+00  1.20555E+01  1.29514E+01  1.57013E+01  1.90535E+01
  -3.83612E+00 -5.17848E+00 -2.25598E+01 -2.79223E+01 -1.95525E+01 -2.93233E+01 -2.41307E+01 -2.20331E+01 -3.35701E+01 -2.33790E+01
  -2.40424E+01 -2.74895E+01 -2.73265E+01 -2.67406E+01 -2.70722E+01 -2.99026E+01 -3.02127E+01 -2.48675E+01 -2.85117E+01 -2.64886E+01
  -2.95658E+01 -2.39458E+01 -2.45260E+01 -2.01463E+01 -2.58120E+01 -2.34852E+01 -2.65645E+01 -1.87638E+01 -2.21155E+01 -2.29426E+01
  -2.20168E+01 -2.49799E+01 -2.51549E+01 -2.53936E+01 -2.29647E+01 -1.74364E+01 -2.80951E+01 -2.56983E+01 -2.27434E+01 -2.63501E+01
  -2.86123E+01 -2.43011E+01 -2.55150E+01 -3.15538E+01 -2.76214E+01 -2.77471E+01 -2.97398E+01 -2.56236E+01 -3.13260E+01 -2.78435E+01
  -2.67814E+01 -2.93452E+01 -3.08013E+01 -2.99079E+01 -2.94739E+01 -2.53194E+01 -2.02303E+01 -1.92600E+01 -1.74229E+01 -1.48841E+01
  -1.20470E+01 -1.36128E+01 -9.42166E+00 -1.10140E+01 -1.27332E+01 -1.45085E+01 -1.24176E+01 -1.21419E+01 -1.43181E+01 -1.79084E+01
  -1.16425E+01 -1.15611E+01 -1.27778E+01 -8.95869E+00 -1.20148E+01 -1.10299E+01 -1.23020E+01 -1.28693E+01 -1.78628E+01 -1.42160E+01
  -1.64334E+01 -1.19711E+01 -7.52773E+00 -2.40299E-01 -5.55121E+00 -6.55843E+00 -3.76990E+00 -2.51646E+00 -3.12561E+00 -1.61080E+00
  -4.95468E+00 -1.25186E+01 -1.53595E+01 -1.57960E+01 -8.07246E+00 -6.05017E+00 -7.30174E+00 -5.27162E+00 -4.34253E-01 -3.31609E+00
   1.07939E+00 -4.86354E+00  2.84571E+00 -4.01385E+00 -9.63359E-01 -9.93240E+00  9.25444E-01 -7.73258E+00 -3.38426E+00 -6.85388E+00
  -4.16382E+00 -4.64988E+00 -4.59997E+00 -1.86999E+00 -1.94068E+00 -3.71598E+00 -4.46895E+00 -1.00966E+00 -4.48406E+00  4.04138E+00
   9.57873E+00  1.17741E+01  8.59379E+00  2.08934E+01  2.47053E+01  3.74002E+01  4.77394E+01  4.93954E+01  6.06954E+01  6.62758E+01
   7.52067E+01  8.07963E+01  6.88465E+01  6.66474E+01  5.32115E+01  3.63091E+01  2.39431E+01  1.79422E+01  1.00743E+01  9.93528E+00
   6.51382E+00  7.89628E+00  8.00768E+00  2.92774E+00  2.40798E+00  1.29549E+00  2.12433E+00  3.00912E+00 -1.94439E+00 -3.97447E+00
   2.93916E+00 -1.42364E+00  6.98723E+00 -4.70855E+00  2.45227E+00 -8.60768E-01 -2.86059E+00  1.04238E+00 -5.16589E-01  2.41523E+00
  -1.35123E-01  1.77864E+00  6.43399E+00 -6.98833E-01  3.77923E+00 -5.27558E-01 -1.04389E-01 -3.17224E+00  5.62937E+00  8.59951E-01
   3.90256E+00  8.94505E+00 -1.86372E+00  6.59085E+00  2.94989E+00  4.99489E+00  3.21219E+00  9.51935E-01  5.72916E+00  6.79390E+00
   1.16594E+01  6.06910E+00  1.29359E+00  2.27460E-01  9.34627E+00  3.75970E+00  6.41772E+00  1.25639E+00  8.01131E+00  8.10258E+00
   2.14045E+00  7.88402E+00  6.38621E+00  3.29213E+00  5.70131E+00  7.89289E+00  3.03672E+00  9.30977E+00  6.80335E+00  6.10873E+00
   7.33757E-03  1.51355E+00 -6.21994E-01  2.67427E-01  3.13180E+00  2.49108E+00  3.58921E+00 -7.00356E+00  4.38057E-01  1.89696E+00
   2.50769E+00 -1.69096E+00  2.20589E-04  7.71624E+00  5.81572E-01  2.57404E+00  6.17078E-01  4.55521E+00  1.92553E+00  2.87305E+00
   4.96147E+00 -5.36844E+00  2.22296E+00  2.11708E+00 -7.26330E-01  5.61167E+00  9.82705E-01 -1.86263E+00  2.51096E+00 -9.09816E+00
  -1.72290E-01 -5.24750E-01  2.29694E+00 -2.70927E+00 -2.07821E+00  6.62862E+00  5.60445E+00 -6.82525E-01 -1.06293E+00 -1.37584E+00
   2.65663E+00  9.76541E+00  6.72317E+00  8.63172E+00  1.02740E+01  2.77578E+00  1.32183E-01  7.35036E+00  9.28414E+00  8.19156E+00
  -7.04756E-01  5.31920E+00  9.73597E+00  8.60505E+00  7.86880E+00  1.34708E+01  1.40649E+01  8.29660E+00  5.86860E+00  3.90251E+00
   8.66452E+00  1.45580E+01  5.03347E+00  1.02103E+01  1.02028E+01  1.60008E+01  1.34057E+01  1.07379E+01  1.55525E+01  1.59235E+01
   1.05667E+01  1.60096E+01  1.57191E+01  1.51491E+01  1.62693E+01  1.57230E+01  2.28084E+01  1.98245E+01  2.07459E+01  2.03160E+01
   2.23767E+01  2.23997E+01  1.71963E+01  1.67939E+01  1.49956E+01  1.89346E+01  1.38744E+01  1.38285E+01  1.28920E+01  1.32239E+01
   1.23238E+01  8.31831E+00  1.28752E+01  8.95992E+00  1.33009E+01  9.20147E+00  1.05873E+01  8.15629E+00  1.29897E+01  7.68080E+00
   5.44767E+00  1.08376E+01  9.46616E+00  5.59750E+00  9.80091E+00  7.18595E+00  1.15206E+01  7.08138E+00  5.32501E+00  1.06119E+01
   1.13992E+01  7.33479E+00  9.22054E+00  8.34662E+00  1.37751E+01  1.01104E+01  8.46834E+00  7.77138E+00  8.53524E+00  9.38988E+00
   8.83806E+00  5.06649E+00  8.06859E+00  1.18128E+01  1.25515E+01  9.23287E+00  7.14401E+00  3.65188E+00  1.00924E+01  8.02017E+00
   1.23929E+01  7.86599E+00  1.39186E+01  1.19108E+01  9.05532E+00  7.43764E+00  9.20390E+00  1.15947E+01  1.30225E+01  9.92735E+00
   1.16554E+01  1.01173E+01  8.98484E+00  9.96408E+00  1.23947E+01  8.85772E+00  6.55751E+00  6.36742E+00  7.69658E+00  5.90006E+00
   1.15665E+01  4.77492E+00  1.03039E+01  9.04007E+00  1.48115E+01  8.72464E+00  8.75183E+00  9.94292E+00  1.01611E+01  5.92316E+00
   1.30720E+01  5.82416E+00  8.86853E+00  3.26689E+00  9.13750E+00  9.76863E+00  1.32118E+01  1.11692E+01
 NY points of the fit to the data follow
  -7.26343E+01 -7.08843E+01 -6.89218E+01 -6.58269E+01 -6.26448E+01 -5.96953E+01 -5.66696E+01 -5.34796E+01 -5.02856E+01 -4.75629E+01
  -4.65004E+01 -4.59945E+01 -4.78436E+01 -5.08095E+01 -5.48901E+01 -5.84077E+01 -6.04065E+01 -6.14649E+01 -6.24468E+01 -6.31891E+01
  -6.38463E+01 -6.39654E+01 -6.31988E+01 -6.24992E+01 -6.13790E+01 -6.01336E+01 -5.89448E+01 -5.74336E+01 -5.58660E+01 -5.40313E+01
  -5.25452E+01 -5.15098E+01 -5.07529E+01 -5.08862E+01 -5.15763E+01 -5.28375E+01 -5.41775E+01 -5.47954E+01 -5.47441E+01 -5.40349E+01
  -5.27512E+01 -5.09024E+01 -4.90220E+01 -4.71095E+01 -4.50846E+01 -4.33777E+01 -4.25154E+01 -4.24183E+01 -4.29644E+01 -4.43833E+01
  -4.65684E+01 -4.87427E+01 -5.00598E+01 -5.01108E+01 -4.97481E+01 -4.94186E+01 -4.89725E+01 -4.83222E+01 -4.75453E+01 -4.69451E+01
  -4.66162E+01 -4.64247E+01 -4.66366E+01 -4.68906E+01 -4.71188E+01 -4.69151E+01 -4.63447E+01 -4.53743E+01 -4.41325E+01 -4.31343E+01
  -4.23019E+01 -4.16400E+01 -4.13303E+01 -4.09480E+01 -4.05181E+01 -4.02391E+01 -4.02271E+01 -4.03086E+01 -4.01987E+01 -3.94164E+01
  -3.91409E+01 -3.82647E+01 -3.68587E+01 -3.54540E+01 -3.37397E+01 -3.20175E+01 -3.08376E+01 -3.03547E+01 -3.08197E+01 -3.15429E+01
  -3.32684E+01 -3.49227E+01 -3.61782E+01 -3.50121E+01 -2.82361E+01 -2.08850E+01 -1.40895E+01 -4.91728E+00  3.11159E+00  1.12866E+01
   2.08937E+01  2.92864E+01  3.39372E+01  3.32805E+01  2.88866E+01  1.88367E+01  4.20293E+00 -9.54675E+00 -1.94652E+01 -2.38104E+01
  -2.64090E+01 -2.99652E+01 -3.25022E+01 -3.33065E+01 -3.35567E+01 -3.35487E+01 -3.33379E+01 -3.27485E+01 -3.00547E+01 -2.41118E+01
  -1.97838E+01 -1.37760E+01 -8.03455E+00 -3.17778E+00  2.76632E+00  9.13989E+00  1.39641E+01  1.57175E+01  1.40787E+01  1.02672E+01
   1.22758E+00 -8.26121E+00 -1.63645E+01 -2.06223E+01 -2.21912E+01 -2.42625E+01 -2.65845E+01 -2.75821E+01 -2.77384E+01 -2.74931E+01
  -2.69878E+01 -2.64069E+01 -2.59772E+01 -2.57460E+01 -2.56194E+01 -2.56639E+01 -2.57346E+01 -2.57870E+01 -2.57680E+01 -2.57114E+01
  -2.56332E+01 -2.55252E+01 -2.54143E+01 -2.54216E+01 -2.54686E+01 -2.54369E+01 -2.54052E+01 -2.52032E+01 -2.49995E+01 -2.49827E+01
  -2.49827E+01 -2.50679E+01 -2.50744E+01 -2.49372E+01 -2.47026E+01 -2.43994E+01 -2.42364E+01 -2.42909E+01 -2.47393E+01 -2.54316E+01
  -2.57395E+01 -2.58774E+01 -2.58211E+01 -2.58087E+01 -2.59841E+01 -2.60331E+01 -2.59279E+01 -2.56590E+01 -2.52510E+01 -2.49592E+01
  -2.45412E+01 -2.40081E+01 -2.35509E+01 -2.30424E+01 -2.23692E+01 -2.14364E+01 -2.04271E+01 -1.94159E+01 -1.84945E+01 -1.74711E+01
  -1.64784E+01 -1.55171E+01 -1.49666E+01 -1.47880E+01 -1.48600E+01 -1.49113E+01 -1.45863E+01 -1.39530E+01 -1.32058E+01 -1.21752E+01
  -1.13423E+01 -1.06959E+01 -1.05137E+01 -1.03401E+01 -1.06506E+01 -1.16291E+01 -1.27573E+01 -1.39493E+01 -1.49547E+01 -1.53055E+01
  -1.52960E+01 -1.42636E+01 -1.29209E+01 -1.10638E+01 -9.24016E+00 -8.06860E+00 -7.56137E+00 -7.69110E+00 -8.43434E+00 -9.54344E+00
  -1.14612E+01 -1.31922E+01 -1.39784E+01 -1.35732E+01 -1.24272E+01 -1.08234E+01 -8.77025E+00 -6.58947E+00 -5.03893E+00 -4.16579E+00
  -3.95868E+00 -3.84623E+00 -3.48222E+00 -3.26392E+00 -3.20443E+00 -2.98625E+00 -2.55246E+00 -2.14657E+00 -1.88390E+00 -1.63508E+00
  -1.53713E+00 -1.74765E+00 -2.16155E+00 -2.43343E+00 -2.29536E+00 -1.75687E+00 -8.56335E-01  4.00609E-01  2.02988E+00  3.28927E+00
   4.43432E+00  6.06214E+00  1.08480E+01  2.02040E+01  2.74955E+01  3.69614E+01  4.57653E+01  5.28006E+01  6.09074E+01  6.91512E+01
   7.49402E+01  7.63484E+01  7.31074E+01  6.65570E+01  5.23214E+01  3.67920E+01  2.33575E+01  1.58611E+01  1.25084E+01  8.87399E+00
   5.00517E+00  3.18262E+00  2.48788E+00  2.06988E+00  1.80882E+00  1.64689E+00  1.50374E+00  1.34262E+00  1.14668E+00  9.15828E-01
   7.04082E-01  5.48542E-01  4.41596E-01  3.47271E-01  2.91363E-01  2.75197E-01  2.91963E-01  3.19481E-01  3.60476E-01  4.26787E-01
   5.31191E-01  6.61562E-01  8.23523E-01  1.01386E+00  1.23648E+00  1.48145E+00  1.74786E+00  2.03098E+00  2.33538E+00  2.65698E+00
   2.99349E+00  3.33490E+00  3.68085E+00  4.02038E+00  4.34672E+00  4.64783E+00  4.91829E+00  5.15019E+00  5.34166E+00  5.48523E+00
   5.58171E+00  5.62772E+00  5.62558E+00  5.57460E+00  5.48096E+00  5.34687E+00  5.18034E+00  4.98512E+00  4.77037E+00  4.54051E+00
   4.30471E+00  4.06670E+00  3.83443E+00  3.61013E+00  3.40007E+00  3.20488E+00  3.02914E+00  2.87171E+00  2.73545E+00  2.61779E+00
   2.52057E+00  2.44052E+00  2.37888E+00  2.33182E+00  2.30021E+00  2.28018E+00  2.27275E+00  2.27435E+00  2.28615E+00  2.30468E+00
   2.33130E+00  2.36286E+00  2.40111E+00  2.44319E+00  2.49093E+00  2.54152E+00  2.59693E+00  2.65457E+00  2.71657E+00  2.78042E+00
   2.84814E+00  2.91714E+00  2.98949E+00  3.06271E+00  3.13887E+00  3.21542E+00  3.29429E+00  3.37287E+00  3.45317E+00  3.53270E+00
   3.61351E+00  3.69308E+00  3.77342E+00  3.85214E+00  3.93150E+00  4.00932E+00  4.08796E+00  4.16537E+00  4.24406E+00  4.32228E+00
   4.40289E+00  4.48440E+00  4.56983E+00  4.65790E+00  4.75192E+00  4.85103E+00  4.95897E+00  5.07525E+00  5.20394E+00  5.34503E+00
   5.50318E+00  5.67906E+00  5.87800E+00  6.10123E+00  6.35455E+00  6.63966E+00  6.96273E+00  7.32555E+00  7.73392E+00  8.18876E+00
   8.69441E+00  9.24984E+00  9.85679E+00  1.05109E+01  1.12098E+01  1.19446E+01  1.27081E+01  1.34864E+01  1.42678E+01  1.50344E+01
   1.57710E+01  1.64577E+01  1.70789E+01  1.76158E+01  1.80560E+01  1.83852E+01  1.85970E+01  1.86845E+01  1.86492E+01  1.84929E+01
   1.82253E+01  1.78552E+01  1.73987E+01  1.68697E+01  1.62873E+01  1.56671E+01  1.50280E+01  1.43838E+01  1.37504E+01  1.31378E+01
   1.25575E+01  1.20148E+01  1.15163E+01  1.10630E+01  1.06575E+01  1.02973E+01  9.98270E+00  9.70887E+00  9.47459E+00  9.27423E+00
   9.10615E+00  8.96478E+00  8.84870E+00  8.75275E+00  8.67601E+00  8.61393E+00  8.56626E+00  8.52914E+00  8.50287E+00  8.48405E+00
   8.47340E+00  8.46796E+00  8.46885E+00  8.47342E+00  8.48300E+00  8.49511E+00  8.51122E+00  8.52903E+00  8.55019E+00  8.57250E+00
   8.59765E+00  8.62347E+00  8.65170E+00  8.68028E+00  8.71104E+00  8.74193E+00  8.77474E+00  8.80744E+00  8.84187E+00  8.87608E+00
   8.91193E+00  8.94744E+00  8.98442E+00  9.02094E+00  9.05885E+00  9.09626E+00  9.13503E+00  9.17322E+00  9.21265E+00  9.25143E+00
   9.29143E+00  9.33079E+00  9.37134E+00  9.41118E+00  9.45214E+00  9.49236E+00  9.53372E+00  9.57435E+00  9.61608E+00  9.65701E+00
   9.69900E+00  9.74020E+00  9.78248E+00  9.82399E+00  9.86653E+00  9.90825E+00  9.95097E+00  9.99291E+00  1.00359E+01  1.00781E+01
   1.01212E+01  1.01636E+01  1.02069E+01  1.02494E+01  1.02930E+01  1.03357E+01  1.03794E+01  1.04223E+01
 NY background values follow
    -7.861E+01   -7.822E+01   -7.783E+01   -7.744E+01   -7.705E+01   -7.667E+01   -7.628E+01   -7.589E+01   -7.550E+01   -7.511E+01
    -7.472E+01   -7.433E+01   -7.394E+01   -7.355E+01   -7.316E+01   -7.277E+01   -7.238E+01   -7.199E+01   -7.161E+01   -7.122E+01
    -7.083E+01   -7.044E+01   -7.006E+01   -6.967E+01   -6.928E+01   -6.890E+01   -6.851E+01   -6.812E+01   -6.774E+01   -6.735E+01
    -6.697E+01   -6.659E+01   -6.620E+01   -6.582E+01   -6.544E+01   -6.505E+01   -6.467E+01   -6.429E+01   -6.391E+01   -6.353E+01
    -6.315E+01   -6.277E+01   -6.239E+01   -6.202E+01   -6.164E+01   -6.126E+01   -6.089E+01   -6.051E+01   -6.014E+01   -5.977E+01
    -5.939E+01   -5.902E+01   -5.865E+01   -5.828E+01   -5.791E+01   -5.754E+01   -5.717E+01   -5.681E+01   -5.644E+01   -5.607E+01
    -5.571E+01   -5.535E+01   -5.498E+01   -5.462E+01   -5.426E+01   -5.390E+01   -5.354E+01   -5.318E+01   -5.282E+01   -5.247E+01
    -5.211E+01   -5.176E+01   -5.140E+01   -5.105E+01   -5.070E+01   -5.035E+01   -5.000E+01   -4.965E+01   -4.930E+01   -4.896E+01
    -4.861E+01   -4.827E+01   -4.792E+01   -4.758E+01   -4.724E+01   -4.690E+01   -4.656E+01   -4.622E+01   -4.589E+01   -4.555E+01
    -4.522E+01   -4.489E+01   -4.455E+01   -4.422E+01   -4.389E+01   -4.357E+01   -4.324E+01   -4.291E+01   -4.259E+01   -4.227E+01
    -4.194E+01   -4.162E+01   -4.130E+01   -4.098E+01   -4.067E+01   -4.035E+01   -4.004E+01   -3.972E+01   -3.941E+01   -3.910E+01
    -3.879E+01   -3.848E+01   -3.817E+01   -3.787E+01   -3.756E+01   -3.726E+01   -3.695E+01   -3.665E+01   -3.635E+01   -3.605E+01
    -3.576E+01   -3.546E+01   -3.516E+01   -3.487E+01   -3.458E+01   -3.428E+01   -3.399E+01   -3.370E+01   -3.342E+01   -3.313E+01
    -3.284E+01   -3.256E+01   -3.227E+01   -3.199E+01   -3.171E+01   -3.143E+01   -3.115E+01   -3.088E+01   -3.060E+01   -3.032E+01
    -3.005E+01   -2.978E+01   -2.951E+01   -2.924E+01   -2.897E+01   -2.870E+01   -2.843E+01   -2.817E+01   -2.790E+01   -2.764E+01
    -2.738E+01   -2.712E+01   -2.686E+01   -2.660E+01   -2.634E+01   -2.609E+01   -2.583E+01   -2.558E+01   -2.533E+01   -2.508E+01
    -2.483E+01   -2.458E+01   -2.433E+01   -2.409E+01   -2.384E+01   -2.360E+01   -2.336E+01   -2.312E+01   -2.288E+01   -2.264E+01
    -2.240E+01   -2.216E+01   -2.193E+01   -2.169E+01   -2.146E+01   -2.123E+01   -2.100E+01   -2.077E+01   -2.054E+01   -2.032E+01
    -2.009E+01   -1.987E+01   -1.964E+01   -1.942E+01   -1.920E+01   -1.898E+01   -1.876E+01   -1.855E+01   -1.833E+01   -1.812E+01
    -1.790E+01   -1.769E+01   -1.748E+01   -1.727E+01   -1.706E+01   -1.686E+01   -1.665E+01   -1.645E+01   -1.625E+01   -1.604E+01
    -1.584E+01   -1.564E+01   -1.545E+01   -1.525E+01   -1.506E+01   -1.486E+01   -1.467E+01   -1.448E+01   -1.429E+01   -1.410E+01
    -1.391E+01   -1.373E+01   -1.354E+01   -1.336E+01   -1.318E+01   -1.300E+01   -1.282E+01   -1.264E+01   -1.247E+01   -1.229E+01
    -1.212E+01   -1.195E+01   -1.178E+01   -1.161E+01   -1.144E+01   -1.128E+01   -1.111E+01   -1.095E+01   -1.079E+01   -1.063E+01
    -1.047E+01   -1.031E+01   -1.016E+01   -1.000E+01   -9.848E+00   -9.696E+00   -9.546E+00   -9.396E+00   -9.248E+00   -9.102E+00
    -8.957E+00   -8.813E+00   -8.670E+00   -8.529E+00   -8.388E+00   -8.250E+00   -8.112E+00   -7.975E+00   -7.840E+00   -7.706E+00
    -7.573E+00   -7.442E+00   -7.311E+00   -7.182E+00   -7.054E+00   -6.926E+00   -6.801E+00   -6.676E+00   -6.552E+00   -6.429E+00
    -6.308E+00   -6.187E+00   -6.068E+00   -5.949E+00   -5.832E+00   -5.716E+00   -5.600E+00   -5.486E+00   -5.372E+00   -5.260E+00
    -5.149E+00   -5.038E+00   -4.929E+00   -4.820E+00   -4.712E+00   -4.606E+00   -4.500E+00   -4.395E+00   -4.291E+00   -4.188E+00
    -4.085E+00   -3.984E+00   -3.883E+00   -3.783E+00   -3.684E+00   -3.586E+00   -3.489E+00   -3.392E+00   -3.297E+00   -3.202E+00
    -3.107E+00   -3.014E+00   -2.921E+00   -2.829E+00   -2.738E+00   -2.648E+00   -2.558E+00   -2.469E+00   -2.381E+00   -2.293E+00
    -2.206E+00   -2.120E+00   -2.034E+00   -1.949E+00   -1.865E+00   -1.781E+00   -1.698E+00   -1.615E+00   -1.533E+00   -1.452E+00
    -1.371E+00   -1.291E+00   -1.211E+00   -1.132E+00   -1.054E+00   -9.758E-01   -8.983E-01   -8.214E-01   -7.449E-01   -6.690E-01
    -5.935E-01   -5.185E-01   -4.440E-01   -3.699E-01   -2.962E-01   -2.230E-01   -1.502E-01   -7.775E-02   -5.721E-03    6.593E-02
     1.372E-01    2.081E-01    2.787E-01    3.490E-01    4.189E-01    4.885E-01    5.579E-01    6.269E-01    6.957E-01    7.642E-01
     8.324E-01    9.004E-01    9.682E-01    1.036E+00    1.103E+00    1.170E+00    1.237E+00    1.304E+00    1.371E+00    1.437E+00
     1.504E+00    1.570E+00    1.636E+00    1.702E+00    1.768E+00    1.834E+00    1.900E+00    1.965E+00    2.031E+00    2.097E+00
     2.162E+00    2.228E+00    2.294E+00    2.359E+00    2.425E+00    2.490E+00    2.556E+00    2.622E+00    2.687E+00    2.753E+00
     2.818E+00    2.884E+00    2.949E+00    3.015E+00    3.080E+00    3.145E+00    3.210E+00    3.276E+00    3.341E+00    3.406E+00
     3.471E+00    3.536E+00    3.600E+00    3.665E+00    3.730E+00    3.794E+00    3.858E+00    3.923E+00    3.987E+00    4.051E+00
     4.115E+00    4.179E+00    4.242E+00    4.306E+00    4.369E+00    4.432E+00    4.496E+00    4.558E+00    4.621E+00    4.684E+00
     4.746E+00    4.808E+00    4.870E+00    4.932E+00    4.994E+00    5.055E+00    5.117E+00    5.178E+00    5.239E+00    5.299E+00
     5.360E+00    5.420E+00    5.480E+00    5.540E+00    5.599E+00    5.659E+00    5.718E+00    5.777E+00    5.836E+00    5.894E+00
     5.953E+00    6.011E+00    6.069E+00    6.127E+00    6.184E+00    6.242E+00    6.299E+00    6.356E+00    6.413E+00    6.470E+00
     6.526E+00    6.582E+00    6.638E+00    6.694E+00    6.750E+00    6.805E+00    6.861E+00    6.916E+00    6.971E+00    7.025E+00
     7.080E+00    7.134E+00    7.188E+00    7.242E+00    7.296E+00    7.350E+00    7.403E+00    7.457E+00    7.510E+00    7.563E+00
     7.615E+00    7.668E+00    7.720E+00    7.772E+00    7.824E+00    7.876E+00    7.928E+00    7.979E+00    8.031E+00    8.082E+00
     8.133E+00    8.184E+00    8.235E+00    8.285E+00    8.336E+00    8.386E+00    8.437E+00    8.487E+00    8.537E+00    8.587E+00
     8.637E+00    8.686E+00    8.736E+00    8.786E+00    8.835E+00    8.885E+00    8.934E+00    8.983E+00    9.032E+00    9.081E+00
     9.130E+00    9.179E+00    9.228E+00    9.277E+00    9.326E+00    9.375E+00    9.424E+00    9.472E+00    9.521E+00    9.570E+00
     9.619E+00    9.667E+00    9.716E+00    9.765E+00    9.813E+00    9.862E+00    9.911E+00    9.959E+00
 Cr       Conc. = 5.45E+02
