 LCModel (Version 6.3-1L) Copyright: S.W. Provencher.          Ref.: Magn. Reson. Med. 30:672-679 (1993).                
 Slice#1 Row#7 Col#10  PD_24_press_1_raw_act
 36 lines in following concentration table = NCONC+1
    Conc.  %SD /Cr+PCr  Metabolite                                         
    0.000 999%   0.000 Ala                                                 
    0.000 999%   0.000 Asp                                                 
  138.563 184%   0.159 Cr                                                  
  735.197  36%   0.841 PCr                                                 
  127.269 103%   0.146 GABA                                                
   87.785 146%   0.100 Glc                                                 
   35.316 663% 4.0E-02 Gln                                                 
 1.15E+03  24%   1.322 Glu                                                 
  450.855   5%   0.516 GPC                                                 
    0.000 999%   0.000 PCh                                                 
  320.992  23%   0.367 GSH                                                 
 1.42E+03  17%   1.623 Ins                                                 
    0.000 999%   0.000 Lac                                                 
 1.81E+03   8%   2.070 NAA                                                 
  237.359  70%   0.272 NAAG                                                
  122.331  21%   0.140 Scyllo                                              
   92.053 194%   0.105 Tau                                                 
  470.632  21%   0.539 -CrCH2                                              
  450.855   5%   0.516 GPC+PCh                                             
 2.05E+03   4%   2.341 NAA+NAAG                                            
  873.761   6%   1.000 Cr+PCr                                              
 1.19E+03  32%   1.362 Glu+Gln                                             
 2.46E+03  14%   2.814 Lip13a                                              
    0.000 999%   0.000 Lip13b                                              
  442.910  57%   0.507 Lip09                                               
  765.069  31%   0.876 MM09                                                
  204.679 103%   0.234 Lip20                                               
 1.26E+03  25%   1.444 MM20                                                
  283.289  51%   0.324 MM12                                                
    0.000 999%   0.000 MM14                                                
  624.479  26%   0.715 MM17                                                
 2.46E+03  14%   2.814 Lip13a+Lip13b                                       
 2.74E+03  11%   3.138 MM14+Lip13a+Lip13b+MM12                             
 1.21E+03  13%   1.383 MM09+Lip09                                          
 1.47E+03  21%   1.679 MM20+Lip20                                          
   6 lines in following misc. output table
  FWHM = 0.061 ppm    S/N =   9                                            
  Data shift = 0.000 ppm                                                   
  Ph: -31 deg       3.0 deg/ppm                                            
  alphaB,S = 8.5E+01,   2.0E+02                                            
   14 spline knots.   Ns = 7(1)                                            
   2 inflections.     1 extrema                                            
  498 points on ppm-axis = NY
      4.000000     3.992357     3.984714     3.977070     3.969427     3.961784     3.954141     3.946497     3.938854     3.931211
      3.923568     3.915925     3.908281     3.900638     3.892995     3.885352     3.877708     3.870065     3.862422     3.854779
      3.847136     3.839492     3.831849     3.824206     3.816563     3.808919     3.801276     3.793633     3.785990     3.778347
      3.770703     3.763060     3.755417     3.747774     3.740130     3.732487     3.724844     3.717201     3.709558     3.701914
      3.694271     3.686628     3.678985     3.671341     3.663698     3.656055     3.648412     3.640769     3.633125     3.625482
      3.617839     3.610196     3.602552     3.594909     3.587266     3.579623     3.571980     3.564336     3.556693     3.549050
      3.541407     3.533763     3.526120     3.518477     3.510834     3.503191     3.495547     3.487904     3.480261     3.472618
      3.464974     3.457331     3.449688     3.442045     3.434402     3.426758     3.419115     3.411472     3.403829     3.396185
      3.388542     3.380899     3.373256     3.365613     3.357969     3.350326     3.342683     3.335040     3.327396     3.319753
      3.312110     3.304467     3.296824     3.289180     3.281537     3.273894     3.266251     3.258607     3.250964     3.243321
      3.235678     3.228034     3.220391     3.212748     3.205105     3.197462     3.189818     3.182175     3.174532     3.166889
      3.159245     3.151602     3.143959     3.136316     3.128673     3.121029     3.113386     3.105743     3.098100     3.090456
      3.082813     3.075170     3.067527     3.059884     3.052240     3.044597     3.036954     3.029311     3.021667     3.014024
      3.006381     2.998738     2.991095     2.983451     2.975808     2.968165     2.960522     2.952878     2.945235     2.937592
      2.929949     2.922306     2.914662     2.907019     2.899376     2.891733     2.884089     2.876446     2.868803     2.861160
      2.853517     2.845873     2.838230     2.830587     2.822944     2.815300     2.807657     2.800014     2.792371     2.784728
      2.777084     2.769441     2.761798     2.754155     2.746511     2.738868     2.731225     2.723582     2.715939     2.708295
      2.700652     2.693009     2.685366     2.677722     2.670079     2.662436     2.654793     2.647150     2.639506     2.631863
      2.624220     2.616577     2.608933     2.601290     2.593647     2.586004     2.578361     2.570717     2.563074     2.555431
      2.547788     2.540144     2.532501     2.524858     2.517215     2.509572     2.501928     2.494285     2.486642     2.478999
      2.471355     2.463712     2.456069     2.448426     2.440783     2.433139     2.425496     2.417853     2.410210     2.402566
      2.394923     2.387280     2.379637     2.371994     2.364350     2.356707     2.349064     2.341421     2.333777     2.326134
      2.318491     2.310848     2.303205     2.295561     2.287918     2.280275     2.272632     2.264988     2.257345     2.249702
      2.242059     2.234416     2.226772     2.219129     2.211486     2.203843     2.196199     2.188556     2.180913     2.173270
      2.165627     2.157983     2.150340     2.142697     2.135054     2.127410     2.119767     2.112124     2.104481     2.096838
      2.089194     2.081551     2.073908     2.066265     2.058621     2.050978     2.043335     2.035692     2.028049     2.020405
      2.012762     2.005119     1.997476     1.989833     1.982190     1.974546     1.966903     1.959260     1.951617     1.943974
      1.936331     1.928688     1.921045     1.913402     1.905759     1.898115     1.890472     1.882829     1.875186     1.867543
      1.859900     1.852257     1.844614     1.836971     1.829327     1.821684     1.814041     1.806398     1.798755     1.791112
      1.783469     1.775826     1.768183     1.760540     1.752896     1.745253     1.737610     1.729967     1.722324     1.714681
      1.707038     1.699395     1.691752     1.684108     1.676465     1.668822     1.661179     1.653536     1.645893     1.638250
      1.630607     1.622964     1.615321     1.607677     1.600034     1.592391     1.584748     1.577105     1.569462     1.561819
      1.554176     1.546533     1.538890     1.531246     1.523603     1.515960     1.508317     1.500674     1.493031     1.485388
      1.477745     1.470102     1.462458     1.454815     1.447172     1.439529     1.431886     1.424243     1.416600     1.408957
      1.401314     1.393671     1.386027     1.378384     1.370741     1.363098     1.355455     1.347812     1.340169     1.332526
      1.324883     1.317240     1.309596     1.301953     1.294310     1.286667     1.279024     1.271381     1.263738     1.256095
      1.248452     1.240808     1.233165     1.225522     1.217879     1.210236     1.202593     1.194950     1.187307     1.179664
      1.172021     1.164377     1.156734     1.149091     1.141448     1.133805     1.126162     1.118519     1.110876     1.103233
      1.095590     1.087946     1.080303     1.072660     1.065017     1.057374     1.049731     1.042088     1.034445     1.026802
      1.019158     1.011515     1.003872     0.996229     0.988586     0.980943     0.973300     0.965657     0.958014     0.950371
      0.942727     0.935084     0.927441     0.919798     0.912155     0.904512     0.896869     0.889226     0.881583     0.873940
      0.866296     0.858653     0.851010     0.843367     0.835724     0.828081     0.820438     0.812795     0.805152     0.797508
      0.789865     0.782222     0.774579     0.766936     0.759293     0.751650     0.744007     0.736364     0.728721     0.721077
      0.713434     0.705791     0.698148     0.690505     0.682862     0.675219     0.667576     0.659933     0.652290     0.644646
      0.637003     0.629360     0.621717     0.614074     0.606431     0.598788     0.591145     0.583502     0.575858     0.568215
      0.560572     0.552929     0.545286     0.537643     0.530000     0.522357     0.514714     0.507071     0.499427     0.491784
      0.484141     0.476498     0.468855     0.461212     0.453569     0.445925     0.438282     0.430639     0.422996     0.415353
      0.407710     0.400067     0.392424     0.384780     0.377137     0.369494     0.361851     0.354208     0.346565     0.338922
      0.331278     0.323635     0.315992     0.308349     0.300706     0.293063     0.285420     0.277777     0.270133     0.262490
      0.254847     0.247204     0.239561     0.231918     0.224275     0.216631     0.208988     0.201345
 NY phased data points follow
   1.12681E+00 -9.99558E-01 -1.07844E+00  1.18518E+00  3.13690E+00  2.97710E+00  5.10225E+00  2.36139E+00  6.70232E+00  2.69912E+00
   9.97583E+00  6.94195E+00  5.84525E+00  9.16862E+00  9.75782E+00  3.02585E+00  2.12240E+00  2.29002E+00 -8.28955E-01  6.04512E+00
   2.71263E+00 -2.94920E-01 -1.69358E+00  5.36779E+00  4.59678E+00 -1.17255E+00  6.08527E+00  5.67552E+00  3.34208E+00  3.88323E+00
   7.37777E+00 -5.83952E-01  5.06880E+00  3.80493E+00  4.64008E+00  5.34556E+00  4.27974E+00  6.42323E+00  8.02074E+00 -6.59827E-01
   2.88139E+00  2.62133E+00  3.14984E+00  5.44808E+00  2.26690E+00  2.96303E+00  9.24030E+00  6.18546E+00  1.39261E+01  7.42571E+00
   4.64223E+00  7.84592E+00  2.58647E+00  7.24897E+00  2.40309E+00 -1.81680E+00  4.42275E+00  9.99259E-01  4.64160E+00  2.57942E+00
   4.49654E+00  2.33099E-01 -3.83511E-01 -1.61412E+00 -6.33841E+00 -5.94335E-01 -1.63135E+00  2.46313E+00 -1.09420E+00 -7.29383E+00
   4.05459E+00  3.21357E+00 -3.03393E-01 -1.85020E+00 -4.35061E+00 -1.49564E+00 -1.71103E-02  2.06867E+00  2.04145E+00 -6.49663E+00
  -6.18568E-01  1.54821E+00  1.87361E+00 -7.78770E-01  3.30939E+00  4.80616E+00  1.92133E+00  3.95198E+00  3.46209E+00  1.45373E-01
   4.94623E+00 -3.59507E+00  4.06227E+00  1.33581E+00  3.85710E+00 -5.76362E-01  8.81741E+00  1.01570E+01  8.17694E+00  1.12095E+01
   1.69588E+01  2.34142E+01  3.39560E+01  3.39038E+01  3.64100E+01  3.52593E+01  2.88139E+01  1.63218E+01  1.23824E+01  5.82437E+00
   1.48103E+00  3.22597E+00 -2.61844E+00 -5.48538E+00  1.47779E+00 -2.41744E+00  7.44748E-01 -2.57396E+00  1.45397E+00 -5.68601E+00
  -1.01236E+00  6.82857E-01  4.57230E+00  1.33187E+00  1.25548E+01  1.37966E+01  2.04265E+01  2.14240E+01  2.93806E+01  2.50989E+01
   2.02845E+01  1.55066E+01  1.32499E+01  6.41465E+00  1.53997E+00  4.58943E+00  4.26662E+00 -7.43883E+00  5.21470E-01  7.15959E-02
  -1.38611E+00  1.81017E-01 -2.60597E+00 -6.78026E-01  1.33231E+00 -2.33900E+00  1.70456E+00 -1.73893E+00  1.50848E+00 -5.30870E+00
  -3.02795E+00 -8.75557E+00 -1.74358E+00 -2.11790E+00 -4.09475E+00 -7.49366E+00 -1.71943E+00  4.56302E-01  1.22419E+00 -1.77663E+00
  -4.87123E+00 -3.70168E+00 -3.38858E+00 -4.94450E+00 -4.04446E+00 -7.42801E-01 -8.37983E+00 -1.16277E+01 -1.12258E+01 -1.18638E+01
  -9.67269E+00 -7.04222E+00 -9.61430E+00 -1.11169E+01 -1.19588E+01 -1.51064E+01 -9.06439E+00 -1.50205E+01 -8.98280E+00 -1.51791E+01
  -6.89487E+00 -1.23476E+01 -6.04254E+00 -8.44077E+00 -1.09825E+01 -9.25435E+00 -3.91041E+00 -9.94322E+00 -9.78608E+00 -4.24838E+00
  -6.21018E+00 -4.47626E+00 -5.21673E+00 -4.54593E+00 -1.25819E+00 -4.63210E+00 -7.72313E+00 -5.05421E+00 -5.72396E+00 -7.88724E+00
  -8.24110E+00 -9.84619E+00 -3.89150E+00 -5.36013E+00  1.95430E+00 -2.70808E-01  2.39565E+00 -3.92593E+00  3.76007E+00 -7.16956E+00
  -9.90230E-01 -2.89672E+00 -2.46892E+00 -5.40072E+00  3.09825E+00 -2.83421E+00 -1.31361E+00  3.04964E+00  4.02734E+00  7.76198E-01
  -5.03699E+00 -9.25164E-01 -6.14474E+00 -7.94142E+00 -2.18985E+00 -6.93937E+00 -7.16897E+00  3.55367E+00 -3.39047E+00  1.03583E+00
   2.81256E+00 -1.88459E+00  5.03079E+00  1.16217E+00  5.28672E+00  6.53946E-01  2.28680E+00  3.87493E+00  4.08871E-02  2.32089E+00
   4.54791E+00 -8.39297E-01 -6.40480E-01 -3.49224E+00  1.28080E+00 -8.08212E-01  2.12464E+00  1.65189E+00  5.69253E+00  6.13895E+00
   8.23434E+00  3.83701E+00  4.00910E+00  1.46010E+01  1.67808E+01  1.80608E+01  3.21459E+01  3.98930E+01  5.29448E+01  6.35660E+01
   6.21109E+01  5.97220E+01  5.57725E+01  4.82467E+01  3.38996E+01  2.04494E+01  1.35686E+01  8.95035E+00  1.95722E+00  8.23199E-01
  -5.69845E-01 -1.20676E+00  5.95102E-01 -7.85922E-01 -1.49002E+00  5.14322E-01 -1.29668E-01 -3.74560E-02  1.73827E+00  8.94906E-01
   3.59246E+00 -2.93240E+00 -1.12824E+00 -2.43840E+00 -1.32679E+00 -9.91804E-01  1.52310E+00 -2.19326E+00 -5.18397E+00  3.68486E+00
  -1.81190E+00 -9.35078E-01  2.59801E+00  1.22595E+00 -3.43829E-01 -2.36016E+00 -2.41310E-02  3.77859E+00  2.43008E+00  1.08400E+00
   2.74483E+00  7.76918E-01  2.76649E+00  5.97978E+00  6.97890E+00 -2.23903E-01  1.32648E+00  1.81258E+00 -1.15630E+00  2.08608E-01
   3.02979E-01 -3.00730E-01  9.00233E-04 -1.78677E+00 -1.15853E+00 -1.14701E+00  1.07160E+00  2.10316E+00  6.44824E-01  4.47783E-01
  -6.55572E-01 -9.96652E+00 -2.19806E+00  2.52083E-03  7.52191E-01 -1.49438E+00  1.58608E+00 -4.83408E+00 -6.31754E+00 -1.24034E+00
  -2.39619E+00 -1.76394E+00 -1.25596E+00  4.78011E-01 -2.66053E+00  2.16831E+00  5.46793E+00  2.82832E+00 -3.17322E+00  2.69033E+00
  -1.12557E+00  2.02353E-01  1.83871E+00 -3.70854E+00 -4.60785E-01  3.67295E+00  4.14947E+00  6.44698E+00  2.26266E+00  5.95854E-01
   7.12601E+00  7.54300E+00  6.78326E+00  1.21801E+01  8.79941E+00  1.29961E+01  5.56443E+00  7.96188E+00  4.94696E+00  1.03778E+01
   8.97536E+00  9.75966E+00  1.25274E+01  5.94367E+00  1.32510E+01  1.27735E+01  1.66387E+01  8.97983E+00  9.57194E+00  1.73972E+01
   1.18936E+01  9.56098E+00  9.65177E+00  9.03129E+00  8.09411E+00  8.42905E+00  5.13897E-01  2.01351E+00  3.02911E+00  5.16331E-01
   8.26740E-01  2.07636E-01  4.37986E+00 -1.39686E+00 -2.98675E+00 -8.58010E-01 -1.67462E-01  6.08447E-01  4.66868E+00  2.42228E+00
   2.03526E+00  1.24415E+00  7.44718E+00  1.45498E+00  6.77567E-01  6.28661E+00  3.30544E+00  6.13411E+00  5.86221E+00  7.75582E+00
   9.38266E+00  6.78050E+00  7.10092E+00  8.44230E+00  9.89416E+00  3.57605E+00  1.17769E+01  8.31046E+00  1.98072E+00  1.08913E+01
   7.15709E+00  7.12304E+00  1.22416E+00  8.05767E+00  7.13104E+00  1.92047E+00  5.98225E+00 -3.64442E+00  5.78225E+00  3.47549E+00
   7.32615E+00  7.12955E-01 -8.56854E-01 -6.26446E+00 -1.75622E+00  2.92617E+00  7.61219E-01 -1.50655E-02  3.63201E-02 -2.01997E+00
  -1.83456E-01 -8.99094E-01 -1.73737E+00 -1.07101E+00 -8.77276E-02 -5.05000E+00 -1.15379E+00 -1.44663E+00  6.95068E-01 -9.62357E+00
  -5.25154E+00  1.90728E-01 -8.18298E+00 -7.65869E-01 -1.98662E+00 -4.98472E+00  1.30711E+00 -1.68312E+00 -6.58094E-01 -2.32498E+00
  -5.50926E+00 -3.20470E-01  4.34026E-01 -1.82995E+00  1.40346E-01  1.92797E+00 -5.04279E+00  3.51513E+00 -2.36553E-01  6.59522E-02
  -6.13669E-01  3.64608E+00 -7.97026E-01 -4.18620E+00 -6.01959E+00  3.00580E+00 -1.34107E+00 -7.15492E+00  5.74066E+00 -1.16782E+00
  -4.66269E+00 -5.82068E-01 -2.70097E+00  1.00052E+00 -7.85287E-01  2.89012E-01 -7.08839E+00 -6.08908E+00 -8.31219E-01 -6.23873E+00
  -7.04819E-02  5.72818E-01 -1.03184E+00 -2.38342E+00  4.43390E+00  6.96902E-01 -2.88846E+00 -2.16225E+00 -5.15195E+00 -2.13398E+00
   4.37876E+00  6.09115E-01  1.02444E+00 -2.44844E+00 -8.68090E-01 -2.24871E-01 -2.39366E+00  1.69567E-01
 NY points of the fit to the data follow
   7.25384E-01  1.32103E-01 -1.38117E-01  9.57632E-02  7.45882E-01  1.71824E+00  2.94130E+00  4.36938E+00  5.91246E+00  7.34888E+00
   8.40106E+00  8.84748E+00  8.60083E+00  7.71714E+00  6.37357E+00  4.83984E+00  3.36407E+00  2.08673E+00  1.10192E+00  5.44454E-01
   2.48269E-01  6.83507E-02 -2.51721E-02  1.50463E-01  5.52240E-01  1.11108E+00  1.90857E+00  2.95762E+00  4.15670E+00  5.28621E+00
   6.17530E+00  6.73223E+00  6.84528E+00  6.46574E+00  5.68167E+00  4.63987E+00  3.49574E+00  2.30935E+00  1.21080E+00  4.98392E-01
   3.13405E-01  6.94759E-01  1.57707E+00  2.87697E+00  4.50309E+00  6.23095E+00  7.73939E+00  8.67191E+00  8.76007E+00  7.95889E+00
   6.40924E+00  4.39649E+00  2.36208E+00  6.80099E-01 -4.38145E-01 -8.82815E-01 -6.91201E-01 -6.74816E-02  6.80725E-01  1.30272E+00
   1.65499E+00  1.66268E+00  1.33419E+00  7.47698E-01  6.51934E-02 -5.01617E-01 -8.38103E-01 -9.02271E-01 -6.66889E-01 -1.93926E-01
   3.68716E-01  8.77374E-01  1.22417E+00  1.37099E+00  1.32553E+00  1.12471E+00  8.26311E-01  4.88723E-01  1.90099E-01  6.18643E-02
   2.05993E-01  5.12660E-01  9.25241E-01  1.46947E+00  2.08452E+00  2.59517E+00  2.79780E+00  2.59084E+00  2.00517E+00  1.17653E+00
   2.76977E-01 -5.14494E-01 -1.03888E+00 -1.23822E+00 -1.09222E+00 -3.02587E-01  1.90566E+00  5.17788E+00  9.10969E+00  1.40284E+01
   2.00297E+01  2.64510E+01  3.20090E+01  3.53670E+01  3.57065E+01  3.29034E+01  2.74408E+01  2.03648E+01  1.30477E+01  6.64207E+00
   1.77738E+00 -1.27243E+00 -2.46540E+00 -2.72788E+00 -2.78246E+00 -2.77442E+00 -2.74829E+00 -2.70121E+00 -2.59539E+00 -2.29878E+00
  -1.29853E+00  7.19172E-01  3.37964E+00  6.69983E+00  1.08340E+01  1.55113E+01  1.99992E+01  2.33432E+01  2.47596E+01  2.39519E+01
   2.10805E+01  1.66695E+01  1.15542E+01  6.59797E+00  2.39773E+00 -7.15871E-01 -2.51632E+00 -3.20680E+00 -3.38061E+00 -3.22938E+00
  -2.85988E+00 -2.40193E+00 -1.97524E+00 -1.68883E+00 -1.61216E+00 -1.72117E+00 -1.95224E+00 -2.24088E+00 -2.52198E+00 -2.75706E+00
  -2.93744E+00 -3.06938E+00 -3.17250E+00 -3.28323E+00 -3.42358E+00 -3.55906E+00 -3.68506E+00 -3.80605E+00 -3.93568E+00 -4.10705E+00
  -4.27131E+00 -4.36687E+00 -4.38706E+00 -4.37687E+00 -4.39138E+00 -4.47489E+00 -4.66315E+00 -4.96322E+00 -5.36180E+00 -5.84421E+00
  -6.29797E+00 -6.64501E+00 -6.91028E+00 -7.12255E+00 -7.29839E+00 -7.40311E+00 -7.40559E+00 -7.32487E+00 -7.21453E+00 -7.12825E+00
  -7.07826E+00 -7.00869E+00 -6.90728E+00 -6.75498E+00 -6.50195E+00 -6.08361E+00 -5.42561E+00 -4.54847E+00 -3.52862E+00 -2.47094E+00
  -1.53959E+00 -8.84515E-01 -5.51768E-01 -5.36279E-01 -8.27040E-01 -1.34691E+00 -1.90389E+00 -2.30860E+00 -2.48942E+00 -2.40338E+00
  -2.05065E+00 -1.51797E+00 -9.27885E-01 -4.42981E-01 -2.06058E-01 -2.99709E-01 -7.76311E-01 -1.55958E+00 -2.46861E+00 -3.31077E+00
  -3.85493E+00 -4.02575E+00 -3.71608E+00 -2.89239E+00 -1.70451E+00 -4.77797E-01  3.57038E-01  5.07414E-01 -6.75163E-02 -1.32501E+00
  -3.08200E+00 -4.92348E+00 -6.36020E+00 -7.00851E+00 -6.77224E+00 -5.76945E+00 -4.23772E+00 -2.61042E+00 -1.22689E+00 -2.56281E-01
   3.18742E-01  6.10978E-01  7.38133E-01  8.82456E-01  1.16297E+00  1.52265E+00  1.79879E+00  1.84701E+00  1.63396E+00  1.20397E+00
   6.29304E-01  7.47890E-02 -2.26013E-01 -1.37296E-01  3.29031E-01  1.06096E+00  1.91505E+00  2.72753E+00  3.38290E+00  3.98478E+00
   4.57392E+00  5.29593E+00  6.94936E+00  1.10261E+01  1.69233E+01  2.39787E+01  3.23390E+01  4.17600E+01  5.10681E+01  5.83811E+01
   6.19939E+01  6.11137E+01  5.58558E+01  4.70753E+01  3.63522E+01  2.56314E+01  1.63082E+01  9.07684E+00  4.36297E+00  2.27032E+00
   1.35118E+00  8.01385E-01  4.74103E-01  3.14793E-01  2.64206E-01  2.45765E-01  2.15702E-01  1.46944E-01  1.69290E-02 -1.69012E-01
  -3.81370E-01 -5.87406E-01 -7.56524E-01 -8.62798E-01 -8.98110E-01 -8.69909E-01 -7.94147E-01 -6.88050E-01 -5.60890E-01 -4.16914E-01
  -2.60400E-01 -9.17264E-02  8.97238E-02  2.81050E-01  4.78032E-01  6.75126E-01  8.64550E-01  1.03993E+00  1.19781E+00  1.33514E+00
   1.44904E+00  1.53755E+00  1.59723E+00  1.62305E+00  1.61177E+00  1.56157E+00  1.47296E+00  1.34780E+00  1.18978E+00  1.00490E+00
   8.00224E-01  5.82094E-01  3.56986E-01  1.30624E-01 -9.17167E-02 -3.05703E-01 -5.07324E-01 -6.93646E-01 -8.62258E-01 -1.01186E+00
  -1.14153E+00 -1.25113E+00 -1.34059E+00 -1.41051E+00 -1.46136E+00 -1.49391E+00 -1.50854E+00 -1.50571E+00 -1.48537E+00 -1.44748E+00
  -1.39141E+00 -1.31644E+00 -1.22109E+00 -1.10376E+00 -9.62199E-01 -7.94124E-01 -5.96679E-01 -3.67037E-01 -1.01910E-01  2.01683E-01
   5.46810E-01  9.35836E-01  1.37082E+00  1.85272E+00  2.38169E+00  2.95624E+00  3.57355E+00  4.22873E+00  4.91536E+00  5.62483E+00
   6.34699E+00  7.06971E+00  7.77975E+00  8.46264E+00  9.10377E+00  9.68835E+00  1.02026E+01  1.06339E+01  1.09715E+01  1.12073E+01
   1.13358E+01  1.13548E+01  1.12652E+01  1.10709E+01  1.07788E+01  1.03984E+01  9.94124E+00  9.42036E+00  8.84992E+00  8.24414E+00
   7.61741E+00  6.98319E+00  6.35421E+00  5.74161E+00  5.15527E+00  4.60324E+00  4.09232E+00  3.62762E+00  3.21324E+00  2.85190E+00
   2.54571E+00  2.29583E+00  2.10327E+00  1.96841E+00  1.89168E+00  1.87300E+00  1.91237E+00  2.00921E+00  2.16281E+00  2.37154E+00
   2.63325E+00  2.94442E+00  3.30060E+00  3.69566E+00  4.12227E+00  4.57134E+00  5.03260E+00  5.49431E+00  5.94416E+00  6.36912E+00
   6.75650E+00  7.09394E+00  7.37053E+00  7.57681E+00  7.70578E+00  7.75275E+00  7.71603E+00  7.59648E+00  7.39790E+00  7.12633E+00
   6.79015E+00  6.39909E+00  5.96417E+00  5.49666E+00  5.00805E+00  4.50908E+00  4.00985E+00  3.51899E+00  3.04396E+00  2.59049E+00
   2.16302E+00  1.76438E+00  1.39634E+00  1.05932E+00  7.53056E-01  4.76306E-01  2.27585E-01  4.80670E-03 -1.94052E-01 -3.71368E-01
  -5.29246E-01 -6.69954E-01 -7.95355E-01 -9.07392E-01 -1.00758E+00 -1.09753E+00 -1.17842E+00 -1.25152E+00 -1.31766E+00 -1.37783E+00
  -1.43262E+00 -1.48280E+00 -1.52880E+00 -1.57121E+00 -1.61030E+00 -1.64652E+00 -1.68007E+00 -1.71135E+00 -1.74045E+00 -1.76771E+00
  -1.79316E+00 -1.81708E+00 -1.83949E+00 -1.86065E+00 -1.88053E+00 -1.89936E+00 -1.91707E+00 -1.93389E+00 -1.94976E+00 -1.96488E+00
  -1.97919E+00 -1.99284E+00 -2.00576E+00 -2.01813E+00 -2.02987E+00 -2.04115E+00 -2.05185E+00 -2.06214E+00 -2.07192E+00 -2.08134E+00
  -2.09033E+00 -2.09901E+00 -2.10728E+00 -2.11527E+00 -2.12289E+00 -2.13030E+00 -2.13737E+00 -2.14425E+00 -2.15081E+00 -2.15721E+00
  -2.16333E+00 -2.16933E+00 -2.17508E+00 -2.18072E+00 -2.18612E+00 -2.19143E+00 -2.19655E+00 -2.20160E+00 -2.20649E+00 -2.21132E+00
  -2.21598E+00 -2.22063E+00 -2.22515E+00 -2.22969E+00 -2.23411E+00 -2.23855E+00 -2.24291E+00 -2.24733E+00
 NY background values follow
    -4.387E+00   -4.384E+00   -4.382E+00   -4.379E+00   -4.377E+00   -4.374E+00   -4.371E+00   -4.369E+00   -4.366E+00   -4.364E+00
    -4.361E+00   -4.359E+00   -4.356E+00   -4.354E+00   -4.351E+00   -4.349E+00   -4.346E+00   -4.343E+00   -4.341E+00   -4.338E+00
    -4.336E+00   -4.333E+00   -4.331E+00   -4.328E+00   -4.326E+00   -4.323E+00   -4.320E+00   -4.318E+00   -4.315E+00   -4.313E+00
    -4.310E+00   -4.308E+00   -4.305E+00   -4.302E+00   -4.300E+00   -4.297E+00   -4.295E+00   -4.292E+00   -4.290E+00   -4.287E+00
    -4.284E+00   -4.282E+00   -4.279E+00   -4.277E+00   -4.274E+00   -4.271E+00   -4.269E+00   -4.266E+00   -4.264E+00   -4.261E+00
    -4.258E+00   -4.256E+00   -4.253E+00   -4.251E+00   -4.248E+00   -4.245E+00   -4.243E+00   -4.240E+00   -4.238E+00   -4.235E+00
    -4.232E+00   -4.230E+00   -4.227E+00   -4.225E+00   -4.222E+00   -4.219E+00   -4.217E+00   -4.214E+00   -4.211E+00   -4.209E+00
    -4.206E+00   -4.204E+00   -4.201E+00   -4.198E+00   -4.196E+00   -4.193E+00   -4.190E+00   -4.188E+00   -4.185E+00   -4.182E+00
    -4.180E+00   -4.177E+00   -4.175E+00   -4.172E+00   -4.169E+00   -4.167E+00   -4.164E+00   -4.161E+00   -4.159E+00   -4.156E+00
    -4.153E+00   -4.151E+00   -4.148E+00   -4.145E+00   -4.143E+00   -4.140E+00   -4.137E+00   -4.135E+00   -4.132E+00   -4.129E+00
    -4.127E+00   -4.124E+00   -4.121E+00   -4.119E+00   -4.116E+00   -4.113E+00   -4.111E+00   -4.108E+00   -4.105E+00   -4.103E+00
    -4.100E+00   -4.097E+00   -4.095E+00   -4.092E+00   -4.089E+00   -4.087E+00   -4.084E+00   -4.081E+00   -4.079E+00   -4.076E+00
    -4.073E+00   -4.070E+00   -4.068E+00   -4.065E+00   -4.062E+00   -4.060E+00   -4.057E+00   -4.054E+00   -4.052E+00   -4.049E+00
    -4.046E+00   -4.043E+00   -4.041E+00   -4.038E+00   -4.035E+00   -4.033E+00   -4.030E+00   -4.027E+00   -4.024E+00   -4.022E+00
    -4.019E+00   -4.016E+00   -4.014E+00   -4.011E+00   -4.008E+00   -4.005E+00   -4.003E+00   -4.000E+00   -3.997E+00   -3.995E+00
    -3.992E+00   -3.989E+00   -3.986E+00   -3.984E+00   -3.981E+00   -3.978E+00   -3.975E+00   -3.973E+00   -3.970E+00   -3.967E+00
    -3.964E+00   -3.962E+00   -3.959E+00   -3.956E+00   -3.953E+00   -3.951E+00   -3.948E+00   -3.945E+00   -3.942E+00   -3.940E+00
    -3.937E+00   -3.934E+00   -3.931E+00   -3.929E+00   -3.926E+00   -3.923E+00   -3.920E+00   -3.918E+00   -3.915E+00   -3.912E+00
    -3.909E+00   -3.907E+00   -3.904E+00   -3.901E+00   -3.898E+00   -3.896E+00   -3.893E+00   -3.890E+00   -3.887E+00   -3.884E+00
    -3.882E+00   -3.879E+00   -3.876E+00   -3.873E+00   -3.871E+00   -3.868E+00   -3.865E+00   -3.862E+00   -3.859E+00   -3.857E+00
    -3.854E+00   -3.851E+00   -3.848E+00   -3.845E+00   -3.843E+00   -3.840E+00   -3.837E+00   -3.834E+00   -3.832E+00   -3.829E+00
    -3.826E+00   -3.823E+00   -3.820E+00   -3.818E+00   -3.815E+00   -3.812E+00   -3.809E+00   -3.806E+00   -3.804E+00   -3.801E+00
    -3.798E+00   -3.795E+00   -3.792E+00   -3.789E+00   -3.787E+00   -3.784E+00   -3.781E+00   -3.778E+00   -3.775E+00   -3.773E+00
    -3.770E+00   -3.767E+00   -3.764E+00   -3.761E+00   -3.758E+00   -3.756E+00   -3.753E+00   -3.750E+00   -3.747E+00   -3.744E+00
    -3.741E+00   -3.739E+00   -3.736E+00   -3.733E+00   -3.730E+00   -3.727E+00   -3.724E+00   -3.722E+00   -3.719E+00   -3.716E+00
    -3.713E+00   -3.710E+00   -3.707E+00   -3.705E+00   -3.702E+00   -3.699E+00   -3.696E+00   -3.693E+00   -3.690E+00   -3.688E+00
    -3.685E+00   -3.682E+00   -3.679E+00   -3.676E+00   -3.673E+00   -3.670E+00   -3.668E+00   -3.665E+00   -3.662E+00   -3.659E+00
    -3.656E+00   -3.653E+00   -3.650E+00   -3.648E+00   -3.645E+00   -3.642E+00   -3.639E+00   -3.636E+00   -3.633E+00   -3.630E+00
    -3.628E+00   -3.625E+00   -3.622E+00   -3.619E+00   -3.616E+00   -3.613E+00   -3.610E+00   -3.607E+00   -3.605E+00   -3.602E+00
    -3.599E+00   -3.596E+00   -3.593E+00   -3.590E+00   -3.587E+00   -3.584E+00   -3.582E+00   -3.579E+00   -3.576E+00   -3.573E+00
    -3.570E+00   -3.567E+00   -3.564E+00   -3.561E+00   -3.558E+00   -3.556E+00   -3.553E+00   -3.550E+00   -3.547E+00   -3.544E+00
    -3.541E+00   -3.538E+00   -3.535E+00   -3.532E+00   -3.529E+00   -3.527E+00   -3.524E+00   -3.521E+00   -3.518E+00   -3.515E+00
    -3.512E+00   -3.509E+00   -3.506E+00   -3.503E+00   -3.500E+00   -3.498E+00   -3.495E+00   -3.492E+00   -3.489E+00   -3.486E+00
    -3.483E+00   -3.480E+00   -3.477E+00   -3.474E+00   -3.471E+00   -3.468E+00   -3.466E+00   -3.463E+00   -3.460E+00   -3.457E+00
    -3.454E+00   -3.451E+00   -3.448E+00   -3.445E+00   -3.442E+00   -3.439E+00   -3.436E+00   -3.433E+00   -3.431E+00   -3.428E+00
    -3.425E+00   -3.422E+00   -3.419E+00   -3.416E+00   -3.413E+00   -3.410E+00   -3.407E+00   -3.404E+00   -3.401E+00   -3.398E+00
    -3.395E+00   -3.392E+00   -3.390E+00   -3.387E+00   -3.384E+00   -3.381E+00   -3.378E+00   -3.375E+00   -3.372E+00   -3.369E+00
    -3.366E+00   -3.363E+00   -3.360E+00   -3.357E+00   -3.354E+00   -3.351E+00   -3.348E+00   -3.345E+00   -3.342E+00   -3.340E+00
    -3.337E+00   -3.334E+00   -3.331E+00   -3.328E+00   -3.325E+00   -3.322E+00   -3.319E+00   -3.316E+00   -3.313E+00   -3.310E+00
    -3.307E+00   -3.304E+00   -3.301E+00   -3.298E+00   -3.295E+00   -3.292E+00   -3.289E+00   -3.286E+00   -3.283E+00   -3.280E+00
    -3.278E+00   -3.275E+00   -3.272E+00   -3.269E+00   -3.266E+00   -3.263E+00   -3.260E+00   -3.257E+00   -3.254E+00   -3.251E+00
    -3.248E+00   -3.245E+00   -3.242E+00   -3.239E+00   -3.236E+00   -3.233E+00   -3.230E+00   -3.227E+00   -3.224E+00   -3.221E+00
    -3.218E+00   -3.215E+00   -3.212E+00   -3.209E+00   -3.206E+00   -3.203E+00   -3.200E+00   -3.197E+00   -3.194E+00   -3.191E+00
    -3.188E+00   -3.185E+00   -3.182E+00   -3.180E+00   -3.177E+00   -3.174E+00   -3.171E+00   -3.168E+00   -3.165E+00   -3.162E+00
    -3.159E+00   -3.156E+00   -3.153E+00   -3.150E+00   -3.147E+00   -3.144E+00   -3.141E+00   -3.138E+00   -3.135E+00   -3.132E+00
    -3.129E+00   -3.126E+00   -3.123E+00   -3.120E+00   -3.117E+00   -3.114E+00   -3.111E+00   -3.108E+00   -3.105E+00   -3.102E+00
    -3.099E+00   -3.096E+00   -3.093E+00   -3.090E+00   -3.087E+00   -3.084E+00   -3.081E+00   -3.078E+00   -3.075E+00   -3.072E+00
    -3.069E+00   -3.066E+00   -3.063E+00   -3.060E+00   -3.057E+00   -3.054E+00   -3.051E+00   -3.048E+00   -3.045E+00   -3.042E+00
    -3.039E+00   -3.036E+00   -3.033E+00   -3.030E+00   -3.027E+00   -3.024E+00   -3.021E+00   -3.018E+00   -3.015E+00   -3.012E+00
    -3.009E+00   -3.006E+00   -3.003E+00   -3.000E+00   -2.997E+00   -2.994E+00   -2.991E+00   -2.988E+00
 Cr       Conc. = 1.39E+02
