 LCModel (Version 6.3-1L) Copyright: S.W. Provencher.          Ref.: Magn. Reson. Med. 30:672-679 (1993).                
 Slice#1 Row#10 Col#14  PD_24_press_1_raw_act
 36 lines in following concentration table = NCONC+1
    Conc.  %SD /Cr+PCr  Metabolite                                         
    5.142 315%   0.175 Ala                                                 
    4.389  58%   0.149 Asp                                                 
    0.000 999%   0.000 Cr                                                  
   29.385  50%   1.000 PCr                                                 
    2.602  59% 8.9E-02 GABA                                                
    2.657  58% 9.0E-02 Glc                                                 
   24.720 130%   0.841 Gln                                                 
   11.159 304%   0.380 Glu                                                 
    7.990  59%   0.272 GPC                                                 
    0.000 999%   0.000 PCh                                                 
    0.000 999%   0.000 GSH                                                 
    0.000 999%   0.000 Ins                                                 
    6.937 276%   0.236 Lac                                                 
   34.683  48%   1.180 NAA                                                 
    0.000 999%   0.000 NAAG                                                
    0.897  57% 3.1E-02 Scyllo                                              
    4.455  57%   0.152 Tau                                                 
    2.462 146% 8.4E-02 -CrCH2                                              
    7.990  59%   0.272 GPC+PCh                                             
   34.683  55%   1.180 NAA+NAAG                                            
   29.385  50%   1.000 Cr+PCr                                              
   35.879 122%   1.221 Glu+Gln                                             
    0.000 999%   0.000 Lip13a                                              
  260.284  95%   8.858 Lip13b                                              
    0.000 999%   0.000 Lip09                                               
 4.62E+03  10% 157.192 MM09                                                
  257.834  88%   8.774 Lip20                                               
   60.994 340%   2.076 MM20                                                
 2.65E+03  15%  90.238 MM12                                                
 2.78E+03  21%  94.707 MM14                                                
 1.11E+03  27%  37.651 MM17                                                
  260.284  95%   8.858 Lip13a+Lip13b                                       
 5.69E+03  12% 193.803 MM14+Lip13a+Lip13b+MM12                             
 4.62E+03  10% 157.192 MM09+Lip09                                          
  318.829  56%  10.850 MM20+Lip20                                          
   6 lines in following misc. output table
  FWHM = 0.023 ppm    S/N =   8                                            
  Data shift = 0.015 ppm                                                   
  Ph:-107 deg     -14.1 deg/ppm                                            
  alphaB,S = 5.9E-01,   3.0E+00                                            
   14 spline knots.   Ns = 5(1)                                            
  ( 5) 2 infls.   ( 5) 2 extrs.                                            
  498 points on ppm-axis = NY
      4.000000     3.992357     3.984714     3.977070     3.969427     3.961784     3.954141     3.946497     3.938854     3.931211
      3.923568     3.915925     3.908281     3.900638     3.892995     3.885352     3.877708     3.870065     3.862422     3.854779
      3.847136     3.839492     3.831849     3.824206     3.816563     3.808919     3.801276     3.793633     3.785990     3.778347
      3.770703     3.763060     3.755417     3.747774     3.740130     3.732487     3.724844     3.717201     3.709558     3.701914
      3.694271     3.686628     3.678985     3.671341     3.663698     3.656055     3.648412     3.640769     3.633125     3.625482
      3.617839     3.610196     3.602552     3.594909     3.587266     3.579623     3.571980     3.564336     3.556693     3.549050
      3.541407     3.533763     3.526120     3.518477     3.510834     3.503191     3.495547     3.487904     3.480261     3.472618
      3.464974     3.457331     3.449688     3.442045     3.434402     3.426758     3.419115     3.411472     3.403829     3.396185
      3.388542     3.380899     3.373256     3.365613     3.357969     3.350326     3.342683     3.335040     3.327396     3.319753
      3.312110     3.304467     3.296824     3.289180     3.281537     3.273894     3.266251     3.258607     3.250964     3.243321
      3.235678     3.228034     3.220391     3.212748     3.205105     3.197462     3.189818     3.182175     3.174532     3.166889
      3.159245     3.151602     3.143959     3.136316     3.128673     3.121029     3.113386     3.105743     3.098100     3.090456
      3.082813     3.075170     3.067527     3.059884     3.052240     3.044597     3.036954     3.029311     3.021667     3.014024
      3.006381     2.998738     2.991095     2.983451     2.975808     2.968165     2.960522     2.952878     2.945235     2.937592
      2.929949     2.922306     2.914662     2.907019     2.899376     2.891733     2.884089     2.876446     2.868803     2.861160
      2.853517     2.845873     2.838230     2.830587     2.822944     2.815300     2.807657     2.800014     2.792371     2.784728
      2.777084     2.769441     2.761798     2.754155     2.746511     2.738868     2.731225     2.723582     2.715939     2.708295
      2.700652     2.693009     2.685366     2.677722     2.670079     2.662436     2.654793     2.647150     2.639506     2.631863
      2.624220     2.616577     2.608933     2.601290     2.593647     2.586004     2.578361     2.570717     2.563074     2.555431
      2.547788     2.540144     2.532501     2.524858     2.517215     2.509572     2.501928     2.494285     2.486642     2.478999
      2.471355     2.463712     2.456069     2.448426     2.440783     2.433139     2.425496     2.417853     2.410210     2.402566
      2.394923     2.387280     2.379637     2.371994     2.364350     2.356707     2.349064     2.341421     2.333777     2.326134
      2.318491     2.310848     2.303205     2.295561     2.287918     2.280275     2.272632     2.264988     2.257345     2.249702
      2.242059     2.234416     2.226772     2.219129     2.211486     2.203843     2.196199     2.188556     2.180913     2.173270
      2.165627     2.157983     2.150340     2.142697     2.135054     2.127410     2.119767     2.112124     2.104481     2.096838
      2.089194     2.081551     2.073908     2.066265     2.058621     2.050978     2.043335     2.035692     2.028049     2.020405
      2.012762     2.005119     1.997476     1.989833     1.982190     1.974546     1.966903     1.959260     1.951617     1.943974
      1.936331     1.928688     1.921045     1.913402     1.905759     1.898115     1.890472     1.882829     1.875186     1.867543
      1.859900     1.852257     1.844614     1.836971     1.829327     1.821684     1.814041     1.806398     1.798755     1.791112
      1.783469     1.775826     1.768183     1.760540     1.752896     1.745253     1.737610     1.729967     1.722324     1.714681
      1.707038     1.699395     1.691752     1.684108     1.676465     1.668822     1.661179     1.653536     1.645893     1.638250
      1.630607     1.622964     1.615321     1.607677     1.600034     1.592391     1.584748     1.577105     1.569462     1.561819
      1.554176     1.546533     1.538890     1.531246     1.523603     1.515960     1.508317     1.500674     1.493031     1.485388
      1.477745     1.470102     1.462458     1.454815     1.447172     1.439529     1.431886     1.424243     1.416600     1.408957
      1.401314     1.393671     1.386027     1.378384     1.370741     1.363098     1.355455     1.347812     1.340169     1.332526
      1.324883     1.317240     1.309596     1.301953     1.294310     1.286667     1.279024     1.271381     1.263738     1.256095
      1.248452     1.240808     1.233165     1.225522     1.217879     1.210236     1.202593     1.194950     1.187307     1.179664
      1.172021     1.164377     1.156734     1.149091     1.141448     1.133805     1.126162     1.118519     1.110876     1.103233
      1.095590     1.087946     1.080303     1.072660     1.065017     1.057374     1.049731     1.042088     1.034445     1.026802
      1.019158     1.011515     1.003872     0.996229     0.988586     0.980943     0.973300     0.965657     0.958014     0.950371
      0.942727     0.935084     0.927441     0.919798     0.912155     0.904512     0.896869     0.889226     0.881583     0.873940
      0.866296     0.858653     0.851010     0.843367     0.835724     0.828081     0.820438     0.812795     0.805152     0.797508
      0.789865     0.782222     0.774579     0.766936     0.759293     0.751650     0.744007     0.736364     0.728721     0.721077
      0.713434     0.705791     0.698148     0.690505     0.682862     0.675219     0.667576     0.659933     0.652290     0.644646
      0.637003     0.629360     0.621717     0.614074     0.606431     0.598788     0.591145     0.583502     0.575858     0.568215
      0.560572     0.552929     0.545286     0.537643     0.530000     0.522357     0.514714     0.507071     0.499427     0.491784
      0.484141     0.476498     0.468855     0.461212     0.453569     0.445925     0.438282     0.430639     0.422996     0.415353
      0.407710     0.400067     0.392424     0.384780     0.377137     0.369494     0.361851     0.354208     0.346565     0.338922
      0.331278     0.323635     0.315992     0.308349     0.300706     0.293063     0.285420     0.277777     0.270133     0.262490
      0.254847     0.247204     0.239561     0.231918     0.224275     0.216631     0.208988     0.201345
 NY phased data points follow
   9.71844E-01  1.50806E+00  9.25082E-01  1.24238E+00  3.85877E-02  5.47568E-01  2.56300E+00  3.87224E+00  4.78121E+00  2.20695E+00
   4.06160E+00  2.80126E+00  1.20021E+00  6.87120E-01  2.82816E+00  8.79005E-01  4.03924E-01  1.49108E+00  2.12486E+00  2.19846E-01
   1.26138E+00  1.75265E-01  3.05228E+00  2.32425E+00  3.27041E+00  1.73891E+00  2.88539E+00  1.57809E+00  7.97903E-01  3.02151E+00
   2.46467E+00  1.27204E+00  1.73045E+00  1.44377E+00  3.78071E+00  7.22078E-01  2.57388E+00  1.11873E-01  2.57376E+00 -9.81133E-01
   1.27262E+00  7.28842E-01  1.12071E+00  2.25338E+00  2.44117E+00  2.05536E+00  2.57018E+00  2.51367E+00  2.80608E+00  1.02295E+00
   1.23271E+00  2.08223E+00  1.85422E+00  1.23963E+00  2.37295E+00  1.45519E+00  2.37511E+00  2.81291E+00  1.74556E+00  1.90915E-01
   1.03608E-01  5.14968E-01  1.13403E+00  1.82117E+00  1.43173E+00  3.22766E+00  1.31015E+00  2.20113E+00  1.75689E+00  9.77179E-01
   9.06464E-01  2.86083E+00  1.33156E+00  2.34002E+00  2.65641E+00 -2.50320E-01  2.55699E+00 -6.26171E-01  1.56848E+00  1.41069E+00
   8.54065E-01  5.56995E-01  2.93179E+00  1.54358E+00  1.31388E+00  2.00074E+00  1.85315E+00  2.27255E+00  2.72509E+00  1.60568E-01
   2.93538E-01  1.67478E+00  1.00285E+00  1.10306E-01  4.40798E-01  1.42162E+00  6.22292E-01  8.14050E-01  2.37736E+00  2.16129E+00
   2.15281E+00  3.35972E+00  2.46195E+00  2.43219E+00  4.62410E+00  1.76994E+00  2.06635E+00  2.51942E+00  1.63999E+00  3.41629E+00
   1.43385E+00  3.17785E-01  1.96217E+00  1.08175E+00  2.22670E+00 -8.04158E-01  3.01734E+00  1.60548E+00  3.27414E+00  1.19545E+00
   2.51297E+00  1.60945E+00  1.56653E+00  1.50532E+00  3.80338E-01  7.83067E-01  4.11811E+00  3.41380E+00  3.54992E+00  2.57703E+00
   9.52200E-01  1.61073E+00  1.55079E+00 -4.39790E-01  1.97670E+00  2.10528E+00  3.64182E+00  2.46065E+00  2.50191E+00  3.21207E+00
   1.94198E+00  1.29180E+00  3.65809E+00  2.18524E+00  2.37495E+00  1.55667E+00  1.05462E+00  2.11907E+00  2.20321E+00 -2.02340E-01
   2.30191E+00  2.41345E+00  2.08494E+00  1.75003E+00  4.25944E+00  2.55787E+00  3.12698E+00  2.82518E+00  1.81327E+00  3.44342E+00
   2.37557E+00  2.56807E+00  2.71816E+00  3.00541E+00  1.73488E+00  2.32234E+00  3.27328E+00  2.50675E+00  2.97350E+00  3.50199E+00
   3.48896E+00  2.91172E+00  1.79073E+00  2.93094E+00  2.14652E+00  2.83802E+00 -1.50041E-01  1.76074E+00  5.76981E+00  3.73406E+00
   2.30973E+00  1.91723E+00  3.64131E+00  3.03865E+00  3.23724E+00  2.21570E+00  3.88727E+00  2.14399E+00  1.28312E+00  1.90877E+00
   1.45317E+00  2.36874E+00  1.82857E+00  4.59043E+00  3.76183E+00  3.26977E+00  2.54290E+00  3.29795E+00  1.81677E+00  2.40567E+00
   4.71095E+00  3.83911E+00  2.25391E+00  2.38408E+00  2.79177E+00  3.65527E+00  4.47124E+00  3.01463E+00  4.46195E+00  3.05554E+00
   5.21352E+00  2.36064E+00  2.62216E+00  3.60662E+00  3.90742E+00  4.09090E+00  3.65483E+00  3.96455E+00  3.49010E+00  2.32864E+00
   2.97420E+00  4.13244E+00  4.30225E+00  4.30615E+00  4.17617E+00  3.75044E+00  4.68653E+00  4.07530E+00  4.85392E+00  3.07577E+00
   4.94100E+00  3.50459E+00  5.42942E+00  4.55967E+00  4.16334E+00  4.22172E+00  4.20655E+00  3.63969E+00  2.65521E+00  4.61513E+00
   4.12706E+00  4.25454E+00  3.38030E+00  4.53761E+00  5.06720E+00  3.51760E+00  3.66136E+00  3.54814E+00  4.00284E+00  5.84100E+00
   5.96636E+00  3.76013E+00  4.73808E+00  5.05877E+00  6.60415E+00  5.11562E+00  6.28023E+00  3.82507E+00  4.69044E+00  4.71761E+00
   5.10142E+00  8.75813E+00  7.93116E+00  6.09994E+00  4.44618E+00  5.11256E+00  5.80941E+00  5.62851E+00  5.19580E+00  7.36252E+00
   6.36171E+00  5.42150E+00  7.38340E+00  7.21222E+00  5.05377E+00  6.40495E+00  6.72290E+00  5.35966E+00  5.72058E+00  5.49043E+00
   5.93841E+00  6.56716E+00  6.04645E+00  7.80142E+00  7.06301E+00  7.65495E+00  8.04045E+00  6.89271E+00  7.52498E+00  8.74930E+00
   8.83940E+00  7.03334E+00  8.48213E+00  7.56848E+00  7.10485E+00  6.78730E+00  7.39602E+00  8.06717E+00  7.28453E+00  7.69889E+00
   8.14502E+00  7.38777E+00  6.52967E+00  9.08294E+00  7.83132E+00  6.88127E+00  6.54702E+00  9.34898E+00  7.70453E+00  8.58131E+00
   8.92789E+00  7.86185E+00  1.00307E+01  7.97531E+00  9.75228E+00  8.81783E+00  7.62907E+00  6.30895E+00  1.11836E+01  9.09246E+00
   9.22301E+00  9.06016E+00  9.72362E+00  1.06876E+01  1.07354E+01  1.09324E+01  1.05506E+01  1.13853E+01  1.29615E+01  1.31107E+01
   1.28372E+01  1.15968E+01  1.40679E+01  1.41798E+01  1.25498E+01  1.30360E+01  1.40475E+01  1.35239E+01  1.32456E+01  1.54425E+01
   1.59353E+01  1.54026E+01  1.73548E+01  1.59283E+01  1.57086E+01  1.66182E+01  1.70981E+01  1.66839E+01  1.59236E+01  1.54532E+01
   1.67624E+01  1.67570E+01  1.64396E+01  1.59983E+01  1.71217E+01  1.50260E+01  1.39381E+01  1.80915E+01  1.47207E+01  1.65287E+01
   1.46343E+01  1.63434E+01  1.24708E+01  1.60103E+01  1.53113E+01  1.55965E+01  1.50630E+01  1.52692E+01  1.70091E+01  1.63674E+01
   1.48378E+01  1.62501E+01  1.65569E+01  1.58194E+01  1.49304E+01  1.61911E+01  1.69366E+01  1.67269E+01  1.60780E+01  1.65291E+01
   1.57975E+01  1.59514E+01  1.61957E+01  1.68127E+01  1.68852E+01  1.72251E+01  1.61197E+01  1.63039E+01  1.71250E+01  1.63132E+01
   1.86410E+01  1.71233E+01  1.65644E+01  1.72365E+01  1.63408E+01  1.53890E+01  1.54447E+01  1.38677E+01  1.40875E+01  1.39284E+01
   1.35031E+01  1.52870E+01  1.38751E+01  1.37747E+01  1.23479E+01  1.15689E+01  1.49492E+01  1.21835E+01  1.10770E+01  1.18956E+01
   1.17589E+01  1.14469E+01  9.61831E+00  9.48133E+00  8.69202E+00  8.11743E+00  9.25062E+00  8.67944E+00  8.23053E+00  7.16623E+00
   5.27488E+00  5.99522E+00  5.57778E+00  6.15988E+00  4.49792E+00  4.68785E+00  4.06003E+00  4.03142E+00  1.93144E+00  1.89833E+00
   1.99926E+00  9.93040E-01  4.91282E-01  8.78768E-01  6.37181E-01 -1.17457E+00 -1.05123E+00 -3.02601E+00 -3.53760E+00 -2.08250E-01
  -1.04312E+00 -4.04233E+00 -3.01619E+00 -4.77013E+00 -3.48791E+00 -4.94896E+00 -3.90723E+00 -6.52937E+00 -5.52912E+00 -6.65655E+00
  -6.67054E+00 -5.80900E+00 -6.79889E+00 -6.07619E+00 -7.37927E+00 -7.14985E+00 -6.96676E+00 -7.53565E+00 -8.38806E+00 -9.73145E+00
  -1.00291E+01 -7.93752E+00 -1.11609E+01 -1.18262E+01 -1.02849E+01 -1.00629E+01 -1.18476E+01 -1.07198E+01 -1.01203E+01 -1.36374E+01
  -1.14452E+01 -1.01745E+01 -1.24745E+01 -1.13989E+01 -1.12182E+01 -1.03309E+01 -1.27047E+01 -1.16800E+01 -1.23161E+01 -1.19685E+01
  -1.33029E+01 -1.37430E+01 -1.35794E+01 -1.31067E+01 -1.36880E+01 -1.34475E+01 -1.34328E+01 -1.12767E+01 -1.28010E+01 -1.30732E+01
  -1.46575E+01 -1.32833E+01 -1.27763E+01 -1.19051E+01 -1.28550E+01 -1.24925E+01 -1.31716E+01 -1.24399E+01
 NY points of the fit to the data follow
   1.62548E+00  1.63971E+00  1.65061E+00  1.67407E+00  1.66175E+00  1.56214E+00  1.62402E+00  1.98220E+00  2.54581E+00  3.05535E+00
   3.02690E+00  2.35076E+00  1.74343E+00  1.66265E+00  1.74544E+00  1.70702E+00  1.70176E+00  1.70693E+00  1.67764E+00  1.63206E+00
   1.61304E+00  1.62455E+00  1.65286E+00  1.69496E+00  1.73522E+00  1.74443E+00  1.69387E+00  1.57406E+00  1.43754E+00  1.38365E+00
   1.44824E+00  1.57755E+00  1.74140E+00  1.89376E+00  1.91423E+00  1.76027E+00  1.57011E+00  1.48089E+00  1.47422E+00  1.51628E+00
   1.60512E+00  1.66550E+00  1.65080E+00  1.63314E+00  1.64843E+00  1.63687E+00  1.60527E+00  1.59810E+00  1.58403E+00  1.56521E+00
   1.59030E+00  1.63171E+00  1.62755E+00  1.59482E+00  1.57739E+00  1.57640E+00  1.57195E+00  1.55940E+00  1.54366E+00  1.53488E+00
   1.53450E+00  1.53585E+00  1.53351E+00  1.52817E+00  1.52825E+00  1.53207E+00  1.53720E+00  1.54104E+00  1.53624E+00  1.52353E+00
   1.51506E+00  1.50706E+00  1.49805E+00  1.50514E+00  1.52925E+00  1.55754E+00  1.58498E+00  1.58477E+00  1.54188E+00  1.49594E+00
   1.48339E+00  1.49400E+00  1.50405E+00  1.51566E+00  1.53743E+00  1.57308E+00  1.62530E+00  1.66426E+00  1.63625E+00  1.56424E+00
   1.52982E+00  1.54491E+00  1.55681E+00  1.54816E+00  1.52576E+00  1.50237E+00  1.51004E+00  1.56353E+00  1.60569E+00  1.49549E+00
   1.47883E+00  1.81038E+00  2.48655E+00  3.26393E+00  3.50287E+00  2.78447E+00  1.86266E+00  1.58496E+00  1.70759E+00  1.70391E+00
   1.67078E+00  1.66303E+00  1.66625E+00  1.67542E+00  1.68358E+00  1.69269E+00  1.70480E+00  1.71838E+00  1.73112E+00  1.74448E+00
   1.76390E+00  1.80948E+00  1.75761E+00  1.58698E+00  1.71784E+00  2.35043E+00  3.33887E+00  4.18439E+00  4.04749E+00  2.90745E+00
   2.00022E+00  1.94372E+00  2.08423E+00  2.03257E+00  2.01267E+00  2.02154E+00  2.04205E+00  2.06778E+00  2.09407E+00  2.12258E+00
   2.15448E+00  2.18180E+00  2.19814E+00  2.21569E+00  2.24876E+00  2.29317E+00  2.33410E+00  2.36187E+00  2.37835E+00  2.39322E+00
   2.41626E+00  2.44542E+00  2.47197E+00  2.49549E+00  2.51803E+00  2.53875E+00  2.55811E+00  2.58181E+00  2.60418E+00  2.60944E+00
   2.59296E+00  2.55817E+00  2.53880E+00  2.57478E+00  2.64817E+00  2.70351E+00  2.71136E+00  2.68040E+00  2.64501E+00  2.63718E+00
   2.64751E+00  2.64909E+00  2.65054E+00  2.65798E+00  2.65022E+00  2.62654E+00  2.60259E+00  2.60490E+00  2.65422E+00  2.71888E+00
   2.73159E+00  2.68619E+00  2.65479E+00  2.69127E+00  2.75649E+00  2.78442E+00  2.76557E+00  2.74375E+00  2.76121E+00  2.83284E+00
   2.91550E+00  2.94420E+00  2.93027E+00  2.91937E+00  2.91798E+00  2.92573E+00  2.94991E+00  2.97260E+00  2.97505E+00  2.97142E+00
   2.99838E+00  3.08121E+00  3.20811E+00  3.33322E+00  3.40502E+00  3.41691E+00  3.41274E+00  3.37237E+00  3.23615E+00  3.06387E+00
   2.93247E+00  2.91073E+00  3.08000E+00  3.36101E+00  3.54147E+00  3.62181E+00  3.72761E+00  3.79984E+00  3.76407E+00  3.71027E+00
   3.69390E+00  3.68637E+00  3.67383E+00  3.70209E+00  3.80557E+00  3.94509E+00  4.03612E+00  4.05943E+00  4.07069E+00  4.09007E+00
   4.09631E+00  4.09389E+00  4.12393E+00  4.17993E+00  4.21048E+00  4.18763E+00  4.13081E+00  4.11020E+00  4.20795E+00  4.41355E+00
   4.58042E+00  4.64437E+00  4.64925E+00  4.58259E+00  4.47203E+00  4.44505E+00  4.50853E+00  4.56238E+00  4.60286E+00  4.68019E+00
   4.75884E+00  4.83587E+00  4.93141E+00  5.02000E+00  5.07138E+00  5.12172E+00  5.05975E+00  4.81648E+00  4.89405E+00  5.57417E+00
   6.70858E+00  7.75786E+00  7.72302E+00  6.42290E+00  5.26971E+00  5.12947E+00  5.29776E+00  5.24272E+00  5.22589E+00  5.24238E+00
   5.26311E+00  5.29700E+00  5.35250E+00  5.42472E+00  5.51044E+00  5.60669E+00  5.70887E+00  5.81655E+00  5.93116E+00  6.05121E+00
   6.17948E+00  6.31930E+00  6.46787E+00  6.62323E+00  6.78519E+00  6.95129E+00  7.11865E+00  7.28366E+00  7.44126E+00  7.58961E+00
   7.72916E+00  7.85704E+00  7.96938E+00  8.06532E+00  8.14459E+00  8.20568E+00  8.24835E+00  8.27347E+00  8.28130E+00  8.27244E+00
   8.24888E+00  8.21281E+00  8.16687E+00  8.11412E+00  8.05785E+00  8.00135E+00  7.94806E+00  7.90157E+00  7.86539E+00  7.84288E+00
   7.83725E+00  7.85143E+00  7.88800E+00  7.94930E+00  8.03743E+00  8.15401E+00  8.30024E+00  8.47677E+00  8.68387E+00  8.92133E+00
   9.18852E+00  9.48434E+00  9.80636E+00  1.01442E+01  1.05105E+01  1.09255E+01  1.13666E+01  1.17927E+01  1.21577E+01  1.24404E+01
   1.27175E+01  1.30634E+01  1.34204E+01  1.37295E+01  1.40247E+01  1.43503E+01  1.46915E+01  1.49667E+01  1.51034E+01  1.51612E+01
   1.52332E+01  1.53168E+01  1.53848E+01  1.54439E+01  1.55233E+01  1.56655E+01  1.58518E+01  1.60314E+01  1.61395E+01  1.61367E+01
   1.61140E+01  1.61637E+01  1.62299E+01  1.62334E+01  1.62085E+01  1.62186E+01  1.62310E+01  1.61358E+01  1.59065E+01  1.56757E+01
   1.55404E+01  1.54666E+01  1.54337E+01  1.54521E+01  1.55151E+01  1.56127E+01  1.57334E+01  1.58656E+01  1.59982E+01  1.61218E+01
   1.62287E+01  1.63132E+01  1.63717E+01  1.64024E+01  1.64054E+01  1.63822E+01  1.63354E+01  1.62689E+01  1.61872E+01  1.60951E+01
   1.59977E+01  1.59001E+01  1.58069E+01  1.57221E+01  1.56492E+01  1.55907E+01  1.55480E+01  1.55218E+01  1.55114E+01  1.55154E+01
   1.55313E+01  1.55557E+01  1.55847E+01  1.56137E+01  1.56377E+01  1.56516E+01  1.56500E+01  1.56279E+01  1.55802E+01  1.55025E+01
   1.53909E+01  1.52420E+01  1.50532E+01  1.48227E+01  1.45495E+01  1.42334E+01  1.38751E+01  1.34758E+01  1.30377E+01  1.25634E+01
   1.20562E+01  1.15195E+01  1.09574E+01  1.03739E+01  9.77316E+00  9.15940E+00  8.53668E+00  7.90887E+00  7.27963E+00  6.65230E+00
   6.02996E+00  5.41528E+00  4.81057E+00  4.21777E+00  3.63850E+00  3.07404E+00  2.52537E+00  1.99316E+00  1.47782E+00  9.79528E-01
   4.98305E-01  3.39976E-02 -4.13677E-01 -8.45146E-01 -1.26091E+00 -1.66153E+00 -2.04759E+00 -2.41973E+00 -2.77857E+00 -3.12481E+00
  -3.45910E+00 -3.78207E+00 -4.09434E+00 -4.39652E+00 -4.68917E+00 -4.97289E+00 -5.24819E+00 -5.51558E+00 -5.77551E+00 -6.02843E+00
  -6.27478E+00 -6.51497E+00 -6.74935E+00 -6.97827E+00 -7.20203E+00 -7.42096E+00 -7.63534E+00 -7.84544E+00 -8.05151E+00 -8.25376E+00
  -8.45240E+00 -8.64764E+00 -8.83968E+00 -9.02870E+00 -9.21483E+00 -9.39824E+00 -9.57904E+00 -9.75741E+00 -9.93345E+00 -1.01073E+01
  -1.02790E+01 -1.04487E+01 -1.06165E+01 -1.07825E+01 -1.09467E+01 -1.11093E+01 -1.12702E+01 -1.14296E+01 -1.15876E+01 -1.17441E+01
  -1.18993E+01 -1.20531E+01 -1.22057E+01 -1.23571E+01 -1.25073E+01 -1.26563E+01 -1.28043E+01 -1.29512E+01 -1.30970E+01 -1.32418E+01
  -1.33857E+01 -1.35285E+01 -1.36705E+01 -1.38115E+01 -1.39516E+01 -1.40909E+01 -1.42293E+01 -1.43668E+01
 NY background values follow
     1.525E+00    1.523E+00    1.522E+00    1.520E+00    1.518E+00    1.516E+00    1.514E+00    1.512E+00    1.510E+00    1.508E+00
     1.506E+00    1.504E+00    1.502E+00    1.500E+00    1.498E+00    1.496E+00    1.494E+00    1.491E+00    1.489E+00    1.487E+00
     1.485E+00    1.482E+00    1.480E+00    1.478E+00    1.476E+00    1.473E+00    1.471E+00    1.468E+00    1.466E+00    1.464E+00
     1.461E+00    1.459E+00    1.456E+00    1.453E+00    1.451E+00    1.448E+00    1.446E+00    1.443E+00    1.440E+00    1.437E+00
     1.435E+00    1.432E+00    1.429E+00    1.426E+00    1.423E+00    1.420E+00    1.418E+00    1.415E+00    1.412E+00    1.409E+00
     1.406E+00    1.403E+00    1.400E+00    1.397E+00    1.394E+00    1.391E+00    1.388E+00    1.385E+00    1.382E+00    1.379E+00
     1.376E+00    1.373E+00    1.371E+00    1.368E+00    1.365E+00    1.363E+00    1.360E+00    1.358E+00    1.355E+00    1.353E+00
     1.351E+00    1.349E+00    1.347E+00    1.345E+00    1.343E+00    1.341E+00    1.340E+00    1.338E+00    1.337E+00    1.336E+00
     1.335E+00    1.334E+00    1.333E+00    1.333E+00    1.332E+00    1.332E+00    1.332E+00    1.332E+00    1.332E+00    1.333E+00
     1.333E+00    1.334E+00    1.335E+00    1.336E+00    1.337E+00    1.339E+00    1.341E+00    1.343E+00    1.345E+00    1.347E+00
     1.350E+00    1.353E+00    1.356E+00    1.359E+00    1.362E+00    1.366E+00    1.370E+00    1.374E+00    1.378E+00    1.383E+00
     1.387E+00    1.392E+00    1.397E+00    1.403E+00    1.408E+00    1.414E+00    1.420E+00    1.426E+00    1.433E+00    1.440E+00
     1.447E+00    1.454E+00    1.461E+00    1.469E+00    1.477E+00    1.485E+00    1.493E+00    1.502E+00    1.511E+00    1.520E+00
     1.529E+00    1.538E+00    1.548E+00    1.558E+00    1.569E+00    1.579E+00    1.590E+00    1.601E+00    1.612E+00    1.624E+00
     1.635E+00    1.647E+00    1.660E+00    1.672E+00    1.685E+00    1.697E+00    1.710E+00    1.723E+00    1.737E+00    1.750E+00
     1.764E+00    1.778E+00    1.792E+00    1.806E+00    1.820E+00    1.834E+00    1.849E+00    1.863E+00    1.878E+00    1.892E+00
     1.907E+00    1.922E+00    1.937E+00    1.952E+00    1.967E+00    1.983E+00    1.998E+00    2.013E+00    2.029E+00    2.044E+00
     2.059E+00    2.075E+00    2.090E+00    2.105E+00    2.121E+00    2.136E+00    2.152E+00    2.167E+00    2.182E+00    2.197E+00
     2.213E+00    2.228E+00    2.243E+00    2.258E+00    2.273E+00    2.288E+00    2.303E+00    2.317E+00    2.332E+00    2.346E+00
     2.361E+00    2.375E+00    2.389E+00    2.403E+00    2.417E+00    2.431E+00    2.445E+00    2.458E+00    2.471E+00    2.484E+00
     2.497E+00    2.510E+00    2.523E+00    2.535E+00    2.547E+00    2.559E+00    2.571E+00    2.583E+00    2.594E+00    2.605E+00
     2.616E+00    2.626E+00    2.637E+00    2.647E+00    2.657E+00    2.666E+00    2.676E+00    2.685E+00    2.693E+00    2.702E+00
     2.710E+00    2.718E+00    2.725E+00    2.733E+00    2.739E+00    2.746E+00    2.752E+00    2.758E+00    2.764E+00    2.769E+00
     2.773E+00    2.778E+00    2.782E+00    2.786E+00    2.789E+00    2.792E+00    2.794E+00    2.796E+00    2.798E+00    2.799E+00
     2.800E+00    2.800E+00    2.800E+00    2.800E+00    2.799E+00    2.798E+00    2.796E+00    2.793E+00    2.791E+00    2.787E+00
     2.784E+00    2.779E+00    2.775E+00    2.769E+00    2.764E+00    2.757E+00    2.750E+00    2.743E+00    2.735E+00    2.727E+00
     2.718E+00    2.708E+00    2.698E+00    2.688E+00    2.677E+00    2.665E+00    2.653E+00    2.640E+00    2.626E+00    2.612E+00
     2.597E+00    2.582E+00    2.566E+00    2.549E+00    2.532E+00    2.514E+00    2.496E+00    2.477E+00    2.457E+00    2.437E+00
     2.416E+00    2.394E+00    2.372E+00    2.349E+00    2.326E+00    2.302E+00    2.277E+00    2.252E+00    2.226E+00    2.200E+00
     2.173E+00    2.145E+00    2.116E+00    2.087E+00    2.058E+00    2.028E+00    1.997E+00    1.965E+00    1.933E+00    1.901E+00
     1.867E+00    1.833E+00    1.799E+00    1.764E+00    1.728E+00    1.692E+00    1.655E+00    1.617E+00    1.579E+00    1.540E+00
     1.500E+00    1.460E+00    1.420E+00    1.378E+00    1.336E+00    1.294E+00    1.250E+00    1.207E+00    1.162E+00    1.117E+00
     1.072E+00    1.025E+00    9.784E-01    9.309E-01    8.828E-01    8.341E-01    7.847E-01    7.348E-01    6.842E-01    6.331E-01
     5.813E-01    5.289E-01    4.759E-01    4.223E-01    3.681E-01    3.133E-01    2.579E-01    2.019E-01    1.452E-01    8.801E-02
     3.018E-02   -2.825E-02   -8.728E-02   -1.469E-01   -2.071E-01   -2.680E-01   -3.294E-01   -3.914E-01   -4.541E-01   -5.173E-01
    -5.811E-01   -6.455E-01   -7.105E-01   -7.761E-01   -8.423E-01   -9.091E-01   -9.764E-01   -1.044E+00   -1.113E+00   -1.182E+00
    -1.252E+00   -1.322E+00   -1.393E+00   -1.465E+00   -1.537E+00   -1.609E+00   -1.683E+00   -1.756E+00   -1.831E+00   -1.906E+00
    -1.982E+00   -2.058E+00   -2.135E+00   -2.212E+00   -2.290E+00   -2.369E+00   -2.448E+00   -2.528E+00   -2.608E+00   -2.689E+00
    -2.771E+00   -2.853E+00   -2.935E+00   -3.019E+00   -3.103E+00   -3.187E+00   -3.273E+00   -3.358E+00   -3.445E+00   -3.532E+00
    -3.619E+00   -3.708E+00   -3.796E+00   -3.886E+00   -3.976E+00   -4.066E+00   -4.158E+00   -4.250E+00   -4.342E+00   -4.435E+00
    -4.529E+00   -4.623E+00   -4.718E+00   -4.813E+00   -4.910E+00   -5.006E+00   -5.104E+00   -5.202E+00   -5.300E+00   -5.399E+00
    -5.499E+00   -5.600E+00   -5.701E+00   -5.802E+00   -5.904E+00   -6.007E+00   -6.110E+00   -6.214E+00   -6.318E+00   -6.423E+00
    -6.528E+00   -6.634E+00   -6.740E+00   -6.846E+00   -6.954E+00   -7.061E+00   -7.169E+00   -7.278E+00   -7.387E+00   -7.496E+00
    -7.606E+00   -7.716E+00   -7.827E+00   -7.938E+00   -8.049E+00   -8.161E+00   -8.273E+00   -8.386E+00   -8.498E+00   -8.612E+00
    -8.725E+00   -8.839E+00   -8.953E+00   -9.067E+00   -9.182E+00   -9.297E+00   -9.412E+00   -9.528E+00   -9.644E+00   -9.760E+00
    -9.876E+00   -9.993E+00   -1.011E+01   -1.023E+01   -1.034E+01   -1.046E+01   -1.058E+01   -1.070E+01   -1.081E+01   -1.093E+01
    -1.105E+01   -1.117E+01   -1.129E+01   -1.141E+01   -1.152E+01   -1.164E+01   -1.176E+01   -1.188E+01   -1.200E+01   -1.212E+01
    -1.224E+01   -1.236E+01   -1.248E+01   -1.259E+01   -1.271E+01   -1.283E+01   -1.295E+01   -1.307E+01   -1.319E+01   -1.331E+01
    -1.343E+01   -1.355E+01   -1.367E+01   -1.379E+01   -1.390E+01   -1.402E+01   -1.414E+01   -1.426E+01   -1.438E+01   -1.450E+01
    -1.461E+01   -1.473E+01   -1.485E+01   -1.497E+01   -1.508E+01   -1.520E+01   -1.532E+01   -1.543E+01
 Ala      Conc. = 5.14E+00
