 LCModel (Version 6.3-1L) Copyright: S.W. Provencher.          Ref.: Magn. Reson. Med. 30:672-679 (1993).                
 Slice#1 Row#4 Col#4  PD_24_press_1_raw_act
 36 lines in following concentration table = NCONC+1
    Conc.  %SD /Cr+PCr  Metabolite                                         
  282.613  46%   0.375 Ala                                                 
    0.000 999%   0.000 Asp                                                 
  656.385  38%   0.872 Cr                                                  
   96.442 258%   0.128 PCr                                                 
    2.155 999% 2.9E-03 GABA                                                
   50.453 205% 6.7E-02 Glc                                                 
  450.415  68%   0.598 Gln                                                 
  671.387  52%   0.892 Glu                                                 
  290.812   7%   0.386 GPC                                                 
    0.000 999%   0.000 PCh                                                 
  415.244  19%   0.552 GSH                                                 
 1.25E+03  21%   1.662 Ins                                                 
    0.000 999%   0.000 Lac                                                 
 1.37E+03   5%   1.822 NAA                                                 
    0.000 999%   0.000 NAAG                                                
   35.473  64% 4.7E-02 Scyllo                                              
   21.714 674% 2.9E-02 Tau                                                 
   15.443 660% 2.1E-02 -CrCH2                                              
  290.812   7%   0.386 GPC+PCh                                             
 1.37E+03   5%   1.822 NAA+NAAG                                            
  752.827   7%   1.000 Cr+PCr                                              
 1.12E+03  49%   1.490 Glu+Gln                                             
    0.000 999%   0.000 Lip13a                                              
    0.000 999%   0.000 Lip13b                                              
 2.37E-03 999% 3.1E-06 Lip09                                               
  825.820  13%   1.097 MM09                                                
 8.70E-03 999% 1.2E-05 Lip20                                               
 1.93E+03  12%   2.570 MM20                                                
    0.000 999%   0.000 MM12                                                
    0.000 999%   0.000 MM14                                                
    0.000 999%   0.000 MM17                                                
    0.000 999%   0.000 Lip13a+Lip13b                                       
    0.000 999%   0.000 MM14+Lip13a+Lip13b+MM12                             
  825.823  13%   1.097 MM09+Lip09                                          
 1.93E+03  12%   2.570 MM20+Lip20                                          
   6 lines in following misc. output table
  FWHM = 0.069 ppm    S/N =   7                                            
  Data shift = 0.054 ppm                                                   
  Ph:  -7 deg       3.3 deg/ppm                                            
  alphaB,S = 1.2E+00,   2.0E+02                                            
   14 spline knots.   Ns =10(1)                                            
  (17) 4 infls.   (19) 1 extrs.                                            
  498 points on ppm-axis = NY
      4.000000     3.992357     3.984714     3.977070     3.969427     3.961784     3.954141     3.946497     3.938854     3.931211
      3.923568     3.915925     3.908281     3.900638     3.892995     3.885352     3.877708     3.870065     3.862422     3.854779
      3.847136     3.839492     3.831849     3.824206     3.816563     3.808919     3.801276     3.793633     3.785990     3.778347
      3.770703     3.763060     3.755417     3.747774     3.740130     3.732487     3.724844     3.717201     3.709558     3.701914
      3.694271     3.686628     3.678985     3.671341     3.663698     3.656055     3.648412     3.640769     3.633125     3.625482
      3.617839     3.610196     3.602552     3.594909     3.587266     3.579623     3.571980     3.564336     3.556693     3.549050
      3.541407     3.533763     3.526120     3.518477     3.510834     3.503191     3.495547     3.487904     3.480261     3.472618
      3.464974     3.457331     3.449688     3.442045     3.434402     3.426758     3.419115     3.411472     3.403829     3.396185
      3.388542     3.380899     3.373256     3.365613     3.357969     3.350326     3.342683     3.335040     3.327396     3.319753
      3.312110     3.304467     3.296824     3.289180     3.281537     3.273894     3.266251     3.258607     3.250964     3.243321
      3.235678     3.228034     3.220391     3.212748     3.205105     3.197462     3.189818     3.182175     3.174532     3.166889
      3.159245     3.151602     3.143959     3.136316     3.128673     3.121029     3.113386     3.105743     3.098100     3.090456
      3.082813     3.075170     3.067527     3.059884     3.052240     3.044597     3.036954     3.029311     3.021667     3.014024
      3.006381     2.998738     2.991095     2.983451     2.975808     2.968165     2.960522     2.952878     2.945235     2.937592
      2.929949     2.922306     2.914662     2.907019     2.899376     2.891733     2.884089     2.876446     2.868803     2.861160
      2.853517     2.845873     2.838230     2.830587     2.822944     2.815300     2.807657     2.800014     2.792371     2.784728
      2.777084     2.769441     2.761798     2.754155     2.746511     2.738868     2.731225     2.723582     2.715939     2.708295
      2.700652     2.693009     2.685366     2.677722     2.670079     2.662436     2.654793     2.647150     2.639506     2.631863
      2.624220     2.616577     2.608933     2.601290     2.593647     2.586004     2.578361     2.570717     2.563074     2.555431
      2.547788     2.540144     2.532501     2.524858     2.517215     2.509572     2.501928     2.494285     2.486642     2.478999
      2.471355     2.463712     2.456069     2.448426     2.440783     2.433139     2.425496     2.417853     2.410210     2.402566
      2.394923     2.387280     2.379637     2.371994     2.364350     2.356707     2.349064     2.341421     2.333777     2.326134
      2.318491     2.310848     2.303205     2.295561     2.287918     2.280275     2.272632     2.264988     2.257345     2.249702
      2.242059     2.234416     2.226772     2.219129     2.211486     2.203843     2.196199     2.188556     2.180913     2.173270
      2.165627     2.157983     2.150340     2.142697     2.135054     2.127410     2.119767     2.112124     2.104481     2.096838
      2.089194     2.081551     2.073908     2.066265     2.058621     2.050978     2.043335     2.035692     2.028049     2.020405
      2.012762     2.005119     1.997476     1.989833     1.982190     1.974546     1.966903     1.959260     1.951617     1.943974
      1.936331     1.928688     1.921045     1.913402     1.905759     1.898115     1.890472     1.882829     1.875186     1.867543
      1.859900     1.852257     1.844614     1.836971     1.829327     1.821684     1.814041     1.806398     1.798755     1.791112
      1.783469     1.775826     1.768183     1.760540     1.752896     1.745253     1.737610     1.729967     1.722324     1.714681
      1.707038     1.699395     1.691752     1.684108     1.676465     1.668822     1.661179     1.653536     1.645893     1.638250
      1.630607     1.622964     1.615321     1.607677     1.600034     1.592391     1.584748     1.577105     1.569462     1.561819
      1.554176     1.546533     1.538890     1.531246     1.523603     1.515960     1.508317     1.500674     1.493031     1.485388
      1.477745     1.470102     1.462458     1.454815     1.447172     1.439529     1.431886     1.424243     1.416600     1.408957
      1.401314     1.393671     1.386027     1.378384     1.370741     1.363098     1.355455     1.347812     1.340169     1.332526
      1.324883     1.317240     1.309596     1.301953     1.294310     1.286667     1.279024     1.271381     1.263738     1.256095
      1.248452     1.240808     1.233165     1.225522     1.217879     1.210236     1.202593     1.194950     1.187307     1.179664
      1.172021     1.164377     1.156734     1.149091     1.141448     1.133805     1.126162     1.118519     1.110876     1.103233
      1.095590     1.087946     1.080303     1.072660     1.065017     1.057374     1.049731     1.042088     1.034445     1.026802
      1.019158     1.011515     1.003872     0.996229     0.988586     0.980943     0.973300     0.965657     0.958014     0.950371
      0.942727     0.935084     0.927441     0.919798     0.912155     0.904512     0.896869     0.889226     0.881583     0.873940
      0.866296     0.858653     0.851010     0.843367     0.835724     0.828081     0.820438     0.812795     0.805152     0.797508
      0.789865     0.782222     0.774579     0.766936     0.759293     0.751650     0.744007     0.736364     0.728721     0.721077
      0.713434     0.705791     0.698148     0.690505     0.682862     0.675219     0.667576     0.659933     0.652290     0.644646
      0.637003     0.629360     0.621717     0.614074     0.606431     0.598788     0.591145     0.583502     0.575858     0.568215
      0.560572     0.552929     0.545286     0.537643     0.530000     0.522357     0.514714     0.507071     0.499427     0.491784
      0.484141     0.476498     0.468855     0.461212     0.453569     0.445925     0.438282     0.430639     0.422996     0.415353
      0.407710     0.400067     0.392424     0.384780     0.377137     0.369494     0.361851     0.354208     0.346565     0.338922
      0.331278     0.323635     0.315992     0.308349     0.300706     0.293063     0.285420     0.277777     0.270133     0.262490
      0.254847     0.247204     0.239561     0.231918     0.224275     0.216631     0.208988     0.201345
 NY phased data points follow
   8.81960E-02 -6.19450E+00 -4.05311E+00 -6.67796E+00 -2.13002E+00 -2.12722E+00  5.64621E+00 -1.67325E+00  4.81002E+00  9.84456E+00
   9.20900E+00  1.28503E+01  7.63835E+00  5.55890E+00  8.76282E+00  1.71518E+00  4.65302E+00  3.12668E+00  4.00660E+00  3.24347E-02
  -4.36487E-01 -1.28290E+00  3.01386E-01  8.92133E-01 -6.03347E-01  1.51425E+00  4.44425E+00  7.47856E-01  2.64991E+00  1.58571E+00
   6.43161E+00  2.71697E+00  3.97596E+00  7.76153E-01  2.79266E+00  8.36675E-01 -1.49701E+00  2.00274E+00  1.50472E-01 -1.89326E+00
  -1.53332E+00  1.86195E+00  3.23651E+00  6.19740E-01  7.15356E+00  6.11227E+00  5.58861E+00  6.54911E-01  2.05587E+00  3.21268E-01
   7.86690E-01  1.26523E+00  4.34390E+00  3.15605E+00  1.00488E+00  6.45504E+00  5.49379E-01 -3.60560E-01 -1.90884E+00  1.47373E+00
   2.30859E+00 -1.29306E+00  2.75275E+00 -2.17089E+00 -2.64037E+00 -4.93011E+00 -1.24486E+00 -5.38238E+00 -2.55664E+00 -1.11041E+00
  -1.91768E+00 -3.50818E+00  3.04350E+00 -2.93384E+00 -5.66798E+00 -1.99981E+00 -4.08381E+00 -5.82693E+00 -1.37502E+00 -2.13624E+00
  -2.64899E+00 -6.63947E-01 -1.55141E-01 -5.20185E+00 -4.86056E-01 -3.64813E+00 -4.65158E+00 -9.00962E+00 -1.73563E+00 -1.35680E+00
  -7.54019E+00 -7.12984E+00 -5.81286E+00 -4.80262E+00 -3.96196E+00 -5.71792E+00 -2.88450E+00 -3.77126E+00  7.66881E-01  3.79151E+00
   7.36753E+00  1.07435E+01  1.41075E+01  1.81102E+01  1.45109E+01  1.14923E+01  1.29572E+01  8.53675E+00  6.06866E+00  3.15350E+00
   4.14307E+00  3.33475E+00  2.16256E+00  1.66280E+00  3.54809E+00 -1.78996E+00 -6.63330E-01 -2.74787E+00 -2.52516E+00  8.09879E-01
   1.46872E-01  7.32502E-01  4.95941E+00  4.55868E+00  9.61708E+00  1.32347E+01  1.60554E+01  1.18699E+01  1.87431E+01  1.04276E+01
   1.36946E+01  1.22922E+01  1.08549E+01  6.29365E+00  7.46178E+00 -1.17986E+00  3.96550E+00 -2.01020E+00  5.57505E-02  8.43642E-03
   1.27669E+00 -2.47966E+00  1.78442E+00 -3.23198E+00 -2.33412E+00 -3.30679E+00 -4.70045E+00 -2.25437E+00 -2.64182E+00 -7.83814E+00
  -2.57332E+00 -3.69969E+00 -4.42254E+00 -6.56155E-01 -1.19258E+00 -5.11763E+00 -2.87614E+00  5.12546E-01 -2.42303E+00 -3.08534E+00
  -1.52067E+00 -6.30917E+00 -7.97722E-01 -2.24136E+00  1.94380E+00 -1.01504E+00 -1.77091E+00 -3.85673E+00 -3.42636E+00 -6.62200E+00
  -5.77282E+00 -7.79525E+00 -7.04465E+00 -7.29172E+00 -6.86367E+00 -9.66121E+00 -6.21023E+00 -1.11878E+01 -1.27458E+01 -1.15102E+01
  -9.10261E+00 -1.13981E+01 -8.24676E+00 -1.21714E+01 -8.51134E+00 -8.72453E+00 -7.86468E+00 -5.18642E+00 -4.28267E+00 -5.61425E+00
  -1.00452E+00 -6.66201E+00  3.70272E-01 -3.31920E+00 -4.43692E+00 -6.61852E+00 -7.72392E+00 -7.17611E+00 -6.02175E+00 -6.73827E+00
  -4.70796E+00 -3.09549E+00 -3.18032E+00 -3.84102E+00 -3.78408E+00 -6.39032E+00 -3.84379E+00 -8.31152E+00 -3.12667E+00 -6.98809E+00
  -3.59653E+00 -4.44639E+00 -2.45094E+00 -4.04109E+00 -3.20253E+00  5.42590E+00  2.24335E+00  4.41721E-01 -2.26390E+00 -1.72368E+00
  -1.59022E+00 -1.43027E-01 -4.12342E+00 -7.36675E+00 -4.51026E+00 -4.41429E+00 -4.05901E+00 -5.18003E+00 -6.38677E-01 -5.28770E+00
   2.01956E+00  1.63624E-01 -4.54101E+00  1.49309E+00 -1.74333E+00  1.39251E+00  3.29876E+00 -7.58751E-01  7.12145E-01 -3.45007E+00
  -1.90104E+00  5.49169E-01  2.48404E+00 -4.89905E-01 -4.54010E+00 -5.42555E+00  5.91443E-02  8.85960E-01  2.26914E+00  2.21027E+00
   5.93003E-01  2.86448E+00  8.91409E+00  3.99683E+00  6.65433E+00  1.12377E+01  1.63813E+01  2.27287E+01  3.23961E+01  3.15658E+01
   3.06336E+01  3.08529E+01  3.22031E+01  2.69543E+01  2.70736E+01  1.89130E+01  1.70250E+01  1.22617E+01  1.08376E+01  1.06972E+01
   3.62678E+00  2.90373E+00  5.11812E+00 -1.82894E+00 -7.93159E+00 -1.36348E+00 -3.25042E+00 -1.87200E+00 -4.22364E+00 -2.61585E+00
  -1.57549E+00 -9.28183E+00 -4.91189E+00 -5.55078E+00 -6.01267E+00 -4.28343E+00 -4.07419E+00 -3.95733E+00 -7.52359E+00 -9.41823E+00
  -1.88994E+00 -7.54419E+00 -9.20553E+00 -6.75433E+00 -4.88613E+00 -9.71784E+00 -6.94485E+00 -8.46054E+00 -7.36571E+00 -7.45565E+00
  -8.79022E+00 -6.04634E+00 -1.03173E+01 -1.00240E+01 -6.97804E+00 -5.68902E+00 -6.18896E+00 -8.58625E+00 -8.18579E+00 -6.06790E+00
  -9.13608E+00 -4.62799E+00 -3.79307E+00 -5.84866E+00 -4.09953E+00 -6.36892E+00 -5.23370E+00 -5.97801E+00 -5.61076E+00 -3.78998E+00
  -3.72066E+00 -5.39730E+00 -4.63795E+00 -1.10298E-03 -3.69242E+00 -4.42850E+00 -3.11669E+00 -2.96066E+00 -2.98636E+00 -6.71896E+00
  -5.58324E+00 -7.86150E+00 -5.23227E+00 -6.60090E+00 -7.96980E+00 -1.53816E+01 -8.67659E+00 -5.90133E+00 -6.65828E+00 -5.72115E+00
  -1.29812E+00 -4.98642E+00 -5.92028E+00 -2.39503E+00 -4.34032E+00  1.58320E+00 -2.28218E+00 -5.45116E+00 -5.24593E+00 -3.78898E+00
  -5.82030E+00 -1.15167E+00 -2.19948E+00 -3.79411E+00 -6.07559E+00 -9.33489E+00 -3.15966E+00 -8.63231E+00 -4.72426E+00 -1.23378E+01
  -6.49836E+00 -1.11826E+01 -9.08754E+00 -1.02086E+01 -8.11122E+00 -6.98132E+00 -5.30212E+00 -4.29087E+00 -5.26745E+00 -5.29007E+00
  -4.31208E+00 -4.35290E+00 -5.74242E+00 -5.25988E+00 -1.65072E+00 -8.00279E+00 -3.45490E+00 -7.11245E+00 -2.40260E+00 -1.82546E+00
  -2.90344E-01 -3.89357E+00 -2.62033E+00 -5.78891E+00 -2.02096E+00 -2.49430E+00 -8.01961E-01 -1.29228E+00 -3.35428E+00 -2.64215E+00
  -3.44070E+00 -7.29849E+00 -2.97815E+00 -2.43353E+00  1.23565E+00 -9.68124E-01  6.82481E-01  2.32861E+00 -8.46896E-01  1.06530E+00
   6.58491E+00  3.45564E+00  6.48431E+00  5.79592E+00  4.05598E+00  4.68776E+00  3.75235E+00  2.46066E+00  7.40108E+00  5.60581E+00
   6.33654E+00  1.80667E+00  3.58375E+00  2.14471E+00  3.22104E+00  2.49774E+00  3.95800E+00  1.80371E+00  1.70308E+00  3.21245E+00
   2.60388E+00  1.39391E+00  2.77968E+00  1.22963E+00  1.31579E+00 -9.48457E-01  1.97119E+00 -2.52434E+00 -2.71081E+00  2.37663E+00
   1.41251E+00  9.11947E-01  2.49115E+00 -9.96656E-01 -8.26631E-01  1.88264E+00  3.57463E+00  9.16214E-02  2.46192E+00  8.43505E-01
   2.74215E+00  4.20933E+00  3.54854E+00 -2.43525E-01  3.45869E+00 -1.48759E+00 -3.08874E-01 -3.24710E-01  1.35485E+00  1.02169E-01
   8.36951E-01  2.02504E+00  2.18454E+00 -1.72524E+00  2.63418E+00  3.07233E+00  1.27303E+00  2.62323E+00  2.99888E+00  2.21440E+00
   2.90188E+00 -3.76870E-01  6.49305E-01  4.31560E-01  3.83212E+00  2.23480E+00  3.80936E+00  7.52831E-01 -5.89301E-01  7.27646E-01
  -6.58490E-01  3.07196E+00  3.87424E-01  1.81625E+00  5.69183E+00 -1.80414E+00  1.53240E+00 -7.36635E-01  2.32279E-01  3.01850E+00
   5.13126E+00  3.62719E+00  1.53775E+00  4.07783E+00  3.07375E+00  1.06624E+00  1.54873E+00  1.43069E+00  3.81081E+00  2.88966E+00
  -3.78676E+00  5.32538E-02  6.18801E-01  4.19469E-03  3.62057E+00  1.45375E-01 -7.65834E-01 -2.04470E-01
 NY points of the fit to the data follow
  -2.04394E+00 -2.36767E+00 -2.46480E+00 -2.28141E+00 -1.65531E+00 -4.83202E-01  1.17139E+00  3.16765E+00  5.22245E+00  6.95873E+00
   8.11070E+00  8.60268E+00  8.49462E+00  7.91307E+00  7.01066E+00  5.93294E+00  4.81853E+00  3.77536E+00  2.82559E+00  1.91288E+00
   9.87739E-01  6.17389E-02 -7.09379E-01 -9.70167E-01 -6.63185E-01  4.52235E-02  1.03430E+00  2.14600E+00  3.18906E+00  4.00973E+00
   4.51780E+00  4.67948E+00  4.51649E+00  4.07503E+00  3.42038E+00  2.64235E+00  1.85006E+00  1.16086E+00  5.89618E-01  1.10866E-01
  -1.99476E-01 -1.11912E-01  5.35802E-01  1.48918E+00  2.48457E+00  3.27615E+00  3.69903E+00  3.70264E+00  3.32530E+00  2.70983E+00
   1.98122E+00  1.22902E+00  5.76081E-01  1.11249E-01 -1.44801E-01 -2.39894E-01 -3.00924E-01 -4.49998E-01 -6.53123E-01 -7.94184E-01
  -9.08168E-01 -1.09084E+00 -1.33449E+00 -1.56970E+00 -1.74866E+00 -1.83851E+00 -1.82784E+00 -1.73117E+00 -1.59525E+00 -1.49467E+00
  -1.45921E+00 -1.45524E+00 -1.46373E+00 -1.47392E+00 -1.49789E+00 -1.55622E+00 -1.65229E+00 -1.78400E+00 -1.94033E+00 -2.10064E+00
  -2.26880E+00 -2.46435E+00 -2.72500E+00 -3.05012E+00 -3.42953E+00 -3.85074E+00 -4.26187E+00 -4.60523E+00 -4.84337E+00 -4.96937E+00
  -5.00265E+00 -4.98113E+00 -4.94148E+00 -4.84758E+00 -4.60973E+00 -4.15723E+00 -3.29032E+00 -1.67485E+00  8.87058E-01  4.21985E+00
   7.82831E+00  1.10745E+01  1.33926E+01  1.45292E+01  1.45277E+01  1.36027E+01  1.20465E+01  1.01379E+01  8.14103E+00  6.28186E+00
   4.66594E+00  3.19848E+00  1.66296E+00 -5.96293E-02 -1.78427E+00 -2.95325E+00 -3.36267E+00 -3.36919E+00 -3.04870E+00 -2.35617E+00
  -1.11006E+00  8.91755E-01  3.65656E+00  6.91938E+00  1.01931E+01  1.29046E+01  1.46699E+01  1.54071E+01  1.52173E+01  1.42788E+01
   1.27831E+01  1.09005E+01  8.85086E+00  6.87463E+00  5.09077E+00  3.44660E+00  1.83293E+00  2.55933E-01 -1.01268E+00 -1.55967E+00
  -1.66858E+00 -1.72529E+00 -1.83561E+00 -2.01070E+00 -2.20797E+00 -2.36726E+00 -2.48908E+00 -2.62476E+00 -2.79487E+00 -3.00869E+00
  -3.26463E+00 -3.52739E+00 -3.77209E+00 -3.96896E+00 -4.12357E+00 -4.27181E+00 -4.43612E+00 -4.62223E+00 -4.81086E+00 -4.96691E+00
  -5.06607E+00 -5.11427E+00 -5.14317E+00 -5.18721E+00 -5.26956E+00 -5.39589E+00 -5.56571E+00 -5.77696E+00 -6.01426E+00 -6.26573E+00
  -6.52196E+00 -6.77162E+00 -7.00937E+00 -7.24489E+00 -7.46894E+00 -7.65626E+00 -7.79834E+00 -7.89191E+00 -7.96334E+00 -8.03668E+00
  -8.10617E+00 -8.16538E+00 -8.19390E+00 -8.14260E+00 -7.94758E+00 -7.56230E+00 -7.00485E+00 -6.37137E+00 -5.78996E+00 -5.34812E+00
  -5.05932E+00 -4.93503E+00 -4.96833E+00 -5.12390E+00 -5.30740E+00 -5.38749E+00 -5.29091E+00 -5.01606E+00 -4.60582E+00 -4.14668E+00
  -3.71721E+00 -3.35805E+00 -3.13020E+00 -3.10338E+00 -3.31585E+00 -3.74345E+00 -4.29544E+00 -4.84470E+00 -5.28892E+00 -5.54500E+00
  -5.54878E+00 -5.26622E+00 -4.76370E+00 -4.18158E+00 -3.67894E+00 -3.38327E+00 -3.34413E+00 -3.54871E+00 -3.92316E+00 -4.34581E+00
  -4.69705E+00 -4.89005E+00 -4.90619E+00 -4.71705E+00 -4.38219E+00 -4.05188E+00 -3.80849E+00 -3.62106E+00 -3.42164E+00 -3.17064E+00
  -2.88172E+00 -2.51194E+00 -2.04317E+00 -1.52701E+00 -1.07046E+00 -7.71758E-01 -6.46473E-01 -6.63354E-01 -7.95668E-01 -9.77988E-01
  -1.11034E+00 -1.11907E+00 -9.85409E-01 -7.47081E-01 -4.42108E-01 -9.46551E-02  2.49520E-01  5.47121E-01  7.97473E-01  1.07661E+00
   1.50855E+00  2.28247E+00  3.51735E+00  5.40654E+00  8.30478E+00  1.24247E+01  1.75803E+01  2.31404E+01  2.81319E+01  3.16032E+01
   3.31134E+01  3.27333E+01  3.08033E+01  2.77806E+01  2.41172E+01  2.02326E+01  1.65540E+01  1.33295E+01  1.04652E+01  7.62931E+00
   4.59389E+00  1.56247E+00 -6.66922E-01 -1.62013E+00 -2.07893E+00 -2.41296E+00 -2.69058E+00 -2.93486E+00 -3.16721E+00 -3.38528E+00
  -3.58427E+00 -3.76438E+00 -3.92745E+00 -4.07746E+00 -4.22020E+00 -4.35590E+00 -4.47930E+00 -4.58816E+00 -4.68429E+00 -4.76898E+00
  -4.84270E+00 -4.90622E+00 -4.96148E+00 -5.01142E+00 -5.05638E+00 -5.09597E+00 -5.13052E+00 -5.16031E+00 -5.18546E+00 -5.20609E+00
  -5.22255E+00 -5.23543E+00 -5.24493E+00 -5.25130E+00 -5.25475E+00 -5.25523E+00 -5.25263E+00 -5.24694E+00 -5.23802E+00 -5.22554E+00
  -5.20902E+00 -5.18778E+00 -5.16105E+00 -5.12768E+00 -5.08587E+00 -5.03256E+00 -4.96233E+00 -4.86420E+00 -4.72499E+00 -4.54778E+00
  -4.33314E+00 -4.07781E+00 -3.81090E+00 -3.60681E+00 -3.55933E+00 -3.74335E+00 -4.16760E+00 -4.77364E+00 -5.46927E+00 -6.13677E+00
  -6.64567E+00 -6.89427E+00 -6.84003E+00 -6.50737E+00 -5.99940E+00 -5.45584E+00 -4.98641E+00 -4.63315E+00 -4.36845E+00 -4.12842E+00
  -3.90234E+00 -3.77047E+00 -3.71266E+00 -3.68302E+00 -3.67986E+00 -3.73582E+00 -3.88098E+00 -4.08458E+00 -4.23057E+00 -4.30570E+00
  -4.34593E+00 -4.36642E+00 -4.37401E+00 -4.37243E+00 -4.36391E+00 -4.34991E+00 -4.33143E+00 -4.30920E+00 -4.28375E+00 -4.25545E+00
  -4.22457E+00 -4.19128E+00 -4.15573E+00 -4.11805E+00 -4.07830E+00 -4.03649E+00 -3.99261E+00 -3.94660E+00 -3.89843E+00 -3.84801E+00
  -3.79520E+00 -3.73983E+00 -3.68165E+00 -3.62042E+00 -3.55583E+00 -3.48749E+00 -3.41492E+00 -3.33753E+00 -3.25462E+00 -3.16540E+00
  -3.06893E+00 -2.96409E+00 -2.84956E+00 -2.72385E+00 -2.58533E+00 -2.43218E+00 -2.26247E+00 -2.07417E+00 -1.86521E+00 -1.63365E+00
  -1.37779E+00 -1.09632E+00 -7.88460E-01 -4.54156E-01 -9.42934E-02  2.89131E-01  6.92859E-01  1.11231E+00  1.54159E+00  1.97351E+00
   2.39977E+00  2.81122E+00  3.19816E+00  3.55083E+00  3.85990E+00  4.11689E+00  4.31469E+00  4.44793E+00  4.51335E+00  4.50999E+00
   4.43929E+00  4.30496E+00  4.11277E+00  3.87021E+00  3.58610E+00  3.27011E+00  2.93223E+00  2.58230E+00  2.22956E+00  1.88233E+00
   1.54775E+00  1.23165E+00  9.38430E-01  6.71121E-01  4.31454E-01  2.20046E-01  3.65850E-02 -1.19979E-01 -2.51258E-01 -3.59242E-01
  -4.46134E-01 -5.14190E-01 -5.65626E-01 -6.02551E-01 -6.26931E-01 -6.40556E-01 -6.45007E-01 -6.41653E-01 -6.31666E-01 -6.16052E-01
  -5.95678E-01 -5.71274E-01 -5.43449E-01 -5.12693E-01 -4.79417E-01 -4.43975E-01 -4.06675E-01 -3.67772E-01 -3.27473E-01 -2.85939E-01
  -2.43316E-01 -1.99738E-01 -1.55329E-01 -1.10187E-01 -6.43817E-02 -1.79697E-02  2.89886E-02  7.64305E-02  1.24299E-01  1.72559E-01
   2.21184E-01  2.70153E-01  3.19430E-01  3.68980E-01  4.18774E-01  4.68800E-01  5.19051E-01  5.69513E-01  6.20162E-01  6.70974E-01
   7.21941E-01  7.73063E-01  8.24339E-01  8.75757E-01  9.27298E-01  9.78950E-01  1.03071E+00  1.08259E+00  1.13459E+00  1.18669E+00
   1.23887E+00  1.29115E+00  1.34352E+00  1.39600E+00  1.44857E+00  1.50123E+00  1.55398E+00  1.60681E+00  1.65975E+00  1.71279E+00
   1.76594E+00  1.81920E+00  1.87255E+00  1.92603E+00  1.97964E+00  2.03341E+00  2.08733E+00  2.14141E+00
 NY background values follow
    -4.730E+00   -4.731E+00   -4.733E+00   -4.734E+00   -4.736E+00   -4.737E+00   -4.739E+00   -4.740E+00   -4.742E+00   -4.743E+00
    -4.745E+00   -4.746E+00   -4.748E+00   -4.750E+00   -4.751E+00   -4.753E+00   -4.754E+00   -4.756E+00   -4.757E+00   -4.759E+00
    -4.760E+00   -4.762E+00   -4.763E+00   -4.765E+00   -4.767E+00   -4.768E+00   -4.770E+00   -4.772E+00   -4.773E+00   -4.775E+00
    -4.777E+00   -4.778E+00   -4.780E+00   -4.782E+00   -4.784E+00   -4.785E+00   -4.787E+00   -4.789E+00   -4.791E+00   -4.793E+00
    -4.795E+00   -4.797E+00   -4.799E+00   -4.801E+00   -4.803E+00   -4.805E+00   -4.807E+00   -4.809E+00   -4.811E+00   -4.813E+00
    -4.816E+00   -4.818E+00   -4.820E+00   -4.823E+00   -4.825E+00   -4.827E+00   -4.830E+00   -4.832E+00   -4.835E+00   -4.837E+00
    -4.840E+00   -4.843E+00   -4.845E+00   -4.848E+00   -4.851E+00   -4.853E+00   -4.856E+00   -4.859E+00   -4.862E+00   -4.865E+00
    -4.868E+00   -4.871E+00   -4.874E+00   -4.877E+00   -4.880E+00   -4.883E+00   -4.887E+00   -4.890E+00   -4.893E+00   -4.896E+00
    -4.900E+00   -4.903E+00   -4.907E+00   -4.910E+00   -4.914E+00   -4.917E+00   -4.921E+00   -4.925E+00   -4.929E+00   -4.932E+00
    -4.936E+00   -4.940E+00   -4.944E+00   -4.948E+00   -4.952E+00   -4.956E+00   -4.960E+00   -4.965E+00   -4.969E+00   -4.973E+00
    -4.978E+00   -4.982E+00   -4.986E+00   -4.991E+00   -4.996E+00   -5.000E+00   -5.005E+00   -5.010E+00   -5.015E+00   -5.019E+00
    -5.024E+00   -5.029E+00   -5.035E+00   -5.040E+00   -5.045E+00   -5.050E+00   -5.056E+00   -5.061E+00   -5.067E+00   -5.072E+00
    -5.078E+00   -5.084E+00   -5.089E+00   -5.095E+00   -5.101E+00   -5.107E+00   -5.114E+00   -5.120E+00   -5.126E+00   -5.132E+00
    -5.139E+00   -5.145E+00   -5.152E+00   -5.159E+00   -5.165E+00   -5.172E+00   -5.179E+00   -5.186E+00   -5.193E+00   -5.201E+00
    -5.208E+00   -5.215E+00   -5.223E+00   -5.230E+00   -5.238E+00   -5.246E+00   -5.253E+00   -5.261E+00   -5.269E+00   -5.277E+00
    -5.285E+00   -5.293E+00   -5.302E+00   -5.310E+00   -5.318E+00   -5.327E+00   -5.335E+00   -5.343E+00   -5.352E+00   -5.361E+00
    -5.369E+00   -5.378E+00   -5.387E+00   -5.396E+00   -5.405E+00   -5.414E+00   -5.423E+00   -5.432E+00   -5.441E+00   -5.450E+00
    -5.459E+00   -5.468E+00   -5.477E+00   -5.487E+00   -5.496E+00   -5.505E+00   -5.515E+00   -5.524E+00   -5.534E+00   -5.543E+00
    -5.553E+00   -5.562E+00   -5.572E+00   -5.581E+00   -5.591E+00   -5.600E+00   -5.610E+00   -5.620E+00   -5.629E+00   -5.639E+00
    -5.649E+00   -5.659E+00   -5.668E+00   -5.678E+00   -5.688E+00   -5.697E+00   -5.707E+00   -5.717E+00   -5.726E+00   -5.736E+00
    -5.746E+00   -5.755E+00   -5.765E+00   -5.774E+00   -5.784E+00   -5.794E+00   -5.803E+00   -5.812E+00   -5.822E+00   -5.831E+00
    -5.841E+00   -5.850E+00   -5.859E+00   -5.869E+00   -5.878E+00   -5.887E+00   -5.896E+00   -5.905E+00   -5.914E+00   -5.923E+00
    -5.932E+00   -5.941E+00   -5.949E+00   -5.958E+00   -5.967E+00   -5.975E+00   -5.984E+00   -5.992E+00   -6.000E+00   -6.009E+00
    -6.017E+00   -6.025E+00   -6.033E+00   -6.041E+00   -6.048E+00   -6.056E+00   -6.063E+00   -6.071E+00   -6.078E+00   -6.085E+00
    -6.092E+00   -6.099E+00   -6.105E+00   -6.112E+00   -6.118E+00   -6.124E+00   -6.130E+00   -6.136E+00   -6.142E+00   -6.147E+00
    -6.152E+00   -6.158E+00   -6.162E+00   -6.167E+00   -6.171E+00   -6.176E+00   -6.180E+00   -6.183E+00   -6.187E+00   -6.190E+00
    -6.193E+00   -6.196E+00   -6.198E+00   -6.201E+00   -6.203E+00   -6.204E+00   -6.206E+00   -6.207E+00   -6.208E+00   -6.209E+00
    -6.209E+00   -6.209E+00   -6.209E+00   -6.208E+00   -6.207E+00   -6.206E+00   -6.204E+00   -6.202E+00   -6.200E+00   -6.198E+00
    -6.195E+00   -6.192E+00   -6.188E+00   -6.184E+00   -6.180E+00   -6.176E+00   -6.171E+00   -6.165E+00   -6.160E+00   -6.154E+00
    -6.148E+00   -6.141E+00   -6.134E+00   -6.126E+00   -6.119E+00   -6.110E+00   -6.102E+00   -6.093E+00   -6.084E+00   -6.074E+00
    -6.064E+00   -6.053E+00   -6.042E+00   -6.031E+00   -6.019E+00   -6.007E+00   -5.995E+00   -5.982E+00   -5.968E+00   -5.954E+00
    -5.940E+00   -5.926E+00   -5.911E+00   -5.895E+00   -5.879E+00   -5.863E+00   -5.846E+00   -5.829E+00   -5.811E+00   -5.793E+00
    -5.774E+00   -5.755E+00   -5.736E+00   -5.716E+00   -5.695E+00   -5.675E+00   -5.653E+00   -5.632E+00   -5.609E+00   -5.587E+00
    -5.564E+00   -5.540E+00   -5.516E+00   -5.492E+00   -5.467E+00   -5.442E+00   -5.416E+00   -5.390E+00   -5.364E+00   -5.337E+00
    -5.310E+00   -5.282E+00   -5.253E+00   -5.225E+00   -5.196E+00   -5.166E+00   -5.136E+00   -5.106E+00   -5.075E+00   -5.044E+00
    -5.012E+00   -4.980E+00   -4.947E+00   -4.914E+00   -4.881E+00   -4.847E+00   -4.813E+00   -4.778E+00   -4.743E+00   -4.707E+00
    -4.671E+00   -4.635E+00   -4.598E+00   -4.561E+00   -4.523E+00   -4.485E+00   -4.447E+00   -4.408E+00   -4.369E+00   -4.329E+00
    -4.289E+00   -4.249E+00   -4.208E+00   -4.167E+00   -4.125E+00   -4.083E+00   -4.041E+00   -3.999E+00   -3.956E+00   -3.913E+00
    -3.869E+00   -3.825E+00   -3.781E+00   -3.736E+00   -3.692E+00   -3.646E+00   -3.601E+00   -3.555E+00   -3.509E+00   -3.463E+00
    -3.416E+00   -3.369E+00   -3.322E+00   -3.275E+00   -3.227E+00   -3.179E+00   -3.131E+00   -3.082E+00   -3.034E+00   -2.985E+00
    -2.936E+00   -2.886E+00   -2.837E+00   -2.787E+00   -2.737E+00   -2.687E+00   -2.636E+00   -2.586E+00   -2.535E+00   -2.484E+00
    -2.433E+00   -2.381E+00   -2.330E+00   -2.278E+00   -2.226E+00   -2.174E+00   -2.122E+00   -2.070E+00   -2.017E+00   -1.965E+00
    -1.912E+00   -1.859E+00   -1.806E+00   -1.753E+00   -1.700E+00   -1.646E+00   -1.593E+00   -1.539E+00   -1.486E+00   -1.432E+00
    -1.378E+00   -1.324E+00   -1.270E+00   -1.216E+00   -1.162E+00   -1.108E+00   -1.054E+00   -9.996E-01   -9.453E-01   -8.910E-01
    -8.366E-01   -7.822E-01   -7.277E-01   -6.732E-01   -6.187E-01   -5.642E-01   -5.097E-01   -4.552E-01   -4.006E-01   -3.461E-01
    -2.916E-01   -2.371E-01   -1.826E-01   -1.282E-01   -7.376E-02   -1.934E-02    3.504E-02    8.941E-02    1.438E-01    1.981E-01
     2.524E-01    3.067E-01    3.609E-01    4.152E-01    4.694E-01    5.236E-01    5.778E-01    6.319E-01    6.861E-01    7.402E-01
     7.943E-01    8.484E-01    9.024E-01    9.565E-01    1.011E+00    1.065E+00    1.119E+00    1.173E+00    1.226E+00    1.280E+00
     1.334E+00    1.388E+00    1.442E+00    1.496E+00    1.550E+00    1.604E+00    1.658E+00    1.711E+00    1.765E+00    1.819E+00
     1.873E+00    1.927E+00    1.980E+00    2.034E+00    2.088E+00    2.141E+00    2.195E+00    2.249E+00
 Ala      Conc. = 2.83E+02
