 LCModel (Version 6.3-1L) Copyright: S.W. Provencher.          Ref.: Magn. Reson. Med. 30:672-679 (1993).                
 Slice#1 Row#14 Col#5  PD_24_press_1_raw_act
 36 lines in following concentration table = NCONC+1
    Conc.  %SD /Cr+PCr  Metabolite                                         
   12.950 252%   0.128 Ala                                                 
   11.215  97%   0.111 Asp                                                 
    0.000 999%   0.000 Cr                                                  
  100.895  57%   1.000 PCr                                                 
    7.600  86% 7.5E-02 GABA                                                
    6.215 106% 6.2E-02 Glc                                                 
   55.546 116%   0.551 Gln                                                 
    0.000 999%   0.000 Glu                                                 
    0.000 999%   0.000 GPC                                                 
   20.936  34%   0.207 PCh                                                 
    0.000 999%   0.000 GSH                                                 
    0.000 999%   0.000 Ins                                                 
    0.000 999%   0.000 Lac                                                 
   46.021  47%   0.456 NAA                                                 
    4.719 491% 4.7E-02 NAAG                                                
    2.056 105% 2.0E-02 Scyllo                                              
    7.802 139% 7.7E-02 Tau                                                 
    0.000 999%   0.000 -CrCH2                                              
   20.936  34%   0.207 GPC+PCh                                             
   50.740  49%   0.503 NAA+NAAG                                            
  100.895  20%   1.000 Cr+PCr                                              
   55.546 116%   0.551 Glu+Gln                                             
    0.000 999%   0.000 Lip13a                                              
   26.547 171%   0.263 Lip13b                                              
    6.990 190% 6.9E-02 Lip09                                               
 2.73E-05 999% 2.7E-07 MM09                                                
    4.020 193% 4.0E-02 Lip20                                               
    0.000 999%   0.000 MM20                                                
    0.000 999%   0.000 MM12                                                
    0.000 999%   0.000 MM14                                                
 4.12E-03 999% 4.1E-05 MM17                                                
   26.547 171%   0.263 Lip13a+Lip13b                                       
   26.547 171%   0.263 MM14+Lip13a+Lip13b+MM12                             
    6.990 190% 6.9E-02 MM09+Lip09                                          
    4.020 193% 4.0E-02 MM20+Lip20                                          
   6 lines in following misc. output table
  FWHM = 0.038 ppm    S/N =   1                                            
  Data shift =-0.023 ppm                                                   
  Ph: 103 deg      -5.6 deg/ppm                                            
  alphaB,S = 5.0E-01,   1.3E+01                                            
   14 spline knots.   Ns = 5(1)                                            
  ( 8) 3 infls.   ( 7) 1 extrs.                                            
  498 points on ppm-axis = NY
      4.000000     3.992357     3.984714     3.977070     3.969427     3.961784     3.954141     3.946497     3.938854     3.931211
      3.923568     3.915925     3.908281     3.900638     3.892995     3.885352     3.877708     3.870065     3.862422     3.854779
      3.847136     3.839492     3.831849     3.824206     3.816563     3.808919     3.801276     3.793633     3.785990     3.778347
      3.770703     3.763060     3.755417     3.747774     3.740130     3.732487     3.724844     3.717201     3.709558     3.701914
      3.694271     3.686628     3.678985     3.671341     3.663698     3.656055     3.648412     3.640769     3.633125     3.625482
      3.617839     3.610196     3.602552     3.594909     3.587266     3.579623     3.571980     3.564336     3.556693     3.549050
      3.541407     3.533763     3.526120     3.518477     3.510834     3.503191     3.495547     3.487904     3.480261     3.472618
      3.464974     3.457331     3.449688     3.442045     3.434402     3.426758     3.419115     3.411472     3.403829     3.396185
      3.388542     3.380899     3.373256     3.365613     3.357969     3.350326     3.342683     3.335040     3.327396     3.319753
      3.312110     3.304467     3.296824     3.289180     3.281537     3.273894     3.266251     3.258607     3.250964     3.243321
      3.235678     3.228034     3.220391     3.212748     3.205105     3.197462     3.189818     3.182175     3.174532     3.166889
      3.159245     3.151602     3.143959     3.136316     3.128673     3.121029     3.113386     3.105743     3.098100     3.090456
      3.082813     3.075170     3.067527     3.059884     3.052240     3.044597     3.036954     3.029311     3.021667     3.014024
      3.006381     2.998738     2.991095     2.983451     2.975808     2.968165     2.960522     2.952878     2.945235     2.937592
      2.929949     2.922306     2.914662     2.907019     2.899376     2.891733     2.884089     2.876446     2.868803     2.861160
      2.853517     2.845873     2.838230     2.830587     2.822944     2.815300     2.807657     2.800014     2.792371     2.784728
      2.777084     2.769441     2.761798     2.754155     2.746511     2.738868     2.731225     2.723582     2.715939     2.708295
      2.700652     2.693009     2.685366     2.677722     2.670079     2.662436     2.654793     2.647150     2.639506     2.631863
      2.624220     2.616577     2.608933     2.601290     2.593647     2.586004     2.578361     2.570717     2.563074     2.555431
      2.547788     2.540144     2.532501     2.524858     2.517215     2.509572     2.501928     2.494285     2.486642     2.478999
      2.471355     2.463712     2.456069     2.448426     2.440783     2.433139     2.425496     2.417853     2.410210     2.402566
      2.394923     2.387280     2.379637     2.371994     2.364350     2.356707     2.349064     2.341421     2.333777     2.326134
      2.318491     2.310848     2.303205     2.295561     2.287918     2.280275     2.272632     2.264988     2.257345     2.249702
      2.242059     2.234416     2.226772     2.219129     2.211486     2.203843     2.196199     2.188556     2.180913     2.173270
      2.165627     2.157983     2.150340     2.142697     2.135054     2.127410     2.119767     2.112124     2.104481     2.096838
      2.089194     2.081551     2.073908     2.066265     2.058621     2.050978     2.043335     2.035692     2.028049     2.020405
      2.012762     2.005119     1.997476     1.989833     1.982190     1.974546     1.966903     1.959260     1.951617     1.943974
      1.936331     1.928688     1.921045     1.913402     1.905759     1.898115     1.890472     1.882829     1.875186     1.867543
      1.859900     1.852257     1.844614     1.836971     1.829327     1.821684     1.814041     1.806398     1.798755     1.791112
      1.783469     1.775826     1.768183     1.760540     1.752896     1.745253     1.737610     1.729967     1.722324     1.714681
      1.707038     1.699395     1.691752     1.684108     1.676465     1.668822     1.661179     1.653536     1.645893     1.638250
      1.630607     1.622964     1.615321     1.607677     1.600034     1.592391     1.584748     1.577105     1.569462     1.561819
      1.554176     1.546533     1.538890     1.531246     1.523603     1.515960     1.508317     1.500674     1.493031     1.485388
      1.477745     1.470102     1.462458     1.454815     1.447172     1.439529     1.431886     1.424243     1.416600     1.408957
      1.401314     1.393671     1.386027     1.378384     1.370741     1.363098     1.355455     1.347812     1.340169     1.332526
      1.324883     1.317240     1.309596     1.301953     1.294310     1.286667     1.279024     1.271381     1.263738     1.256095
      1.248452     1.240808     1.233165     1.225522     1.217879     1.210236     1.202593     1.194950     1.187307     1.179664
      1.172021     1.164377     1.156734     1.149091     1.141448     1.133805     1.126162     1.118519     1.110876     1.103233
      1.095590     1.087946     1.080303     1.072660     1.065017     1.057374     1.049731     1.042088     1.034445     1.026802
      1.019158     1.011515     1.003872     0.996229     0.988586     0.980943     0.973300     0.965657     0.958014     0.950371
      0.942727     0.935084     0.927441     0.919798     0.912155     0.904512     0.896869     0.889226     0.881583     0.873940
      0.866296     0.858653     0.851010     0.843367     0.835724     0.828081     0.820438     0.812795     0.805152     0.797508
      0.789865     0.782222     0.774579     0.766936     0.759293     0.751650     0.744007     0.736364     0.728721     0.721077
      0.713434     0.705791     0.698148     0.690505     0.682862     0.675219     0.667576     0.659933     0.652290     0.644646
      0.637003     0.629360     0.621717     0.614074     0.606431     0.598788     0.591145     0.583502     0.575858     0.568215
      0.560572     0.552929     0.545286     0.537643     0.530000     0.522357     0.514714     0.507071     0.499427     0.491784
      0.484141     0.476498     0.468855     0.461212     0.453569     0.445925     0.438282     0.430639     0.422996     0.415353
      0.407710     0.400067     0.392424     0.384780     0.377137     0.369494     0.361851     0.354208     0.346565     0.338922
      0.331278     0.323635     0.315992     0.308349     0.300706     0.293063     0.285420     0.277777     0.270133     0.262490
      0.254847     0.247204     0.239561     0.231918     0.224275     0.216631     0.208988     0.201345
 NY phased data points follow
   5.11494E+01  5.21824E+01  4.51341E+01  4.75139E+01  4.63885E+01  4.68591E+01  4.62026E+01  4.47852E+01  4.65490E+01  4.84788E+01
   4.33294E+01  4.60451E+01  4.33416E+01  4.27363E+01  4.37625E+01  4.32150E+01  4.13039E+01  4.01695E+01  3.96278E+01  3.95130E+01
   3.74296E+01  3.77393E+01  3.47690E+01  3.88381E+01  3.90057E+01  3.82446E+01  3.62586E+01  3.66162E+01  3.57410E+01  3.59909E+01
   3.41611E+01  3.91325E+01  3.58754E+01  3.59555E+01  3.44102E+01  3.65837E+01  3.42612E+01  3.38220E+01  3.24430E+01  3.24390E+01
   3.10274E+01  3.11942E+01  3.07497E+01  2.93045E+01  2.95461E+01  2.97042E+01  3.14760E+01  3.11612E+01  2.78937E+01  2.94756E+01
   3.03444E+01  2.64470E+01  2.76662E+01  3.00231E+01  2.85706E+01  2.88567E+01  2.96703E+01  2.77805E+01  2.64174E+01  2.88095E+01
   2.71327E+01  3.02355E+01  2.42696E+01  2.73299E+01  3.05388E+01  2.50033E+01  2.43961E+01  2.67368E+01  2.52351E+01  2.49461E+01
   2.59346E+01  2.81683E+01  2.71543E+01  2.63705E+01  2.35506E+01  2.58383E+01  2.42496E+01  2.38732E+01  2.42679E+01  2.41261E+01
   2.40693E+01  2.47345E+01  2.24174E+01  2.35871E+01  2.21865E+01  2.59568E+01  2.23151E+01  2.38604E+01  1.98519E+01  2.26944E+01
   2.24985E+01  2.14559E+01  2.11480E+01  2.12091E+01  2.21961E+01  2.35652E+01  2.06748E+01  1.96487E+01  1.96442E+01  2.20822E+01
   1.92284E+01  2.11490E+01  2.42607E+01  2.41290E+01  2.25800E+01  2.20012E+01  2.00524E+01  2.03058E+01  2.03165E+01  2.16819E+01
   1.89450E+01  1.82060E+01  1.91216E+01  1.87654E+01  1.69065E+01  1.90221E+01  1.72526E+01  1.92638E+01  1.64192E+01  2.05923E+01
   1.73491E+01  1.60076E+01  1.76478E+01  1.78303E+01  1.71785E+01  2.11659E+01  1.99907E+01  2.06387E+01  2.20787E+01  2.13836E+01
   1.59204E+01  1.68441E+01  1.71607E+01  1.75833E+01  1.85421E+01  1.71071E+01  1.60739E+01  1.64533E+01  1.58798E+01  1.63969E+01
   1.59270E+01  1.66353E+01  1.53811E+01  1.49432E+01  1.40887E+01  1.93615E+01  1.67889E+01  1.79549E+01  1.62027E+01  1.40300E+01
   1.51130E+01  1.47221E+01  1.55817E+01  1.40372E+01  1.44525E+01  1.44582E+01  1.46138E+01  1.51748E+01  1.41500E+01  1.83089E+01
   1.35790E+01  1.75748E+01  1.50703E+01  1.71132E+01  1.61800E+01  1.52565E+01  1.56800E+01  1.59698E+01  1.61897E+01  1.44826E+01
   1.58300E+01  1.69331E+01  1.55521E+01  1.49540E+01  1.55085E+01  1.42982E+01  1.15176E+01  1.29820E+01  1.23796E+01  1.41060E+01
   1.44712E+01  1.44283E+01  1.27116E+01  1.36654E+01  1.53787E+01  1.52591E+01  1.33953E+01  1.35670E+01  1.48029E+01  1.38413E+01
   1.47922E+01  1.44555E+01  1.39420E+01  1.37895E+01  1.35923E+01  1.44667E+01  1.59619E+01  1.29460E+01  1.31064E+01  1.19934E+01
   1.23484E+01  1.29291E+01  1.38664E+01  1.29209E+01  1.26253E+01  1.33773E+01  1.18183E+01  1.54026E+01  1.23868E+01  1.09906E+01
   1.14482E+01  1.16911E+01  9.95622E+00  1.33940E+01  1.18713E+01  9.51087E+00  9.91765E+00  1.40411E+01  1.20122E+01  1.06315E+01
   1.16774E+01  1.34478E+01  1.25105E+01  1.20231E+01  1.28166E+01  1.34107E+01  1.09067E+01  1.08343E+01  1.18170E+01  9.73416E+00
   1.04220E+01  1.13538E+01  8.59007E+00  1.02864E+01  9.65486E+00  1.01975E+01  1.06637E+01  9.27586E+00  1.03101E+01  9.23486E+00
   1.52712E+01  1.16375E+01  1.04270E+01  1.21075E+01  1.14787E+01  1.25118E+01  1.18740E+01  1.25391E+01  1.03720E+01  1.12046E+01
   8.98979E+00  1.03512E+01  1.06433E+01  1.13989E+01  1.20289E+01  1.05824E+01  1.21106E+01  1.07240E+01  8.69086E+00  1.12166E+01
   1.35855E+01  1.12998E+01  1.31592E+01  1.08448E+01  1.15458E+01  8.54548E+00  1.07813E+01  7.98624E+00  9.95761E+00  9.46592E+00
   8.85380E+00  8.46811E+00  6.87174E+00  8.33476E+00  7.14539E+00  1.13166E+01  8.44384E+00  8.83240E+00  9.24750E+00  1.26948E+01
   9.53052E+00  7.64773E+00  8.13194E+00  5.94947E+00  9.48445E+00  8.55736E+00  7.61243E+00  1.14452E+01  9.14887E+00  1.14408E+01
   1.00199E+01  1.25691E+01  1.09594E+01  9.58607E+00  1.14567E+01  7.98362E+00  8.96832E+00  9.08097E+00  7.69462E+00  9.09080E+00
   7.43078E+00  7.99921E+00  8.37329E+00  1.16223E+01  1.00076E+01  7.71793E+00  8.38705E+00  8.87654E+00  1.00317E+01  1.13690E+01
   8.27075E+00  7.75921E+00  9.29059E+00  1.00201E+01  1.09619E+01  7.98006E+00  6.87823E+00  4.91583E+00  6.48924E+00  7.47005E+00
   6.89169E+00  9.98874E+00  6.27880E+00  1.17519E+01  6.20319E+00  9.83741E+00  5.80531E+00  8.55686E+00  6.40371E+00  7.63006E+00
   6.99220E+00  6.19630E+00  7.33724E+00  9.45685E+00  4.77148E+00  6.94572E+00  5.13185E+00  7.82766E+00  7.81447E+00  7.44282E+00
   8.11197E+00  4.34147E+00  7.77724E+00  9.07286E+00  3.01971E+00  4.54093E+00  7.81231E+00  6.94704E+00  6.11981E+00  5.06073E+00
   6.18533E+00  7.59089E+00  7.10191E+00  6.82420E+00  7.13096E+00  8.56689E+00  5.69965E+00  8.75555E+00  6.72953E+00  6.74208E+00
   7.53526E+00  8.12795E+00  5.09064E+00  6.88410E+00  6.97131E+00  4.66566E+00  5.12951E+00  6.64672E+00  3.57762E+00  5.98473E+00
   7.92061E+00  6.18760E+00  8.41029E+00  7.60769E+00  6.20970E+00  7.66818E+00  6.17641E+00  7.03599E+00  3.73856E+00  6.39611E+00
   6.12178E+00  4.88814E+00  6.18172E+00  5.10856E+00  3.08845E+00  5.10797E+00  3.53822E+00  6.62667E+00  6.24438E+00  5.54391E+00
   5.73849E+00  6.27639E+00  6.24273E+00  6.00322E+00  9.18223E+00  4.85616E+00  7.17379E+00  6.57168E+00  4.52873E+00  6.18591E+00
   6.84900E+00  3.11070E+00  3.42014E+00  6.30869E+00  8.38861E+00  5.16705E+00  3.06231E+00  7.97034E+00  7.50301E+00  5.49364E+00
   4.04454E+00  6.36613E+00  5.30444E+00  6.46691E+00  4.30388E+00  7.09257E+00  5.21090E+00  6.13554E+00  4.87454E+00  8.63066E+00
   5.02086E+00  6.86585E+00  8.12855E+00  7.96183E+00  8.87922E+00  5.77130E+00  4.80255E+00  5.04172E+00  7.78313E+00  6.89711E+00
   6.16621E+00  5.99872E+00  7.26089E+00  7.89651E+00  5.37013E+00  7.22410E+00  4.59325E+00  5.32509E+00  6.30408E+00  4.21429E+00
   5.76704E+00  4.05737E+00  6.26710E+00  6.36366E+00  5.09866E+00  6.34936E+00  6.21555E+00  6.83910E+00  5.40711E+00  5.56986E+00
   7.30536E+00  6.19232E+00  6.97074E+00  4.75517E+00  5.66563E+00  7.07906E+00  7.33607E+00  3.81694E+00  7.02231E+00  4.38355E+00
   5.03154E+00  5.31392E+00  6.86561E+00  3.66861E+00  3.49504E+00  5.85236E+00  6.35013E+00  4.75740E+00  4.66486E+00  4.68790E+00
   5.51591E+00  3.05788E+00  8.03629E+00  5.49241E+00  5.21039E+00  6.90186E+00  5.87393E+00  3.53507E+00  6.34212E+00  4.87088E+00
   7.05653E+00  6.10917E+00  2.85375E+00  4.36950E+00  2.32933E+00  6.24633E+00  3.14815E+00  3.47817E+00  8.77469E+00  3.69919E+00
   2.72407E+00  5.52991E+00  2.80388E+00  4.30138E+00  6.13546E+00  3.21639E+00  5.89243E+00  2.30316E+00
 NY points of the fit to the data follow
   4.51787E+01  4.48835E+01  4.45970E+01  4.43403E+01  4.41624E+01  4.40607E+01  4.41816E+01  4.46889E+01  4.52929E+01  4.54817E+01
   4.50204E+01  4.40160E+01  4.28387E+01  4.19289E+01  4.13212E+01  4.07678E+01  4.03207E+01  3.99670E+01  3.96357E+01  3.93263E+01
   3.90451E+01  3.87826E+01  3.85248E+01  3.82631E+01  3.79686E+01  3.76164E+01  3.72276E+01  3.68462E+01  3.65098E+01  3.62429E+01
   3.60515E+01  3.58968E+01  3.57208E+01  3.54753E+01  3.51406E+01  3.47439E+01  3.43487E+01  3.40144E+01  3.37381E+01  3.34972E+01
   3.32698E+01  3.30212E+01  3.27420E+01  3.24510E+01  3.21694E+01  3.18984E+01  3.16341E+01  3.13736E+01  3.11151E+01  3.08570E+01
   3.06014E+01  3.03593E+01  3.01262E+01  2.98923E+01  2.96549E+01  2.94091E+01  2.91569E+01  2.89080E+01  2.86629E+01  2.84224E+01
   2.81882E+01  2.79583E+01  2.77310E+01  2.75062E+01  2.72863E+01  2.70695E+01  2.68524E+01  2.66338E+01  2.64133E+01  2.61917E+01
   2.59752E+01  2.57678E+01  2.55685E+01  2.53820E+01  2.52071E+01  2.50277E+01  2.48336E+01  2.46230E+01  2.44006E+01  2.41824E+01
   2.39840E+01  2.38055E+01  2.36389E+01  2.34864E+01  2.33549E+01  2.32320E+01  2.30904E+01  2.29135E+01  2.27037E+01  2.24821E+01
   2.22777E+01  2.20939E+01  2.19105E+01  2.17287E+01  2.15585E+01  2.14036E+01  2.12741E+01  2.11794E+01  2.11466E+01  2.11749E+01
   2.13414E+01  2.18501E+01  2.25918E+01  2.30912E+01  2.30041E+01  2.23372E+01  2.13821E+01  2.05761E+01  2.01001E+01  1.97396E+01
   1.94393E+01  1.92604E+01  1.91190E+01  1.89897E+01  1.88660E+01  1.87475E+01  1.86336E+01  1.85229E+01  1.84144E+01  1.83125E+01
   1.82279E+01  1.82004E+01  1.82971E+01  1.85288E+01  1.91667E+01  2.03913E+01  2.16524E+01  2.21850E+01  2.17132E+01  2.04759E+01
   1.90899E+01  1.81702E+01  1.76476E+01  1.71803E+01  1.69073E+01  1.67668E+01  1.66600E+01  1.65678E+01  1.64849E+01  1.64059E+01
   1.63267E+01  1.62453E+01  1.61632E+01  1.60885E+01  1.60242E+01  1.59632E+01  1.58965E+01  1.58212E+01  1.57423E+01  1.56649E+01
   1.55925E+01  1.55251E+01  1.54585E+01  1.53927E+01  1.53288E+01  1.52660E+01  1.52038E+01  1.51404E+01  1.50700E+01  1.49888E+01
   1.49049E+01  1.48313E+01  1.47779E+01  1.47450E+01  1.47176E+01  1.46785E+01  1.46250E+01  1.45628E+01  1.44966E+01  1.44326E+01
   1.43728E+01  1.43130E+01  1.42548E+01  1.41952E+01  1.41279E+01  1.40582E+01  1.40002E+01  1.39587E+01  1.39244E+01  1.38821E+01
   1.38241E+01  1.37600E+01  1.37102E+01  1.36790E+01  1.36490E+01  1.36055E+01  1.35521E+01  1.35064E+01  1.34734E+01  1.34455E+01
   1.34094E+01  1.33514E+01  1.32737E+01  1.31905E+01  1.31076E+01  1.30286E+01  1.29608E+01  1.29066E+01  1.28694E+01  1.28637E+01
   1.29007E+01  1.29630E+01  1.30153E+01  1.30286E+01  1.29817E+01  1.28656E+01  1.26941E+01  1.24757E+01  1.22063E+01  1.19554E+01
   1.18278E+01  1.18439E+01  1.19545E+01  1.20882E+01  1.21670E+01  1.21759E+01  1.21641E+01  1.21365E+01  1.20815E+01  1.20278E+01
   1.19819E+01  1.19425E+01  1.19112E+01  1.18812E+01  1.18411E+01  1.17838E+01  1.17109E+01  1.16304E+01  1.15494E+01  1.14707E+01
   1.13989E+01  1.13389E+01  1.12938E+01  1.12461E+01  1.11658E+01  1.10646E+01  1.09980E+01  1.10023E+01  1.10717E+01  1.11755E+01
   1.12392E+01  1.11993E+01  1.10708E+01  1.08894E+01  1.06957E+01  1.05456E+01  1.04613E+01  1.04185E+01  1.04078E+01  1.04421E+01
   1.04969E+01  1.05527E+01  1.05948E+01  1.06220E+01  1.06486E+01  1.06977E+01  1.07662E+01  1.08752E+01  1.11898E+01  1.17224E+01
   1.21693E+01  1.22381E+01  1.18736E+01  1.12526E+01  1.06841E+01  1.03580E+01  1.01437E+01  9.95373E+00  9.85386E+00  9.78734E+00
   9.73261E+00  9.68731E+00  9.65006E+00  9.61734E+00  9.58547E+00  9.55329E+00  9.51859E+00  9.47836E+00  9.43354E+00  9.38616E+00
   9.33854E+00  9.29294E+00  9.24909E+00  9.20754E+00  9.17014E+00  9.13595E+00  9.10234E+00  9.06833E+00  9.03313E+00  8.99648E+00
   8.95953E+00  8.92255E+00  8.88476E+00  8.84637E+00  8.80777E+00  8.76896E+00  8.73030E+00  8.69217E+00  8.65428E+00  8.61656E+00
   8.57937E+00  8.54261E+00  8.50607E+00  8.46953E+00  8.43297E+00  8.39650E+00  8.36005E+00  8.32365E+00  8.28733E+00  8.25109E+00
   8.21496E+00  8.17898E+00  8.14315E+00  8.10753E+00  8.07220E+00  8.03722E+00  8.00270E+00  7.96880E+00  7.93578E+00  7.90408E+00
   7.87446E+00  7.84860E+00  7.82926E+00  7.81489E+00  7.81051E+00  7.81631E+00  7.79623E+00  7.71289E+00  7.57323E+00  7.41475E+00
   7.28266E+00  7.20223E+00  7.15914E+00  7.15151E+00  7.20582E+00  7.29869E+00  7.37351E+00  7.39605E+00  7.35894E+00  7.29247E+00
   7.23456E+00  7.18285E+00  7.13132E+00  7.09086E+00  7.05900E+00  7.03420E+00  7.01658E+00  7.00664E+00  7.00471E+00  7.01049E+00
   7.02278E+00  7.03927E+00  7.05662E+00  7.07071E+00  7.07726E+00  7.07246E+00  7.05371E+00  7.02009E+00  6.97255E+00  6.91368E+00
   6.84729E+00  6.77764E+00  6.70881E+00  6.64411E+00  6.58575E+00  6.53479E+00  6.49130E+00  6.45464E+00  6.42376E+00  6.39750E+00
   6.37476E+00  6.35458E+00  6.33624E+00  6.31923E+00  6.30322E+00  6.28799E+00  6.27340E+00  6.25938E+00  6.24587E+00  6.23286E+00
   6.22034E+00  6.20829E+00  6.19671E+00  6.18558E+00  6.17491E+00  6.16469E+00  6.15492E+00  6.14560E+00  6.13671E+00  6.12824E+00
   6.12018E+00  6.11253E+00  6.10526E+00  6.09835E+00  6.09176E+00  6.08546E+00  6.07942E+00  6.07359E+00  6.06792E+00  6.06235E+00
   6.05682E+00  6.05128E+00  6.04568E+00  6.03995E+00  6.03405E+00  6.02793E+00  6.02155E+00  6.01488E+00  6.00792E+00  6.00065E+00
   5.99308E+00  5.98522E+00  5.97709E+00  5.96872E+00  5.96014E+00  5.95140E+00  5.94251E+00  5.93351E+00  5.92444E+00  5.91532E+00
   5.90619E+00  5.89705E+00  5.88791E+00  5.87878E+00  5.86967E+00  5.86057E+00  5.85147E+00  5.84236E+00  5.83323E+00  5.82405E+00
   5.81482E+00  5.80551E+00  5.79611E+00  5.78659E+00  5.77694E+00  5.76714E+00  5.75717E+00  5.74702E+00  5.73666E+00  5.72609E+00
   5.71527E+00  5.70421E+00  5.69289E+00  5.68130E+00  5.66942E+00  5.65722E+00  5.64472E+00  5.63189E+00  5.61872E+00  5.60520E+00
   5.59132E+00  5.57706E+00  5.56241E+00  5.54738E+00  5.53197E+00  5.51618E+00  5.50002E+00  5.48351E+00  5.46666E+00  5.44947E+00
   5.43196E+00  5.41413E+00  5.39600E+00  5.37756E+00  5.35885E+00  5.33986E+00  5.32061E+00  5.30109E+00  5.28133E+00  5.26134E+00
   5.24112E+00  5.22069E+00  5.20005E+00  5.17921E+00  5.15819E+00  5.13699E+00  5.11564E+00  5.09412E+00  5.07246E+00  5.05066E+00
   5.02874E+00  5.00671E+00  4.98458E+00  4.96235E+00  4.94003E+00  4.91764E+00  4.89519E+00  4.87269E+00  4.85014E+00  4.82756E+00
   4.80496E+00  4.78234E+00  4.75972E+00  4.73712E+00  4.71453E+00  4.69197E+00  4.66945E+00  4.64698E+00
 NY background values follow
     4.513E+01    4.482E+01    4.451E+01    4.420E+01    4.390E+01    4.359E+01    4.328E+01    4.297E+01    4.266E+01    4.236E+01
     4.205E+01    4.174E+01    4.143E+01    4.113E+01    4.082E+01    4.052E+01    4.021E+01    3.991E+01    3.961E+01    3.930E+01
     3.900E+01    3.870E+01    3.840E+01    3.810E+01    3.780E+01    3.751E+01    3.721E+01    3.692E+01    3.662E+01    3.633E+01
     3.604E+01    3.575E+01    3.546E+01    3.518E+01    3.489E+01    3.461E+01    3.433E+01    3.405E+01    3.377E+01    3.349E+01
     3.322E+01    3.294E+01    3.267E+01    3.240E+01    3.214E+01    3.187E+01    3.161E+01    3.135E+01    3.109E+01    3.083E+01
     3.058E+01    3.033E+01    3.008E+01    2.983E+01    2.958E+01    2.934E+01    2.910E+01    2.886E+01    2.862E+01    2.839E+01
     2.815E+01    2.792E+01    2.769E+01    2.747E+01    2.724E+01    2.702E+01    2.680E+01    2.658E+01    2.637E+01    2.615E+01
     2.594E+01    2.573E+01    2.553E+01    2.532E+01    2.512E+01    2.492E+01    2.472E+01    2.453E+01    2.433E+01    2.414E+01
     2.395E+01    2.377E+01    2.358E+01    2.340E+01    2.322E+01    2.304E+01    2.286E+01    2.269E+01    2.252E+01    2.235E+01
     2.218E+01    2.202E+01    2.186E+01    2.170E+01    2.154E+01    2.138E+01    2.123E+01    2.108E+01    2.093E+01    2.078E+01
     2.063E+01    2.049E+01    2.035E+01    2.021E+01    2.007E+01    1.994E+01    1.980E+01    1.967E+01    1.954E+01    1.942E+01
     1.929E+01    1.917E+01    1.904E+01    1.892E+01    1.881E+01    1.869E+01    1.857E+01    1.846E+01    1.835E+01    1.824E+01
     1.813E+01    1.803E+01    1.792E+01    1.782E+01    1.772E+01    1.762E+01    1.752E+01    1.742E+01    1.733E+01    1.724E+01
     1.714E+01    1.705E+01    1.697E+01    1.688E+01    1.679E+01    1.671E+01    1.662E+01    1.654E+01    1.646E+01    1.638E+01
     1.631E+01    1.623E+01    1.615E+01    1.608E+01    1.601E+01    1.594E+01    1.587E+01    1.580E+01    1.573E+01    1.566E+01
     1.559E+01    1.553E+01    1.546E+01    1.540E+01    1.534E+01    1.528E+01    1.521E+01    1.515E+01    1.509E+01    1.503E+01
     1.498E+01    1.492E+01    1.486E+01    1.480E+01    1.475E+01    1.469E+01    1.464E+01    1.458E+01    1.453E+01    1.447E+01
     1.442E+01    1.437E+01    1.431E+01    1.426E+01    1.421E+01    1.416E+01    1.411E+01    1.405E+01    1.400E+01    1.395E+01
     1.390E+01    1.385E+01    1.379E+01    1.374E+01    1.369E+01    1.364E+01    1.359E+01    1.353E+01    1.348E+01    1.343E+01
     1.338E+01    1.333E+01    1.327E+01    1.322E+01    1.317E+01    1.312E+01    1.307E+01    1.301E+01    1.296E+01    1.291E+01
     1.286E+01    1.281E+01    1.276E+01    1.271E+01    1.266E+01    1.260E+01    1.255E+01    1.250E+01    1.245E+01    1.240E+01
     1.235E+01    1.230E+01    1.225E+01    1.220E+01    1.215E+01    1.210E+01    1.205E+01    1.200E+01    1.196E+01    1.191E+01
     1.186E+01    1.181E+01    1.176E+01    1.172E+01    1.167E+01    1.162E+01    1.157E+01    1.153E+01    1.148E+01    1.143E+01
     1.139E+01    1.134E+01    1.130E+01    1.125E+01    1.121E+01    1.116E+01    1.112E+01    1.107E+01    1.103E+01    1.098E+01
     1.094E+01    1.090E+01    1.085E+01    1.081E+01    1.077E+01    1.073E+01    1.068E+01    1.064E+01    1.060E+01    1.056E+01
     1.051E+01    1.047E+01    1.043E+01    1.039E+01    1.035E+01    1.031E+01    1.027E+01    1.023E+01    1.018E+01    1.014E+01
     1.010E+01    1.006E+01    1.002E+01    9.983E+00    9.944E+00    9.904E+00    9.864E+00    9.825E+00    9.785E+00    9.746E+00
     9.707E+00    9.668E+00    9.629E+00    9.590E+00    9.551E+00    9.512E+00    9.473E+00    9.435E+00    9.396E+00    9.358E+00
     9.320E+00    9.281E+00    9.243E+00    9.205E+00    9.167E+00    9.129E+00    9.091E+00    9.053E+00    9.015E+00    8.977E+00
     8.940E+00    8.902E+00    8.865E+00    8.827E+00    8.790E+00    8.752E+00    8.715E+00    8.677E+00    8.640E+00    8.603E+00
     8.566E+00    8.529E+00    8.491E+00    8.454E+00    8.417E+00    8.380E+00    8.343E+00    8.306E+00    8.269E+00    8.232E+00
     8.196E+00    8.159E+00    8.122E+00    8.085E+00    8.048E+00    8.011E+00    7.975E+00    7.938E+00    7.901E+00    7.864E+00
     7.828E+00    7.791E+00    7.755E+00    7.718E+00    7.682E+00    7.646E+00    7.610E+00    7.574E+00    7.538E+00    7.502E+00
     7.467E+00    7.431E+00    7.396E+00    7.362E+00    7.327E+00    7.293E+00    7.259E+00    7.225E+00    7.191E+00    7.158E+00
     7.125E+00    7.093E+00    7.061E+00    7.029E+00    6.998E+00    6.967E+00    6.936E+00    6.906E+00    6.876E+00    6.847E+00
     6.818E+00    6.789E+00    6.761E+00    6.734E+00    6.707E+00    6.681E+00    6.655E+00    6.630E+00    6.605E+00    6.581E+00
     6.557E+00    6.534E+00    6.512E+00    6.490E+00    6.469E+00    6.449E+00    6.429E+00    6.410E+00    6.391E+00    6.373E+00
     6.355E+00    6.338E+00    6.321E+00    6.305E+00    6.290E+00    6.274E+00    6.260E+00    6.245E+00    6.232E+00    6.218E+00
     6.205E+00    6.193E+00    6.180E+00    6.168E+00    6.157E+00    6.146E+00    6.135E+00    6.124E+00    6.114E+00    6.104E+00
     6.095E+00    6.085E+00    6.076E+00    6.067E+00    6.059E+00    6.050E+00    6.042E+00    6.034E+00    6.026E+00    6.018E+00
     6.011E+00    6.004E+00    5.996E+00    5.989E+00    5.982E+00    5.975E+00    5.968E+00    5.962E+00    5.955E+00    5.948E+00
     5.941E+00    5.935E+00    5.928E+00    5.921E+00    5.915E+00    5.908E+00    5.901E+00    5.895E+00    5.888E+00    5.881E+00
     5.874E+00    5.867E+00    5.860E+00    5.853E+00    5.846E+00    5.838E+00    5.831E+00    5.823E+00    5.815E+00    5.807E+00
     5.799E+00    5.791E+00    5.782E+00    5.774E+00    5.765E+00    5.756E+00    5.746E+00    5.737E+00    5.727E+00    5.717E+00
     5.706E+00    5.695E+00    5.684E+00    5.673E+00    5.662E+00    5.650E+00    5.637E+00    5.625E+00    5.612E+00    5.598E+00
     5.585E+00    5.571E+00    5.556E+00    5.541E+00    5.526E+00    5.510E+00    5.494E+00    5.478E+00    5.461E+00    5.444E+00
     5.427E+00    5.409E+00    5.391E+00    5.373E+00    5.354E+00    5.335E+00    5.316E+00    5.296E+00    5.277E+00    5.257E+00
     5.237E+00    5.216E+00    5.196E+00    5.175E+00    5.154E+00    5.133E+00    5.112E+00    5.090E+00    5.068E+00    5.047E+00
     5.025E+00    5.003E+00    4.981E+00    4.959E+00    4.936E+00    4.914E+00    4.892E+00    4.869E+00    4.847E+00    4.824E+00
     4.802E+00    4.779E+00    4.756E+00    4.734E+00    4.711E+00    4.689E+00    4.666E+00    4.644E+00
 Ala      Conc. = 1.30E+01
