 LCModel (Version 6.3-1L) Copyright: S.W. Provencher.          Ref.: Magn. Reson. Med. 30:672-679 (1993).                
 Slice#1 Row#9 Col#3  PD_24_press_1_raw_act
 36 lines in following concentration table = NCONC+1
    Conc.  %SD /Cr+PCr  Metabolite                                         
   64.763 261% 8.3E-02 Ala                                                 
    0.000 999%   0.000 Asp                                                 
   69.748 417% 8.9E-02 Cr                                                  
  713.798  41%   0.911 PCr                                                 
  151.569  78%   0.193 GABA                                                
   50.691 226% 6.5E-02 Glc                                                 
 2.26E+03  20%   2.888 Gln                                                 
 2.43E+03  21%   3.098 Glu                                                 
  304.932   7%   0.389 GPC                                                 
    0.000 999%   0.000 PCh                                                 
  129.120  67%   0.165 GSH                                                 
  554.788  42%   0.708 Ins                                                 
  216.877  90%   0.277 Lac                                                 
 1.67E+03   9%   2.133 NAA                                                 
  168.131  95%   0.215 NAAG                                                
   80.105  31%   0.102 Scyllo                                              
  171.645  93%   0.219 Tau                                                 
   41.413 251% 5.3E-02 -CrCH2                                              
  304.932   7%   0.389 GPC+PCh                                             
 1.84E+03   4%   2.347 NAA+NAAG                                            
  783.546   7%   1.000 Cr+PCr                                              
 4.69E+03  18%   5.986 Glu+Gln                                             
  377.094  45%   0.481 Lip13a                                              
    0.000 999%   0.000 Lip13b                                              
    0.000 999%   0.000 Lip09                                               
  461.031  22%   0.588 MM09                                                
   76.924  77% 9.8E-02 Lip20                                               
  810.350  21%   1.034 MM20                                                
  141.446  29%   0.181 MM12                                                
  432.880  28%   0.552 MM14                                                
  218.729  35%   0.279 MM17                                                
  377.094  45%   0.481 Lip13a+Lip13b                                       
  951.420  20%   1.214 MM14+Lip13a+Lip13b+MM12                             
  461.031  22%   0.588 MM09+Lip09                                          
  887.273  20%   1.132 MM20+Lip20                                          
   6 lines in following misc. output table
  FWHM = 0.092 ppm    S/N =   8                                            
  Data shift =-0.015 ppm                                                   
  Ph: -77 deg     -25.7 deg/ppm                                            
  alphaB,S = 8.5E+01,   5.0E+02                                            
   14 spline knots.   Ns =10(1)                                            
   4 inflections.     1 extrema                                            
  498 points on ppm-axis = NY
      4.000000     3.992357     3.984714     3.977070     3.969427     3.961784     3.954141     3.946497     3.938854     3.931211
      3.923568     3.915925     3.908281     3.900638     3.892995     3.885352     3.877708     3.870065     3.862422     3.854779
      3.847136     3.839492     3.831849     3.824206     3.816563     3.808919     3.801276     3.793633     3.785990     3.778347
      3.770703     3.763060     3.755417     3.747774     3.740130     3.732487     3.724844     3.717201     3.709558     3.701914
      3.694271     3.686628     3.678985     3.671341     3.663698     3.656055     3.648412     3.640769     3.633125     3.625482
      3.617839     3.610196     3.602552     3.594909     3.587266     3.579623     3.571980     3.564336     3.556693     3.549050
      3.541407     3.533763     3.526120     3.518477     3.510834     3.503191     3.495547     3.487904     3.480261     3.472618
      3.464974     3.457331     3.449688     3.442045     3.434402     3.426758     3.419115     3.411472     3.403829     3.396185
      3.388542     3.380899     3.373256     3.365613     3.357969     3.350326     3.342683     3.335040     3.327396     3.319753
      3.312110     3.304467     3.296824     3.289180     3.281537     3.273894     3.266251     3.258607     3.250964     3.243321
      3.235678     3.228034     3.220391     3.212748     3.205105     3.197462     3.189818     3.182175     3.174532     3.166889
      3.159245     3.151602     3.143959     3.136316     3.128673     3.121029     3.113386     3.105743     3.098100     3.090456
      3.082813     3.075170     3.067527     3.059884     3.052240     3.044597     3.036954     3.029311     3.021667     3.014024
      3.006381     2.998738     2.991095     2.983451     2.975808     2.968165     2.960522     2.952878     2.945235     2.937592
      2.929949     2.922306     2.914662     2.907019     2.899376     2.891733     2.884089     2.876446     2.868803     2.861160
      2.853517     2.845873     2.838230     2.830587     2.822944     2.815300     2.807657     2.800014     2.792371     2.784728
      2.777084     2.769441     2.761798     2.754155     2.746511     2.738868     2.731225     2.723582     2.715939     2.708295
      2.700652     2.693009     2.685366     2.677722     2.670079     2.662436     2.654793     2.647150     2.639506     2.631863
      2.624220     2.616577     2.608933     2.601290     2.593647     2.586004     2.578361     2.570717     2.563074     2.555431
      2.547788     2.540144     2.532501     2.524858     2.517215     2.509572     2.501928     2.494285     2.486642     2.478999
      2.471355     2.463712     2.456069     2.448426     2.440783     2.433139     2.425496     2.417853     2.410210     2.402566
      2.394923     2.387280     2.379637     2.371994     2.364350     2.356707     2.349064     2.341421     2.333777     2.326134
      2.318491     2.310848     2.303205     2.295561     2.287918     2.280275     2.272632     2.264988     2.257345     2.249702
      2.242059     2.234416     2.226772     2.219129     2.211486     2.203843     2.196199     2.188556     2.180913     2.173270
      2.165627     2.157983     2.150340     2.142697     2.135054     2.127410     2.119767     2.112124     2.104481     2.096838
      2.089194     2.081551     2.073908     2.066265     2.058621     2.050978     2.043335     2.035692     2.028049     2.020405
      2.012762     2.005119     1.997476     1.989833     1.982190     1.974546     1.966903     1.959260     1.951617     1.943974
      1.936331     1.928688     1.921045     1.913402     1.905759     1.898115     1.890472     1.882829     1.875186     1.867543
      1.859900     1.852257     1.844614     1.836971     1.829327     1.821684     1.814041     1.806398     1.798755     1.791112
      1.783469     1.775826     1.768183     1.760540     1.752896     1.745253     1.737610     1.729967     1.722324     1.714681
      1.707038     1.699395     1.691752     1.684108     1.676465     1.668822     1.661179     1.653536     1.645893     1.638250
      1.630607     1.622964     1.615321     1.607677     1.600034     1.592391     1.584748     1.577105     1.569462     1.561819
      1.554176     1.546533     1.538890     1.531246     1.523603     1.515960     1.508317     1.500674     1.493031     1.485388
      1.477745     1.470102     1.462458     1.454815     1.447172     1.439529     1.431886     1.424243     1.416600     1.408957
      1.401314     1.393671     1.386027     1.378384     1.370741     1.363098     1.355455     1.347812     1.340169     1.332526
      1.324883     1.317240     1.309596     1.301953     1.294310     1.286667     1.279024     1.271381     1.263738     1.256095
      1.248452     1.240808     1.233165     1.225522     1.217879     1.210236     1.202593     1.194950     1.187307     1.179664
      1.172021     1.164377     1.156734     1.149091     1.141448     1.133805     1.126162     1.118519     1.110876     1.103233
      1.095590     1.087946     1.080303     1.072660     1.065017     1.057374     1.049731     1.042088     1.034445     1.026802
      1.019158     1.011515     1.003872     0.996229     0.988586     0.980943     0.973300     0.965657     0.958014     0.950371
      0.942727     0.935084     0.927441     0.919798     0.912155     0.904512     0.896869     0.889226     0.881583     0.873940
      0.866296     0.858653     0.851010     0.843367     0.835724     0.828081     0.820438     0.812795     0.805152     0.797508
      0.789865     0.782222     0.774579     0.766936     0.759293     0.751650     0.744007     0.736364     0.728721     0.721077
      0.713434     0.705791     0.698148     0.690505     0.682862     0.675219     0.667576     0.659933     0.652290     0.644646
      0.637003     0.629360     0.621717     0.614074     0.606431     0.598788     0.591145     0.583502     0.575858     0.568215
      0.560572     0.552929     0.545286     0.537643     0.530000     0.522357     0.514714     0.507071     0.499427     0.491784
      0.484141     0.476498     0.468855     0.461212     0.453569     0.445925     0.438282     0.430639     0.422996     0.415353
      0.407710     0.400067     0.392424     0.384780     0.377137     0.369494     0.361851     0.354208     0.346565     0.338922
      0.331278     0.323635     0.315992     0.308349     0.300706     0.293063     0.285420     0.277777     0.270133     0.262490
      0.254847     0.247204     0.239561     0.231918     0.224275     0.216631     0.208988     0.201345
 NY phased data points follow
  -2.05932E+00  2.28484E+00  5.67706E+00 -5.13375E+00  3.09086E+00  2.27940E+00  5.56778E+00  9.69669E+00  7.41348E+00  6.19117E+00
   1.06983E+01  8.07048E+00  5.44697E+00  4.09655E+00  6.17621E+00  8.09987E+00  5.88565E+00  5.24761E+00  1.50821E+00  2.97553E+00
   4.91946E+00  4.90928E-01 -3.21618E-01  1.23309E+00 -5.68124E-01 -2.33066E+00  1.35327E+00  3.84337E+00  4.37986E+00  3.86809E-01
   1.54457E+00  7.44010E-02  4.24222E+00  1.77997E-01 -5.99621E-01 -2.76996E+00  2.70361E+00  9.68094E-01  4.81535E-01  1.18795E+00
   1.36255E+00  9.03148E-01  5.44739E+00  1.83224E+00  4.17867E+00  3.37930E+00  2.75173E+00  7.15628E-01  3.09117E-01  1.15844E+00
   3.53494E+00  1.60891E+00  6.80845E+00 -1.60201E+00  2.05582E+00 -1.14801E+00 -5.44772E-01 -1.08567E+00 -2.82095E+00 -1.12783E+00
   1.04101E+00 -3.74145E+00 -7.21872E+00 -2.84364E+00 -3.22616E+00 -5.20881E+00 -3.25044E+00 -5.63598E+00 -4.15488E-01 -2.85129E+00
  -8.44115E-01 -1.53417E+00 -1.95452E+00  2.01289E+00 -1.19133E+00 -2.36099E-01 -1.97020E-02 -2.45798E+00 -4.09872E+00 -3.06093E+00
  -9.72452E-01 -1.81230E+00 -7.46494E-01 -1.06158E+00  8.13885E-01 -6.58678E-01  2.26600E+00 -1.46145E+00  8.73304E-01 -1.38646E+00
   1.18332E+00  2.37974E+00 -3.11294E+00  1.16371E-01  4.16949E+00  8.15103E-01  3.86934E+00  5.27206E+00  8.06077E+00  9.36966E+00
   1.29494E+01  1.77485E+01  2.00148E+01  1.43090E+01  1.27302E+01  1.18832E+01  1.09541E+01  8.22171E+00  1.15418E+01  1.36205E+01
   7.21814E+00  3.07116E+00 -9.06447E-01  3.70926E+00  1.60366E+00 -1.31223E+00  6.14606E-01  1.43972E+00 -1.22254E-01  2.54310E+00
   1.07178E+00  3.41613E+00  1.61314E+00  9.54258E+00  9.71812E+00  1.50042E+01  2.00235E+01  1.53299E+01  1.66067E+01  1.17260E+01
   7.07699E+00  7.70871E+00  9.21325E+00  9.59448E+00  6.33286E+00  6.85665E+00  7.16331E-01 -1.39258E+00 -1.53795E+00 -4.51466E-01
   2.82267E+00 -4.43898E+00 -9.65527E-01 -3.03287E+00 -7.28178E-01 -1.77880E+00 -1.68830E+00 -3.61525E-02  1.23730E-02 -3.44741E+00
  -8.94381E-02 -3.14227E+00  1.22386E+00  1.69748E+00 -3.61498E+00 -8.64388E-01  9.47900E-01  2.21107E-01 -7.62138E-01 -2.62832E+00
  -7.15307E+00 -2.98931E+00 -5.15724E+00  1.35560E+00 -1.83936E+00 -6.11631E+00 -6.67367E+00 -8.06405E+00 -7.93315E+00 -6.39788E+00
  -9.18020E+00 -8.61424E+00 -6.22232E+00 -1.08016E+01 -1.17432E+01 -6.59744E+00 -1.30388E+01 -7.33137E+00 -6.48823E+00 -5.30793E+00
  -7.96871E+00 -7.09785E+00 -8.06882E+00 -1.10094E+01 -2.51886E+00 -7.99150E+00 -8.36475E+00 -4.59849E+00 -6.76956E+00 -6.76819E+00
  -4.00357E+00 -6.82572E+00 -8.33777E+00 -5.89050E+00 -5.77484E+00 -7.49297E+00 -6.19833E+00 -6.07860E+00 -6.40580E+00 -5.65049E-01
  -3.02416E+00 -3.63130E+00 -2.90711E-01 -4.48846E+00  8.70071E-01 -2.21544E+00  2.33090E+00 -2.74263E+00  7.24733E-01 -4.16679E+00
  -2.69013E+00 -5.21547E-01  1.60971E+00  3.63439E-01  2.81374E+00  5.75093E+00  7.03229E+00  4.51210E+00  5.22710E-01  3.25973E+00
  -1.72005E+00  2.33569E+00 -1.46491E+00  3.53358E+00 -7.86389E-01 -2.97199E-01 -1.14689E+00 -1.37437E+00 -1.07185E+00  6.95552E-01
   2.78389E+00  3.13603E+00  4.39812E+00  2.43440E+00  5.76199E+00  2.09757E-02  2.84057E+00  4.09275E+00  2.84167E+00  5.34200E+00
   4.73756E+00  1.50654E+00  1.13304E-01  1.99683E+00  8.50387E-01  2.31857E+00  2.59346E+00  3.27489E+00  7.20022E+00  6.38407E+00
   8.01463E+00  9.80295E+00  1.01888E+01  1.33130E+01  1.85468E+01  2.20914E+01  2.40655E+01  3.12710E+01  3.49302E+01  4.19935E+01
   5.28313E+01  4.60550E+01  3.73691E+01  3.35331E+01  2.71912E+01  2.64872E+01  2.77344E+01  1.59939E+01  1.42639E+01  1.32300E+01
   9.63189E+00  9.44692E+00  3.87205E+00  5.95629E+00  5.64346E+00  1.48571E+00  5.58964E+00 -3.66358E-01  5.06315E+00  2.53936E+00
  -9.09091E-01  2.15112E-03  1.47240E+00 -2.61345E-01 -9.91624E-01  3.56904E-01 -8.29228E-01  1.30909E+00  5.63082E-01  1.01747E+00
  -9.38938E-01 -8.89743E-01  3.28907E-01  2.46137E+00 -2.03671E+00  3.61222E+00  4.98383E-01  3.05461E+00  3.73916E+00  3.50961E+00
   4.94134E+00  3.07048E-01 -2.23902E-01  1.75559E+00  2.17967E+00  2.53491E+00  2.59016E+00  3.60131E+00 -5.27606E-01  2.29640E+00
   4.73284E+00  6.01312E+00  1.74493E+00  4.83336E+00  2.48582E+00  3.36871E+00  5.03803E-01  2.38767E+00  2.00177E+00 -1.03241E+00
   3.78151E-01  1.13519E+00  2.55871E+00  1.94825E+00  3.01500E+00  1.00116E+00 -1.17259E-01  3.61724E+00  6.20129E+00  4.41532E+00
   1.98045E+00  3.69989E+00 -1.29978E+00  5.12638E+00  4.89550E+00  3.94497E+00  5.00331E+00  4.84668E+00  2.93602E+00  6.36758E+00
   3.60729E+00  3.22298E+00  5.10233E+00  9.17221E+00  7.28319E+00  2.25756E+00  4.59248E+00  4.73091E+00  5.30458E+00  4.48155E+00
   2.76085E+00  5.65903E+00  3.12384E-01  5.77678E+00  1.97846E+00  3.67993E+00  3.11444E+00  3.08280E+00  1.32642E+00  2.43913E+00
   1.69105E+00  6.05994E+00  1.10793E+00  2.75929E+00  9.75115E-01  4.10205E+00  3.64669E+00  2.75797E+00  5.63474E+00  4.18505E+00
   8.34113E+00  4.28162E+00  2.24248E+00  6.28023E+00  3.17464E+00  3.76611E+00  4.85915E-01  2.91588E+00  1.34227E+00  2.65850E+00
   4.13154E+00  1.25384E+00 -9.66886E-01  1.50861E+00  3.18155E+00  4.69376E+00  2.07822E+00  2.82503E+00  2.44054E+00  6.05205E-01
  -6.66933E-01  4.91382E+00  5.34881E+00  4.79973E+00  1.95552E+00 -2.19065E+00  2.42843E+00  5.28970E-01  1.57377E+00  3.33402E+00
  -7.08752E-01  1.42963E+00  2.05498E+00  1.20493E+00  3.92678E+00  5.03949E+00  4.59033E-01  1.41809E+00  2.57116E+00 -1.10584E+00
   3.18984E+00 -9.32147E-01  1.01753E+00  4.00883E+00  4.71026E+00  6.40347E+00  3.07962E+00  6.85953E-01  3.07358E+00  2.20424E+00
   3.72620E+00 -1.42031E+00  2.09851E+00  2.64087E+00  3.92692E+00  2.79095E+00 -1.78691E+00  6.54845E+00  3.58447E+00  1.96322E+00
   1.70033E+00  3.91130E+00 -3.56464E-01  5.62447E-01 -2.88660E-01  4.19747E+00  4.10354E+00  1.23647E+00 -6.82104E-01  2.90572E+00
   1.07812E+00  8.11755E-01  1.48361E+00  1.53094E+00  2.88965E+00  4.38829E+00  5.45146E+00  2.18965E+00  5.11026E-01  2.21943E+00
   3.44597E+00  8.38926E-01  5.95494E-02 -1.41376E+00  2.70993E-01 -1.04452E+00 -2.16984E-01  2.85698E+00  1.78184E+00  8.29106E+00
  -5.44738E-01  3.06721E+00 -2.33933E+00  3.81671E+00  3.36500E+00  1.19720E+00 -4.56372E-02 -6.02681E-01 -5.14390E-01  1.82284E-01
   1.63547E+00  6.33231E-01  4.79273E-02  4.56766E+00  3.29587E+00  2.77906E+00  1.43037E+00  2.71356E+00  1.71796E+00  3.79538E+00
  -2.00578E+00  3.16510E+00 -7.05851E-01  3.00077E+00  1.84260E+00  2.28178E+00  3.04701E+00  1.66009E+00 -1.38484E+00  3.32849E+00
   2.83855E+00  2.48360E+00  2.03408E+00  5.95197E-01  4.13635E+00  4.05588E+00  1.32288E+00  4.59375E+00
 NY points of the fit to the data follow
  -1.88315E+00 -1.17962E+00 -2.82034E-01  8.16339E-01  2.13207E+00  3.63495E+00  5.19506E+00  6.63195E+00  7.73970E+00  8.35037E+00
   8.44479E+00  8.14979E+00  7.63945E+00  7.04499E+00  6.41657E+00  5.74756E+00  4.97016E+00  4.06072E+00  3.02620E+00  1.92744E+00
   9.65012E-01  3.40129E-01  1.87245E-02 -1.26475E-01 -1.62069E-01 -8.62031E-02  1.32030E-01  5.45564E-01  1.17815E+00  1.97886E+00
   2.77628E+00  3.35011E+00  3.51394E+00  3.23139E+00  2.62763E+00  1.94130E+00  1.43382E+00  1.25126E+00  1.31721E+00  1.46857E+00
   1.51071E+00  1.36644E+00  1.15372E+00  1.03139E+00  1.17382E+00  1.54280E+00  1.97711E+00  2.32201E+00  2.40385E+00  2.18172E+00
   1.73974E+00  1.21771E+00  7.17405E-01  2.85576E-01 -8.77362E-02 -4.17958E-01 -7.29743E-01 -1.01350E+00 -1.23613E+00 -1.37931E+00
  -1.46688E+00 -1.54175E+00 -1.61220E+00 -1.67387E+00 -1.71999E+00 -1.74338E+00 -1.73855E+00 -1.71682E+00 -1.69395E+00 -1.67893E+00
  -1.67092E+00 -1.65375E+00 -1.61986E+00 -1.58210E+00 -1.56040E+00 -1.56828E+00 -1.56269E+00 -1.50128E+00 -1.39980E+00 -1.26421E+00
  -1.09005E+00 -8.71003E-01 -6.23755E-01 -3.80885E-01 -1.83956E-01 -9.17401E-02 -1.36066E-01 -2.92608E-01 -5.05048E-01 -7.23361E-01
  -9.21594E-01 -1.07867E+00 -1.03932E+00 -4.68930E-01  5.78516E-01  1.94358E+00  3.58857E+00  5.56342E+00  7.91659E+00  1.05104E+01
   1.30099E+01  1.50326E+01  1.62205E+01  1.64019E+01  1.57039E+01  1.44478E+01  1.29522E+01  1.13877E+01  9.75204E+00  7.96384E+00
   5.99123E+00  3.89075E+00  1.78192E+00 -1.07348E-01 -1.41066E+00 -1.91071E+00 -1.91320E+00 -1.36267E+00 -3.11987E-01  1.05936E+00
   2.68717E+00  4.57871E+00  6.73583E+00  9.07766E+00  1.13919E+01  1.33450E+01  1.45912E+01  1.49297E+01  1.44273E+01  1.33619E+01
   1.20315E+01  1.06062E+01  9.09714E+00  7.44319E+00  5.62174E+00  3.68490E+00  1.75595E+00  3.40323E-02 -1.18685E+00 -1.69674E+00
  -1.84369E+00 -1.91341E+00 -1.95977E+00 -1.99011E+00 -2.00644E+00 -2.01048E+00 -2.01303E+00 -2.03316E+00 -2.07478E+00 -2.13886E+00
  -2.22194E+00 -2.32172E+00 -2.43899E+00 -2.55694E+00 -2.66071E+00 -2.74358E+00 -2.81542E+00 -2.90473E+00 -3.01951E+00 -3.14617E+00
  -3.26105E+00 -3.34380E+00 -3.39584E+00 -3.44463E+00 -3.52866E+00 -3.67738E+00 -3.89733E+00 -4.16509E+00 -4.42126E+00 -4.63143E+00
  -4.80110E+00 -4.96496E+00 -5.15881E+00 -5.38249E+00 -5.59538E+00 -5.74239E+00 -5.80071E+00 -5.78397E+00 -5.73748E+00 -5.67988E+00
  -5.59186E+00 -5.44764E+00 -5.22984E+00 -4.94527E+00 -4.62976E+00 -4.29946E+00 -3.98603E+00 -3.71352E+00 -3.51459E+00 -3.41965E+00
  -3.40849E+00 -3.43018E+00 -3.41811E+00 -3.32147E+00 -3.07065E+00 -2.55788E+00 -1.76395E+00 -7.65237E-01  2.87158E-01  1.20034E+00
   1.71912E+00  1.81172E+00  1.52509E+00  8.32150E-01 -2.64685E-01 -1.65185E+00 -3.07377E+00 -4.18968E+00 -4.84081E+00 -4.87640E+00
  -4.26562E+00 -3.16984E+00 -1.88799E+00 -7.27980E-01  1.33518E-01  6.50447E-01  8.15834E-01  6.78850E-01  3.21749E-01 -1.36177E-01
  -5.97003E-01 -1.02258E+00 -1.41467E+00 -1.54497E+00 -1.37524E+00 -1.14056E+00 -1.00131E+00 -8.32443E-01 -4.26605E-01  2.63726E-01
   1.07682E+00  1.95636E+00  2.79301E+00  3.39902E+00  3.68437E+00  3.71167E+00  3.67256E+00  3.64840E+00  3.51594E+00  3.15945E+00
   2.58150E+00  1.88895E+00  1.24789E+00  8.07701E-01  6.51694E-01  8.00153E-01  1.20726E+00  1.71958E+00  2.26266E+00  3.02006E+00
   4.46979E+00  7.20731E+00  1.09765E+01  1.52910E+01  1.98026E+01  2.43566E+01  2.89582E+01  3.34961E+01  3.75943E+01  4.06421E+01
   4.20203E+01  4.14446E+01  3.91821E+01  3.58696E+01  3.21438E+01  2.83781E+01  2.46148E+01  2.07587E+01  1.67863E+01  1.27165E+01
   8.72956E+00  5.25026E+00  2.98164E+00  2.15278E+00  1.89014E+00  1.75326E+00  1.66514E+00  1.59854E+00  1.52093E+00  1.45027E+00
   1.39356E+00  1.33904E+00  1.27811E+00  1.20924E+00  1.12925E+00  1.04947E+00  9.92262E-01  9.67540E-01  9.72454E-01  1.00075E+00
   1.04568E+00  1.10167E+00  1.16192E+00  1.21808E+00  1.27136E+00  1.32544E+00  1.38125E+00  1.44022E+00  1.50345E+00  1.56902E+00
   1.63411E+00  1.69647E+00  1.75433E+00  1.80583E+00  1.85042E+00  1.88745E+00  1.91574E+00  1.93558E+00  1.94782E+00  1.95356E+00
   1.95396E+00  1.95058E+00  1.94617E+00  1.94373E+00  1.94642E+00  1.95823E+00  1.98485E+00  2.03344E+00  2.09803E+00  2.16718E+00
   2.23796E+00  2.30988E+00  2.37991E+00  2.44038E+00  2.48069E+00  2.50141E+00  2.51204E+00  2.51876E+00  2.53358E+00  2.57247E+00
   2.64787E+00  2.76422E+00  2.91768E+00  3.09910E+00  3.29715E+00  3.50191E+00  3.71380E+00  3.95387E+00  4.21915E+00  4.46852E+00
   4.67087E+00  4.81209E+00  4.88531E+00  4.86883E+00  4.73324E+00  4.48994E+00  4.16978E+00  3.80590E+00  3.44979E+00  3.15590E+00
   2.97318E+00  2.92226E+00  2.98918E+00  3.13469E+00  3.30870E+00  3.46470E+00  3.57861E+00  3.66109E+00  3.74780E+00  3.86477E+00
   3.97073E+00  4.00688E+00  3.97005E+00  3.86201E+00  3.68555E+00  3.45145E+00  3.19283E+00  2.97567E+00  2.81754E+00  2.68982E+00
   2.57989E+00  2.48312E+00  2.39753E+00  2.32230E+00  2.25714E+00  2.20208E+00  2.15726E+00  2.12292E+00  2.09929E+00  2.08661E+00
   2.08509E+00  2.09495E+00  2.11631E+00  2.14928E+00  2.19385E+00  2.24994E+00  2.31734E+00  2.39569E+00  2.48446E+00  2.58289E+00
   2.68998E+00  2.80446E+00  2.92478E+00  3.04912E+00  3.17537E+00  3.30115E+00  3.42391E+00  3.54096E+00  3.64955E+00  3.74698E+00
   3.83068E+00  3.89834E+00  3.94799E+00  3.97812E+00  3.98772E+00  3.97637E+00  3.94421E+00  3.89197E+00  3.82094E+00  3.73287E+00
   3.62995E+00  3.51465E+00  3.38963E+00  3.25763E+00  3.12136E+00  2.98342E+00  2.84621E+00  2.71184E+00  2.58210E+00  2.45847E+00
   2.34206E+00  2.23367E+00  2.13381E+00  2.04267E+00  1.96024E+00  1.88633E+00  1.82058E+00  1.76254E+00  1.71167E+00  1.66743E+00
   1.62921E+00  1.59644E+00  1.56859E+00  1.54512E+00  1.52555E+00  1.50944E+00  1.49638E+00  1.48603E+00  1.47807E+00  1.47222E+00
   1.46823E+00  1.46589E+00  1.46501E+00  1.46542E+00  1.46699E+00  1.46959E+00  1.47311E+00  1.47744E+00  1.48251E+00  1.48826E+00
   1.49461E+00  1.50150E+00  1.50889E+00  1.51673E+00  1.52498E+00  1.53362E+00  1.54261E+00  1.55192E+00  1.56152E+00  1.57140E+00
   1.58154E+00  1.59193E+00  1.60254E+00  1.61337E+00  1.62439E+00  1.63560E+00  1.64698E+00  1.65854E+00  1.67025E+00  1.68212E+00
   1.69413E+00  1.70630E+00  1.71860E+00  1.73104E+00  1.74360E+00  1.75630E+00  1.76912E+00  1.78208E+00  1.79516E+00  1.80837E+00
   1.82170E+00  1.83517E+00  1.84877E+00  1.86251E+00  1.87639E+00  1.89041E+00  1.90459E+00  1.91893E+00  1.93344E+00  1.94813E+00
   1.96302E+00  1.97812E+00  1.99344E+00  2.00902E+00  2.02487E+00  2.04103E+00  2.05752E+00  2.07438E+00
 NY background values follow
    -4.667E+00   -4.653E+00   -4.640E+00   -4.626E+00   -4.612E+00   -4.599E+00   -4.585E+00   -4.572E+00   -4.558E+00   -4.544E+00
    -4.531E+00   -4.517E+00   -4.503E+00   -4.490E+00   -4.476E+00   -4.462E+00   -4.449E+00   -4.435E+00   -4.421E+00   -4.408E+00
    -4.394E+00   -4.380E+00   -4.367E+00   -4.353E+00   -4.339E+00   -4.325E+00   -4.312E+00   -4.298E+00   -4.284E+00   -4.271E+00
    -4.257E+00   -4.243E+00   -4.229E+00   -4.216E+00   -4.202E+00   -4.188E+00   -4.175E+00   -4.161E+00   -4.147E+00   -4.133E+00
    -4.120E+00   -4.106E+00   -4.092E+00   -4.078E+00   -4.065E+00   -4.051E+00   -4.037E+00   -4.023E+00   -4.010E+00   -3.996E+00
    -3.982E+00   -3.968E+00   -3.955E+00   -3.941E+00   -3.927E+00   -3.913E+00   -3.899E+00   -3.886E+00   -3.872E+00   -3.858E+00
    -3.844E+00   -3.830E+00   -3.817E+00   -3.803E+00   -3.789E+00   -3.775E+00   -3.761E+00   -3.748E+00   -3.734E+00   -3.720E+00
    -3.706E+00   -3.692E+00   -3.678E+00   -3.665E+00   -3.651E+00   -3.637E+00   -3.623E+00   -3.609E+00   -3.595E+00   -3.582E+00
    -3.568E+00   -3.554E+00   -3.540E+00   -3.526E+00   -3.512E+00   -3.499E+00   -3.485E+00   -3.471E+00   -3.457E+00   -3.443E+00
    -3.429E+00   -3.415E+00   -3.402E+00   -3.388E+00   -3.374E+00   -3.360E+00   -3.346E+00   -3.332E+00   -3.318E+00   -3.304E+00
    -3.290E+00   -3.277E+00   -3.263E+00   -3.249E+00   -3.235E+00   -3.221E+00   -3.207E+00   -3.193E+00   -3.179E+00   -3.165E+00
    -3.151E+00   -3.138E+00   -3.124E+00   -3.110E+00   -3.096E+00   -3.082E+00   -3.068E+00   -3.054E+00   -3.040E+00   -3.026E+00
    -3.012E+00   -2.998E+00   -2.984E+00   -2.971E+00   -2.957E+00   -2.943E+00   -2.929E+00   -2.915E+00   -2.901E+00   -2.887E+00
    -2.873E+00   -2.859E+00   -2.845E+00   -2.831E+00   -2.817E+00   -2.803E+00   -2.789E+00   -2.775E+00   -2.761E+00   -2.748E+00
    -2.734E+00   -2.720E+00   -2.706E+00   -2.692E+00   -2.678E+00   -2.664E+00   -2.650E+00   -2.636E+00   -2.622E+00   -2.608E+00
    -2.594E+00   -2.580E+00   -2.566E+00   -2.552E+00   -2.538E+00   -2.524E+00   -2.510E+00   -2.496E+00   -2.482E+00   -2.468E+00
    -2.454E+00   -2.440E+00   -2.426E+00   -2.412E+00   -2.398E+00   -2.384E+00   -2.370E+00   -2.356E+00   -2.342E+00   -2.328E+00
    -2.314E+00   -2.300E+00   -2.286E+00   -2.272E+00   -2.258E+00   -2.244E+00   -2.230E+00   -2.216E+00   -2.202E+00   -2.188E+00
    -2.174E+00   -2.160E+00   -2.146E+00   -2.132E+00   -2.118E+00   -2.104E+00   -2.090E+00   -2.076E+00   -2.062E+00   -2.048E+00
    -2.034E+00   -2.020E+00   -2.006E+00   -1.992E+00   -1.978E+00   -1.964E+00   -1.950E+00   -1.936E+00   -1.922E+00   -1.908E+00
    -1.894E+00   -1.880E+00   -1.866E+00   -1.852E+00   -1.838E+00   -1.824E+00   -1.810E+00   -1.796E+00   -1.782E+00   -1.768E+00
    -1.754E+00   -1.740E+00   -1.726E+00   -1.712E+00   -1.698E+00   -1.684E+00   -1.670E+00   -1.656E+00   -1.642E+00   -1.628E+00
    -1.614E+00   -1.600E+00   -1.586E+00   -1.572E+00   -1.558E+00   -1.544E+00   -1.530E+00   -1.516E+00   -1.502E+00   -1.488E+00
    -1.474E+00   -1.460E+00   -1.446E+00   -1.432E+00   -1.418E+00   -1.404E+00   -1.390E+00   -1.376E+00   -1.362E+00   -1.348E+00
    -1.334E+00   -1.320E+00   -1.306E+00   -1.292E+00   -1.278E+00   -1.264E+00   -1.250E+00   -1.236E+00   -1.222E+00   -1.208E+00
    -1.193E+00   -1.179E+00   -1.165E+00   -1.151E+00   -1.137E+00   -1.123E+00   -1.109E+00   -1.095E+00   -1.081E+00   -1.067E+00
    -1.053E+00   -1.039E+00   -1.025E+00   -1.011E+00   -9.973E-01   -9.833E-01   -9.693E-01   -9.553E-01   -9.412E-01   -9.272E-01
    -9.132E-01   -8.992E-01   -8.852E-01   -8.712E-01   -8.572E-01   -8.432E-01   -8.292E-01   -8.152E-01   -8.012E-01   -7.872E-01
    -7.732E-01   -7.592E-01   -7.452E-01   -7.312E-01   -7.172E-01   -7.032E-01   -6.892E-01   -6.752E-01   -6.612E-01   -6.472E-01
    -6.332E-01   -6.192E-01   -6.052E-01   -5.912E-01   -5.772E-01   -5.632E-01   -5.492E-01   -5.352E-01   -5.212E-01   -5.073E-01
    -4.933E-01   -4.793E-01   -4.653E-01   -4.513E-01   -4.373E-01   -4.234E-01   -4.094E-01   -3.954E-01   -3.814E-01   -3.674E-01
    -3.535E-01   -3.395E-01   -3.255E-01   -3.115E-01   -2.976E-01   -2.836E-01   -2.696E-01   -2.557E-01   -2.417E-01   -2.277E-01
    -2.138E-01   -1.998E-01   -1.858E-01   -1.719E-01   -1.579E-01   -1.440E-01   -1.300E-01   -1.161E-01   -1.021E-01   -8.815E-02
    -7.420E-02   -6.025E-02   -4.631E-02   -3.236E-02   -1.842E-02   -4.472E-03    9.470E-03    2.341E-02    3.735E-02    5.129E-02
     6.522E-02    7.915E-02    9.309E-02    1.070E-01    1.209E-01    1.349E-01    1.488E-01    1.627E-01    1.766E-01    1.906E-01
     2.045E-01    2.184E-01    2.323E-01    2.462E-01    2.601E-01    2.741E-01    2.880E-01    3.019E-01    3.158E-01    3.297E-01
     3.436E-01    3.575E-01    3.714E-01    3.853E-01    3.992E-01    4.131E-01    4.269E-01    4.408E-01    4.547E-01    4.686E-01
     4.825E-01    4.964E-01    5.102E-01    5.241E-01    5.380E-01    5.519E-01    5.657E-01    5.796E-01    5.935E-01    6.073E-01
     6.212E-01    6.351E-01    6.489E-01    6.628E-01    6.766E-01    6.905E-01    7.043E-01    7.182E-01    7.320E-01    7.458E-01
     7.597E-01    7.735E-01    7.874E-01    8.012E-01    8.150E-01    8.288E-01    8.427E-01    8.565E-01    8.703E-01    8.841E-01
     8.979E-01    9.118E-01    9.256E-01    9.394E-01    9.532E-01    9.670E-01    9.808E-01    9.946E-01    1.008E+00    1.022E+00
     1.036E+00    1.050E+00    1.064E+00    1.077E+00    1.091E+00    1.105E+00    1.119E+00    1.132E+00    1.146E+00    1.160E+00
     1.174E+00    1.187E+00    1.201E+00    1.215E+00    1.229E+00    1.242E+00    1.256E+00    1.270E+00    1.284E+00    1.297E+00
     1.311E+00    1.325E+00    1.339E+00    1.352E+00    1.366E+00    1.380E+00    1.394E+00    1.407E+00    1.421E+00    1.435E+00
     1.448E+00    1.462E+00    1.476E+00    1.490E+00    1.503E+00    1.517E+00    1.531E+00    1.544E+00    1.558E+00    1.572E+00
     1.585E+00    1.599E+00    1.613E+00    1.626E+00    1.640E+00    1.654E+00    1.667E+00    1.681E+00    1.695E+00    1.708E+00
     1.722E+00    1.736E+00    1.749E+00    1.763E+00    1.776E+00    1.790E+00    1.804E+00    1.817E+00    1.831E+00    1.845E+00
     1.858E+00    1.872E+00    1.885E+00    1.899E+00    1.913E+00    1.926E+00    1.940E+00    1.953E+00    1.967E+00    1.980E+00
     1.994E+00    2.008E+00    2.021E+00    2.035E+00    2.048E+00    2.062E+00    2.075E+00    2.089E+00    2.102E+00    2.116E+00
     2.130E+00    2.143E+00    2.157E+00    2.170E+00    2.184E+00    2.197E+00    2.211E+00    2.224E+00
 Ala      Conc. = 6.48E+01
