 LCModel (Version 6.3-1L) Copyright: S.W. Provencher.          Ref.: Magn. Reson. Med. 30:672-679 (1993).                
 Slice#1 Row#6 Col#3  PD_24_press_1_raw_act
 36 lines in following concentration table = NCONC+1
    Conc.  %SD /Cr+PCr  Metabolite                                         
  378.456  29%   0.526 Ala                                                 
    0.000 999%   0.000 Asp                                                 
    0.000 999%   0.000 Cr                                                  
  719.084   6%   1.000 PCr                                                 
   88.326 106%   0.123 GABA                                                
   38.453 234% 5.3E-02 Glc                                                 
  636.617  37%   0.885 Gln                                                 
 1.35E+03  20%   1.883 Glu                                                 
  278.073   6%   0.387 GPC                                                 
    0.000 999%   0.000 PCh                                                 
  381.829  16%   0.531 GSH                                                 
 1.19E+03  15%   1.649 Ins                                                 
    0.000 999%   0.000 Lac                                                 
 1.34E+03   4%   1.868 NAA                                                 
    0.000 999%   0.000 NAAG                                                
   65.265  29% 9.1E-02 Scyllo                                              
   46.054 280% 6.4E-02 Tau                                                 
    8.296 934% 1.2E-02 -CrCH2                                              
  278.073   6%   0.387 GPC+PCh                                             
 1.34E+03   4%   1.868 NAA+NAAG                                            
  719.084   6%   1.000 Cr+PCr                                              
 1.99E+03  20%   2.768 Glu+Gln                                             
   35.956 215% 5.0E-02 Lip13a                                              
    0.000 999%   0.000 Lip13b                                              
    0.000 999%   0.000 Lip09                                               
  771.808  14%   1.073 MM09                                                
    6.705 286% 9.3E-03 Lip20                                               
 1.49E+03  12%   2.067 MM20                                                
  233.141  23%   0.324 MM12                                                
 1.11E+03  13%   1.545 MM14                                                
  391.911  27%   0.545 MM17                                                
   35.956 215% 5.0E-02 Lip13a+Lip13b                                       
 1.38E+03  11%   1.919 MM14+Lip13a+Lip13b+MM12                             
  771.808  14%   1.073 MM09+Lip09                                          
 1.49E+03  12%   2.077 MM20+Lip20                                          
   6 lines in following misc. output table
  FWHM = 0.076 ppm    S/N =   8                                            
  Data shift = 0.023 ppm                                                   
  Ph: -16 deg       6.5 deg/ppm                                            
  alphaB,S = 8.5E+01,   3.3E+02                                            
   14 spline knots.   Ns = 8(1)                                            
   2 inflections.     1 extrema                                            
  498 points on ppm-axis = NY
      4.000000     3.992357     3.984714     3.977070     3.969427     3.961784     3.954141     3.946497     3.938854     3.931211
      3.923568     3.915925     3.908281     3.900638     3.892995     3.885352     3.877708     3.870065     3.862422     3.854779
      3.847136     3.839492     3.831849     3.824206     3.816563     3.808919     3.801276     3.793633     3.785990     3.778347
      3.770703     3.763060     3.755417     3.747774     3.740130     3.732487     3.724844     3.717201     3.709558     3.701914
      3.694271     3.686628     3.678985     3.671341     3.663698     3.656055     3.648412     3.640769     3.633125     3.625482
      3.617839     3.610196     3.602552     3.594909     3.587266     3.579623     3.571980     3.564336     3.556693     3.549050
      3.541407     3.533763     3.526120     3.518477     3.510834     3.503191     3.495547     3.487904     3.480261     3.472618
      3.464974     3.457331     3.449688     3.442045     3.434402     3.426758     3.419115     3.411472     3.403829     3.396185
      3.388542     3.380899     3.373256     3.365613     3.357969     3.350326     3.342683     3.335040     3.327396     3.319753
      3.312110     3.304467     3.296824     3.289180     3.281537     3.273894     3.266251     3.258607     3.250964     3.243321
      3.235678     3.228034     3.220391     3.212748     3.205105     3.197462     3.189818     3.182175     3.174532     3.166889
      3.159245     3.151602     3.143959     3.136316     3.128673     3.121029     3.113386     3.105743     3.098100     3.090456
      3.082813     3.075170     3.067527     3.059884     3.052240     3.044597     3.036954     3.029311     3.021667     3.014024
      3.006381     2.998738     2.991095     2.983451     2.975808     2.968165     2.960522     2.952878     2.945235     2.937592
      2.929949     2.922306     2.914662     2.907019     2.899376     2.891733     2.884089     2.876446     2.868803     2.861160
      2.853517     2.845873     2.838230     2.830587     2.822944     2.815300     2.807657     2.800014     2.792371     2.784728
      2.777084     2.769441     2.761798     2.754155     2.746511     2.738868     2.731225     2.723582     2.715939     2.708295
      2.700652     2.693009     2.685366     2.677722     2.670079     2.662436     2.654793     2.647150     2.639506     2.631863
      2.624220     2.616577     2.608933     2.601290     2.593647     2.586004     2.578361     2.570717     2.563074     2.555431
      2.547788     2.540144     2.532501     2.524858     2.517215     2.509572     2.501928     2.494285     2.486642     2.478999
      2.471355     2.463712     2.456069     2.448426     2.440783     2.433139     2.425496     2.417853     2.410210     2.402566
      2.394923     2.387280     2.379637     2.371994     2.364350     2.356707     2.349064     2.341421     2.333777     2.326134
      2.318491     2.310848     2.303205     2.295561     2.287918     2.280275     2.272632     2.264988     2.257345     2.249702
      2.242059     2.234416     2.226772     2.219129     2.211486     2.203843     2.196199     2.188556     2.180913     2.173270
      2.165627     2.157983     2.150340     2.142697     2.135054     2.127410     2.119767     2.112124     2.104481     2.096838
      2.089194     2.081551     2.073908     2.066265     2.058621     2.050978     2.043335     2.035692     2.028049     2.020405
      2.012762     2.005119     1.997476     1.989833     1.982190     1.974546     1.966903     1.959260     1.951617     1.943974
      1.936331     1.928688     1.921045     1.913402     1.905759     1.898115     1.890472     1.882829     1.875186     1.867543
      1.859900     1.852257     1.844614     1.836971     1.829327     1.821684     1.814041     1.806398     1.798755     1.791112
      1.783469     1.775826     1.768183     1.760540     1.752896     1.745253     1.737610     1.729967     1.722324     1.714681
      1.707038     1.699395     1.691752     1.684108     1.676465     1.668822     1.661179     1.653536     1.645893     1.638250
      1.630607     1.622964     1.615321     1.607677     1.600034     1.592391     1.584748     1.577105     1.569462     1.561819
      1.554176     1.546533     1.538890     1.531246     1.523603     1.515960     1.508317     1.500674     1.493031     1.485388
      1.477745     1.470102     1.462458     1.454815     1.447172     1.439529     1.431886     1.424243     1.416600     1.408957
      1.401314     1.393671     1.386027     1.378384     1.370741     1.363098     1.355455     1.347812     1.340169     1.332526
      1.324883     1.317240     1.309596     1.301953     1.294310     1.286667     1.279024     1.271381     1.263738     1.256095
      1.248452     1.240808     1.233165     1.225522     1.217879     1.210236     1.202593     1.194950     1.187307     1.179664
      1.172021     1.164377     1.156734     1.149091     1.141448     1.133805     1.126162     1.118519     1.110876     1.103233
      1.095590     1.087946     1.080303     1.072660     1.065017     1.057374     1.049731     1.042088     1.034445     1.026802
      1.019158     1.011515     1.003872     0.996229     0.988586     0.980943     0.973300     0.965657     0.958014     0.950371
      0.942727     0.935084     0.927441     0.919798     0.912155     0.904512     0.896869     0.889226     0.881583     0.873940
      0.866296     0.858653     0.851010     0.843367     0.835724     0.828081     0.820438     0.812795     0.805152     0.797508
      0.789865     0.782222     0.774579     0.766936     0.759293     0.751650     0.744007     0.736364     0.728721     0.721077
      0.713434     0.705791     0.698148     0.690505     0.682862     0.675219     0.667576     0.659933     0.652290     0.644646
      0.637003     0.629360     0.621717     0.614074     0.606431     0.598788     0.591145     0.583502     0.575858     0.568215
      0.560572     0.552929     0.545286     0.537643     0.530000     0.522357     0.514714     0.507071     0.499427     0.491784
      0.484141     0.476498     0.468855     0.461212     0.453569     0.445925     0.438282     0.430639     0.422996     0.415353
      0.407710     0.400067     0.392424     0.384780     0.377137     0.369494     0.361851     0.354208     0.346565     0.338922
      0.331278     0.323635     0.315992     0.308349     0.300706     0.293063     0.285420     0.277777     0.270133     0.262490
      0.254847     0.247204     0.239561     0.231918     0.224275     0.216631     0.208988     0.201345
 NY phased data points follow
   5.80132E+00  6.45695E+00  9.47419E+00  6.72644E+00  1.39528E+01  1.18330E+01  1.11484E+01  1.49990E+01  1.66689E+01  1.73272E+01
   1.48789E+01  1.37908E+01  1.18038E+01  1.17262E+01  9.19094E+00  8.73774E+00  8.44444E+00  7.64600E+00  7.55066E+00  7.55327E+00
   7.79409E+00  7.10909E+00  7.85853E+00  8.73177E+00  6.04870E+00  8.78674E+00  1.04659E+01  8.40842E+00  6.94747E+00  9.44796E+00
   1.10799E+01  9.50266E+00  8.46384E+00  7.09186E+00  8.54404E+00  1.01445E+01  4.40717E+00  1.04679E+01  5.01612E+00  5.50854E+00
   8.55433E+00  5.06403E+00  5.82302E+00  7.78200E+00  8.13136E+00  1.21000E+01  1.35188E+01  7.99666E+00  5.44038E+00  1.01749E+01
   6.78853E+00  9.16899E+00  3.83661E+00  6.37902E+00  7.44031E+00  4.52324E+00  5.32288E+00  5.10568E+00  4.33480E+00  4.12937E+00
   4.34135E+00  6.64278E+00  4.63902E+00  2.52721E+00  5.23372E+00  1.35541E+00  2.92739E+00  3.51361E+00  1.05133E+00  3.90520E+00
   3.23243E+00  2.72443E+00  5.35603E+00  4.02037E+00  2.63863E+00  4.38125E+00  2.24534E+00  1.92449E+00  1.22673E+00  2.16397E+00
   2.49561E+00  2.16890E+00  4.18986E+00  5.31398E+00  6.50182E+00  4.91928E+00  2.30306E+00 -1.82877E-01  2.81928E+00  1.32876E+00
   3.59608E+00  4.81280E+00  7.31991E+00  7.67543E+00  1.96266E+00  1.47557E+00  2.03188E+00  7.89491E+00  5.27371E+00  1.01396E+01
   1.40748E+01  2.29985E+01  2.10494E+01  2.32796E+01  2.24998E+01  1.67753E+01  1.86349E+01  1.25581E+01  9.48894E+00  1.03848E+01
   6.22358E+00  5.35736E+00  6.00090E+00  5.06424E+00  4.11969E+00  5.96741E+00  1.73899E+00  7.05594E+00  8.78421E-01  5.95612E+00
  -2.61036E-01  6.37249E+00  9.02590E+00  1.39715E+01  1.57524E+01  1.67075E+01  2.44590E+01  2.22931E+01  2.07508E+01  1.88586E+01
   1.69017E+01  1.57626E+01  1.15883E+01  7.09779E+00  7.74056E+00  6.43177E+00  5.97375E+00  6.05329E+00  5.49923E+00  7.08811E+00
   5.85758E+00  3.78925E+00  3.35136E+00  1.08587E+00  2.56846E+00  3.50874E+00  1.67892E+00  1.74871E+00 -1.77365E+00  6.47923E-02
  -2.65620E+00  1.31880E-01  1.12926E+00  8.11756E-02 -1.41016E+00  8.18948E-01  3.11342E+00  2.90172E+00  1.98171E+00  2.08366E+00
  -1.65237E+00  1.46985E+00  1.22141E+00  3.38687E+00  1.85982E+00  2.64686E+00  2.16476E+00 -1.63355E+00 -1.78494E+00 -3.69729E+00
  -3.67252E+00 -1.80450E+00 -3.62764E+00 -3.57985E+00 -3.94356E+00 -6.40514E+00 -3.28648E+00 -6.12012E+00 -6.03098E+00 -6.83853E+00
  -8.28130E+00 -6.68673E+00 -7.55871E+00 -3.50387E+00 -5.78431E+00  1.88608E-02 -4.00401E+00 -9.97965E-01 -5.29695E+00 -1.22327E+00
  -3.34851E+00  1.79739E+00  8.94889E-01 -1.53025E+00 -5.31704E-02 -2.53360E+00 -2.99115E+00 -2.30956E+00 -3.00402E+00 -2.17752E+00
  -3.52914E+00 -5.96633E-01 -4.49825E-02 -2.43868E+00  2.16667E+00 -9.25685E-02  2.54130E+00 -1.19230E+00 -2.43722E-01 -4.03949E+00
   2.96097E+00 -1.60428E+00  3.05533E+00  5.86723E+00  9.60909E+00  6.85849E+00  6.62405E+00  5.90026E+00  4.81031E+00  2.41491E-01
   1.07327E+00  7.05404E-01  2.91428E+00 -1.32712E+00 -1.24702E+00  2.44814E+00  3.97373E+00  1.00514E+00  4.12502E+00  2.44195E+00
   3.95298E+00  8.21868E+00  8.47110E+00  3.62690E+00  4.38437E+00  7.93852E+00  5.49399E+00  6.37143E+00  6.17629E+00  5.01807E+00
   6.97472E+00  3.26139E+00  3.04961E+00  8.68372E+00  6.62196E+00  2.75444E+00  7.27134E+00  1.04910E+01  1.04456E+01  9.31271E+00
   4.83492E+00  9.00529E+00  9.88651E+00  7.29795E+00  1.35375E+01  2.25969E+01  2.53146E+01  3.22663E+01  3.69220E+01  4.20428E+01
   4.54589E+01  4.13867E+01  3.66375E+01  3.45754E+01  2.35820E+01  2.31645E+01  1.48126E+01  1.31379E+01  1.04488E+01  8.41343E+00
   4.10998E+00  3.46538E+00  3.62827E+00  6.50397E+00  6.09350E+00  2.29193E+00  1.34742E+00  2.64377E+00  2.33138E+00  2.15492E+00
   4.15678E+00  9.96878E-01  2.72483E+00  1.85599E+00  9.33685E-01 -3.83415E-01 -2.44027E-01  4.41442E+00 -2.52473E+00  1.07798E+00
   2.67819E-01  2.40904E+00  1.12549E+00 -1.89879E+00  1.26600E+00  1.88093E+00  2.45148E+00  1.22261E+00 -1.36859E-01  1.20430E+00
   7.28114E-01  2.68400E+00  1.36286E+00  3.73500E+00  1.58705E+00 -2.54248E-01  4.18017E+00  6.49905E+00  4.67230E+00  3.22254E+00
   2.58289E+00  6.53369E+00  3.65449E+00  6.03955E+00  7.20381E+00  1.58601E+00  6.12542E+00  4.86866E+00  4.21190E+00  7.84552E+00
   2.20794E+00  7.86564E+00  4.07216E+00  7.97696E+00  1.00139E+01  6.35738E+00  6.45238E+00  5.84128E+00  3.22862E+00  4.33488E+00
   4.87912E+00  6.06809E+00  7.22839E+00  6.32208E+00  3.35476E+00  8.46918E+00  7.43319E+00  5.27826E+00  7.49343E+00  9.02650E+00
   8.91568E+00  9.94581E+00  8.17185E+00  1.31958E+01  8.47879E+00  8.64402E+00  6.97183E+00  1.51340E+01  7.69434E+00  1.00823E+01
   5.66652E+00  4.47352E+00  5.99851E+00  4.37312E+00  4.35874E+00  4.88010E+00  5.52340E+00  2.26701E+00 -8.16676E-02  4.85604E+00
   1.09166E+00  1.63016E+00  1.30273E+00 -9.38652E-01  3.06956E+00  3.89679E+00 -7.44685E-01 -3.08384E-01 -1.38142E+00  8.12373E+00
   4.16116E+00  5.97343E-02  5.28688E+00  3.28336E+00  3.52146E+00  3.44151E+00  3.44928E+00  4.78211E-01  1.85408E+00  5.74123E+00
   4.66258E+00  1.42024E+00  1.10263E+00  1.49249E+00  4.05139E+00  1.38190E+00 -9.26241E-02  2.12034E+00  2.67605E+00  7.85962E-01
   3.75181E+00  2.40612E+00  7.22449E-02  3.70905E+00  4.66137E+00  1.11557E+00  8.07961E+00 -1.30647E+00  3.44467E+00  4.91477E+00
   4.07339E+00  4.78573E+00  4.25208E-01  3.19943E+00  4.43603E+00  4.75723E+00  2.88508E+00  3.53208E+00  9.99789E-01  1.93958E+00
   1.30524E+00  2.29000E-01  6.09454E+00  5.63764E-01 -6.06152E-01  2.23367E+00  3.59027E+00  4.47893E+00  1.13465E+00 -6.96128E-01
   4.83881E+00  1.48787E+00  2.09329E+00 -1.05519E+00  1.53538E+00  1.99693E+00  1.30804E+00 -1.72367E-01  1.20865E+00  3.48390E+00
  -1.33264E+00  1.68664E+00  8.95709E-01  3.25328E-01  2.25832E+00 -1.20729E+00  5.30079E-01  2.52998E+00  1.70388E+00  1.43165E+00
   5.19729E+00 -3.52410E-02  2.21395E+00  2.95675E-01 -5.93660E-01  3.44466E+00  3.97829E-01  1.83580E+00  3.75863E-01  2.94478E+00
  -3.14134E+00  2.19804E+00 -1.28342E+00  6.77892E-01  2.33465E+00 -2.80115E-01  8.04034E-01  1.69442E+00  4.32079E+00 -6.84258E-01
   1.44903E-01  1.81861E+00 -1.49034E+00  1.92187E+00  1.01750E+00  4.48201E+00  1.87239E+00 -1.74370E+00 -3.74070E+00 -9.18421E-01
   5.16234E-01 -2.31757E+00  3.64169E+00 -8.48544E-01  4.12293E-01  3.43797E+00 -8.72154E-01 -4.16156E-01  1.54886E+00  1.61232E+00
  -1.69679E+00  8.11807E-01  6.61716E-01 -1.40732E+00  1.13747E-02  2.04130E+00  7.85100E-01  9.72160E-01  4.05311E+00 -2.85088E-01
  -3.04732E-01  2.63964E+00 -1.50711E+00  1.62399E+00 -3.46996E+00  2.14547E+00 -2.03957E+00  3.78508E-01
 NY points of the fit to the data follow
   5.07596E+00  5.09346E+00  5.80025E+00  7.19508E+00  9.05212E+00  1.11441E+01  1.32216E+01  1.49539E+01  1.60549E+01  1.63718E+01
   1.59198E+01  1.48616E+01  1.34339E+01  1.18696E+01  1.03466E+01  8.93764E+00  7.65072E+00  6.52337E+00  5.65893E+00  5.23379E+00
   5.17893E+00  5.26335E+00  5.51077E+00  5.90863E+00  6.45660E+00  7.17158E+00  8.05975E+00  9.05824E+00  1.00076E+01  1.07475E+01
   1.11669E+01  1.11903E+01  1.08067E+01  1.00661E+01  9.07846E+00  7.98688E+00  6.88685E+00  5.85012E+00  4.99882E+00  4.61740E+00
   4.82957E+00  5.47343E+00  6.43806E+00  7.58215E+00  8.72023E+00  9.63028E+00  1.00971E+01  1.00341E+01  9.47403E+00  8.54049E+00
   7.43460E+00  6.35655E+00  5.45169E+00  4.80589E+00  4.41339E+00  4.19973E+00  4.15275E+00  4.30771E+00  4.56946E+00  4.74254E+00
   4.72083E+00  4.53444E+00  4.24661E+00  3.93580E+00  3.69043E+00  3.56300E+00  3.55751E+00  3.63356E+00  3.75441E+00  3.91804E+00
   4.10448E+00  4.26979E+00  4.37639E+00  4.38980E+00  4.31045E+00  4.15625E+00  3.95909E+00  3.76686E+00  3.64597E+00  3.64220E+00
   3.71270E+00  3.80464E+00  3.88401E+00  3.89159E+00  3.78531E+00  3.55876E+00  3.24278E+00  2.89136E+00  2.57825E+00  2.35590E+00
   2.22991E+00  2.17761E+00  2.15869E+00  2.14313E+00  2.17424E+00  2.57823E+00  3.90953E+00  6.21723E+00  9.23409E+00  1.26373E+01
   1.60460E+01  1.89937E+01  2.10078E+01  2.17645E+01  2.12164E+01  1.95969E+01  1.72957E+01  1.46911E+01  1.20767E+01  9.60500E+00
   7.29471E+00  5.15069E+00  3.31324E+00  2.15140E+00  1.79755E+00  1.73608E+00  1.75784E+00  1.85450E+00  2.12386E+00  2.92869E+00
   4.59760E+00  7.07690E+00  1.01397E+01  1.34679E+01  1.66826E+01  1.93727E+01  2.11392E+01  2.17157E+01  2.10871E+01  1.94550E+01
   1.71271E+01  1.44478E+01  1.16961E+01  9.05221E+00  6.61707E+00  4.49507E+00  2.90595E+00  2.16218E+00  2.09462E+00  2.21209E+00
   2.33732E+00  2.42108E+00  2.46557E+00  2.48536E+00  2.44849E+00  2.32862E+00  2.13795E+00  1.88643E+00  1.60389E+00  1.34125E+00
   1.12237E+00  9.73172E-01  8.75251E-01  7.84406E-01  6.70837E-01  5.27677E-01  3.66218E-01  2.19977E-01  1.08798E-01  3.36740E-02
  -7.28961E-03 -2.06320E-02 -2.63587E-02 -5.42448E-02 -1.28202E-01 -2.52900E-01 -4.16789E-01 -6.07444E-01 -8.23648E-01 -1.06648E+00
  -1.32222E+00 -1.59206E+00 -1.84847E+00 -2.06645E+00 -2.22330E+00 -2.29166E+00 -2.30209E+00 -2.29730E+00 -2.30151E+00 -2.33886E+00
  -2.39683E+00 -2.41807E+00 -2.33744E+00 -2.10487E+00 -1.70389E+00 -1.16419E+00 -5.52840E-01  7.24074E-02  6.49396E-01  1.07117E+00
   1.25950E+00  1.20331E+00  9.78007E-01  7.12858E-01  5.16659E-01  4.70876E-01  6.30570E-01  1.00372E+00  1.58611E+00  2.32552E+00
   3.08617E+00  3.71085E+00  3.99664E+00  3.83149E+00  3.23272E+00  2.28118E+00  1.12370E+00  3.31497E-05 -7.76334E-01 -9.43358E-01
  -4.76059E-01  5.13339E-01  1.80837E+00  3.13086E+00  4.16108E+00  4.59398E+00  4.31304E+00  3.43671E+00  2.19311E+00  8.51869E-01
  -3.48470E-01 -1.11854E+00 -1.33107E+00 -1.09296E+00 -5.40050E-01  2.29492E-01  1.14785E+00  2.08677E+00  2.86068E+00  3.50328E+00
   4.08335E+00  4.59985E+00  4.98720E+00  5.21303E+00  5.35754E+00  5.44725E+00  5.42328E+00  5.28780E+00  5.09423E+00  4.88039E+00
   4.68156E+00  4.54158E+00  4.52423E+00  4.66254E+00  4.91268E+00  5.20312E+00  5.50337E+00  5.84732E+00  6.21871E+00  6.60865E+00
   7.04926E+00  7.63151E+00  8.92777E+00  1.16423E+01  1.58013E+01  2.10900E+01  2.69668E+01  3.27403E+01  3.76042E+01  4.07788E+01
   4.17434E+01  4.04470E+01  3.73120E+01  3.30041E+01  2.81858E+01  2.33576E+01  1.87538E+01  1.44043E+01  1.03451E+01  6.90095E+00
   4.79886E+00  4.03753E+00  3.71441E+00  3.52936E+00  3.40875E+00  3.30568E+00  3.17380E+00  3.01726E+00  2.84583E+00  2.66432E+00
   2.48021E+00  2.30259E+00  2.13445E+00  1.98439E+00  1.86509E+00  1.77865E+00  1.71933E+00  1.68150E+00  1.65950E+00  1.65010E+00
   1.65065E+00  1.65703E+00  1.67113E+00  1.69589E+00  1.73285E+00  1.78465E+00  1.85350E+00  1.93927E+00  2.04080E+00  2.15694E+00
   2.28650E+00  2.42707E+00  2.57580E+00  2.73000E+00  2.88612E+00  3.04101E+00  3.19174E+00  3.33571E+00  3.47079E+00  3.59555E+00
   3.70938E+00  3.81269E+00  3.90725E+00  3.99659E+00  4.08613E+00  4.18333E+00  4.29886E+00  4.44893E+00  4.66249E+00  4.99894E+00
   5.48685E+00  6.02984E+00  6.51510E+00  6.84389E+00  6.93303E+00  6.71699E+00  6.16103E+00  5.32466E+00  4.43629E+00  3.72895E+00
   3.36381E+00  3.42008E+00  3.89707E+00  4.71165E+00  5.72213E+00  6.77877E+00  7.77466E+00  8.65889E+00  9.34092E+00  9.70365E+00
   9.79471E+00  9.68497E+00  9.40947E+00  8.97489E+00  8.39424E+00  7.76013E+00  7.21589E+00  6.74445E+00  6.30756E+00  5.89360E+00
   5.50017E+00  5.12807E+00  4.77914E+00  4.45529E+00  4.15801E+00  3.88811E+00  3.64563E+00  3.42994E+00  3.23976E+00  3.07336E+00
   2.92858E+00  2.80304E+00  2.69428E+00  2.59987E+00  2.51757E+00  2.44535E+00  2.38149E+00  2.32458E+00  2.27357E+00  2.22779E+00
   2.18692E+00  2.15095E+00  2.12009E+00  2.09483E+00  2.07583E+00  2.06390E+00  2.05995E+00  2.06494E+00  2.07980E+00  2.10545E+00
   2.14277E+00  2.19254E+00  2.25540E+00  2.33180E+00  2.42198E+00  2.52595E+00  2.64345E+00  2.77388E+00  2.91631E+00  3.06939E+00
   3.23138E+00  3.40014E+00  3.57318E+00  3.74762E+00  3.92026E+00  4.08766E+00  4.24626E+00  4.39247E+00  4.52279E+00  4.63395E+00
   4.72299E+00  4.78743E+00  4.82536E+00  4.83554E+00  4.81743E+00  4.77121E+00  4.69773E+00  4.59853E+00  4.47577E+00  4.33207E+00
   4.17045E+00  3.99415E+00  3.80652E+00  3.61093E+00  3.41064E+00  3.20870E+00  3.00785E+00  2.81049E+00  2.61864E+00  2.43394E+00
   2.25766E+00  2.09071E+00  1.93364E+00  1.78670E+00  1.64994E+00  1.52318E+00  1.40610E+00  1.29825E+00  1.19910E+00  1.10804E+00
   1.02450E+00  9.47866E-01  8.77564E-01  8.13020E-01  7.53687E-01  6.99067E-01  6.48711E-01  6.02212E-01  5.59191E-01  5.19301E-01
   4.82224E-01  4.47691E-01  4.15465E-01  3.85335E-01  3.57100E-01  3.30575E-01  3.05598E-01  2.82038E-01  2.59779E-01  2.38714E-01
   2.18734E-01  1.99743E-01  1.81659E-01  1.64424E-01  1.47976E-01  1.32255E-01  1.17196E-01  1.02745E-01  8.88622E-02  7.55181E-02
   6.26779E-02  5.03023E-02  3.83503E-02  2.67934E-02  1.56129E-02  4.79271E-03 -5.69258E-03 -1.58712E-02 -2.57685E-02 -3.53965E-02
  -4.47627E-02 -5.38763E-02 -6.27578E-02 -7.14281E-02 -7.99020E-02 -8.81820E-02 -9.62719E-02 -1.04181E-01 -1.11929E-01 -1.19530E-01
  -1.26991E-01 -1.34309E-01 -1.41488E-01 -1.48538E-01 -1.55475E-01 -1.62308E-01 -1.69036E-01 -1.75655E-01 -1.82170E-01 -1.88594E-01
  -1.94938E-01 -2.01205E-01 -2.07391E-01 -2.13491E-01 -2.19514E-01 -2.25471E-01 -2.31368E-01 -2.37200E-01
 NY background values follow
     7.783E-01    7.757E-01    7.731E-01    7.705E-01    7.679E-01    7.653E-01    7.627E-01    7.601E-01    7.575E-01    7.549E-01
     7.523E-01    7.496E-01    7.470E-01    7.444E-01    7.418E-01    7.392E-01    7.366E-01    7.340E-01    7.314E-01    7.288E-01
     7.262E-01    7.236E-01    7.210E-01    7.184E-01    7.158E-01    7.132E-01    7.106E-01    7.080E-01    7.054E-01    7.028E-01
     7.002E-01    6.976E-01    6.950E-01    6.924E-01    6.898E-01    6.872E-01    6.846E-01    6.820E-01    6.794E-01    6.768E-01
     6.742E-01    6.716E-01    6.690E-01    6.664E-01    6.637E-01    6.611E-01    6.585E-01    6.559E-01    6.533E-01    6.507E-01
     6.481E-01    6.455E-01    6.429E-01    6.403E-01    6.377E-01    6.351E-01    6.325E-01    6.299E-01    6.273E-01    6.247E-01
     6.221E-01    6.195E-01    6.169E-01    6.143E-01    6.117E-01    6.090E-01    6.064E-01    6.038E-01    6.012E-01    5.986E-01
     5.960E-01    5.934E-01    5.908E-01    5.882E-01    5.856E-01    5.830E-01    5.804E-01    5.778E-01    5.752E-01    5.726E-01
     5.700E-01    5.674E-01    5.647E-01    5.621E-01    5.595E-01    5.569E-01    5.543E-01    5.517E-01    5.491E-01    5.465E-01
     5.439E-01    5.413E-01    5.387E-01    5.361E-01    5.335E-01    5.309E-01    5.283E-01    5.257E-01    5.230E-01    5.204E-01
     5.178E-01    5.152E-01    5.126E-01    5.100E-01    5.074E-01    5.048E-01    5.022E-01    4.996E-01    4.970E-01    4.944E-01
     4.918E-01    4.892E-01    4.866E-01    4.839E-01    4.813E-01    4.787E-01    4.761E-01    4.735E-01    4.709E-01    4.683E-01
     4.657E-01    4.631E-01    4.605E-01    4.579E-01    4.553E-01    4.527E-01    4.501E-01    4.474E-01    4.448E-01    4.422E-01
     4.396E-01    4.370E-01    4.344E-01    4.318E-01    4.292E-01    4.266E-01    4.240E-01    4.214E-01    4.188E-01    4.162E-01
     4.135E-01    4.109E-01    4.083E-01    4.057E-01    4.031E-01    4.005E-01    3.979E-01    3.953E-01    3.927E-01    3.901E-01
     3.875E-01    3.849E-01    3.823E-01    3.797E-01    3.770E-01    3.744E-01    3.718E-01    3.692E-01    3.666E-01    3.640E-01
     3.614E-01    3.588E-01    3.562E-01    3.536E-01    3.510E-01    3.484E-01    3.458E-01    3.431E-01    3.405E-01    3.379E-01
     3.353E-01    3.327E-01    3.301E-01    3.275E-01    3.249E-01    3.223E-01    3.197E-01    3.171E-01    3.145E-01    3.119E-01
     3.093E-01    3.067E-01    3.040E-01    3.014E-01    2.988E-01    2.962E-01    2.936E-01    2.910E-01    2.884E-01    2.858E-01
     2.832E-01    2.806E-01    2.780E-01    2.754E-01    2.728E-01    2.702E-01    2.676E-01    2.649E-01    2.623E-01    2.597E-01
     2.571E-01    2.545E-01    2.519E-01    2.493E-01    2.467E-01    2.441E-01    2.415E-01    2.389E-01    2.363E-01    2.337E-01
     2.311E-01    2.285E-01    2.259E-01    2.232E-01    2.206E-01    2.180E-01    2.154E-01    2.128E-01    2.102E-01    2.076E-01
     2.050E-01    2.024E-01    1.998E-01    1.972E-01    1.946E-01    1.920E-01    1.894E-01    1.868E-01    1.842E-01    1.816E-01
     1.790E-01    1.763E-01    1.737E-01    1.711E-01    1.685E-01    1.659E-01    1.633E-01    1.607E-01    1.581E-01    1.555E-01
     1.529E-01    1.503E-01    1.477E-01    1.451E-01    1.425E-01    1.399E-01    1.373E-01    1.347E-01    1.321E-01    1.295E-01
     1.269E-01    1.243E-01    1.216E-01    1.190E-01    1.164E-01    1.138E-01    1.112E-01    1.086E-01    1.060E-01    1.034E-01
     1.008E-01    9.821E-02    9.560E-02    9.300E-02    9.039E-02    8.779E-02    8.519E-02    8.258E-02    7.998E-02    7.738E-02
     7.477E-02    7.217E-02    6.956E-02    6.696E-02    6.436E-02    6.175E-02    5.915E-02    5.655E-02    5.394E-02    5.134E-02
     4.873E-02    4.613E-02    4.353E-02    4.092E-02    3.832E-02    3.572E-02    3.312E-02    3.051E-02    2.791E-02    2.531E-02
     2.270E-02    2.010E-02    1.750E-02    1.489E-02    1.229E-02    9.688E-03    7.085E-03    4.483E-03    1.880E-03   -7.227E-04
    -3.325E-03   -5.928E-03   -8.530E-03   -1.113E-02   -1.374E-02   -1.634E-02   -1.894E-02   -2.154E-02   -2.414E-02   -2.675E-02
    -2.935E-02   -3.195E-02   -3.455E-02   -3.716E-02   -3.976E-02   -4.236E-02   -4.496E-02   -4.756E-02   -5.017E-02   -5.277E-02
    -5.537E-02   -5.797E-02   -6.057E-02   -6.317E-02   -6.578E-02   -6.838E-02   -7.098E-02   -7.358E-02   -7.618E-02   -7.878E-02
    -8.138E-02   -8.398E-02   -8.659E-02   -8.919E-02   -9.179E-02   -9.439E-02   -9.699E-02   -9.959E-02   -1.022E-01   -1.048E-01
    -1.074E-01   -1.100E-01   -1.126E-01   -1.152E-01   -1.178E-01   -1.204E-01   -1.230E-01   -1.256E-01   -1.282E-01   -1.308E-01
    -1.334E-01   -1.360E-01   -1.386E-01   -1.412E-01   -1.438E-01   -1.464E-01   -1.490E-01   -1.516E-01   -1.542E-01   -1.568E-01
    -1.594E-01   -1.620E-01   -1.646E-01   -1.672E-01   -1.698E-01   -1.724E-01   -1.750E-01   -1.776E-01   -1.802E-01   -1.828E-01
    -1.854E-01   -1.880E-01   -1.906E-01   -1.932E-01   -1.958E-01   -1.984E-01   -2.010E-01   -2.036E-01   -2.062E-01   -2.088E-01
    -2.114E-01   -2.140E-01   -2.166E-01   -2.192E-01   -2.218E-01   -2.244E-01   -2.270E-01   -2.296E-01   -2.322E-01   -2.348E-01
    -2.374E-01   -2.400E-01   -2.426E-01   -2.452E-01   -2.478E-01   -2.504E-01   -2.530E-01   -2.556E-01   -2.582E-01   -2.607E-01
    -2.633E-01   -2.659E-01   -2.685E-01   -2.711E-01   -2.737E-01   -2.763E-01   -2.789E-01   -2.815E-01   -2.841E-01   -2.867E-01
    -2.893E-01   -2.919E-01   -2.945E-01   -2.971E-01   -2.997E-01   -3.023E-01   -3.049E-01   -3.075E-01   -3.101E-01   -3.127E-01
    -3.153E-01   -3.179E-01   -3.205E-01   -3.231E-01   -3.257E-01   -3.283E-01   -3.309E-01   -3.335E-01   -3.360E-01   -3.386E-01
    -3.412E-01   -3.438E-01   -3.464E-01   -3.490E-01   -3.516E-01   -3.542E-01   -3.568E-01   -3.594E-01   -3.620E-01   -3.646E-01
    -3.672E-01   -3.698E-01   -3.724E-01   -3.750E-01   -3.776E-01   -3.802E-01   -3.828E-01   -3.854E-01   -3.879E-01   -3.905E-01
    -3.931E-01   -3.957E-01   -3.983E-01   -4.009E-01   -4.035E-01   -4.061E-01   -4.087E-01   -4.113E-01   -4.139E-01   -4.165E-01
    -4.191E-01   -4.217E-01   -4.243E-01   -4.269E-01   -4.295E-01   -4.320E-01   -4.346E-01   -4.372E-01   -4.398E-01   -4.424E-01
    -4.450E-01   -4.476E-01   -4.502E-01   -4.528E-01   -4.554E-01   -4.580E-01   -4.606E-01   -4.632E-01   -4.658E-01   -4.683E-01
    -4.709E-01   -4.735E-01   -4.761E-01   -4.787E-01   -4.813E-01   -4.839E-01   -4.865E-01   -4.891E-01   -4.917E-01   -4.943E-01
    -4.969E-01   -4.995E-01   -5.020E-01   -5.046E-01   -5.072E-01   -5.098E-01   -5.124E-01   -5.150E-01
 Ala      Conc. = 3.78E+02
