 LCModel (Version 6.3-1L) Copyright: S.W. Provencher.          Ref.: Magn. Reson. Med. 30:672-679 (1993).                
 Slice#1 Row#13 Col#10  PD_24_press_1_raw_act
 36 lines in following concentration table = NCONC+1
    Conc.  %SD /Cr+PCr  Metabolite                                         
   30.903 114%   0.369 Ala                                                 
   18.086 119%   0.216 Asp                                                 
    0.000 999%   0.000 Cr                                                  
   83.849  21%   1.000 PCr                                                 
   12.014 108%   0.143 GABA                                                
   15.071  86%   0.180 Glc                                                 
   95.150  74%   1.135 Gln                                                 
   73.588 107%   0.878 Glu                                                 
    0.000 999%   0.000 GPC                                                 
   38.408  17%   0.458 PCh                                                 
    0.000 999%   0.000 GSH                                                 
   77.723  98%   0.927 Ins                                                 
    0.000 999%   0.000 Lac                                                 
  263.033   9%   3.137 NAA                                                 
    0.000 999%   0.000 NAAG                                                
    5.504  73% 6.6E-02 Scyllo                                              
   30.265  70%   0.361 Tau                                                 
   22.788  83%   0.272 -CrCH2                                              
   38.408  17%   0.458 GPC+PCh                                             
  263.033   9%   3.137 NAA+NAAG                                            
   83.849  21%   1.000 Cr+PCr                                              
  168.738  61%   2.012 Glu+Gln                                             
    0.000 999%   0.000 Lip13a                                              
    0.000 999%   0.000 Lip13b                                              
    0.165 999% 2.0E-03 Lip09                                               
  240.937  19%   2.873 MM09                                                
 6.37E-02 999% 7.6E-04 Lip20                                               
  388.206  22%   4.630 MM20                                                
   58.336  53%   0.696 MM12                                                
    0.000 999%   0.000 MM14                                                
    0.000 999%   0.000 MM17                                                
    0.000 999%   0.000 Lip13a+Lip13b                                       
   58.336  53%   0.696 MM14+Lip13a+Lip13b+MM12                             
  241.102  19%   2.875 MM09+Lip09                                          
  388.270  22%   4.631 MM20+Lip20                                          
   6 lines in following misc. output table
  FWHM = 0.054 ppm    S/N =   4                                            
  Data shift =-0.046 ppm                                                   
  Ph: -96 deg     -26.0 deg/ppm                                            
  alphaB,S = 8.5E+01,   5.1E+01                                            
   14 spline knots.   Ns = 6(1)                                            
   2 inflections.     1 extrema                                            
  498 points on ppm-axis = NY
      4.000000     3.992357     3.984714     3.977070     3.969427     3.961784     3.954141     3.946497     3.938854     3.931211
      3.923568     3.915925     3.908281     3.900638     3.892995     3.885352     3.877708     3.870065     3.862422     3.854779
      3.847136     3.839492     3.831849     3.824206     3.816563     3.808919     3.801276     3.793633     3.785990     3.778347
      3.770703     3.763060     3.755417     3.747774     3.740130     3.732487     3.724844     3.717201     3.709558     3.701914
      3.694271     3.686628     3.678985     3.671341     3.663698     3.656055     3.648412     3.640769     3.633125     3.625482
      3.617839     3.610196     3.602552     3.594909     3.587266     3.579623     3.571980     3.564336     3.556693     3.549050
      3.541407     3.533763     3.526120     3.518477     3.510834     3.503191     3.495547     3.487904     3.480261     3.472618
      3.464974     3.457331     3.449688     3.442045     3.434402     3.426758     3.419115     3.411472     3.403829     3.396185
      3.388542     3.380899     3.373256     3.365613     3.357969     3.350326     3.342683     3.335040     3.327396     3.319753
      3.312110     3.304467     3.296824     3.289180     3.281537     3.273894     3.266251     3.258607     3.250964     3.243321
      3.235678     3.228034     3.220391     3.212748     3.205105     3.197462     3.189818     3.182175     3.174532     3.166889
      3.159245     3.151602     3.143959     3.136316     3.128673     3.121029     3.113386     3.105743     3.098100     3.090456
      3.082813     3.075170     3.067527     3.059884     3.052240     3.044597     3.036954     3.029311     3.021667     3.014024
      3.006381     2.998738     2.991095     2.983451     2.975808     2.968165     2.960522     2.952878     2.945235     2.937592
      2.929949     2.922306     2.914662     2.907019     2.899376     2.891733     2.884089     2.876446     2.868803     2.861160
      2.853517     2.845873     2.838230     2.830587     2.822944     2.815300     2.807657     2.800014     2.792371     2.784728
      2.777084     2.769441     2.761798     2.754155     2.746511     2.738868     2.731225     2.723582     2.715939     2.708295
      2.700652     2.693009     2.685366     2.677722     2.670079     2.662436     2.654793     2.647150     2.639506     2.631863
      2.624220     2.616577     2.608933     2.601290     2.593647     2.586004     2.578361     2.570717     2.563074     2.555431
      2.547788     2.540144     2.532501     2.524858     2.517215     2.509572     2.501928     2.494285     2.486642     2.478999
      2.471355     2.463712     2.456069     2.448426     2.440783     2.433139     2.425496     2.417853     2.410210     2.402566
      2.394923     2.387280     2.379637     2.371994     2.364350     2.356707     2.349064     2.341421     2.333777     2.326134
      2.318491     2.310848     2.303205     2.295561     2.287918     2.280275     2.272632     2.264988     2.257345     2.249702
      2.242059     2.234416     2.226772     2.219129     2.211486     2.203843     2.196199     2.188556     2.180913     2.173270
      2.165627     2.157983     2.150340     2.142697     2.135054     2.127410     2.119767     2.112124     2.104481     2.096838
      2.089194     2.081551     2.073908     2.066265     2.058621     2.050978     2.043335     2.035692     2.028049     2.020405
      2.012762     2.005119     1.997476     1.989833     1.982190     1.974546     1.966903     1.959260     1.951617     1.943974
      1.936331     1.928688     1.921045     1.913402     1.905759     1.898115     1.890472     1.882829     1.875186     1.867543
      1.859900     1.852257     1.844614     1.836971     1.829327     1.821684     1.814041     1.806398     1.798755     1.791112
      1.783469     1.775826     1.768183     1.760540     1.752896     1.745253     1.737610     1.729967     1.722324     1.714681
      1.707038     1.699395     1.691752     1.684108     1.676465     1.668822     1.661179     1.653536     1.645893     1.638250
      1.630607     1.622964     1.615321     1.607677     1.600034     1.592391     1.584748     1.577105     1.569462     1.561819
      1.554176     1.546533     1.538890     1.531246     1.523603     1.515960     1.508317     1.500674     1.493031     1.485388
      1.477745     1.470102     1.462458     1.454815     1.447172     1.439529     1.431886     1.424243     1.416600     1.408957
      1.401314     1.393671     1.386027     1.378384     1.370741     1.363098     1.355455     1.347812     1.340169     1.332526
      1.324883     1.317240     1.309596     1.301953     1.294310     1.286667     1.279024     1.271381     1.263738     1.256095
      1.248452     1.240808     1.233165     1.225522     1.217879     1.210236     1.202593     1.194950     1.187307     1.179664
      1.172021     1.164377     1.156734     1.149091     1.141448     1.133805     1.126162     1.118519     1.110876     1.103233
      1.095590     1.087946     1.080303     1.072660     1.065017     1.057374     1.049731     1.042088     1.034445     1.026802
      1.019158     1.011515     1.003872     0.996229     0.988586     0.980943     0.973300     0.965657     0.958014     0.950371
      0.942727     0.935084     0.927441     0.919798     0.912155     0.904512     0.896869     0.889226     0.881583     0.873940
      0.866296     0.858653     0.851010     0.843367     0.835724     0.828081     0.820438     0.812795     0.805152     0.797508
      0.789865     0.782222     0.774579     0.766936     0.759293     0.751650     0.744007     0.736364     0.728721     0.721077
      0.713434     0.705791     0.698148     0.690505     0.682862     0.675219     0.667576     0.659933     0.652290     0.644646
      0.637003     0.629360     0.621717     0.614074     0.606431     0.598788     0.591145     0.583502     0.575858     0.568215
      0.560572     0.552929     0.545286     0.537643     0.530000     0.522357     0.514714     0.507071     0.499427     0.491784
      0.484141     0.476498     0.468855     0.461212     0.453569     0.445925     0.438282     0.430639     0.422996     0.415353
      0.407710     0.400067     0.392424     0.384780     0.377137     0.369494     0.361851     0.354208     0.346565     0.338922
      0.331278     0.323635     0.315992     0.308349     0.300706     0.293063     0.285420     0.277777     0.270133     0.262490
      0.254847     0.247204     0.239561     0.231918     0.224275     0.216631     0.208988     0.201345
 NY phased data points follow
  -3.10972E+00 -1.93717E+00 -4.16383E+00 -2.37348E+00  1.77195E+00 -4.76370E+00 -6.37381E-01 -7.26552E-01  1.97791E-01 -2.08160E+00
   7.06139E-01 -1.50056E+00 -8.85999E-01 -3.31795E+00 -1.45059E+00 -1.27333E+00 -3.72849E+00 -1.21340E+00 -3.43991E+00 -1.98995E+00
  -1.81897E+00 -1.75111E+00 -3.33590E+00 -3.85266E+00 -2.72330E-01 -3.47816E+00 -2.49606E+00 -1.12724E+00 -3.00315E+00 -9.89644E-01
  -1.48075E+00 -2.44936E+00 -1.92136E+00 -2.34824E+00 -2.89182E+00 -5.59866E+00 -4.40288E+00 -1.24516E+00 -1.74155E+00 -3.23157E+00
  -2.88711E+00 -1.87995E+00 -1.09622E+00 -3.61951E+00  7.23898E-02 -1.94507E+00 -1.35173E+00  1.09912E+00 -1.90887E+00 -7.63256E-01
  -9.05684E-01  1.88723E-01 -2.17095E+00 -2.33505E+00 -3.41876E-02 -2.99054E+00  2.64259E-01 -1.97186E+00  2.59115E-01 -2.36353E+00
   1.03988E+00 -1.35322E+00 -8.97825E-04 -3.82595E+00 -1.31004E+00 -6.44270E-01 -1.86890E+00 -1.84958E+00 -1.59428E+00 -4.26444E-02
  -3.10794E+00 -1.56455E+00 -2.74247E+00 -1.49884E+00  1.90337E+00  3.83738E-01  1.19347E-01 -4.02435E-01 -2.76103E-01 -4.91024E-01
  -1.59426E+00 -2.05737E+00 -6.95209E-01 -2.64291E+00  1.62312E+00 -4.56866E+00  4.78661E-01  5.47085E-01 -1.01647E+00 -3.88720E+00
   1.64838E-01 -1.28997E+00  1.50720E+00 -2.05617E+00 -3.43728E+00 -2.60528E+00 -2.45711E-01 -2.01919E-01 -9.57184E-01 -1.72218E-01
   2.10764E+00  7.35922E-01  1.72509E+00  3.48591E+00  3.61673E+00  2.04908E+00  1.15027E+00 -1.40542E+00 -1.94537E+00 -1.77362E+00
  -3.08965E+00  2.93972E-01  3.71090E-01  2.09015E+00 -2.23862E+00 -3.10860E+00  1.72117E-01 -1.68158E+00 -2.01704E+00 -4.18397E+00
   5.10995E-01 -2.06349E+00 -2.33710E+00 -5.85759E-01 -4.13055E-01  2.69333E+00  2.41048E+00  2.06684E+00  3.28047E+00  1.77171E+00
   8.18027E-01 -9.47728E-01 -3.12257E+00 -2.51062E+00  1.71322E+00 -3.46810E-01  1.99747E+00  1.40902E-01 -1.89551E+00 -3.89720E-01
   9.72797E-02 -1.58576E+00  7.22300E-02 -1.73604E+00 -7.55467E-02 -2.04128E+00 -1.43322E+00 -2.81239E+00 -1.63370E+00 -1.70315E-01
  -2.79457E+00 -1.42658E+00  9.25504E-02 -2.30667E+00 -2.09555E+00  1.81595E+00 -4.73364E-01 -1.60903E+00 -7.36617E-01  2.16839E+00
   2.81693E-01 -3.51774E+00 -8.33181E-01 -2.75737E-01 -6.81761E-01 -1.27739E+00 -2.00711E-01 -2.91508E+00 -1.91686E+00 -2.59141E+00
   3.09700E-01 -5.02384E-01 -2.66427E+00 -2.14117E+00 -2.35182E+00 -3.38551E+00 -2.19823E+00 -1.76598E+00 -3.12321E+00 -2.68617E+00
  -3.26478E+00 -3.26950E+00 -1.54212E+00 -2.17932E+00 -2.72533E+00 -1.39620E+00 -2.43709E-02 -1.78240E+00 -1.51703E+00 -1.41511E+00
   3.03508E-01 -3.11263E+00 -1.27677E+00 -1.71428E+00 -2.25097E+00 -3.97654E+00 -2.43383E+00 -2.11600E+00 -7.86387E-01  1.13215E-01
  -2.63604E+00 -2.99367E-01 -9.84255E-01 -3.18557E+00  6.36712E-01  3.81246E-01 -1.49366E+00 -3.19898E-01 -1.87730E+00 -1.08750E+00
  -1.26250E+00  9.27721E-01 -2.79129E+00  7.89563E-01 -1.39670E+00  2.64979E+00  8.49728E-01 -5.13583E-01  1.38883E-01 -1.83118E-03
  -7.14113E-01 -6.76115E-01 -2.37567E+00 -1.89352E+00  3.04298E-01 -1.84325E+00 -1.19161E+00  1.17502E+00  1.67970E+00  7.73953E-01
  -1.78761E+00 -1.49228E+00 -1.60130E+00  2.82981E-01  2.08973E-01  5.34453E-01 -5.89189E-01 -1.26388E-02  5.99261E-01  5.20179E-01
   6.41087E-01  7.84962E-02  5.09810E-01 -3.10845E+00 -6.65369E-01 -2.70519E-01 -1.31253E+00  4.58735E-01 -2.38342E-01  2.61801E+00
  -1.45089E-01  3.28209E+00  7.09932E-01 -1.42416E-01  2.98701E+00  9.84669E-01  2.78154E+00  5.98705E+00  7.91910E+00  7.69404E+00
   7.05119E+00  9.15261E+00  1.11148E+01  7.85336E+00  6.68358E+00  1.47871E+00 -3.06310E+00  8.45496E-01  1.41218E+00  2.92936E+00
  -1.79002E+00 -1.94933E-01 -1.10045E+00  6.24280E-01 -2.41617E+00 -2.05547E+00 -2.84678E-01 -1.56123E+00  2.22911E-01 -1.37085E+00
  -2.86531E+00  4.53794E-01 -1.86711E-01 -2.88821E+00 -1.49833E+00 -3.80182E+00  4.67662E-01 -2.71790E+00  8.98977E-01  1.56945E+00
  -1.43194E+00  7.04174E-02 -1.39053E+00 -1.14134E+00 -3.43751E-01  1.01825E+00 -2.02497E+00 -2.53739E-01 -1.07920E+00 -1.03256E+00
  -5.01083E+00 -1.76291E+00 -3.45965E+00 -8.83407E-02 -1.09259E+00 -5.46689E-01 -3.03582E-01 -9.74646E-01  6.93917E-02 -3.86851E-01
   3.65993E-01 -1.07886E+00  4.75557E-01 -2.93140E+00  2.00026E+00 -1.88080E+00 -1.37587E+00 -1.62383E+00 -1.23653E+00  8.04925E-01
   1.54522E+00 -9.82024E-01 -2.01121E+00  9.40955E-01 -3.86984E+00 -1.92707E+00 -2.63377E+00 -2.47663E+00 -2.73112E+00 -3.05761E+00
  -1.05449E+00 -3.49436E+00 -4.04867E+00 -2.64403E+00 -2.22132E+00 -2.83793E+00 -6.10159E-01 -2.06709E+00 -9.57865E-01 -1.12600E+00
   1.14480E+00 -1.81742E+00 -2.65743E+00 -1.36034E-01 -1.61020E+00 -2.33694E+00 -2.18898E+00 -2.44055E+00 -1.55785E+00  3.33208E-01
  -1.92025E+00 -2.58080E-01 -1.75349E+00 -6.19985E-01 -1.98359E-01 -1.72040E+00 -2.65373E+00 -5.32469E-01  1.00246E+00 -1.21501E+00
   1.26214E+00 -2.72522E+00  4.32562E-01 -1.25615E+00  1.24881E+00 -8.02997E-01 -1.71134E+00 -2.62026E+00  4.57394E-01 -1.23232E+00
   9.58138E-01  1.00799E+00  7.48103E-01 -2.53404E-01  1.35323E+00 -3.10680E-01 -2.33674E+00 -1.22273E+00 -9.25384E-01 -2.34289E+00
   6.11629E-01 -8.46530E-01 -5.87451E-01  1.98280E+00 -2.44742E+00  1.49226E+00  1.71197E+00 -2.10620E-01 -2.46947E+00 -1.83245E-01
   9.11282E-01  4.42194E-01 -2.20206E-01 -2.70122E-01  1.22435E+00 -2.19647E+00  1.53803E-01  2.19473E+00  1.87863E-01  6.26413E-02
   1.75267E+00  2.69994E+00 -5.71600E-02  6.19227E-01  2.57531E+00  2.46461E+00  7.68938E-01  3.30254E-01  4.32538E+00  2.42977E+00
   1.19036E+00  7.99286E-01  2.59754E+00  2.02576E+00 -2.95209E-01  2.42650E+00 -1.04681E+00  1.28680E-01  1.56005E+00  1.90965E+00
   5.00682E-01  5.38613E-01 -2.70952E-01 -1.38616E+00  2.77575E-01 -8.67158E-01  1.06005E+00 -3.80960E-01 -1.34334E+00 -4.53032E-01
  -1.10029E+00 -1.02428E+00 -1.60883E+00 -2.81072E+00 -2.13166E+00  4.64567E-01  1.26638E-01 -7.25610E-01 -2.11791E+00 -8.22119E-01
  -1.84829E+00 -1.97806E+00 -9.15023E-01 -1.16484E+00  8.52315E-01 -3.64577E-01  1.34421E+00  1.05213E+00  4.27558E-01  7.20032E-01
   3.98006E-01  6.51368E-01  1.00321E+00 -2.42264E+00 -1.74953E+00 -1.08770E+00 -2.39829E+00 -1.64734E+00  3.99755E-01 -9.52289E-01
  -2.08175E+00 -3.24313E-01  7.25659E-01 -1.09395E+00 -1.58136E+00  4.75149E-01  2.27437E+00 -7.18216E-02  3.99411E-02  9.80010E-01
   1.05797E+00 -1.33500E+00  2.42821E-01 -8.06240E-01 -3.08669E+00 -7.10445E-01 -1.77944E-01  5.39643E-01 -6.49859E-01  8.99907E-01
  -7.84132E-01 -2.43701E+00 -2.85277E-01 -3.71627E-01 -2.48344E+00  1.66202E+00  1.44402E+00  7.16817E-02 -9.00531E-01  2.29217E-01
   4.72781E-02 -9.87131E-01  4.16488E-01 -6.04184E-01 -9.65332E-01 -1.71901E+00 -1.35637E-02 -1.32984E+00
 NY points of the fit to the data follow
  -1.71966E+00 -1.75609E+00 -1.75608E+00 -1.67322E+00 -1.49665E+00 -1.24405E+00 -9.57975E-01 -6.90550E-01 -4.71894E-01 -3.26106E-01
  -3.05113E-01 -4.62427E-01 -7.88847E-01 -1.19162E+00 -1.52812E+00 -1.69640E+00 -1.72622E+00 -1.72226E+00 -1.70819E+00 -1.67037E+00
  -1.61455E+00 -1.55234E+00 -1.50447E+00 -1.49333E+00 -1.53211E+00 -1.61480E+00 -1.71223E+00 -1.79036E+00 -1.81231E+00 -1.75467E+00
  -1.61719E+00 -1.42955E+00 -1.25147E+00 -1.14710E+00 -1.14994E+00 -1.25830E+00 -1.43248E+00 -1.60614E+00 -1.71481E+00 -1.74073E+00
  -1.70942E+00 -1.64352E+00 -1.55961E+00 -1.46449E+00 -1.35934E+00 -1.25091E+00 -1.15075E+00 -1.07302E+00 -1.03902E+00 -1.07659E+00
  -1.19801E+00 -1.37904E+00 -1.55751E+00 -1.66106E+00 -1.66358E+00 -1.60107E+00 -1.52383E+00 -1.45683E+00 -1.40089E+00 -1.35476E+00
  -1.32439E+00 -1.31466E+00 -1.32980E+00 -1.36917E+00 -1.42400E+00 -1.47243E+00 -1.49012E+00 -1.47356E+00 -1.43581E+00 -1.39031E+00
  -1.34509E+00 -1.30172E+00 -1.25912E+00 -1.22193E+00 -1.20077E+00 -1.20194E+00 -1.22526E+00 -1.27056E+00 -1.32872E+00 -1.38671E+00
  -1.42372E+00 -1.41459E+00 -1.35660E+00 -1.28136E+00 -1.22653E+00 -1.20563E+00 -1.21678E+00 -1.25821E+00 -1.32956E+00 -1.42286E+00
  -1.51511E+00 -1.57210E+00 -1.57271E+00 -1.53313E+00 -1.49502E+00 -1.46627E+00 -1.39561E+00 -1.14147E+00 -6.28289E-01  9.90871E-02
   9.07909E-01  1.64674E+00  2.24126E+00  2.63971E+00  2.70597E+00  2.28069E+00  1.37150E+00  2.34653E-01 -7.11260E-01 -1.17030E+00
  -1.23252E+00 -1.21857E+00 -1.23378E+00 -1.24787E+00 -1.25590E+00 -1.25879E+00 -1.26001E+00 -1.25894E+00 -1.25308E+00 -1.23506E+00
  -1.16098E+00 -9.25791E-01 -4.98907E-01  7.62564E-02  6.96106E-01  1.25554E+00  1.70041E+00  1.97106E+00  1.94294E+00  1.51314E+00
   7.44293E-01 -1.20905E-01 -7.69134E-01 -1.03983E+00 -1.06841E+00 -1.08039E+00 -1.10235E+00 -1.11690E+00 -1.12682E+00 -1.13602E+00
  -1.14507E+00 -1.15383E+00 -1.16284E+00 -1.17308E+00 -1.18448E+00 -1.19399E+00 -1.20104E+00 -1.21020E+00 -1.22579E+00 -1.24690E+00
  -1.26729E+00 -1.28135E+00 -1.28761E+00 -1.28883E+00 -1.29103E+00 -1.30397E+00 -1.33509E+00 -1.38386E+00 -1.44146E+00 -1.49014E+00
  -1.52025E+00 -1.53334E+00 -1.52893E+00 -1.50212E+00 -1.45163E+00 -1.39314E+00 -1.36253E+00 -1.39289E+00 -1.47925E+00 -1.57957E+00
  -1.65993E+00 -1.71480E+00 -1.75154E+00 -1.78399E+00 -1.80664E+00 -1.81521E+00 -1.81730E+00 -1.80891E+00 -1.77730E+00 -1.71912E+00
  -1.65693E+00 -1.62760E+00 -1.64460E+00 -1.67231E+00 -1.65809E+00 -1.58670E+00 -1.49605E+00 -1.42028E+00 -1.35737E+00 -1.27963E+00
  -1.18524E+00 -1.10133E+00 -1.05976E+00 -1.07403E+00 -1.11818E+00 -1.14623E+00 -1.13629E+00 -1.09224E+00 -1.01693E+00 -9.20115E-01
  -8.09743E-01 -6.92535E-01 -5.86942E-01 -5.30789E-01 -5.74999E-01 -7.43018E-01 -1.00829E+00 -1.31465E+00 -1.59962E+00 -1.80277E+00
  -1.85738E+00 -1.72584E+00 -1.44129E+00 -1.09103E+00 -7.71876E-01 -5.57978E-01 -4.80905E-01 -5.19893E-01 -6.40652E-01 -8.25718E-01
  -1.01475E+00 -1.12222E+00 -1.11443E+00 -1.01304E+00 -8.53555E-01 -6.63587E-01 -4.84171E-01 -3.63617E-01 -3.25862E-01 -3.55601E-01
  -4.13999E-01 -4.68086E-01 -5.04243E-01 -5.05821E-01 -4.57825E-01 -3.63980E-01 -2.41163E-01 -1.04840E-01  3.78277E-02  1.70054E-01
   2.59200E-01  2.68646E-01  1.92519E-01  7.44738E-02 -2.07238E-02 -5.20723E-02 -1.55048E-03  1.18981E-01  2.69202E-01  4.12372E-01
   5.44053E-01  6.68272E-01  7.80087E-01  9.12122E-01  1.25910E+00  2.11527E+00  3.49228E+00  5.20762E+00  6.92636E+00  8.37340E+00
   9.41661E+00  9.83233E+00  9.22493E+00  7.40163E+00  4.73376E+00  2.08240E+00  3.59753E-01 -1.88910E-01 -1.85192E-01 -2.29400E-01
  -2.99030E-01 -3.53176E-01 -3.93146E-01 -4.20187E-01 -4.37895E-01 -4.55768E-01 -4.81255E-01 -5.17313E-01 -5.62826E-01 -6.13259E-01
  -6.61991E-01 -7.04511E-01 -7.38540E-01 -7.63233E-01 -7.80235E-01 -7.92038E-01 -8.00544E-01 -8.07782E-01 -8.15462E-01 -8.24149E-01
  -8.33905E-01 -8.43881E-01 -8.52923E-01 -8.60778E-01 -8.67666E-01 -8.73345E-01 -8.77471E-01 -8.80191E-01 -8.81768E-01 -8.82339E-01
  -8.82245E-01 -8.81833E-01 -8.81069E-01 -8.79909E-01 -8.78322E-01 -8.76317E-01 -8.73956E-01 -8.71300E-01 -8.68333E-01 -8.64943E-01
  -8.61008E-01 -8.56464E-01 -8.51261E-01 -8.45312E-01 -8.38434E-01 -8.30318E-01 -8.20535E-01 -8.08482E-01 -7.93152E-01 -7.72547E-01
  -7.41998E-01 -6.93242E-01 -6.32791E-01 -5.80941E-01 -5.58348E-01 -5.78669E-01 -6.42681E-01 -7.49474E-01 -9.04133E-01 -1.08938E+00
  -1.25082E+00 -1.32698E+00 -1.28063E+00 -1.12851E+00 -9.31917E-01 -7.43866E-01 -5.77619E-01 -4.51666E-01 -3.99848E-01 -4.32692E-01
  -5.20640E-01 -6.05156E-01 -6.46046E-01 -6.55618E-01 -6.58477E-01 -6.57730E-01 -6.53927E-01 -6.47700E-01 -6.39499E-01 -6.29655E-01
  -6.18446E-01 -6.06134E-01 -5.92952E-01 -5.79102E-01 -5.64763E-01 -5.50130E-01 -5.35431E-01 -5.20911E-01 -5.06799E-01 -4.93294E-01
  -4.80569E-01 -4.68797E-01 -4.58147E-01 -4.48756E-01 -4.40699E-01 -4.33981E-01 -4.28562E-01 -4.24374E-01 -4.21317E-01 -4.19234E-01
  -4.17898E-01 -4.17030E-01 -4.16325E-01 -4.15476E-01 -4.14151E-01 -4.11981E-01 -4.08555E-01 -4.03440E-01 -3.96199E-01 -3.86394E-01
  -3.73557E-01 -3.57171E-01 -3.36673E-01 -3.11479E-01 -2.81004E-01 -2.44658E-01 -2.01839E-01 -1.51952E-01 -9.44585E-02 -2.89373E-02
   4.48624E-02  1.26983E-01  2.17224E-01  3.15078E-01  4.19670E-01  5.29700E-01  6.43449E-01  7.58797E-01  8.73282E-01  9.84155E-01
   1.08846E+00  1.18315E+00  1.26525E+00  1.33204E+00  1.38118E+00  1.41087E+00  1.41990E+00  1.40777E+00  1.37474E+00  1.32179E+00
   1.25062E+00  1.16347E+00  1.06303E+00  9.52275E-01  8.34339E-01  7.12351E-01  5.89284E-01  4.67820E-01  3.50260E-01  2.38486E-01
   1.33947E-01  3.76545E-02 -4.97988E-02 -1.28210E-01 -1.97691E-01 -2.58596E-01 -3.11443E-01 -3.56871E-01 -3.95596E-01 -4.28376E-01
  -4.55955E-01 -4.79025E-01 -4.98214E-01 -5.14090E-01 -5.27166E-01 -5.37901E-01 -5.46679E-01 -5.53815E-01 -5.59562E-01 -5.64140E-01
  -5.67746E-01 -5.70545E-01 -5.72663E-01 -5.74194E-01 -5.75210E-01 -5.75788E-01 -5.75999E-01 -5.75900E-01 -5.75528E-01 -5.74904E-01
  -5.74052E-01 -5.73005E-01 -5.71797E-01 -5.70449E-01 -5.68966E-01 -5.67353E-01 -5.65620E-01 -5.63791E-01 -5.61885E-01 -5.59906E-01
  -5.57848E-01 -5.55713E-01 -5.53509E-01 -5.51257E-01 -5.48963E-01 -5.46624E-01 -5.44233E-01 -5.41791E-01 -5.39311E-01 -5.36807E-01
  -5.34279E-01 -5.31718E-01 -5.29118E-01 -5.26483E-01 -5.23828E-01 -5.21159E-01 -5.18473E-01 -5.15758E-01 -5.13011E-01 -5.10243E-01
  -5.07464E-01 -5.04676E-01 -5.01869E-01 -4.99035E-01 -4.96175E-01 -4.93300E-01 -4.90418E-01 -4.87525E-01 -4.84608E-01 -4.81663E-01
  -4.78694E-01 -4.75713E-01 -4.72722E-01 -4.69711E-01 -4.66668E-01 -4.63590E-01 -4.60486E-01 -4.57363E-01
 NY background values follow
    -1.831E+00   -1.828E+00   -1.826E+00   -1.823E+00   -1.820E+00   -1.818E+00   -1.815E+00   -1.812E+00   -1.809E+00   -1.807E+00
    -1.804E+00   -1.801E+00   -1.799E+00   -1.796E+00   -1.793E+00   -1.790E+00   -1.788E+00   -1.785E+00   -1.782E+00   -1.780E+00
    -1.777E+00   -1.774E+00   -1.771E+00   -1.769E+00   -1.766E+00   -1.763E+00   -1.760E+00   -1.758E+00   -1.755E+00   -1.752E+00
    -1.749E+00   -1.747E+00   -1.744E+00   -1.741E+00   -1.738E+00   -1.736E+00   -1.733E+00   -1.730E+00   -1.728E+00   -1.725E+00
    -1.722E+00   -1.719E+00   -1.717E+00   -1.714E+00   -1.711E+00   -1.708E+00   -1.706E+00   -1.703E+00   -1.700E+00   -1.697E+00
    -1.695E+00   -1.692E+00   -1.689E+00   -1.686E+00   -1.683E+00   -1.681E+00   -1.678E+00   -1.675E+00   -1.672E+00   -1.670E+00
    -1.667E+00   -1.664E+00   -1.661E+00   -1.659E+00   -1.656E+00   -1.653E+00   -1.650E+00   -1.648E+00   -1.645E+00   -1.642E+00
    -1.639E+00   -1.636E+00   -1.634E+00   -1.631E+00   -1.628E+00   -1.625E+00   -1.623E+00   -1.620E+00   -1.617E+00   -1.614E+00
    -1.611E+00   -1.609E+00   -1.606E+00   -1.603E+00   -1.600E+00   -1.598E+00   -1.595E+00   -1.592E+00   -1.589E+00   -1.586E+00
    -1.584E+00   -1.581E+00   -1.578E+00   -1.575E+00   -1.572E+00   -1.570E+00   -1.567E+00   -1.564E+00   -1.561E+00   -1.558E+00
    -1.556E+00   -1.553E+00   -1.550E+00   -1.547E+00   -1.544E+00   -1.542E+00   -1.539E+00   -1.536E+00   -1.533E+00   -1.530E+00
    -1.528E+00   -1.525E+00   -1.522E+00   -1.519E+00   -1.516E+00   -1.514E+00   -1.511E+00   -1.508E+00   -1.505E+00   -1.502E+00
    -1.500E+00   -1.497E+00   -1.494E+00   -1.491E+00   -1.488E+00   -1.485E+00   -1.483E+00   -1.480E+00   -1.477E+00   -1.474E+00
    -1.471E+00   -1.469E+00   -1.466E+00   -1.463E+00   -1.460E+00   -1.457E+00   -1.454E+00   -1.452E+00   -1.449E+00   -1.446E+00
    -1.443E+00   -1.440E+00   -1.438E+00   -1.435E+00   -1.432E+00   -1.429E+00   -1.426E+00   -1.423E+00   -1.421E+00   -1.418E+00
    -1.415E+00   -1.412E+00   -1.409E+00   -1.406E+00   -1.404E+00   -1.401E+00   -1.398E+00   -1.395E+00   -1.392E+00   -1.389E+00
    -1.387E+00   -1.384E+00   -1.381E+00   -1.378E+00   -1.375E+00   -1.372E+00   -1.370E+00   -1.367E+00   -1.364E+00   -1.361E+00
    -1.358E+00   -1.355E+00   -1.353E+00   -1.350E+00   -1.347E+00   -1.344E+00   -1.341E+00   -1.338E+00   -1.335E+00   -1.333E+00
    -1.330E+00   -1.327E+00   -1.324E+00   -1.321E+00   -1.318E+00   -1.316E+00   -1.313E+00   -1.310E+00   -1.307E+00   -1.304E+00
    -1.301E+00   -1.298E+00   -1.296E+00   -1.293E+00   -1.290E+00   -1.287E+00   -1.284E+00   -1.281E+00   -1.278E+00   -1.276E+00
    -1.273E+00   -1.270E+00   -1.267E+00   -1.264E+00   -1.261E+00   -1.258E+00   -1.256E+00   -1.253E+00   -1.250E+00   -1.247E+00
    -1.244E+00   -1.241E+00   -1.238E+00   -1.236E+00   -1.233E+00   -1.230E+00   -1.227E+00   -1.224E+00   -1.221E+00   -1.218E+00
    -1.216E+00   -1.213E+00   -1.210E+00   -1.207E+00   -1.204E+00   -1.201E+00   -1.198E+00   -1.195E+00   -1.193E+00   -1.190E+00
    -1.187E+00   -1.184E+00   -1.181E+00   -1.178E+00   -1.175E+00   -1.173E+00   -1.170E+00   -1.167E+00   -1.164E+00   -1.161E+00
    -1.158E+00   -1.155E+00   -1.152E+00   -1.150E+00   -1.147E+00   -1.144E+00   -1.141E+00   -1.138E+00   -1.135E+00   -1.132E+00
    -1.129E+00   -1.127E+00   -1.124E+00   -1.121E+00   -1.118E+00   -1.115E+00   -1.112E+00   -1.109E+00   -1.106E+00   -1.104E+00
    -1.101E+00   -1.098E+00   -1.095E+00   -1.092E+00   -1.089E+00   -1.086E+00   -1.083E+00   -1.080E+00   -1.078E+00   -1.075E+00
    -1.072E+00   -1.069E+00   -1.066E+00   -1.063E+00   -1.060E+00   -1.057E+00   -1.055E+00   -1.052E+00   -1.049E+00   -1.046E+00
    -1.043E+00   -1.040E+00   -1.037E+00   -1.034E+00   -1.031E+00   -1.029E+00   -1.026E+00   -1.023E+00   -1.020E+00   -1.017E+00
    -1.014E+00   -1.011E+00   -1.008E+00   -1.006E+00   -1.003E+00   -9.997E-01   -9.968E-01   -9.940E-01   -9.911E-01   -9.882E-01
    -9.853E-01   -9.824E-01   -9.795E-01   -9.766E-01   -9.737E-01   -9.709E-01   -9.680E-01   -9.651E-01   -9.622E-01   -9.593E-01
    -9.564E-01   -9.535E-01   -9.506E-01   -9.477E-01   -9.448E-01   -9.420E-01   -9.391E-01   -9.362E-01   -9.333E-01   -9.304E-01
    -9.275E-01   -9.246E-01   -9.217E-01   -9.188E-01   -9.159E-01   -9.131E-01   -9.102E-01   -9.073E-01   -9.044E-01   -9.015E-01
    -8.986E-01   -8.957E-01   -8.928E-01   -8.899E-01   -8.870E-01   -8.841E-01   -8.812E-01   -8.784E-01   -8.755E-01   -8.726E-01
    -8.697E-01   -8.668E-01   -8.639E-01   -8.610E-01   -8.581E-01   -8.552E-01   -8.523E-01   -8.494E-01   -8.465E-01   -8.436E-01
    -8.407E-01   -8.379E-01   -8.350E-01   -8.321E-01   -8.292E-01   -8.263E-01   -8.234E-01   -8.205E-01   -8.176E-01   -8.147E-01
    -8.118E-01   -8.089E-01   -8.060E-01   -8.031E-01   -8.002E-01   -7.973E-01   -7.945E-01   -7.916E-01   -7.887E-01   -7.858E-01
    -7.829E-01   -7.800E-01   -7.771E-01   -7.742E-01   -7.713E-01   -7.684E-01   -7.655E-01   -7.626E-01   -7.597E-01   -7.568E-01
    -7.540E-01   -7.511E-01   -7.482E-01   -7.453E-01   -7.424E-01   -7.395E-01   -7.366E-01   -7.337E-01   -7.308E-01   -7.279E-01
    -7.250E-01   -7.221E-01   -7.192E-01   -7.164E-01   -7.135E-01   -7.106E-01   -7.077E-01   -7.048E-01   -7.019E-01   -6.990E-01
    -6.961E-01   -6.932E-01   -6.903E-01   -6.874E-01   -6.845E-01   -6.817E-01   -6.788E-01   -6.759E-01   -6.730E-01   -6.701E-01
    -6.672E-01   -6.643E-01   -6.614E-01   -6.585E-01   -6.556E-01   -6.528E-01   -6.499E-01   -6.470E-01   -6.441E-01   -6.412E-01
    -6.383E-01   -6.354E-01   -6.325E-01   -6.297E-01   -6.268E-01   -6.239E-01   -6.210E-01   -6.181E-01   -6.152E-01   -6.123E-01
    -6.094E-01   -6.066E-01   -6.037E-01   -6.008E-01   -5.979E-01   -5.950E-01   -5.921E-01   -5.892E-01   -5.864E-01   -5.835E-01
    -5.806E-01   -5.777E-01   -5.748E-01   -5.719E-01   -5.690E-01   -5.662E-01   -5.633E-01   -5.604E-01   -5.575E-01   -5.546E-01
    -5.518E-01   -5.489E-01   -5.460E-01   -5.431E-01   -5.402E-01   -5.373E-01   -5.345E-01   -5.316E-01   -5.287E-01   -5.258E-01
    -5.229E-01   -5.201E-01   -5.172E-01   -5.143E-01   -5.114E-01   -5.085E-01   -5.057E-01   -5.028E-01   -4.999E-01   -4.970E-01
    -4.942E-01   -4.913E-01   -4.884E-01   -4.855E-01   -4.827E-01   -4.798E-01   -4.769E-01   -4.740E-01   -4.712E-01   -4.683E-01
    -4.654E-01   -4.625E-01   -4.597E-01   -4.568E-01   -4.539E-01   -4.511E-01   -4.482E-01   -4.453E-01   -4.424E-01   -4.396E-01
    -4.367E-01   -4.338E-01   -4.310E-01   -4.281E-01   -4.252E-01   -4.224E-01   -4.195E-01   -4.166E-01
 Ala      Conc. = 3.09E+01
