 LCModel (Version 6.3-1L) Copyright: S.W. Provencher.          Ref.: Magn. Reson. Med. 30:672-679 (1993).                
 Slice#2 Row#6 Col#7  PD_24_press_1_raw_act
 36 lines in following concentration table = NCONC+1
    Conc.  %SD /Cr+PCr  Metabolite                                         
   78.098 230% 4.7E-02 Ala                                                 
    0.000 999%   0.000 Asp                                                 
 1.64E+03   4%   1.000 Cr                                                  
    0.000 999%   0.000 PCr                                                 
   45.154 438% 2.7E-02 GABA                                                
    0.000 999%   0.000 Glc                                                 
 1.14E+03  32%   0.695 Gln                                                 
 1.47E+03  29%   0.893 Glu                                                 
  879.694   3%   0.535 GPC                                                 
    0.000 999%   0.000 PCh                                                 
  817.544  12%   0.497 GSH                                                 
 3.00E+03  12%   1.824 Ins                                                 
  287.264  74%   0.175 Lac                                                 
 2.20E+03   7%   1.335 NAA                                                 
  168.915  99%   0.103 NAAG                                                
  131.433  26% 8.0E-02 Scyllo                                              
    0.000 999%   0.000 Tau                                                 
    0.000 999%   0.000 -CrCH2                                              
  879.694   3%   0.535 GPC+PCh                                             
 2.37E+03   5%   1.438 NAA+NAAG                                            
 1.64E+03   4%   1.000 Cr+PCr                                              
 2.61E+03  24%   1.589 Glu+Gln                                             
 1.46E+03  57%   0.887 Lip13a                                              
  273.130  83%   0.166 Lip13b                                              
   71.663 466% 4.4E-02 Lip09                                               
 1.97E+03  20%   1.198 MM09                                                
  240.092  96%   0.146 Lip20                                               
 3.92E+03  13%   2.386 MM20                                                
  760.488  35%   0.462 MM12                                                
 2.30E+03  24%   1.399 MM14                                                
 1.72E+03  22%   1.045 MM17                                                
 1.73E+03  40%   1.053 Lip13a+Lip13b                                       
 4.79E+03  11%   2.914 MM14+Lip13a+Lip13b+MM12                             
 2.04E+03  12%   1.241 MM09+Lip09                                          
 4.17E+03  12%   2.532 MM20+Lip20                                          
   6 lines in following misc. output table
  FWHM = 0.061 ppm    S/N =   9                                            
  Data shift =-0.008 ppm                                                   
  Ph: -10 deg       7.2 deg/ppm                                            
  alphaB,S = 2.0E+00,   2.0E+02                                            
   14 spline knots.   Ns = 8(1)                                            
  (14) 4 infls.   (16) 1 extrs.                                            
  498 points on ppm-axis = NY
      4.000000     3.992357     3.984714     3.977070     3.969427     3.961784     3.954141     3.946497     3.938854     3.931211
      3.923568     3.915925     3.908281     3.900638     3.892995     3.885352     3.877708     3.870065     3.862422     3.854779
      3.847136     3.839492     3.831849     3.824206     3.816563     3.808919     3.801276     3.793633     3.785990     3.778347
      3.770703     3.763060     3.755417     3.747774     3.740130     3.732487     3.724844     3.717201     3.709558     3.701914
      3.694271     3.686628     3.678985     3.671341     3.663698     3.656055     3.648412     3.640769     3.633125     3.625482
      3.617839     3.610196     3.602552     3.594909     3.587266     3.579623     3.571980     3.564336     3.556693     3.549050
      3.541407     3.533763     3.526120     3.518477     3.510834     3.503191     3.495547     3.487904     3.480261     3.472618
      3.464974     3.457331     3.449688     3.442045     3.434402     3.426758     3.419115     3.411472     3.403829     3.396185
      3.388542     3.380899     3.373256     3.365613     3.357969     3.350326     3.342683     3.335040     3.327396     3.319753
      3.312110     3.304467     3.296824     3.289180     3.281537     3.273894     3.266251     3.258607     3.250964     3.243321
      3.235678     3.228034     3.220391     3.212748     3.205105     3.197462     3.189818     3.182175     3.174532     3.166889
      3.159245     3.151602     3.143959     3.136316     3.128673     3.121029     3.113386     3.105743     3.098100     3.090456
      3.082813     3.075170     3.067527     3.059884     3.052240     3.044597     3.036954     3.029311     3.021667     3.014024
      3.006381     2.998738     2.991095     2.983451     2.975808     2.968165     2.960522     2.952878     2.945235     2.937592
      2.929949     2.922306     2.914662     2.907019     2.899376     2.891733     2.884089     2.876446     2.868803     2.861160
      2.853517     2.845873     2.838230     2.830587     2.822944     2.815300     2.807657     2.800014     2.792371     2.784728
      2.777084     2.769441     2.761798     2.754155     2.746511     2.738868     2.731225     2.723582     2.715939     2.708295
      2.700652     2.693009     2.685366     2.677722     2.670079     2.662436     2.654793     2.647150     2.639506     2.631863
      2.624220     2.616577     2.608933     2.601290     2.593647     2.586004     2.578361     2.570717     2.563074     2.555431
      2.547788     2.540144     2.532501     2.524858     2.517215     2.509572     2.501928     2.494285     2.486642     2.478999
      2.471355     2.463712     2.456069     2.448426     2.440783     2.433139     2.425496     2.417853     2.410210     2.402566
      2.394923     2.387280     2.379637     2.371994     2.364350     2.356707     2.349064     2.341421     2.333777     2.326134
      2.318491     2.310848     2.303205     2.295561     2.287918     2.280275     2.272632     2.264988     2.257345     2.249702
      2.242059     2.234416     2.226772     2.219129     2.211486     2.203843     2.196199     2.188556     2.180913     2.173270
      2.165627     2.157983     2.150340     2.142697     2.135054     2.127410     2.119767     2.112124     2.104481     2.096838
      2.089194     2.081551     2.073908     2.066265     2.058621     2.050978     2.043335     2.035692     2.028049     2.020405
      2.012762     2.005119     1.997476     1.989833     1.982190     1.974546     1.966903     1.959260     1.951617     1.943974
      1.936331     1.928688     1.921045     1.913402     1.905759     1.898115     1.890472     1.882829     1.875186     1.867543
      1.859900     1.852257     1.844614     1.836971     1.829327     1.821684     1.814041     1.806398     1.798755     1.791112
      1.783469     1.775826     1.768183     1.760540     1.752896     1.745253     1.737610     1.729967     1.722324     1.714681
      1.707038     1.699395     1.691752     1.684108     1.676465     1.668822     1.661179     1.653536     1.645893     1.638250
      1.630607     1.622964     1.615321     1.607677     1.600034     1.592391     1.584748     1.577105     1.569462     1.561819
      1.554176     1.546533     1.538890     1.531246     1.523603     1.515960     1.508317     1.500674     1.493031     1.485388
      1.477745     1.470102     1.462458     1.454815     1.447172     1.439529     1.431886     1.424243     1.416600     1.408957
      1.401314     1.393671     1.386027     1.378384     1.370741     1.363098     1.355455     1.347812     1.340169     1.332526
      1.324883     1.317240     1.309596     1.301953     1.294310     1.286667     1.279024     1.271381     1.263738     1.256095
      1.248452     1.240808     1.233165     1.225522     1.217879     1.210236     1.202593     1.194950     1.187307     1.179664
      1.172021     1.164377     1.156734     1.149091     1.141448     1.133805     1.126162     1.118519     1.110876     1.103233
      1.095590     1.087946     1.080303     1.072660     1.065017     1.057374     1.049731     1.042088     1.034445     1.026802
      1.019158     1.011515     1.003872     0.996229     0.988586     0.980943     0.973300     0.965657     0.958014     0.950371
      0.942727     0.935084     0.927441     0.919798     0.912155     0.904512     0.896869     0.889226     0.881583     0.873940
      0.866296     0.858653     0.851010     0.843367     0.835724     0.828081     0.820438     0.812795     0.805152     0.797508
      0.789865     0.782222     0.774579     0.766936     0.759293     0.751650     0.744007     0.736364     0.728721     0.721077
      0.713434     0.705791     0.698148     0.690505     0.682862     0.675219     0.667576     0.659933     0.652290     0.644646
      0.637003     0.629360     0.621717     0.614074     0.606431     0.598788     0.591145     0.583502     0.575858     0.568215
      0.560572     0.552929     0.545286     0.537643     0.530000     0.522357     0.514714     0.507071     0.499427     0.491784
      0.484141     0.476498     0.468855     0.461212     0.453569     0.445925     0.438282     0.430639     0.422996     0.415353
      0.407710     0.400067     0.392424     0.384780     0.377137     0.369494     0.361851     0.354208     0.346565     0.338922
      0.331278     0.323635     0.315992     0.308349     0.300706     0.293063     0.285420     0.277777     0.270133     0.262490
      0.254847     0.247204     0.239561     0.231918     0.224275     0.216631     0.208988     0.201345
 NY phased data points follow
   2.70777E-01  2.07890E+00  5.79964E+00  1.12272E+01  4.20491E+00  2.01072E+01  2.12534E+01  2.99154E+01  3.42833E+01  3.79567E+01
   4.37744E+01  4.94252E+01  4.51781E+01  4.09755E+01  3.42346E+01  3.26565E+01  2.40937E+01  2.38178E+01  1.91013E+01  2.10940E+01
   1.46704E+01  1.61074E+01  7.64942E+00  1.53950E+01  1.12187E+01  1.67156E+01  1.25331E+01  2.53055E+01  1.80567E+01  2.48079E+01
   2.45555E+01  2.25405E+01  1.86404E+01  2.29455E+01  9.93665E+00  1.43095E+01  1.52429E+01  1.82081E+01  1.64894E+01  2.40469E+01
   1.26513E+01  1.84129E+01  1.27946E+01  2.87095E+01  1.52213E+01  2.43971E+01  2.25287E+01  2.18318E+01  1.99079E+01  2.63993E+01
   1.53625E+01  1.78161E+01  1.85269E+01  1.48319E+01  1.24792E+01  1.36653E+01  1.24959E+01  1.32791E+01  2.00541E+01  1.47565E+01
   1.25305E+01  1.36745E+01  1.13586E+01  9.26426E+00 -3.34604E+00 -6.22848E-01 -2.44013E+00  6.90461E+00 -3.57947E+00  4.06041E+00
   3.67035E+00  7.31197E+00  4.14679E+00  4.80524E+00  7.82985E-01  6.57151E+00  3.23425E+00  3.39785E+00 -4.29963E-01  7.09722E+00
  -3.07862E+00 -2.60642E-01  8.71726E+00  5.82576E+00  8.74776E-01  6.61196E+00  9.88254E-01  6.51009E+00  4.94623E+00  5.27543E+00
  -1.15831E+00  3.12189E+00  1.65045E+00  3.66542E+00  1.36518E+00  4.59398E-01 -2.24524E+00  1.03010E+01  1.26880E+01  2.82761E+01
   4.41350E+01  5.69564E+01  6.72507E+01  6.95505E+01  6.49853E+01  6.02666E+01  4.99505E+01  4.29845E+01  3.15050E+01  2.87052E+01
   1.95707E+01  1.72334E+01  9.46198E+00  1.22547E+01  8.51891E+00  1.31717E+00 -4.19259E-01  3.15997E+00 -9.09507E-01  1.07128E-01
  -3.65308E+00  4.01734E+00  7.68105E+00  1.53205E+01  2.76943E+01  3.95200E+01  4.06838E+01  4.49603E+01  4.28367E+01  4.73628E+01
   3.99870E+01  3.04419E+01  2.25234E+01  2.19478E+01  5.53734E+00  5.23358E+00  3.02735E+00  8.77985E+00  1.30314E+01  5.03910E+00
   7.79767E-02 -3.16709E+00 -5.95808E+00  2.36317E+00  3.84090E+00 -1.38775E+00 -6.78041E+00 -1.34696E+00 -7.81941E+00  2.47109E+00
  -1.36837E+00 -8.52947E+00 -2.25211E+00 -1.56992E+00 -4.57992E+00  5.51826E-02 -7.38950E+00 -6.95125E+00 -4.15636E+00 -4.02718E+00
  -4.04573E+00 -7.09755E+00 -5.54394E+00  6.97895E-01 -4.75694E+00 -7.00038E+00 -5.21995E+00 -1.71048E+00 -9.63504E+00 -1.93436E+00
  -7.23033E+00 -9.51364E+00 -8.82684E+00 -1.11802E+01 -1.15564E+01 -1.15612E+01 -9.67608E+00 -1.20504E+01 -1.25125E+01 -1.16860E+01
  -1.55127E+01 -1.25978E+01 -1.60209E+01 -1.63761E+01 -1.80025E+01 -1.18630E+01 -1.80263E+01 -8.12614E+00 -5.92629E+00 -5.99558E+00
   5.54199E-02 -7.68423E-01  1.74879E+00  3.47149E+00  4.27833E-01 -5.30385E-01 -5.33813E-01 -1.49752E+00 -1.74665E+00 -1.81389E+00
  -3.10882E+00 -7.44919E+00 -3.17236E+00  6.18825E+00 -1.02003E+00  1.48638E-01 -1.66364E+00 -1.76578E+00 -2.55911E+00 -5.77583E+00
  -6.70135E+00 -3.76588E+00 -1.14167E+00  1.56768E+00  7.34428E+00  1.03095E+00  6.62754E+00  1.41433E+01  7.96897E-02  4.67393E+00
   2.81736E-01  8.46865E-01  1.27014E+00  2.04613E-01 -1.13008E+00  1.09413E+00  4.75751E+00  5.97891E+00  8.42189E+00  2.50208E+00
   6.22216E+00  5.41471E+00  5.89988E+00  4.66307E+00  8.72730E+00  2.13111E+00  9.10290E+00  7.20102E+00  2.37869E+00  6.80080E+00
   2.22773E+00  3.00111E+00  6.67726E+00  6.17607E+00  2.88861E-01  7.16614E+00  4.06112E+00  1.27810E+01  9.31688E+00  1.22057E+01
   1.63250E+01  1.73093E+01  1.76601E+01  1.65139E+01  2.62420E+01  3.09841E+01  3.62361E+01  5.47183E+01  6.04055E+01  6.72076E+01
   7.10244E+01  6.77713E+01  6.96996E+01  6.16375E+01  4.34331E+01  3.92859E+01  2.63992E+01  2.41053E+01  1.72531E+01  1.21403E+01
   8.55586E+00  5.01204E+00  6.93625E+00  1.06372E+01  4.61704E+00  2.50090E+00  3.23457E+00  3.41484E+00  2.76633E+00  1.83935E+00
  -2.32895E+00  7.72290E-01 -3.77881E+00  1.86923E+00  1.97503E+00 -5.58523E+00 -7.25479E-01  3.29250E+00 -5.66298E+00 -6.44659E-02
  -1.72888E+00 -2.01600E+00 -3.44956E+00  4.84834E+00  1.96238E+00  1.04631E+00  5.66166E+00 -9.99345E-01  1.39197E+00  2.96993E+00
  -3.74987E+00 -1.87690E+00  5.06099E+00  2.97288E+00  7.78295E-01  5.36411E+00  4.15588E+00  1.00890E+01  1.21716E+01  1.00067E+01
   6.14060E+00  1.30872E+01  4.98297E+00  4.03193E+00  5.98006E+00  1.22816E+01  1.04640E+01  1.13893E+01  1.21128E+01  1.21833E+01
   5.89030E+00  1.52758E+01  5.34536E+00  1.38015E+01  1.20381E+01  7.40827E+00  3.80467E+00  1.11081E+01  1.01907E+00  9.87881E+00
   8.72134E+00  1.14678E+01  4.55322E+00  1.43929E+01  4.36331E+00  1.42980E+01  8.78356E+00  6.12510E+00  8.89447E+00  7.53616E+00
   8.19891E+00  7.62406E+00  6.58928E+00  1.38904E+01  8.09659E+00  9.29828E+00  6.31329E+00  1.29735E+01  7.45340E+00  5.04481E+00
   5.44415E+00  8.04991E+00  5.76446E+00  9.71029E+00  1.00511E+01  8.79744E+00  1.56760E+01  9.65425E+00  1.01133E+01  1.63637E+01
   6.89331E+00  8.90109E+00  1.06605E+01  5.84703E+00  2.34579E+00  4.08998E+00  6.00032E+00  3.70359E+00  6.13449E+00  2.86026E+00
   1.45961E+00  4.08497E+00  9.04900E+00  3.07268E+00 -1.38864E+00  9.49135E+00  1.89957E+00  6.26244E+00  3.84591E+00 -1.35815E+00
   3.54673E+00  5.98432E+00  6.20583E-01  6.94654E+00  1.64910E+00  6.43292E+00  4.67086E+00  6.50030E+00  1.87547E+00  2.50545E+00
  -5.11301E+00 -2.34993E+00  3.33591E+00  4.66164E+00 -2.14700E+00  3.92849E+00  3.90443E+00  7.52930E+00  6.11410E+00  5.82667E+00
   3.95013E+00  7.66229E+00  2.55371E+00  1.06386E+01  9.20251E+00  6.36929E+00  7.81679E+00  1.00753E+01  3.69053E+00  1.14980E+01
   5.50662E+00  8.30187E+00  7.44483E+00  6.71045E+00  2.09911E+00  5.07209E+00  2.15253E+00 -2.45251E+00  7.82605E-01  2.11269E+00
  -8.17046E+00  4.22412E+00  2.46738E+00 -8.00386E-01 -4.22681E+00 -7.78467E+00  1.51972E+00 -1.09500E+00 -7.14273E+00 -3.85330E+00
  -5.09793E+00 -7.54514E+00 -1.73180E+00 -5.98962E+00 -6.88805E+00 -2.52292E+00 -4.08933E+00 -2.68843E+00 -6.66595E+00 -3.71789E+00
  -1.34776E+00 -4.48259E+00 -2.53351E+00 -6.27932E+00 -1.91938E+00 -9.27895E+00 -4.36506E+00  2.41893E-01 -1.36744E+01 -1.20928E+01
  -2.68197E+00 -7.17421E+00 -3.65069E+00 -1.21592E+01 -6.12983E+00 -1.22773E+01 -5.71330E+00 -4.86316E+00 -1.25314E+01 -1.11891E+01
  -3.26601E+00 -8.06112E+00 -9.63266E+00 -1.02552E+01 -8.03032E+00 -5.40090E+00 -6.67676E+00 -7.63003E+00 -7.05829E+00 -1.87538E+00
  -5.91500E+00 -1.52796E+00  7.10579E-01 -9.38361E+00 -4.07254E+00 -9.00077E+00 -7.87560E+00 -8.17286E+00 -9.11297E+00 -1.31498E+01
  -1.09035E+01 -9.53312E+00 -9.20976E+00 -7.57787E+00 -4.36579E+00 -2.99820E+00 -1.65801E+00 -2.99641E+00 -5.98877E+00 -5.90277E+00
  -2.29058E+00 -6.52500E+00 -2.72469E+00 -6.17829E+00 -1.19989E+01 -3.48422E+00 -8.12657E+00 -5.13682E+00
 NY points of the fit to the data follow
   1.06770E+01  9.75964E+00  9.50526E+00  9.92643E+00  1.12610E+01  1.40422E+01  1.83938E+01  2.39847E+01  3.00323E+01  3.54315E+01
   3.92336E+01  4.09645E+01  4.06298E+01  3.85268E+01  3.50799E+01  3.09312E+01  2.68075E+01  2.31367E+01  1.98677E+01  1.67141E+01
   1.35150E+01  1.07955E+01  9.58341E+00  9.58916E+00  1.05642E+01  1.25565E+01  1.53943E+01  1.85889E+01  2.15396E+01  2.37143E+01
   2.47976E+01  2.46571E+01  2.33566E+01  2.12226E+01  1.87078E+01  1.62295E+01  1.39591E+01  1.19471E+01  1.02644E+01  9.47058E+00
   1.02512E+01  1.23658E+01  1.54614E+01  1.89472E+01  2.20211E+01  2.39784E+01  2.44439E+01  2.35251E+01  2.14651E+01  1.86101E+01
   1.55604E+01  1.28811E+01  1.08828E+01  9.66357E+00  9.08588E+00  8.85995E+00  9.00198E+00  9.63339E+00  1.02883E+01  1.03794E+01
   9.81758E+00  8.87413E+00  7.79068E+00  6.81427E+00  6.15101E+00  5.91346E+00  6.06625E+00  6.41218E+00  6.81867E+00  7.23533E+00
   7.56081E+00  7.75576E+00  7.76580E+00  7.56859E+00  7.19198E+00  6.69494E+00  6.17214E+00  5.70360E+00  5.32465E+00  5.07622E+00
   4.94063E+00  4.92916E+00  4.94003E+00  4.78530E+00  4.36214E+00  3.71100E+00  2.97839E+00  2.32650E+00  1.88476E+00  1.71403E+00
   1.80643E+00  2.06703E+00  2.31532E+00  2.39666E+00  2.33851E+00  2.64206E+00  4.65920E+00  9.74743E+00  1.83436E+01  3.01218E+01
   4.34225E+01  5.55937E+01  6.42883E+01  6.82822E+01  6.74864E+01  6.25485E+01  5.45158E+01  4.49414E+01  3.55903E+01  2.74382E+01
   2.03484E+01  1.37135E+01  7.32375E+00  2.42013E+00  6.13808E-01  2.41377E-01  1.67546E-01  2.40049E-01  4.99846E-01  1.22510E+00
   3.15551E+00  7.06475E+00  1.32518E+01  2.14122E+01  3.03972E+01  3.85327E+01  4.44258E+01  4.73556E+01  4.72374E+01  4.43491E+01
   3.91635E+01  3.26067E+01  2.58314E+01  1.95797E+01  1.39872E+01  8.91241E+00  4.39761E+00  1.33351E+00  6.14177E-01  8.97202E-01
   1.28465E+00  1.52432E+00  1.57719E+00  1.54049E+00  1.45104E+00  1.23371E+00  8.90541E-01  4.31277E-01 -1.43828E-01 -7.54396E-01
  -1.32962E+00 -1.78986E+00 -2.09197E+00 -2.29442E+00 -2.46326E+00 -2.66139E+00 -2.92872E+00 -3.25598E+00 -3.57827E+00 -3.82524E+00
  -3.97085E+00 -4.03050E+00 -4.06093E+00 -4.12489E+00 -4.26759E+00 -4.50879E+00 -4.82834E+00 -5.19784E+00 -5.58540E+00 -5.96954E+00
  -6.36317E+00 -6.81953E+00 -7.33368E+00 -7.81045E+00 -8.17399E+00 -8.37520E+00 -8.45709E+00 -8.51051E+00 -8.55661E+00 -8.61034E+00
  -8.71053E+00 -8.85095E+00 -8.93347E+00 -8.79618E+00 -8.28747E+00 -7.36881E+00 -6.15350E+00 -4.81789E+00 -3.50652E+00 -2.44498E+00
  -1.86082E+00 -1.89367E+00 -2.48579E+00 -3.34733E+00 -4.13261E+00 -4.57115E+00 -4.48996E+00 -3.88234E+00 -2.83040E+00 -1.43157E+00
   9.53240E-02  1.44787E+00  2.27203E+00  2.27441E+00  1.39656E+00 -1.74011E-01 -2.13759E+00 -4.08747E+00 -5.59082E+00 -6.23180E+00
  -5.83489E+00 -4.46903E+00 -2.44332E+00 -2.80751E-01  1.50491E+00  2.55431E+00  2.70161E+00  2.00485E+00  6.95805E-01 -8.77074E-01
  -2.34171E+00 -3.15792E+00 -3.13704E+00 -2.51653E+00 -1.57925E+00 -4.98319E-01  6.23219E-01  1.57943E+00  2.20586E+00  2.65084E+00
   3.13547E+00  3.76163E+00  4.47071E+00  5.20609E+00  5.99303E+00  6.73700E+00  7.18939E+00  7.23725E+00  6.93116E+00  6.40967E+00
   5.85669E+00  5.42389E+00  5.26046E+00  5.48442E+00  6.04769E+00  6.78651E+00  7.56075E+00  8.43219E+00  9.43656E+00  1.05736E+01
   1.19257E+01  1.35666E+01  1.56562E+01  1.88538E+01  2.40927E+01  3.18659E+01  4.19006E+01  5.27786E+01  6.23849E+01  6.89156E+01
   7.14711E+01  7.00069E+01  6.49769E+01  5.72042E+01  4.80685E+01  3.91450E+01  3.13469E+01  2.44863E+01  1.79945E+01  1.17617E+01
   6.98077E+00  4.85882E+00  3.92758E+00  3.30602E+00  2.81987E+00  2.39329E+00  1.96134E+00  1.53185E+00  1.11682E+00  7.27221E-01
   3.71271E-01  5.14517E-02 -2.40084E-01 -4.99030E-01 -7.10744E-01 -8.71746E-01 -9.87237E-01 -1.05987E+00 -1.08760E+00 -1.06741E+00
  -1.00012E+00 -8.91007E-01 -7.37773E-01 -5.36614E-01 -2.86461E-01  1.34579E-02  3.66501E-01  7.74270E-01  1.23545E+00  1.74638E+00
   2.30134E+00  2.89239E+00  3.51154E+00  4.14817E+00  4.78935E+00  5.42196E+00  6.03322E+00  6.61096E+00  7.14353E+00  7.62011E+00
   8.03326E+00  8.37811E+00  8.65236E+00  8.85716E+00  8.99669E+00  9.07759E+00  9.10923E+00  9.10363E+00  9.07655E+00  9.04898E+00
   9.03776E+00  9.04344E+00  9.05167E+00  9.03611E+00  8.96701E+00  8.82822E+00  8.62300E+00  8.37415E+00  8.12271E+00  7.91533E+00
   7.79775E+00  7.80232E+00  7.92349E+00  8.11904E+00  8.33842E+00  8.54717E+00  8.73793E+00  8.91759E+00  9.07151E+00  9.22451E+00
   9.43702E+00  9.71237E+00  9.98608E+00  1.01416E+01  1.00507E+01  9.66964E+00  9.03684E+00  8.24912E+00  7.47952E+00  6.91376E+00
   6.72049E+00  7.00018E+00  7.69924E+00  8.62338E+00  9.54491E+00  1.02974E+01  1.08180E+01  1.11098E+01  1.10927E+01  1.07281E+01
   1.01372E+01  9.42469E+00  8.63751E+00  7.77840E+00  6.87135E+00  6.05654E+00  5.38560E+00  4.80825E+00  4.29565E+00  3.83096E+00
   3.40291E+00  3.00426E+00  2.63115E+00  2.28245E+00  1.95907E+00  1.66328E+00  1.39811E+00  1.16697E+00  9.73424E-01  8.21055E-01
   7.13285E-01  6.53254E-01  6.43708E-01  6.86970E-01  7.84915E-01  9.38874E-01  1.14946E+00  1.41639E+00  1.73831E+00  2.11267E+00
   2.53566E+00  3.00201E+00  3.50491E+00  4.03589E+00  4.58497E+00  5.14076E+00  5.69079E+00  6.22178E+00  6.72002E+00  7.17179E+00
   7.56400E+00  7.88472E+00  8.12374E+00  8.27295E+00  8.32668E+00  8.28198E+00  8.13880E+00  7.89995E+00  7.57094E+00  7.15961E+00
   6.67573E+00  6.13050E+00  5.53614E+00  4.90530E+00  4.25051E+00  3.58374E+00  2.91594E+00  2.25688E+00  1.61489E+00  9.96847E-01
   4.08024E-01 -1.47827E-01 -6.68350E-01 -1.15237E+00 -1.59972E+00 -2.01105E+00 -2.38771E+00 -2.73157E+00 -3.04478E+00 -3.32966E+00
  -3.58855E+00 -3.82382E+00 -4.03776E+00 -4.23258E+00 -4.41030E+00 -4.57274E+00 -4.72153E+00 -4.85816E+00 -4.98399E+00 -5.10023E+00
  -5.20791E+00 -5.30794E+00 -5.40107E+00 -5.48804E+00 -5.56950E+00 -5.64601E+00 -5.71805E+00 -5.78600E+00 -5.85022E+00 -5.91108E+00
  -5.96889E+00 -6.02393E+00 -6.07639E+00 -6.12645E+00 -6.17430E+00 -6.22016E+00 -6.26418E+00 -6.30651E+00 -6.34722E+00 -6.38643E+00
  -6.42424E+00 -6.46079E+00 -6.49617E+00 -6.53042E+00 -6.56361E+00 -6.59579E+00 -6.62705E+00 -6.65748E+00 -6.68712E+00 -6.71598E+00
  -6.74410E+00 -6.77153E+00 -6.79833E+00 -6.82456E+00 -6.85023E+00 -6.87533E+00 -6.89990E+00 -6.92399E+00 -6.94766E+00 -6.97092E+00
  -6.99376E+00 -7.01620E+00 -7.03826E+00 -7.05999E+00 -7.08143E+00 -7.10257E+00 -7.12341E+00 -7.14395E+00 -7.16424E+00 -7.18431E+00
  -7.20418E+00 -7.22385E+00 -7.24330E+00 -7.26255E+00 -7.28165E+00 -7.30064E+00 -7.31950E+00 -7.33823E+00
 NY background values follow
     1.541E+00    1.501E+00    1.460E+00    1.420E+00    1.380E+00    1.339E+00    1.299E+00    1.259E+00    1.218E+00    1.178E+00
     1.138E+00    1.097E+00    1.057E+00    1.016E+00    9.760E-01    9.356E-01    8.952E-01    8.548E-01    8.144E-01    7.740E-01
     7.336E-01    6.932E-01    6.528E-01    6.124E-01    5.720E-01    5.316E-01    4.912E-01    4.508E-01    4.105E-01    3.701E-01
     3.297E-01    2.894E-01    2.491E-01    2.087E-01    1.684E-01    1.281E-01    8.785E-02    4.758E-02    7.326E-03   -3.291E-02
    -7.313E-02   -1.133E-01   -1.535E-01   -1.937E-01   -2.338E-01   -2.739E-01   -3.140E-01   -3.541E-01   -3.942E-01   -4.342E-01
    -4.742E-01   -5.141E-01   -5.540E-01   -5.939E-01   -6.338E-01   -6.735E-01   -7.133E-01   -7.530E-01   -7.926E-01   -8.322E-01
    -8.717E-01   -9.112E-01   -9.506E-01   -9.899E-01   -1.029E+00   -1.068E+00   -1.107E+00   -1.147E+00   -1.185E+00   -1.224E+00
    -1.263E+00   -1.302E+00   -1.340E+00   -1.379E+00   -1.417E+00   -1.456E+00   -1.494E+00   -1.532E+00   -1.570E+00   -1.608E+00
    -1.646E+00   -1.684E+00   -1.721E+00   -1.759E+00   -1.796E+00   -1.833E+00   -1.870E+00   -1.907E+00   -1.944E+00   -1.981E+00
    -2.017E+00   -2.054E+00   -2.090E+00   -2.126E+00   -2.162E+00   -2.198E+00   -2.233E+00   -2.269E+00   -2.304E+00   -2.340E+00
    -2.375E+00   -2.410E+00   -2.444E+00   -2.479E+00   -2.513E+00   -2.548E+00   -2.582E+00   -2.616E+00   -2.650E+00   -2.683E+00
    -2.717E+00   -2.750E+00   -2.783E+00   -2.816E+00   -2.849E+00   -2.882E+00   -2.914E+00   -2.947E+00   -2.979E+00   -3.011E+00
    -3.042E+00   -3.074E+00   -3.105E+00   -3.137E+00   -3.168E+00   -3.199E+00   -3.229E+00   -3.260E+00   -3.290E+00   -3.320E+00
    -3.350E+00   -3.380E+00   -3.410E+00   -3.439E+00   -3.468E+00   -3.497E+00   -3.526E+00   -3.555E+00   -3.583E+00   -3.611E+00
    -3.639E+00   -3.667E+00   -3.695E+00   -3.722E+00   -3.749E+00   -3.776E+00   -3.803E+00   -3.830E+00   -3.856E+00   -3.882E+00
    -3.908E+00   -3.934E+00   -3.960E+00   -3.986E+00   -4.011E+00   -4.036E+00   -4.061E+00   -4.086E+00   -4.110E+00   -4.134E+00
    -4.159E+00   -4.182E+00   -4.206E+00   -4.230E+00   -4.253E+00   -4.276E+00   -4.299E+00   -4.322E+00   -4.345E+00   -4.367E+00
    -4.390E+00   -4.412E+00   -4.434E+00   -4.455E+00   -4.477E+00   -4.498E+00   -4.519E+00   -4.540E+00   -4.561E+00   -4.582E+00
    -4.602E+00   -4.622E+00   -4.642E+00   -4.662E+00   -4.682E+00   -4.701E+00   -4.721E+00   -4.740E+00   -4.759E+00   -4.778E+00
    -4.796E+00   -4.815E+00   -4.833E+00   -4.851E+00   -4.869E+00   -4.887E+00   -4.905E+00   -4.923E+00   -4.940E+00   -4.957E+00
    -4.975E+00   -4.992E+00   -5.009E+00   -5.025E+00   -5.042E+00   -5.059E+00   -5.075E+00   -5.091E+00   -5.108E+00   -5.124E+00
    -5.140E+00   -5.156E+00   -5.171E+00   -5.187E+00   -5.203E+00   -5.218E+00   -5.233E+00   -5.249E+00   -5.264E+00   -5.279E+00
    -5.294E+00   -5.309E+00   -5.324E+00   -5.339E+00   -5.354E+00   -5.368E+00   -5.383E+00   -5.397E+00   -5.412E+00   -5.426E+00
    -5.441E+00   -5.455E+00   -5.469E+00   -5.483E+00   -5.497E+00   -5.511E+00   -5.525E+00   -5.539E+00   -5.553E+00   -5.567E+00
    -5.581E+00   -5.595E+00   -5.608E+00   -5.622E+00   -5.635E+00   -5.649E+00   -5.662E+00   -5.676E+00   -5.689E+00   -5.702E+00
    -5.716E+00   -5.729E+00   -5.742E+00   -5.755E+00   -5.768E+00   -5.781E+00   -5.794E+00   -5.807E+00   -5.820E+00   -5.833E+00
    -5.846E+00   -5.858E+00   -5.871E+00   -5.884E+00   -5.896E+00   -5.909E+00   -5.921E+00   -5.934E+00   -5.946E+00   -5.959E+00
    -5.971E+00   -5.984E+00   -5.996E+00   -6.008E+00   -6.020E+00   -6.033E+00   -6.045E+00   -6.057E+00   -6.069E+00   -6.081E+00
    -6.093E+00   -6.105E+00   -6.117E+00   -6.129E+00   -6.141E+00   -6.153E+00   -6.165E+00   -6.177E+00   -6.189E+00   -6.200E+00
    -6.212E+00   -6.224E+00   -6.236E+00   -6.247E+00   -6.259E+00   -6.270E+00   -6.282E+00   -6.294E+00   -6.305E+00   -6.317E+00
    -6.328E+00   -6.340E+00   -6.351E+00   -6.363E+00   -6.374E+00   -6.385E+00   -6.397E+00   -6.408E+00   -6.420E+00   -6.431E+00
    -6.442E+00   -6.453E+00   -6.465E+00   -6.476E+00   -6.487E+00   -6.498E+00   -6.510E+00   -6.521E+00   -6.532E+00   -6.543E+00
    -6.554E+00   -6.565E+00   -6.576E+00   -6.588E+00   -6.599E+00   -6.610E+00   -6.621E+00   -6.632E+00   -6.643E+00   -6.654E+00
    -6.665E+00   -6.676E+00   -6.687E+00   -6.698E+00   -6.709E+00   -6.720E+00   -6.731E+00   -6.742E+00   -6.752E+00   -6.763E+00
    -6.774E+00   -6.785E+00   -6.796E+00   -6.807E+00   -6.818E+00   -6.829E+00   -6.839E+00   -6.850E+00   -6.861E+00   -6.872E+00
    -6.883E+00   -6.893E+00   -6.904E+00   -6.915E+00   -6.926E+00   -6.937E+00   -6.947E+00   -6.958E+00   -6.969E+00   -6.980E+00
    -6.990E+00   -7.001E+00   -7.012E+00   -7.022E+00   -7.033E+00   -7.044E+00   -7.055E+00   -7.065E+00   -7.076E+00   -7.087E+00
    -7.097E+00   -7.108E+00   -7.119E+00   -7.129E+00   -7.140E+00   -7.151E+00   -7.161E+00   -7.172E+00   -7.182E+00   -7.193E+00
    -7.204E+00   -7.214E+00   -7.225E+00   -7.235E+00   -7.246E+00   -7.256E+00   -7.267E+00   -7.277E+00   -7.288E+00   -7.298E+00
    -7.309E+00   -7.319E+00   -7.330E+00   -7.340E+00   -7.350E+00   -7.361E+00   -7.371E+00   -7.381E+00   -7.392E+00   -7.402E+00
    -7.412E+00   -7.423E+00   -7.433E+00   -7.443E+00   -7.453E+00   -7.463E+00   -7.474E+00   -7.484E+00   -7.494E+00   -7.504E+00
    -7.514E+00   -7.524E+00   -7.534E+00   -7.544E+00   -7.554E+00   -7.564E+00   -7.574E+00   -7.584E+00   -7.594E+00   -7.604E+00
    -7.614E+00   -7.623E+00   -7.633E+00   -7.643E+00   -7.653E+00   -7.662E+00   -7.672E+00   -7.682E+00   -7.691E+00   -7.701E+00
    -7.711E+00   -7.720E+00   -7.730E+00   -7.739E+00   -7.749E+00   -7.758E+00   -7.768E+00   -7.777E+00   -7.787E+00   -7.796E+00
    -7.806E+00   -7.815E+00   -7.824E+00   -7.834E+00   -7.843E+00   -7.852E+00   -7.861E+00   -7.870E+00   -7.880E+00   -7.889E+00
    -7.898E+00   -7.907E+00   -7.916E+00   -7.925E+00   -7.934E+00   -7.943E+00   -7.952E+00   -7.961E+00   -7.970E+00   -7.979E+00
    -7.988E+00   -7.996E+00   -8.005E+00   -8.014E+00   -8.023E+00   -8.032E+00   -8.040E+00   -8.049E+00   -8.058E+00   -8.066E+00
    -8.075E+00   -8.084E+00   -8.092E+00   -8.101E+00   -8.110E+00   -8.118E+00   -8.127E+00   -8.135E+00   -8.144E+00   -8.153E+00
    -8.161E+00   -8.170E+00   -8.178E+00   -8.187E+00   -8.195E+00   -8.204E+00   -8.212E+00   -8.221E+00   -8.229E+00   -8.238E+00
    -8.246E+00   -8.255E+00   -8.263E+00   -8.272E+00   -8.280E+00   -8.289E+00   -8.297E+00   -8.305E+00
 Ala      Conc. = 7.81E+01
