 LCModel (Version 6.3-1L) Copyright: S.W. Provencher.          Ref.: Magn. Reson. Med. 30:672-679 (1993).                
 Slice#2 Row#10 Col#4  PD_24_press_1_raw_act
 36 lines in following concentration table = NCONC+1
    Conc.  %SD /Cr+PCr  Metabolite                                         
    0.000 999%   0.000 Ala                                                 
    0.000 999%   0.000 Asp                                                 
  402.150  63%   0.253 Cr                                                  
 1.18E+03  22%   0.747 PCr                                                 
   41.540 443% 2.6E-02 GABA                                                
  193.141  93%   0.122 Glc                                                 
 1.03E+03  25%   0.647 Gln                                                 
 1.29E+03  24%   0.813 Glu                                                 
  725.747   3%   0.457 GPC                                                 
    0.000 999%   0.000 PCh                                                 
  412.422  19%   0.260 GSH                                                 
 1.36E+03  21%   0.855 Ins                                                 
  331.663  47%   0.209 Lac                                                 
 2.80E+03   6%   1.768 NAA                                                 
  323.209  51%   0.204 NAAG                                                
  236.029  13%   0.149 Scyllo                                              
  627.073  37%   0.395 Tau                                                 
   59.879 184% 3.8E-02 -CrCH2                                              
  725.747   3%   0.457 GPC+PCh                                             
 3.13E+03   2%   1.971 NAA+NAAG                                            
 1.59E+03   3%   1.000 Cr+PCr                                              
 2.32E+03  19%   1.460 Glu+Gln                                             
    0.000 999%   0.000 Lip13a                                              
  608.231  17%   0.383 Lip13b                                              
    0.000 999%   0.000 Lip09                                               
  910.579  18%   0.574 MM09                                                
  112.448  61% 7.1E-02 Lip20                                               
 1.71E+03  16%   1.079 MM20                                                
  267.011  28%   0.168 MM12                                                
 1.17E+03  19%   0.738 MM14                                                
  600.333  24%   0.378 MM17                                                
  608.231  17%   0.383 Lip13a+Lip13b                                       
 2.05E+03  13%   1.290 MM14+Lip13a+Lip13b+MM12                             
  910.579  18%   0.574 MM09+Lip09                                          
 1.82E+03  15%   1.149 MM20+Lip20                                          
   6 lines in following misc. output table
  FWHM = 0.069 ppm    S/N =  15                                            
  Data shift = 0.000 ppm                                                   
  Ph: -55 deg     -19.1 deg/ppm                                            
  alphaB,S = 9.0E-01,   1.0E+02                                            
   14 spline knots.   Ns = 8(1)                                            
  (14) 5 infls.   (13) 1 extrs.                                            
  498 points on ppm-axis = NY
      4.000000     3.992357     3.984714     3.977070     3.969427     3.961784     3.954141     3.946497     3.938854     3.931211
      3.923568     3.915925     3.908281     3.900638     3.892995     3.885352     3.877708     3.870065     3.862422     3.854779
      3.847136     3.839492     3.831849     3.824206     3.816563     3.808919     3.801276     3.793633     3.785990     3.778347
      3.770703     3.763060     3.755417     3.747774     3.740130     3.732487     3.724844     3.717201     3.709558     3.701914
      3.694271     3.686628     3.678985     3.671341     3.663698     3.656055     3.648412     3.640769     3.633125     3.625482
      3.617839     3.610196     3.602552     3.594909     3.587266     3.579623     3.571980     3.564336     3.556693     3.549050
      3.541407     3.533763     3.526120     3.518477     3.510834     3.503191     3.495547     3.487904     3.480261     3.472618
      3.464974     3.457331     3.449688     3.442045     3.434402     3.426758     3.419115     3.411472     3.403829     3.396185
      3.388542     3.380899     3.373256     3.365613     3.357969     3.350326     3.342683     3.335040     3.327396     3.319753
      3.312110     3.304467     3.296824     3.289180     3.281537     3.273894     3.266251     3.258607     3.250964     3.243321
      3.235678     3.228034     3.220391     3.212748     3.205105     3.197462     3.189818     3.182175     3.174532     3.166889
      3.159245     3.151602     3.143959     3.136316     3.128673     3.121029     3.113386     3.105743     3.098100     3.090456
      3.082813     3.075170     3.067527     3.059884     3.052240     3.044597     3.036954     3.029311     3.021667     3.014024
      3.006381     2.998738     2.991095     2.983451     2.975808     2.968165     2.960522     2.952878     2.945235     2.937592
      2.929949     2.922306     2.914662     2.907019     2.899376     2.891733     2.884089     2.876446     2.868803     2.861160
      2.853517     2.845873     2.838230     2.830587     2.822944     2.815300     2.807657     2.800014     2.792371     2.784728
      2.777084     2.769441     2.761798     2.754155     2.746511     2.738868     2.731225     2.723582     2.715939     2.708295
      2.700652     2.693009     2.685366     2.677722     2.670079     2.662436     2.654793     2.647150     2.639506     2.631863
      2.624220     2.616577     2.608933     2.601290     2.593647     2.586004     2.578361     2.570717     2.563074     2.555431
      2.547788     2.540144     2.532501     2.524858     2.517215     2.509572     2.501928     2.494285     2.486642     2.478999
      2.471355     2.463712     2.456069     2.448426     2.440783     2.433139     2.425496     2.417853     2.410210     2.402566
      2.394923     2.387280     2.379637     2.371994     2.364350     2.356707     2.349064     2.341421     2.333777     2.326134
      2.318491     2.310848     2.303205     2.295561     2.287918     2.280275     2.272632     2.264988     2.257345     2.249702
      2.242059     2.234416     2.226772     2.219129     2.211486     2.203843     2.196199     2.188556     2.180913     2.173270
      2.165627     2.157983     2.150340     2.142697     2.135054     2.127410     2.119767     2.112124     2.104481     2.096838
      2.089194     2.081551     2.073908     2.066265     2.058621     2.050978     2.043335     2.035692     2.028049     2.020405
      2.012762     2.005119     1.997476     1.989833     1.982190     1.974546     1.966903     1.959260     1.951617     1.943974
      1.936331     1.928688     1.921045     1.913402     1.905759     1.898115     1.890472     1.882829     1.875186     1.867543
      1.859900     1.852257     1.844614     1.836971     1.829327     1.821684     1.814041     1.806398     1.798755     1.791112
      1.783469     1.775826     1.768183     1.760540     1.752896     1.745253     1.737610     1.729967     1.722324     1.714681
      1.707038     1.699395     1.691752     1.684108     1.676465     1.668822     1.661179     1.653536     1.645893     1.638250
      1.630607     1.622964     1.615321     1.607677     1.600034     1.592391     1.584748     1.577105     1.569462     1.561819
      1.554176     1.546533     1.538890     1.531246     1.523603     1.515960     1.508317     1.500674     1.493031     1.485388
      1.477745     1.470102     1.462458     1.454815     1.447172     1.439529     1.431886     1.424243     1.416600     1.408957
      1.401314     1.393671     1.386027     1.378384     1.370741     1.363098     1.355455     1.347812     1.340169     1.332526
      1.324883     1.317240     1.309596     1.301953     1.294310     1.286667     1.279024     1.271381     1.263738     1.256095
      1.248452     1.240808     1.233165     1.225522     1.217879     1.210236     1.202593     1.194950     1.187307     1.179664
      1.172021     1.164377     1.156734     1.149091     1.141448     1.133805     1.126162     1.118519     1.110876     1.103233
      1.095590     1.087946     1.080303     1.072660     1.065017     1.057374     1.049731     1.042088     1.034445     1.026802
      1.019158     1.011515     1.003872     0.996229     0.988586     0.980943     0.973300     0.965657     0.958014     0.950371
      0.942727     0.935084     0.927441     0.919798     0.912155     0.904512     0.896869     0.889226     0.881583     0.873940
      0.866296     0.858653     0.851010     0.843367     0.835724     0.828081     0.820438     0.812795     0.805152     0.797508
      0.789865     0.782222     0.774579     0.766936     0.759293     0.751650     0.744007     0.736364     0.728721     0.721077
      0.713434     0.705791     0.698148     0.690505     0.682862     0.675219     0.667576     0.659933     0.652290     0.644646
      0.637003     0.629360     0.621717     0.614074     0.606431     0.598788     0.591145     0.583502     0.575858     0.568215
      0.560572     0.552929     0.545286     0.537643     0.530000     0.522357     0.514714     0.507071     0.499427     0.491784
      0.484141     0.476498     0.468855     0.461212     0.453569     0.445925     0.438282     0.430639     0.422996     0.415353
      0.407710     0.400067     0.392424     0.384780     0.377137     0.369494     0.361851     0.354208     0.346565     0.338922
      0.331278     0.323635     0.315992     0.308349     0.300706     0.293063     0.285420     0.277777     0.270133     0.262490
      0.254847     0.247204     0.239561     0.231918     0.224275     0.216631     0.208988     0.201345
 NY phased data points follow
  -4.43140E+01 -5.19459E+01 -4.67720E+01 -3.84346E+01 -4.15595E+01 -3.39647E+01 -3.39508E+01 -2.46615E+01 -1.89979E+01 -1.81439E+01
  -1.44626E+01 -1.35982E+01 -1.66979E+01 -2.04941E+01 -1.80516E+01 -2.58369E+01 -3.05714E+01 -3.87810E+01 -3.75645E+01 -3.94296E+01
  -3.85881E+01 -3.84272E+01 -3.79365E+01 -3.96638E+01 -3.74442E+01 -3.79699E+01 -3.80262E+01 -3.33166E+01 -3.37828E+01 -3.13596E+01
  -3.17171E+01 -2.82710E+01 -2.90664E+01 -2.97636E+01 -3.38977E+01 -3.17730E+01 -3.60890E+01 -3.26125E+01 -3.12536E+01 -3.37880E+01
  -3.18660E+01 -2.99640E+01 -2.80342E+01 -2.96944E+01 -2.98445E+01 -2.71222E+01 -2.71704E+01 -2.60279E+01 -2.24402E+01 -2.74428E+01
  -2.79923E+01 -2.30349E+01 -2.92020E+01 -2.98329E+01 -3.02001E+01 -3.11902E+01 -2.83343E+01 -2.90105E+01 -2.79117E+01 -2.72687E+01
  -3.15427E+01 -2.91415E+01 -2.97080E+01 -3.15253E+01 -3.28698E+01 -3.67644E+01 -3.45993E+01 -3.32811E+01 -3.00089E+01 -3.66798E+01
  -3.00805E+01 -2.69756E+01 -3.00245E+01 -2.56965E+01 -2.85423E+01 -2.72986E+01 -2.21657E+01 -2.65357E+01 -2.13220E+01 -2.71162E+01
  -2.53804E+01 -2.37068E+01 -2.42547E+01 -2.33683E+01 -1.76423E+01 -2.04960E+01 -1.81055E+01 -1.85589E+01 -1.82414E+01 -2.39554E+01
  -1.97606E+01 -1.92355E+01 -1.27122E+01 -1.90569E+01 -1.22834E+01 -1.03849E+01 -1.36431E+01 -4.62977E+00  1.60259E-01  8.50791E+00
   2.05138E+01  2.26850E+01  2.45787E+01  3.06319E+01  2.86697E+01  1.85949E+01  1.63615E+01  8.05491E+00 -8.78787E-01 -4.85537E+00
  -1.45256E+01 -1.83754E+01 -1.55238E+01 -1.65903E+01 -1.34237E+01 -1.92476E+01 -1.93986E+01 -1.81278E+01 -1.89093E+01 -2.06650E+01
  -1.49453E+01 -1.45875E+01 -1.17475E+01 -1.07176E+00  5.76605E+00  1.26496E+01  1.83031E+01  1.96547E+01  2.52438E+01  2.13975E+01
   1.50106E+01  1.09491E+01  4.75917E+00 -4.02209E+00 -8.74764E+00 -1.47355E+01 -1.69074E+01 -2.06627E+01 -2.04109E+01 -2.08847E+01
  -2.00883E+01 -2.29352E+01 -2.04121E+01 -1.59401E+01 -1.61829E+01 -1.66145E+01 -1.69772E+01 -1.76067E+01 -1.23508E+01 -1.82681E+01
  -2.03065E+01 -1.52202E+01 -1.36243E+01 -1.73587E+01 -1.67948E+01 -1.50215E+01 -1.77507E+01 -1.78969E+01 -1.82560E+01 -1.90086E+01
  -2.10752E+01 -1.82040E+01 -1.64989E+01 -2.06763E+01 -2.06720E+01 -1.69324E+01 -2.14921E+01 -1.76220E+01 -1.65347E+01 -2.17598E+01
  -2.04176E+01 -2.55140E+01 -2.40073E+01 -2.29347E+01 -2.76417E+01 -2.35872E+01 -2.76504E+01 -2.47604E+01 -2.39061E+01 -2.53536E+01
  -2.13114E+01 -2.24375E+01 -2.24700E+01 -2.34294E+01 -2.42274E+01 -2.33104E+01 -1.68859E+01 -1.91091E+01 -1.52442E+01 -1.25443E+01
  -1.14550E+01 -1.29265E+01 -1.02688E+01 -6.45271E+00 -6.39579E+00 -6.47680E+00 -9.24906E+00 -1.10863E+01 -8.99699E+00 -9.71464E+00
  -7.93425E+00 -8.33990E+00 -1.01787E+01 -1.02860E+01 -7.17512E+00 -8.93085E+00 -1.14253E+01 -1.24748E+01 -9.77908E+00 -1.21801E+01
  -9.29767E+00 -7.40360E+00 -9.48275E+00 -8.22681E+00 -4.24079E+00  2.42311E+00 -1.61216E+00 -8.04602E-01  4.15130E-01  1.04166E+00
  -3.76017E+00 -6.03412E+00 -6.38075E+00 -6.02396E+00 -4.40034E+00 -7.71603E+00 -3.60293E+00 -5.18402E+00  2.97897E-04 -3.68972E-01
   2.58543E+00 -6.40346E-01  1.17898E+00 -2.29241E+00  5.92984E-01  9.20158E-01 -2.95891E+00  1.19967E-01 -7.66389E-01  2.41717E-01
  -5.55681E-01 -1.12756E-01 -4.73718E+00 -3.10121E+00 -2.52061E-01  3.76856E+00  3.48762E+00  4.25997E+00  5.79441E+00  8.76700E+00
   1.03197E+01  8.19559E+00  1.51787E+01  2.18901E+01  2.89855E+01  3.85600E+01  4.40099E+01  5.61891E+01  6.64804E+01  7.06218E+01
   8.17111E+01  8.35504E+01  8.03574E+01  6.89752E+01  5.66315E+01  4.12006E+01  3.59050E+01  2.08170E+01  1.74041E+01  1.25617E+01
   7.03473E+00  5.97404E+00  7.17141E+00  5.55635E+00  4.89984E+00  1.18422E+00  1.40183E+00  4.18267E+00  1.03762E+00 -4.06939E-01
   1.81577E+00  1.93141E+00  2.61993E+00  2.32971E-01  7.95049E-01  2.18859E+00  1.98848E+00 -2.56979E+00 -5.89402E-01 -5.07178E-01
  -1.74156E+00 -3.37877E-01  3.80754E+00  2.00565E+00  2.32578E+00 -3.68606E-01  2.27794E+00  8.29533E-01  1.48660E+00  4.16696E+00
   2.54088E+00  2.59581E+00  6.58367E+00  5.20867E+00  7.40797E+00  2.48248E+00  4.86211E+00  3.41175E+00  5.10647E+00  6.91660E+00
   6.68888E+00  5.12168E+00  5.18785E+00  3.38665E+00  6.49720E+00  2.36328E+00  7.25578E+00  3.73786E+00  9.52546E-01  2.85424E+00
   1.25908E+00  3.61946E+00  3.81895E+00  6.36527E+00  3.72362E+00  5.84659E+00  4.05230E+00  6.37155E+00  9.58356E+00  5.63956E+00
   5.55110E+00  5.07550E+00  9.13376E+00  7.11431E+00  8.17558E+00  1.04531E+01  6.35494E+00  4.75077E+00  6.36393E+00  9.09799E+00
   6.58298E+00  8.57388E+00  6.70582E+00  7.95114E+00  8.51586E+00  9.81877E+00  8.61723E+00  1.06780E+01  1.30757E+01  9.07603E+00
   9.15987E+00  1.04845E+01  9.75915E+00  7.56302E+00  7.54811E+00  8.68401E+00  7.62784E+00  1.09614E+01  2.71287E+00  6.98667E+00
   6.87923E+00  2.70089E+00  1.56591E+00  6.10430E+00  2.28211E+00  1.85537E+00 -1.65692E-01  3.26737E+00 -3.85899E+00  7.64198E-01
   2.07878E+00  3.65467E-02  4.21747E-01  1.05664E+00  1.92472E+00  2.12431E+00 -1.07395E+00 -1.68226E+00  2.23276E+00 -1.25297E+00
   1.03869E+00 -1.72444E+00 -2.43538E+00 -3.43395E-01 -1.41425E+00 -5.07983E+00 -8.26480E-01 -2.69667E+00 -1.57034E+00  1.74922E+00
  -1.45688E+00 -1.99788E-01  6.27848E-01 -1.10309E+00  2.85374E+00 -1.17688E-01 -2.50278E+00  1.91139E+00  3.32300E+00  1.27521E+00
   3.74030E+00  1.48372E+00  5.58781E+00  2.36816E+00  6.00735E+00  2.27150E+00  6.43424E+00  6.69951E+00  5.80437E+00  4.29359E+00
   6.42077E+00  2.75571E+00  3.15097E+00  3.58125E+00  2.86361E+00  2.83699E+00  1.44000E+00  1.87182E+00  7.10931E+00 -6.85008E-01
   1.01954E+00 -1.55165E+00  7.66907E-01  4.24953E-01  4.11438E+00 -2.98242E+00 -2.76426E+00  3.38572E-01 -2.82612E+00 -7.12210E-01
   2.62747E-01 -6.64360E+00 -7.97269E-01 -1.44747E-01  4.60423E+00 -2.20364E+00  3.41000E-01  1.17723E+00  8.86548E-02 -8.17992E-01
   3.25464E+00 -2.69742E+00 -6.88360E-02 -1.69345E+00 -6.71848E-01 -3.70101E-01 -3.64163E+00  1.72219E+00 -4.01837E+00  9.22879E-01
  -1.85667E+00 -1.91635E+00 -3.01908E+00 -1.60187E+00 -1.84771E+00  3.69915E+00  9.75770E-01 -6.27964E-01 -6.69993E-01 -4.59503E-01
   8.29260E-01 -1.07725E+00 -1.04854E+00 -8.54848E-01  2.28438E+00  5.92531E-03  7.21164E-01 -2.29324E+00  1.73384E+00 -5.32592E-01
  -5.04861E-01  1.93227E+00 -1.14445E+00 -4.69331E-01  1.91679E+00  1.96226E+00  1.74724E+00  1.55623E+00 -1.63301E+00  1.75735E+00
   1.53701E-01  3.40684E+00  1.20137E+00 -3.97926E-01  9.44303E-01  2.68679E+00  1.67844E+00  1.28059E+00 -1.15176E-01  5.48798E-01
  -7.50335E-01  3.74022E+00  1.14976E+00  2.13184E+00 -7.24922E-01  1.62914E+00  2.00532E+00 -2.92002E-01
 NY points of the fit to the data follow
  -4.59222E+01 -4.51277E+01 -4.31572E+01 -4.07293E+01 -3.80186E+01 -3.46517E+01 -3.03757E+01 -2.56760E+01 -2.12547E+01 -1.75714E+01
  -1.51574E+01 -1.47018E+01 -1.62844E+01 -1.91741E+01 -2.26619E+01 -2.63269E+01 -2.97779E+01 -3.28506E+01 -3.56120E+01 -3.76366E+01
  -3.87961E+01 -3.93948E+01 -3.92541E+01 -3.88064E+01 -3.84323E+01 -3.79077E+01 -3.68291E+01 -3.51866E+01 -3.34352E+01 -3.17048E+01
  -2.99436E+01 -2.86884E+01 -2.84393E+01 -2.89025E+01 -2.96003E+01 -3.05997E+01 -3.19414E+01 -3.30914E+01 -3.37712E+01 -3.40484E+01
  -3.38267E+01 -3.31258E+01 -3.20699E+01 -3.07723E+01 -2.93538E+01 -2.79273E+01 -2.67529E+01 -2.60242E+01 -2.58267E+01 -2.63248E+01
  -2.74067E+01 -2.86467E+01 -2.97629E+01 -3.06595E+01 -3.13443E+01 -3.17650E+01 -3.18641E+01 -3.16424E+01 -3.11826E+01 -3.05999E+01
  -3.01492E+01 -2.99193E+01 -2.99026E+01 -3.00077E+01 -3.00893E+01 -3.00845E+01 -2.99655E+01 -2.96980E+01 -2.92190E+01 -2.86655E+01
  -2.81729E+01 -2.76821E+01 -2.71606E+01 -2.66864E+01 -2.63234E+01 -2.60967E+01 -2.60205E+01 -2.61127E+01 -2.62861E+01 -2.59816E+01
  -2.54935E+01 -2.50758E+01 -2.43310E+01 -2.29899E+01 -2.13427E+01 -1.98511E+01 -1.86299E+01 -1.77691E+01 -1.75396E+01 -1.81777E+01
  -1.93371E+01 -2.04573E+01 -2.13596E+01 -2.14606E+01 -1.90385E+01 -1.51568E+01 -1.14715E+01 -6.64021E+00  4.07170E-01  8.96287E+00
   1.73208E+01  2.42432E+01  2.91866E+01  3.09065E+01  2.81186E+01  2.18483E+01  1.43569E+01  6.58447E+00 -1.04764E+00 -7.58665E+00
  -1.29926E+01 -1.76508E+01 -2.04070E+01 -2.13931E+01 -2.18467E+01 -2.21067E+01 -2.22061E+01 -2.21354E+01 -2.14266E+01 -1.86231E+01
  -1.47961E+01 -1.14686E+01 -7.60731E+00 -2.05821E+00  4.81855E+00  1.16039E+01  1.73562E+01  2.15881E+01  2.31641E+01  2.09895E+01
   1.59680E+01  1.00003E+01  3.80639E+00 -2.33122E+00 -7.65961E+00 -1.21870E+01 -1.61856E+01 -1.83858E+01 -1.88903E+01 -1.88545E+01
  -1.85834E+01 -1.82150E+01 -1.78888E+01 -1.76454E+01 -1.74792E+01 -1.74250E+01 -1.74727E+01 -1.75944E+01 -1.77494E+01 -1.78862E+01
  -1.79997E+01 -1.80765E+01 -1.81101E+01 -1.81933E+01 -1.82938E+01 -1.83184E+01 -1.82778E+01 -1.82129E+01 -1.82431E+01 -1.83870E+01
  -1.85299E+01 -1.86163E+01 -1.86324E+01 -1.85521E+01 -1.84211E+01 -1.83513E+01 -1.84263E+01 -1.86911E+01 -1.91099E+01 -1.95297E+01
  -1.97857E+01 -2.00072E+01 -2.02931E+01 -2.06550E+01 -2.09758E+01 -2.10480E+01 -2.09265E+01 -2.07550E+01 -2.05163E+01 -2.02526E+01
  -1.99881E+01 -1.96373E+01 -1.91897E+01 -1.86358E+01 -1.79578E+01 -1.71760E+01 -1.63063E+01 -1.53729E+01 -1.42780E+01 -1.30588E+01
  -1.19784E+01 -1.12040E+01 -1.07014E+01 -1.04164E+01 -1.03395E+01 -1.03045E+01 -9.96548E+00 -9.41807E+00 -8.79378E+00 -8.03747E+00
  -7.24104E+00 -6.59685E+00 -6.15688E+00 -6.01851E+00 -6.37409E+00 -7.41443E+00 -8.87607E+00 -1.02420E+01 -1.12487E+01 -1.17991E+01
  -1.18295E+01 -1.11007E+01 -9.75925E+00 -8.15476E+00 -6.50763E+00 -5.12167E+00 -4.10049E+00 -3.53026E+00 -3.76932E+00 -4.85623E+00
  -6.21569E+00 -7.32842E+00 -8.01996E+00 -8.27949E+00 -7.93839E+00 -6.94618E+00 -5.61613E+00 -4.33449E+00 -3.22138E+00 -2.25560E+00
  -1.56983E+00 -1.17604E+00 -8.60228E-01 -5.98137E-01 -3.41595E-01  3.69679E-02  5.47490E-01  1.10638E+00  1.44849E+00  1.35151E+00
   9.26407E-01  3.58183E-01 -2.00556E-01 -5.07310E-01 -4.11860E-01  9.24180E-02  1.00837E+00  2.31274E+00  4.08362E+00  5.95669E+00
   7.82584E+00  1.02389E+01  1.52454E+01  2.31697E+01  3.03813E+01  3.71705E+01  4.57563E+01  5.62472E+01  6.64103E+01  7.45211E+01
   8.02609E+01  8.23582E+01  7.86053E+01  6.93675E+01  5.77686E+01  4.58807E+01  3.44579E+01  2.44338E+01  1.63113E+01  9.32665E+00
   4.36097E+00  2.54178E+00  1.91466E+00  1.58884E+00  1.40677E+00  1.31652E+00  1.22368E+00  1.10633E+00  9.80500E-01  8.57885E-01
   7.40167E-01  6.36913E-01  5.55052E-01  5.00826E-01  4.84280E-01  5.02630E-01  5.46567E-01  6.09686E-01  6.90801E-01  7.94783E-01
   9.24989E-01  1.07463E+00  1.24657E+00  1.44390E+00  1.65919E+00  1.88430E+00  2.11908E+00  2.36117E+00  2.60598E+00  2.85063E+00
   3.09197E+00  3.32516E+00  3.54629E+00  3.74856E+00  3.92561E+00  4.07216E+00  4.18388E+00  4.26015E+00  4.30219E+00  4.31056E+00
   4.29015E+00  4.24759E+00  4.18950E+00  4.12338E+00  4.05711E+00  3.99827E+00  3.95391E+00  3.93037E+00  3.93297E+00  3.96577E+00
   4.03131E+00  4.13052E+00  4.26273E+00  4.42579E+00  4.61608E+00  4.82872E+00  5.05781E+00  5.29665E+00  5.53812E+00  5.77501E+00
   6.00037E+00  6.20791E+00  6.39236E+00  6.55015E+00  6.68007E+00  6.78448E+00  6.87090E+00  6.95585E+00  7.07546E+00  7.30572E+00
   7.59126E+00  7.74458E+00  7.91031E+00  8.22110E+00  8.61020E+00  8.91233E+00  9.04523E+00  9.16516E+00  9.29740E+00  9.18527E+00
   8.89558E+00  8.71702E+00  8.72960E+00  8.80130E+00  8.84488E+00  8.83840E+00  8.68306E+00  8.29488E+00  7.64632E+00  6.73714E+00
   5.71413E+00  4.66526E+00  3.68972E+00  2.85326E+00  2.10113E+00  1.48327E+00  1.08586E+00  8.23992E-01  6.39559E-01  5.02430E-01
   3.94806E-01  3.06065E-01  2.30096E-01  1.63702E-01  1.05466E-01  5.51017E-02  1.29524E-02 -2.02422E-02 -4.35550E-02 -5.59060E-02
  -5.61492E-02 -4.30477E-02 -1.53429E-02  2.82812E-02  8.91406E-02  1.68588E-01  2.67930E-01  3.88425E-01  5.31166E-01  6.97046E-01
   8.86617E-01  1.10003E+00  1.33687E+00  1.59605E+00  1.87566E+00  2.17294E+00  2.48413E+00  2.80457E+00  3.12860E+00  3.44976E+00
   3.76091E+00  4.05445E+00  4.32264E+00  4.55792E+00  4.75323E+00  4.90238E+00  5.00036E+00  5.04363E+00  5.03032E+00  4.96033E+00
   4.83531E+00  4.65866E+00  4.43530E+00  4.17142E+00  3.87418E+00  3.55136E+00  3.21092E+00  2.86075E+00  2.50829E+00  2.16033E+00
   1.82273E+00  1.50041E+00  1.19714E+00  9.15720E-01  6.57889E-01  4.24534E-01  2.15738E-01  3.09639E-02 -1.30845E-01 -2.71066E-01
  -3.91327E-01 -4.93351E-01 -5.78928E-01 -6.49799E-01 -7.07643E-01 -7.53992E-01 -7.90260E-01 -8.17700E-01 -8.37449E-01 -8.50488E-01
  -8.57689E-01 -8.59773E-01 -8.57385E-01 -8.51058E-01 -8.41281E-01 -8.28449E-01 -8.12917E-01 -7.94965E-01 -7.74856E-01 -7.52799E-01
  -7.29006E-01 -7.03635E-01 -6.76840E-01 -6.48728E-01 -6.19417E-01 -5.88998E-01 -5.57572E-01 -5.25202E-01 -4.91963E-01 -4.57901E-01
  -4.23084E-01 -3.87556E-01 -3.51380E-01 -3.14580E-01 -2.77200E-01 -2.39262E-01 -2.00817E-01 -1.61888E-01 -1.22515E-01 -8.27061E-02
  -4.24928E-02 -1.88498E-03  3.90778E-02  8.03859E-02  1.22012E-01  1.63958E-01  2.06198E-01  2.48726E-01  2.91506E-01  3.34540E-01
   3.77808E-01  4.21317E-01  4.65044E-01  5.08987E-01  5.53122E-01  5.97459E-01  6.41986E-01  6.86717E-01  7.31631E-01  7.76735E-01
   8.22017E-01  8.67500E-01  9.13183E-01  9.59089E-01  1.00521E+00  1.05158E+00  1.09820E+00  1.14513E+00
 NY background values follow
    -5.011E+01   -4.987E+01   -4.964E+01   -4.940E+01   -4.916E+01   -4.893E+01   -4.869E+01   -4.846E+01   -4.822E+01   -4.798E+01
    -4.775E+01   -4.751E+01   -4.728E+01   -4.704E+01   -4.681E+01   -4.657E+01   -4.634E+01   -4.610E+01   -4.587E+01   -4.563E+01
    -4.540E+01   -4.516E+01   -4.493E+01   -4.469E+01   -4.446E+01   -4.423E+01   -4.399E+01   -4.376E+01   -4.353E+01   -4.329E+01
    -4.306E+01   -4.283E+01   -4.260E+01   -4.236E+01   -4.213E+01   -4.190E+01   -4.167E+01   -4.144E+01   -4.121E+01   -4.098E+01
    -4.075E+01   -4.052E+01   -4.029E+01   -4.007E+01   -3.984E+01   -3.961E+01   -3.939E+01   -3.916E+01   -3.893E+01   -3.871E+01
    -3.848E+01   -3.826E+01   -3.804E+01   -3.781E+01   -3.759E+01   -3.737E+01   -3.715E+01   -3.693E+01   -3.670E+01   -3.649E+01
    -3.627E+01   -3.605E+01   -3.583E+01   -3.561E+01   -3.540E+01   -3.518E+01   -3.497E+01   -3.475E+01   -3.454E+01   -3.432E+01
    -3.411E+01   -3.390E+01   -3.369E+01   -3.348E+01   -3.327E+01   -3.306E+01   -3.285E+01   -3.265E+01   -3.244E+01   -3.224E+01
    -3.203E+01   -3.183E+01   -3.162E+01   -3.142E+01   -3.122E+01   -3.102E+01   -3.082E+01   -3.062E+01   -3.043E+01   -3.023E+01
    -3.004E+01   -2.984E+01   -2.965E+01   -2.946E+01   -2.926E+01   -2.907E+01   -2.888E+01   -2.870E+01   -2.851E+01   -2.832E+01
    -2.813E+01   -2.795E+01   -2.776E+01   -2.758E+01   -2.740E+01   -2.722E+01   -2.704E+01   -2.686E+01   -2.668E+01   -2.650E+01
    -2.632E+01   -2.614E+01   -2.596E+01   -2.579E+01   -2.561E+01   -2.544E+01   -2.527E+01   -2.509E+01   -2.492E+01   -2.475E+01
    -2.458E+01   -2.441E+01   -2.424E+01   -2.407E+01   -2.390E+01   -2.373E+01   -2.356E+01   -2.339E+01   -2.323E+01   -2.306E+01
    -2.290E+01   -2.273E+01   -2.257E+01   -2.240E+01   -2.224E+01   -2.208E+01   -2.191E+01   -2.175E+01   -2.159E+01   -2.143E+01
    -2.127E+01   -2.110E+01   -2.094E+01   -2.078E+01   -2.062E+01   -2.046E+01   -2.030E+01   -2.014E+01   -1.999E+01   -1.983E+01
    -1.967E+01   -1.951E+01   -1.935E+01   -1.919E+01   -1.903E+01   -1.888E+01   -1.872E+01   -1.856E+01   -1.840E+01   -1.824E+01
    -1.808E+01   -1.793E+01   -1.777E+01   -1.761E+01   -1.745E+01   -1.729E+01   -1.713E+01   -1.697E+01   -1.681E+01   -1.665E+01
    -1.649E+01   -1.633E+01   -1.617E+01   -1.601E+01   -1.585E+01   -1.569E+01   -1.553E+01   -1.537E+01   -1.520E+01   -1.504E+01
    -1.488E+01   -1.471E+01   -1.455E+01   -1.438E+01   -1.422E+01   -1.405E+01   -1.389E+01   -1.372E+01   -1.355E+01   -1.339E+01
    -1.322E+01   -1.305E+01   -1.289E+01   -1.272E+01   -1.255E+01   -1.239E+01   -1.222E+01   -1.205E+01   -1.189E+01   -1.172E+01
    -1.156E+01   -1.139E+01   -1.123E+01   -1.106E+01   -1.090E+01   -1.073E+01   -1.057E+01   -1.041E+01   -1.025E+01   -1.008E+01
    -9.924E+00   -9.764E+00   -9.605E+00   -9.447E+00   -9.289E+00   -9.133E+00   -8.977E+00   -8.823E+00   -8.670E+00   -8.517E+00
    -8.366E+00   -8.216E+00   -8.067E+00   -7.920E+00   -7.774E+00   -7.629E+00   -7.485E+00   -7.343E+00   -7.202E+00   -7.063E+00
    -6.925E+00   -6.789E+00   -6.654E+00   -6.521E+00   -6.389E+00   -6.258E+00   -6.129E+00   -6.001E+00   -5.875E+00   -5.750E+00
    -5.627E+00   -5.506E+00   -5.385E+00   -5.267E+00   -5.150E+00   -5.034E+00   -4.920E+00   -4.807E+00   -4.696E+00   -4.587E+00
    -4.479E+00   -4.372E+00   -4.267E+00   -4.164E+00   -4.062E+00   -3.962E+00   -3.864E+00   -3.767E+00   -3.671E+00   -3.577E+00
    -3.485E+00   -3.394E+00   -3.305E+00   -3.218E+00   -3.132E+00   -3.048E+00   -2.965E+00   -2.884E+00   -2.805E+00   -2.727E+00
    -2.651E+00   -2.577E+00   -2.504E+00   -2.433E+00   -2.363E+00   -2.296E+00   -2.229E+00   -2.165E+00   -2.102E+00   -2.041E+00
    -1.981E+00   -1.923E+00   -1.866E+00   -1.811E+00   -1.757E+00   -1.705E+00   -1.655E+00   -1.606E+00   -1.558E+00   -1.512E+00
    -1.468E+00   -1.424E+00   -1.383E+00   -1.343E+00   -1.304E+00   -1.267E+00   -1.231E+00   -1.197E+00   -1.164E+00   -1.132E+00
    -1.102E+00   -1.073E+00   -1.045E+00   -1.019E+00   -9.944E-01   -9.710E-01   -9.489E-01   -9.281E-01   -9.086E-01   -8.904E-01
    -8.735E-01   -8.578E-01   -8.435E-01   -8.303E-01   -8.185E-01   -8.079E-01   -7.985E-01   -7.903E-01   -7.833E-01   -7.775E-01
    -7.728E-01   -7.693E-01   -7.668E-01   -7.654E-01   -7.650E-01   -7.656E-01   -7.671E-01   -7.696E-01   -7.730E-01   -7.773E-01
    -7.824E-01   -7.884E-01   -7.952E-01   -8.027E-01   -8.110E-01   -8.199E-01   -8.296E-01   -8.399E-01   -8.509E-01   -8.624E-01
    -8.745E-01   -8.871E-01   -9.003E-01   -9.139E-01   -9.280E-01   -9.425E-01   -9.574E-01   -9.727E-01   -9.883E-01   -1.004E+00
    -1.020E+00   -1.037E+00   -1.054E+00   -1.070E+00   -1.087E+00   -1.105E+00   -1.122E+00   -1.139E+00   -1.157E+00   -1.174E+00
    -1.192E+00   -1.209E+00   -1.226E+00   -1.244E+00   -1.261E+00   -1.278E+00   -1.295E+00   -1.312E+00   -1.328E+00   -1.345E+00
    -1.361E+00   -1.376E+00   -1.392E+00   -1.407E+00   -1.422E+00   -1.437E+00   -1.451E+00   -1.465E+00   -1.478E+00   -1.491E+00
    -1.504E+00   -1.516E+00   -1.528E+00   -1.539E+00   -1.549E+00   -1.559E+00   -1.569E+00   -1.578E+00   -1.586E+00   -1.593E+00
    -1.600E+00   -1.607E+00   -1.612E+00   -1.617E+00   -1.621E+00   -1.624E+00   -1.627E+00   -1.629E+00   -1.629E+00   -1.629E+00
    -1.628E+00   -1.627E+00   -1.624E+00   -1.620E+00   -1.616E+00   -1.610E+00   -1.604E+00   -1.596E+00   -1.588E+00   -1.578E+00
    -1.567E+00   -1.556E+00   -1.543E+00   -1.530E+00   -1.515E+00   -1.500E+00   -1.483E+00   -1.466E+00   -1.448E+00   -1.429E+00
    -1.409E+00   -1.389E+00   -1.367E+00   -1.345E+00   -1.322E+00   -1.298E+00   -1.274E+00   -1.249E+00   -1.223E+00   -1.196E+00
    -1.169E+00   -1.141E+00   -1.112E+00   -1.083E+00   -1.053E+00   -1.022E+00   -9.913E-01   -9.596E-01   -9.274E-01   -8.946E-01
    -8.612E-01   -8.274E-01   -7.931E-01   -7.582E-01   -7.230E-01   -6.872E-01   -6.511E-01   -6.145E-01   -5.775E-01   -5.401E-01
    -5.023E-01   -4.642E-01   -4.258E-01   -3.870E-01   -3.479E-01   -3.085E-01   -2.688E-01   -2.288E-01   -1.885E-01   -1.480E-01
    -1.072E-01   -6.614E-02   -2.485E-02    1.667E-02    5.841E-02    1.004E-01    1.425E-01    1.849E-01    2.274E-01    2.701E-01
     3.130E-01    3.560E-01    3.991E-01    4.424E-01    4.859E-01    5.294E-01    5.731E-01    6.168E-01    6.606E-01    7.045E-01
     7.485E-01    7.926E-01    8.366E-01    8.808E-01    9.249E-01    9.691E-01    1.013E+00    1.057E+00    1.102E+00    1.146E+00
     1.190E+00    1.234E+00    1.278E+00    1.322E+00    1.366E+00    1.410E+00    1.454E+00    1.497E+00
 Cr       Conc. = 4.02E+02
