 LCModel (Version 6.3-1L) Copyright: S.W. Provencher.          Ref.: Magn. Reson. Med. 30:672-679 (1993).                
 Slice#2 Row#12 Col#12  PD_24_press_1_raw_act
 36 lines in following concentration table = NCONC+1
    Conc.  %SD /Cr+PCr  Metabolite                                         
    0.000 999%   0.000 Ala                                                 
    2.343 133%   0.359 Asp                                                 
    6.520  26%   1.000 Cr                                                  
    0.000 999%   0.000 PCr                                                 
    1.179 151%   0.181 GABA                                                
    1.252 154%   0.192 Glc                                                 
    0.573 746% 8.8E-02 Gln                                                 
    7.868  61%   1.207 Glu                                                 
    1.905  34%   0.292 GPC                                                 
    0.000 999%   0.000 PCh                                                 
    1.304 139%   0.200 GSH                                                 
    2.254 264%   0.346 Ins                                                 
    0.000 999%   0.000 Lac                                                 
   12.879  19%   1.975 NAA                                                 
    9.849  23%   1.511 NAAG                                                
    0.229 234% 3.5E-02 Scyllo                                              
    3.770  76%   0.578 Tau                                                 
    0.178 999% 2.7E-02 -CrCH2                                              
    1.905  34%   0.292 GPC+PCh                                             
   22.728  17%   3.486 NAA+NAAG                                            
    6.520  26%   1.000 Cr+PCr                                              
    8.441  66%   1.295 Glu+Gln                                             
 2.81E+03   5% 430.905 Lip13a                                              
    0.000 999%   0.000 Lip13b                                              
    0.000 999%   0.000 Lip09                                               
    0.000 999%   0.000 MM09                                                
    0.000 999%   0.000 Lip20                                               
    0.000 999%   0.000 MM20                                                
 9.74E-04 999% 1.5E-04 MM12                                                
 8.15E-02 999% 1.2E-02 MM14                                                
 4.51E-02 999% 6.9E-03 MM17                                                
 2.81E+03   5% 430.905 Lip13a+Lip13b                                       
 2.81E+03   5% 430.917 MM14+Lip13a+Lip13b+MM12                             
    0.000 999%   0.000 MM09+Lip09                                          
    0.000 999%   0.000 MM20+Lip20                                          
   6 lines in following misc. output table
  FWHM = 0.023 ppm    S/N =   4                                            
  Data shift =-0.008 ppm                                                   
  Ph: -21 deg     -27.4 deg/ppm                                            
  alphaB,S = 8.5E+01,   5.8E-01                                            
   14 spline knots.   Ns = 5(1)                                            
   2 inflections.     2 extrema                                            
  498 points on ppm-axis = NY
      4.000000     3.992357     3.984714     3.977070     3.969427     3.961784     3.954141     3.946497     3.938854     3.931211
      3.923568     3.915925     3.908281     3.900638     3.892995     3.885352     3.877708     3.870065     3.862422     3.854779
      3.847136     3.839492     3.831849     3.824206     3.816563     3.808919     3.801276     3.793633     3.785990     3.778347
      3.770703     3.763060     3.755417     3.747774     3.740130     3.732487     3.724844     3.717201     3.709558     3.701914
      3.694271     3.686628     3.678985     3.671341     3.663698     3.656055     3.648412     3.640769     3.633125     3.625482
      3.617839     3.610196     3.602552     3.594909     3.587266     3.579623     3.571980     3.564336     3.556693     3.549050
      3.541407     3.533763     3.526120     3.518477     3.510834     3.503191     3.495547     3.487904     3.480261     3.472618
      3.464974     3.457331     3.449688     3.442045     3.434402     3.426758     3.419115     3.411472     3.403829     3.396185
      3.388542     3.380899     3.373256     3.365613     3.357969     3.350326     3.342683     3.335040     3.327396     3.319753
      3.312110     3.304467     3.296824     3.289180     3.281537     3.273894     3.266251     3.258607     3.250964     3.243321
      3.235678     3.228034     3.220391     3.212748     3.205105     3.197462     3.189818     3.182175     3.174532     3.166889
      3.159245     3.151602     3.143959     3.136316     3.128673     3.121029     3.113386     3.105743     3.098100     3.090456
      3.082813     3.075170     3.067527     3.059884     3.052240     3.044597     3.036954     3.029311     3.021667     3.014024
      3.006381     2.998738     2.991095     2.983451     2.975808     2.968165     2.960522     2.952878     2.945235     2.937592
      2.929949     2.922306     2.914662     2.907019     2.899376     2.891733     2.884089     2.876446     2.868803     2.861160
      2.853517     2.845873     2.838230     2.830587     2.822944     2.815300     2.807657     2.800014     2.792371     2.784728
      2.777084     2.769441     2.761798     2.754155     2.746511     2.738868     2.731225     2.723582     2.715939     2.708295
      2.700652     2.693009     2.685366     2.677722     2.670079     2.662436     2.654793     2.647150     2.639506     2.631863
      2.624220     2.616577     2.608933     2.601290     2.593647     2.586004     2.578361     2.570717     2.563074     2.555431
      2.547788     2.540144     2.532501     2.524858     2.517215     2.509572     2.501928     2.494285     2.486642     2.478999
      2.471355     2.463712     2.456069     2.448426     2.440783     2.433139     2.425496     2.417853     2.410210     2.402566
      2.394923     2.387280     2.379637     2.371994     2.364350     2.356707     2.349064     2.341421     2.333777     2.326134
      2.318491     2.310848     2.303205     2.295561     2.287918     2.280275     2.272632     2.264988     2.257345     2.249702
      2.242059     2.234416     2.226772     2.219129     2.211486     2.203843     2.196199     2.188556     2.180913     2.173270
      2.165627     2.157983     2.150340     2.142697     2.135054     2.127410     2.119767     2.112124     2.104481     2.096838
      2.089194     2.081551     2.073908     2.066265     2.058621     2.050978     2.043335     2.035692     2.028049     2.020405
      2.012762     2.005119     1.997476     1.989833     1.982190     1.974546     1.966903     1.959260     1.951617     1.943974
      1.936331     1.928688     1.921045     1.913402     1.905759     1.898115     1.890472     1.882829     1.875186     1.867543
      1.859900     1.852257     1.844614     1.836971     1.829327     1.821684     1.814041     1.806398     1.798755     1.791112
      1.783469     1.775826     1.768183     1.760540     1.752896     1.745253     1.737610     1.729967     1.722324     1.714681
      1.707038     1.699395     1.691752     1.684108     1.676465     1.668822     1.661179     1.653536     1.645893     1.638250
      1.630607     1.622964     1.615321     1.607677     1.600034     1.592391     1.584748     1.577105     1.569462     1.561819
      1.554176     1.546533     1.538890     1.531246     1.523603     1.515960     1.508317     1.500674     1.493031     1.485388
      1.477745     1.470102     1.462458     1.454815     1.447172     1.439529     1.431886     1.424243     1.416600     1.408957
      1.401314     1.393671     1.386027     1.378384     1.370741     1.363098     1.355455     1.347812     1.340169     1.332526
      1.324883     1.317240     1.309596     1.301953     1.294310     1.286667     1.279024     1.271381     1.263738     1.256095
      1.248452     1.240808     1.233165     1.225522     1.217879     1.210236     1.202593     1.194950     1.187307     1.179664
      1.172021     1.164377     1.156734     1.149091     1.141448     1.133805     1.126162     1.118519     1.110876     1.103233
      1.095590     1.087946     1.080303     1.072660     1.065017     1.057374     1.049731     1.042088     1.034445     1.026802
      1.019158     1.011515     1.003872     0.996229     0.988586     0.980943     0.973300     0.965657     0.958014     0.950371
      0.942727     0.935084     0.927441     0.919798     0.912155     0.904512     0.896869     0.889226     0.881583     0.873940
      0.866296     0.858653     0.851010     0.843367     0.835724     0.828081     0.820438     0.812795     0.805152     0.797508
      0.789865     0.782222     0.774579     0.766936     0.759293     0.751650     0.744007     0.736364     0.728721     0.721077
      0.713434     0.705791     0.698148     0.690505     0.682862     0.675219     0.667576     0.659933     0.652290     0.644646
      0.637003     0.629360     0.621717     0.614074     0.606431     0.598788     0.591145     0.583502     0.575858     0.568215
      0.560572     0.552929     0.545286     0.537643     0.530000     0.522357     0.514714     0.507071     0.499427     0.491784
      0.484141     0.476498     0.468855     0.461212     0.453569     0.445925     0.438282     0.430639     0.422996     0.415353
      0.407710     0.400067     0.392424     0.384780     0.377137     0.369494     0.361851     0.354208     0.346565     0.338922
      0.331278     0.323635     0.315992     0.308349     0.300706     0.293063     0.285420     0.277777     0.270133     0.262490
      0.254847     0.247204     0.239561     0.231918     0.224275     0.216631     0.208988     0.201345
 NY phased data points follow
   7.94948E+00  3.97654E+00  5.07758E+00  7.18474E+00  6.35013E+00  4.61963E+00  4.27186E+00  2.75397E+00  4.03369E+00  3.41940E+00
   4.11665E+00  5.44684E+00  7.05424E+00  6.98540E+00  4.98312E+00  6.65410E+00  5.76454E+00  3.14315E+00  4.48121E+00  3.78344E+00
   3.24617E+00  3.19482E+00  5.27876E+00  4.43616E+00  3.54156E+00  2.70169E+00  4.25684E+00  3.84161E+00  4.28147E+00  5.48383E+00
   3.77379E+00  2.61538E+00  3.12050E+00  5.62391E+00  5.54808E+00  2.04194E+00  3.65762E+00  2.90203E+00  7.18797E-01  3.43250E+00
   4.07450E+00  3.17310E+00  3.46535E+00  3.66155E+00  3.73005E+00  2.74837E+00  5.32300E+00  1.69946E+00  4.55880E+00  7.18208E+00
   1.04257E+00  4.57806E+00  4.68516E+00  1.70324E+00  3.59987E+00  4.18450E+00  5.45474E+00  4.32667E+00  4.54697E+00  4.59567E+00
   2.46748E+00  2.04988E+00  2.57363E+00  4.26109E+00  3.13590E+00  3.20148E+00  1.82911E+00  2.04334E+00  1.93540E+00  3.43041E+00
   2.39452E+00  2.25569E+00  2.83613E+00  1.49178E+00  3.48958E+00  2.92503E+00  2.44567E+00  5.16865E+00  4.52939E+00  2.90997E+00
   9.69389E-01  1.57835E+00  3.43312E+00  2.00071E+00  3.10241E+00  1.57123E+00  2.09368E+00  2.80218E+00  2.73721E+00  8.56850E-01
   5.56457E+00 -8.98889E-01  3.07588E+00  3.26152E+00  2.74714E+00  1.64276E+00  5.26729E-01  2.25784E+00  2.10157E+00  2.73968E+00
   2.15108E-01  3.19459E+00  2.94544E+00  5.73829E+00  4.50992E+00  5.68288E+00  2.65799E+00  1.74008E+00  2.56434E+00  4.19512E+00
   3.01371E+00  2.70572E+00  1.86818E+00  2.48541E+00  7.46092E-01  3.65033E+00 -7.84137E-01  2.35876E+00  1.92692E+00  2.28694E+00
   1.46064E+00  8.80524E-01 -1.02102E-01  2.51007E-01 -3.02312E-01  1.17530E+00  2.11140E+00  2.34722E+00  3.47401E+00  4.97650E+00
   3.24059E+00  2.84676E+00  6.61533E-01  1.34023E+00  1.93059E+00  3.16924E+00  2.15616E+00 -1.48082E-01  2.47926E+00  7.58468E-01
   2.49950E+00  1.21301E+00  2.00144E+00  2.09344E+00  1.90608E+00  1.84127E+00  2.64445E+00  4.34418E-01  2.05747E+00  2.30300E+00
   1.55094E+00  2.58210E+00  2.71599E+00  1.38462E+00 -9.03899E-02 -1.17134E-01  1.10758E+00  1.74534E+00 -6.16517E-01  1.09455E+00
   2.15443E+00  1.05141E+00  2.68214E+00  1.33677E-01  2.21320E+00  1.62488E+00 -6.14760E-01  2.57764E+00  2.63131E+00  3.98215E+00
   3.30484E+00  2.58229E+00  5.18166E-01  2.76832E+00  1.01888E+00  1.20866E+00  1.55950E+00  2.30101E+00  1.01784E+00  1.26239E+00
  -8.25015E-01  2.62211E+00  7.05289E-01 -4.43831E-02  1.22169E+00 -3.66740E-02  7.55821E-01  1.74280E+00 -1.16960E+00  1.18214E+00
   1.99199E+00 -2.51703E-01  4.11328E+00  8.36177E-01  2.04125E-01 -1.54575E-02  2.09246E+00 -1.95297E+00  7.44191E-01  9.48845E-01
   2.36354E+00  1.48232E+00  1.21684E-01  7.84285E-01  1.11022E+00  2.36249E+00  1.35003E-02  1.36352E+00  6.27570E-01 -2.68018E-01
   1.29328E+00  1.28390E-01 -1.13565E-01 -1.34576E+00  8.31536E-01  2.01485E+00  3.33145E+00  2.79310E-01  2.59060E+00  3.36790E-02
   3.88026E+00  2.79181E+00  9.15353E-01  1.58970E+00 -7.83725E-01  1.73417E+00  1.16240E-01  2.21360E+00  1.57864E+00  5.12787E-01
   1.61090E+00 -6.43089E-01 -7.41450E-01  3.76444E-01 -5.32486E-01  2.03145E+00  6.52602E-01  9.71869E-01  2.07493E-01  1.77485E-02
  -9.04814E-01 -6.23890E-01  7.40735E-01  2.09720E-01  3.01426E-01 -1.72346E+00  7.35922E-01  2.03625E+00 -9.89716E-01  2.44132E+00
  -7.35340E-01 -1.04957E-01 -1.79002E+00 -4.11390E+00 -2.62888E+00 -7.54572E-01 -3.76260E-01  1.44387E-01  1.37257E+00 -1.42766E-01
   2.18547E+00  6.30422E+00  4.91452E+00  5.35082E+00  2.06735E+00  2.44280E+00 -2.30819E-01  2.44069E+00  2.29428E+00  1.25060E+00
   3.04998E+00 -2.00282E+00  5.72323E-01  1.38152E+00  1.47750E+00 -7.58148E-01  1.69297E-01  2.30527E+00 -1.89991E+00  3.38630E+00
   2.09109E+00  2.26933E+00  1.17762E+00  1.18162E-01  1.38148E+00 -5.96431E-01  1.80105E+00  2.95918E+00  1.97143E+00  3.21111E+00
   1.82647E+00  1.48153E+00 -7.72314E-02 -2.75169E-01  6.33471E-01  4.29473E-01  2.23281E+00  2.06342E+00  1.46330E+00  1.22964E+00
   2.92698E+00  2.45284E+00  2.44170E+00  1.04803E+00 -3.70520E-01  1.24636E+00  2.38704E+00  8.96407E-01  1.74945E+00  2.46619E+00
  -2.22123E+00  4.46920E-01  1.38964E+00 -3.20137E-01  1.11033E+00  1.59696E+00  9.06277E-01  1.96809E+00 -5.18151E-01  7.48436E-01
   3.04632E+00  5.71469E-01  1.55090E+00  2.34426E+00  2.31385E+00  1.45498E+00  1.10731E-01  3.69021E+00  1.22894E+00  3.78698E+00
   1.14584E+00  5.21156E+00  4.22989E+00  2.07908E+00  4.02622E+00  3.67074E+00  3.71539E+00  2.10318E+00  3.73863E+00  1.24270E+00
   4.48403E+00  4.34495E+00  3.99107E+00  1.57855E+00  5.75077E+00  4.89977E+00  2.28756E+00  3.64065E+00  5.38076E+00  6.74602E+00
   8.96618E+00  5.72610E+00  9.30225E+00  7.25563E+00  6.94143E+00  7.71093E+00  8.02163E+00  1.01086E+01  9.28620E+00  8.42705E+00
   8.80448E+00  1.16284E+01  1.33222E+01  1.33510E+01  1.27129E+01  1.21143E+01  1.19852E+01  1.36336E+01  9.69692E+00  1.32699E+01
   1.15075E+01  9.56716E+00  9.72956E+00  7.99463E+00  9.28573E+00  1.00238E+01  5.56992E+00  7.73841E+00  5.96436E+00  4.21872E+00
   3.70672E+00  4.50224E+00  4.33005E+00  3.75806E+00  1.66954E+00  3.32379E+00  1.50901E+00  3.51880E+00  2.53180E+00 -9.92079E-01
  -9.52804E-01  1.79291E+00 -4.52734E-01  3.87458E-01  8.45949E-03  3.92915E-01  1.03223E+00  4.82939E-01  1.06499E+00  7.25966E-01
  -2.50584E-01 -1.76208E+00 -9.17539E-01 -1.14619E+00 -1.39675E+00 -1.09925E+00 -4.29612E-01  5.35609E-01 -8.36201E-01  6.94643E-01
  -1.46334E+00 -1.36767E+00 -5.10688E+00 -2.56176E-01 -1.53382E+00 -2.07971E+00 -3.36389E+00 -3.74840E-01 -6.17954E-02 -2.50848E+00
  -2.11881E+00  1.54273E+00 -1.81876E+00  7.22557E-01 -2.40883E+00 -3.12863E+00 -2.08976E+00 -3.86321E-01 -7.60199E-01  1.58790E+00
  -1.17046E+00  1.23676E-01  2.70993E-01 -2.34537E+00 -1.44576E+00 -2.35016E+00 -1.75465E+00 -2.91785E+00 -7.60690E-01 -2.75260E-01
  -5.80322E-02  1.14202E+00 -2.34684E-01 -1.33973E+00 -1.24170E+00 -2.04526E+00 -3.16955E+00 -2.87288E+00 -1.59157E+00  9.34259E-01
  -6.68563E-01  3.98686E-01 -1.45164E+00  4.42011E-01 -1.88381E+00 -7.71152E-01 -1.27230E+00 -2.69432E+00 -3.58985E-01 -1.89580E+00
  -4.12336E-01 -2.55076E-01 -2.16586E+00 -3.37011E+00 -1.32276E+00 -1.32013E+00 -9.04240E-01 -1.01011E+00 -1.19069E+00 -2.29286E+00
  -1.40148E+00 -3.26980E-01 -2.04161E+00 -1.34229E+00 -2.49519E+00  3.92573E-01 -1.70184E+00  3.65459E-01 -2.57706E+00 -1.76505E+00
  -3.34376E+00 -1.16198E+00 -2.92469E+00 -9.15845E-01 -3.06648E+00 -1.50525E+00  8.47986E-03 -1.56658E+00 -2.75202E+00 -2.53804E+00
  -3.38685E+00 -1.44423E+00  9.80138E-01 -1.16635E-01 -1.30334E-01 -2.15005E+00 -1.22362E+00 -3.28063E-01
 NY points of the fit to the data follow
   3.69671E+00  3.64639E+00  3.60500E+00  3.58573E+00  3.58947E+00  3.54025E+00  3.21497E+00  2.69765E+00  2.33489E+00  2.48672E+00
   3.27593E+00  4.41011E+00  5.24951E+00  5.33119E+00  4.73580E+00  4.09096E+00  3.74290E+00  3.63422E+00  3.57282E+00  3.46909E+00
   3.38818E+00  3.36638E+00  3.39410E+00  3.45867E+00  3.50023E+00  3.46280E+00  3.36535E+00  3.23810E+00  3.13055E+00  3.11802E+00
   3.24568E+00  3.46372E+00  3.65108E+00  3.75492E+00  3.79130E+00  3.71749E+00  3.54551E+00  3.32787E+00  3.15556E+00  3.09188E+00
   3.11793E+00  3.17898E+00  3.22002E+00  3.21085E+00  3.17033E+00  3.13547E+00  3.15751E+00  3.23978E+00  3.33207E+00  3.37815E+00
   3.35822E+00  3.28703E+00  3.20562E+00  3.14473E+00  3.11174E+00  3.08911E+00  3.06381E+00  3.03272E+00  3.01361E+00  3.02246E+00
   3.05508E+00  3.07995E+00  3.06588E+00  3.02607E+00  2.97999E+00  2.96613E+00  2.99148E+00  3.02250E+00  3.02316E+00  2.98697E+00
   2.89882E+00  2.77933E+00  2.68895E+00  2.70139E+00  2.82765E+00  3.03186E+00  3.21509E+00  3.25189E+00  3.10014E+00  2.85557E+00
   2.66143E+00  2.56931E+00  2.58402E+00  2.66464E+00  2.76716E+00  2.85751E+00  2.91707E+00  2.91206E+00  2.84366E+00  2.76091E+00
   2.73733E+00  2.77701E+00  2.81371E+00  2.75436E+00  2.56692E+00  2.34844E+00  2.18869E+00  1.96390E+00  1.50276E+00  1.10489E+00
   1.09996E+00  1.77771E+00  3.03132E+00  4.31534E+00  4.85970E+00  4.43341E+00  3.50270E+00  2.84503E+00  2.56642E+00  2.55082E+00
   2.54379E+00  2.50915E+00  2.47684E+00  2.44964E+00  2.43253E+00  2.42259E+00  2.41472E+00  2.40177E+00  2.37817E+00  2.33449E+00
   2.25037E+00  2.01918E+00  1.37822E+00  5.93059E-01  1.88166E-01  6.39321E-01  1.98893E+00  3.71012E+00  4.84577E+00  4.82550E+00
   3.87743E+00  2.95318E+00  2.47681E+00  2.38701E+00  2.37897E+00  2.29313E+00  2.16054E+00  2.04088E+00  1.98740E+00  2.00366E+00
   2.06293E+00  2.11212E+00  2.12303E+00  2.10851E+00  2.09590E+00  2.10504E+00  2.12413E+00  2.12536E+00  2.10293E+00  2.08061E+00
   2.08484E+00  2.09617E+00  2.08084E+00  2.01265E+00  1.90004E+00  1.81813E+00  1.84481E+00  1.98000E+00  2.13002E+00  2.17761E+00
   2.06430E+00  1.85648E+00  1.68977E+00  1.67121E+00  1.78609E+00  1.94282E+00  2.02459E+00  1.98220E+00  1.84563E+00  1.70216E+00
   1.62937E+00  1.68987E+00  1.83892E+00  1.94773E+00  1.90808E+00  1.73028E+00  1.55285E+00  1.51074E+00  1.62708E+00  1.75361E+00
   1.73845E+00  1.57075E+00  1.40033E+00  1.34622E+00  1.41599E+00  1.49308E+00  1.47893E+00  1.37382E+00  1.31687E+00  1.40186E+00
   1.59720E+00  1.77626E+00  1.84611E+00  1.81283E+00  1.70999E+00  1.58707E+00  1.49303E+00  1.43576E+00  1.39455E+00  1.35689E+00
   1.33932E+00  1.35509E+00  1.40179E+00  1.49603E+00  1.65127E+00  1.81521E+00  1.89586E+00  1.83431E+00  1.67374E+00  1.44812E+00
   1.19867E+00  9.25381E-01  7.22969E-01  6.92243E-01  8.97996E-01  1.31340E+00  1.79327E+00  2.12439E+00  2.18416E+00  1.94945E+00
   1.54236E+00  1.06420E+00  6.26972E-01  3.89365E-01  4.58143E-01  7.87475E-01  1.18042E+00  1.44930E+00  1.53480E+00  1.47607E+00
   1.29830E+00  1.06368E+00  8.61814E-01  8.03589E-01  9.17758E-01  1.13086E+00  1.34144E+00  1.48220E+00  1.52330E+00  1.44796E+00
   1.25499E+00  9.86227E-01  7.23914E-01  5.71015E-01  6.03332E-01  7.98913E-01  1.04218E+00  1.18373E+00  1.16560E+00  9.78796E-01
   5.21091E-01 -5.57559E-01 -1.81461E+00 -2.46412E+00 -1.92746E+00 -6.64160E-01  4.15316E-01  8.71197E-01  8.52818E-01  1.27908E+00
   3.07234E+00  5.33305E+00  6.29113E+00  5.18207E+00  3.09825E+00  1.65773E+00  1.03966E+00  9.50383E-01  8.85170E-01  7.98346E-01
   7.10141E-01  6.55835E-01  6.63049E-01  7.30944E-01  8.20707E-01  8.88978E-01  9.06419E-01  8.68163E-01  7.98831E-01  7.31412E-01
   6.90486E-01  6.70196E-01  6.68565E-01  6.84323E-01  7.12710E-01  7.38606E-01  7.52563E-01  7.46281E-01  7.23284E-01  6.87236E-01
   6.54142E-01  6.37323E-01  6.46287E-01  6.73960E-01  7.06102E-01  7.25213E-01  7.30296E-01  7.23134E-01  7.06929E-01  6.85250E-01
   6.67238E-01  6.61698E-01  6.69801E-01  6.82499E-01  6.94011E-01  7.02448E-01  7.09169E-01  7.15863E-01  7.23037E-01  7.31428E-01
   7.41300E-01  7.52733E-01  7.65699E-01  7.80123E-01  7.95910E-01  8.13146E-01  8.32133E-01  8.53306E-01  8.76927E-01  9.03243E-01
   9.32431E-01  9.64733E-01  1.00042E+00  1.03987E+00  1.08354E+00  1.13197E+00  1.18573E+00  1.24538E+00  1.31158E+00  1.38513E+00
   1.46696E+00  1.55814E+00  1.65979E+00  1.77313E+00  1.89954E+00  2.04057E+00  2.19787E+00  2.37321E+00  2.56836E+00  2.78515E+00
   3.02541E+00  3.29091E+00  3.58324E+00  3.90366E+00  4.25302E+00  4.63166E+00  5.03929E+00  5.47488E+00  5.93642E+00  6.42090E+00
   6.92419E+00  7.44106E+00  7.96518E+00  8.48917E+00  9.00470E+00  9.50272E+00  9.97367E+00  1.04078E+01  1.07957E+01  1.11283E+01
   1.13973E+01  1.15959E+01  1.17186E+01  1.17619E+01  1.17240E+01  1.16054E+01  1.14083E+01  1.11371E+01  1.07977E+01  1.03976E+01
   9.94550E+00  9.45073E+00  8.92309E+00  8.37245E+00  7.80842E+00  7.24005E+00  6.67554E+00  6.12209E+00  5.58581E+00  5.07165E+00
   4.58341E+00  4.12379E+00  3.69444E+00  3.29610E+00  2.92873E+00  2.59169E+00  2.28384E+00  2.00364E+00  1.74932E+00  1.51892E+00
   1.31046E+00  1.12196E+00  9.51504E-01  7.97260E-01  6.57494E-01  5.30626E-01  4.15223E-01  3.10010E-01  2.13831E-01  1.25654E-01
   4.45505E-02 -3.02749E-02 -9.95194E-02 -1.63782E-01 -2.23611E-01 -2.79485E-01 -3.31836E-01 -3.81014E-01 -4.27332E-01 -4.71058E-01
  -5.12455E-01 -5.51748E-01 -5.89140E-01 -6.24789E-01 -6.58842E-01 -6.91431E-01 -7.22695E-01 -7.52745E-01 -7.81681E-01 -8.09577E-01
  -8.36511E-01 -8.62559E-01 -8.87803E-01 -9.12301E-01 -9.36103E-01 -9.59243E-01 -9.81770E-01 -1.00373E+00 -1.02517E+00 -1.04613E+00
  -1.06663E+00 -1.08669E+00 -1.10634E+00 -1.12561E+00 -1.14454E+00 -1.16314E+00 -1.18142E+00 -1.19939E+00 -1.21708E+00 -1.23452E+00
  -1.25172E+00 -1.26868E+00 -1.28541E+00 -1.30192E+00 -1.31824E+00 -1.33438E+00 -1.35035E+00 -1.36614E+00 -1.38176E+00 -1.39723E+00
  -1.41255E+00 -1.42775E+00 -1.44282E+00 -1.45775E+00 -1.47256E+00 -1.48725E+00 -1.50185E+00 -1.51634E+00 -1.53074E+00 -1.54502E+00
  -1.55922E+00 -1.57334E+00 -1.58738E+00 -1.60134E+00 -1.61522E+00 -1.62902E+00 -1.64276E+00 -1.65643E+00 -1.67004E+00 -1.68359E+00
  -1.69708E+00 -1.71050E+00 -1.72388E+00 -1.73720E+00 -1.75049E+00 -1.76371E+00 -1.77689E+00 -1.79002E+00 -1.80311E+00 -1.81616E+00
  -1.82918E+00 -1.84215E+00 -1.85508E+00 -1.86797E+00 -1.88084E+00 -1.89368E+00 -1.90648E+00 -1.91925E+00 -1.93198E+00 -1.94469E+00
  -1.95738E+00 -1.97004E+00 -1.98267E+00 -1.99527E+00 -2.00785E+00 -2.02041E+00 -2.03295E+00 -2.04547E+00
 NY background values follow
     3.631E+00    3.620E+00    3.609E+00    3.597E+00    3.586E+00    3.574E+00    3.563E+00    3.551E+00    3.540E+00    3.529E+00
     3.517E+00    3.506E+00    3.494E+00    3.483E+00    3.471E+00    3.460E+00    3.449E+00    3.437E+00    3.426E+00    3.414E+00
     3.403E+00    3.391E+00    3.380E+00    3.368E+00    3.357E+00    3.346E+00    3.334E+00    3.323E+00    3.311E+00    3.300E+00
     3.288E+00    3.277E+00    3.265E+00    3.254E+00    3.243E+00    3.231E+00    3.220E+00    3.208E+00    3.197E+00    3.185E+00
     3.174E+00    3.162E+00    3.151E+00    3.139E+00    3.128E+00    3.117E+00    3.105E+00    3.094E+00    3.082E+00    3.071E+00
     3.059E+00    3.048E+00    3.036E+00    3.025E+00    3.013E+00    3.002E+00    2.990E+00    2.979E+00    2.967E+00    2.956E+00
     2.945E+00    2.933E+00    2.922E+00    2.910E+00    2.899E+00    2.887E+00    2.876E+00    2.864E+00    2.853E+00    2.841E+00
     2.830E+00    2.818E+00    2.807E+00    2.795E+00    2.784E+00    2.772E+00    2.761E+00    2.749E+00    2.738E+00    2.726E+00
     2.715E+00    2.703E+00    2.692E+00    2.680E+00    2.669E+00    2.657E+00    2.646E+00    2.634E+00    2.623E+00    2.611E+00
     2.600E+00    2.589E+00    2.577E+00    2.566E+00    2.554E+00    2.543E+00    2.531E+00    2.520E+00    2.508E+00    2.497E+00
     2.485E+00    2.474E+00    2.462E+00    2.451E+00    2.439E+00    2.427E+00    2.416E+00    2.404E+00    2.393E+00    2.381E+00
     2.370E+00    2.358E+00    2.347E+00    2.335E+00    2.324E+00    2.312E+00    2.301E+00    2.289E+00    2.278E+00    2.266E+00
     2.255E+00    2.243E+00    2.232E+00    2.220E+00    2.209E+00    2.197E+00    2.186E+00    2.174E+00    2.163E+00    2.151E+00
     2.140E+00    2.128E+00    2.117E+00    2.105E+00    2.094E+00    2.082E+00    2.070E+00    2.059E+00    2.047E+00    2.036E+00
     2.024E+00    2.013E+00    2.001E+00    1.990E+00    1.978E+00    1.967E+00    1.955E+00    1.944E+00    1.932E+00    1.921E+00
     1.909E+00    1.897E+00    1.886E+00    1.874E+00    1.863E+00    1.851E+00    1.840E+00    1.828E+00    1.817E+00    1.805E+00
     1.794E+00    1.782E+00    1.771E+00    1.759E+00    1.747E+00    1.736E+00    1.724E+00    1.713E+00    1.701E+00    1.690E+00
     1.678E+00    1.667E+00    1.655E+00    1.644E+00    1.632E+00    1.620E+00    1.609E+00    1.597E+00    1.586E+00    1.574E+00
     1.563E+00    1.551E+00    1.540E+00    1.528E+00    1.516E+00    1.505E+00    1.493E+00    1.482E+00    1.470E+00    1.459E+00
     1.447E+00    1.436E+00    1.424E+00    1.412E+00    1.401E+00    1.389E+00    1.378E+00    1.366E+00    1.355E+00    1.343E+00
     1.332E+00    1.320E+00    1.308E+00    1.297E+00    1.285E+00    1.274E+00    1.262E+00    1.251E+00    1.239E+00    1.227E+00
     1.216E+00    1.204E+00    1.193E+00    1.181E+00    1.170E+00    1.158E+00    1.146E+00    1.135E+00    1.123E+00    1.112E+00
     1.100E+00    1.089E+00    1.077E+00    1.065E+00    1.054E+00    1.042E+00    1.031E+00    1.019E+00    1.008E+00    9.960E-01
     9.844E-01    9.728E-01    9.613E-01    9.497E-01    9.381E-01    9.265E-01    9.149E-01    9.034E-01    8.918E-01    8.802E-01
     8.686E-01    8.570E-01    8.455E-01    8.339E-01    8.223E-01    8.107E-01    7.991E-01    7.875E-01    7.760E-01    7.644E-01
     7.528E-01    7.412E-01    7.296E-01    7.180E-01    7.064E-01    6.948E-01    6.833E-01    6.717E-01    6.601E-01    6.485E-01
     6.369E-01    6.253E-01    6.137E-01    6.021E-01    5.905E-01    5.789E-01    5.674E-01    5.558E-01    5.442E-01    5.326E-01
     5.210E-01    5.094E-01    4.978E-01    4.862E-01    4.746E-01    4.630E-01    4.514E-01    4.398E-01    4.282E-01    4.166E-01
     4.050E-01    3.934E-01    3.818E-01    3.702E-01    3.586E-01    3.470E-01    3.354E-01    3.238E-01    3.122E-01    3.006E-01
     2.890E-01    2.774E-01    2.658E-01    2.542E-01    2.426E-01    2.310E-01    2.194E-01    2.078E-01    1.962E-01    1.846E-01
     1.730E-01    1.614E-01    1.498E-01    1.382E-01    1.266E-01    1.150E-01    1.034E-01    9.177E-02    8.016E-02    6.856E-02
     5.695E-02    4.534E-02    3.374E-02    2.213E-02    1.052E-02   -1.089E-03   -1.270E-02   -2.431E-02   -3.592E-02   -4.753E-02
    -5.914E-02   -7.075E-02   -8.236E-02   -9.397E-02   -1.056E-01   -1.172E-01   -1.288E-01   -1.404E-01   -1.520E-01   -1.636E-01
    -1.753E-01   -1.869E-01   -1.985E-01   -2.101E-01   -2.217E-01   -2.333E-01   -2.449E-01   -2.565E-01   -2.682E-01   -2.798E-01
    -2.914E-01   -3.030E-01   -3.146E-01   -3.262E-01   -3.379E-01   -3.495E-01   -3.611E-01   -3.727E-01   -3.843E-01   -3.959E-01
    -4.076E-01   -4.192E-01   -4.308E-01   -4.424E-01   -4.540E-01   -4.656E-01   -4.773E-01   -4.889E-01   -5.005E-01   -5.121E-01
    -5.237E-01   -5.354E-01   -5.470E-01   -5.586E-01   -5.702E-01   -5.818E-01   -5.935E-01   -6.051E-01   -6.167E-01   -6.283E-01
    -6.399E-01   -6.516E-01   -6.632E-01   -6.748E-01   -6.864E-01   -6.981E-01   -7.097E-01   -7.213E-01   -7.329E-01   -7.445E-01
    -7.562E-01   -7.678E-01   -7.794E-01   -7.910E-01   -8.027E-01   -8.143E-01   -8.259E-01   -8.375E-01   -8.492E-01   -8.608E-01
    -8.724E-01   -8.840E-01   -8.957E-01   -9.073E-01   -9.189E-01   -9.305E-01   -9.422E-01   -9.538E-01   -9.654E-01   -9.770E-01
    -9.887E-01   -1.000E+00   -1.012E+00   -1.024E+00   -1.035E+00   -1.047E+00   -1.058E+00   -1.070E+00   -1.082E+00   -1.093E+00
    -1.105E+00   -1.117E+00   -1.128E+00   -1.140E+00   -1.151E+00   -1.163E+00   -1.175E+00   -1.186E+00   -1.198E+00   -1.210E+00
    -1.221E+00   -1.233E+00   -1.244E+00   -1.256E+00   -1.268E+00   -1.279E+00   -1.291E+00   -1.303E+00   -1.314E+00   -1.326E+00
    -1.337E+00   -1.349E+00   -1.361E+00   -1.372E+00   -1.384E+00   -1.396E+00   -1.407E+00   -1.419E+00   -1.431E+00   -1.442E+00
    -1.454E+00   -1.465E+00   -1.477E+00   -1.489E+00   -1.500E+00   -1.512E+00   -1.524E+00   -1.535E+00   -1.547E+00   -1.558E+00
    -1.570E+00   -1.582E+00   -1.593E+00   -1.605E+00   -1.617E+00   -1.628E+00   -1.640E+00   -1.651E+00   -1.663E+00   -1.675E+00
    -1.686E+00   -1.698E+00   -1.710E+00   -1.721E+00   -1.733E+00   -1.745E+00   -1.756E+00   -1.768E+00   -1.779E+00   -1.791E+00
    -1.803E+00   -1.814E+00   -1.826E+00   -1.838E+00   -1.849E+00   -1.861E+00   -1.872E+00   -1.884E+00   -1.896E+00   -1.907E+00
    -1.919E+00   -1.931E+00   -1.942E+00   -1.954E+00   -1.965E+00   -1.977E+00   -1.989E+00   -2.000E+00   -2.012E+00   -2.024E+00
    -2.035E+00   -2.047E+00   -2.059E+00   -2.070E+00   -2.082E+00   -2.093E+00   -2.105E+00   -2.117E+00
 Asp      Conc. = 2.34E+00
