 LCModel (Version 6.3-1L) Copyright: S.W. Provencher.          Ref.: Magn. Reson. Med. 30:672-679 (1993).                
 Slice#3 Row#8 Col#8  PD_24_press_1_raw_act
 Data of: Institute of Biomedical Engineering, Bogazici University, Istanbul
 07-January-2018  10:33
 36 lines in following concentration table = NCONC+1
    Conc.  %SD /Cr+PCr  Metabolite                                         
    0.000 999%   0.000 Ala                                                 
  161.078 136% 9.8E-02 Asp                                                 
  481.846  41%   0.294 Cr                                                  
 1.16E+03  17%   0.706 PCr                                                 
    0.000 999%   0.000 GABA                                                
   23.056 621% 1.4E-02 Glc                                                 
  821.702  25%   0.502 Gln                                                 
 1.35E+03  17%   0.823 Glu                                                 
  591.622   4%   0.361 GPC                                                 
    0.000 999%   0.000 PCh                                                 
  411.129  17%   0.251 GSH                                                 
  290.315  85%   0.177 Ins                                                 
  135.991  82% 8.3E-02 Lac                                                 
 1.72E+03   5%   1.053 NAA                                                 
   89.765  99% 5.5E-02 NAAG                                                
   17.760 149% 1.1E-02 Scyllo                                              
    0.000 999%   0.000 Tau                                                 
    0.000 999%   0.000 -CrCH2                                              
  591.622   4%   0.361 GPC+PCh                                             
 1.81E+03   4%   1.108 NAA+NAAG                                            
 1.64E+03   3%   1.000 Cr+PCr                                              
 2.17E+03  14%   1.325 Glu+Gln                                             
 3.86E+03  15%   2.358 Lip13a                                              
    0.000 999%   0.000 Lip13b                                              
  730.115  53%   0.446 Lip09                                               
  821.361  41%   0.502 MM09                                                
  946.464  33%   0.578 Lip20                                               
 1.75E+03  25%   1.067 MM20                                                
  225.302  91%   0.138 MM12                                                
   89.253 399% 5.4E-02 MM14                                                
 1.39E+03  16%   0.847 MM17                                                
 3.86E+03  15%   2.358 Lip13a+Lip13b                                       
 4.18E+03  13%   2.550 MM14+Lip13a+Lip13b+MM12                             
 1.55E+03  15%   0.947 MM09+Lip09                                          
 2.69E+03  15%   1.645 MM20+Lip20                                          
   6 lines in following misc. output table
  FWHM = 0.054 ppm    S/N =   9                                            
  Data shift = 0.008 ppm                                                   
  Ph: -26 deg      -3.2 deg/ppm                                            
  alphaB,S = 1.0E+00,   9.5E+01                                            
   14 spline knots.   Ns = 6(1)                                            
  ( 8) 2 infls.   ( 1) 1 extrs.                                            
  498 points on ppm-axis = NY
      4.000000     3.992357     3.984714     3.977070     3.969427     3.961784     3.954141     3.946497     3.938854     3.931211
      3.923568     3.915925     3.908281     3.900638     3.892995     3.885352     3.877708     3.870065     3.862422     3.854779
      3.847136     3.839492     3.831849     3.824206     3.816563     3.808919     3.801276     3.793633     3.785990     3.778347
      3.770703     3.763060     3.755417     3.747774     3.740130     3.732487     3.724844     3.717201     3.709558     3.701914
      3.694271     3.686628     3.678985     3.671341     3.663698     3.656055     3.648412     3.640769     3.633125     3.625482
      3.617839     3.610196     3.602552     3.594909     3.587266     3.579623     3.571980     3.564336     3.556693     3.549050
      3.541407     3.533763     3.526120     3.518477     3.510834     3.503191     3.495547     3.487904     3.480261     3.472618
      3.464974     3.457331     3.449688     3.442045     3.434402     3.426758     3.419115     3.411472     3.403829     3.396185
      3.388542     3.380899     3.373256     3.365613     3.357969     3.350326     3.342683     3.335040     3.327396     3.319753
      3.312110     3.304467     3.296824     3.289180     3.281537     3.273894     3.266251     3.258607     3.250964     3.243321
      3.235678     3.228034     3.220391     3.212748     3.205105     3.197462     3.189818     3.182175     3.174532     3.166889
      3.159245     3.151602     3.143959     3.136316     3.128673     3.121029     3.113386     3.105743     3.098100     3.090456
      3.082813     3.075170     3.067527     3.059884     3.052240     3.044597     3.036954     3.029311     3.021667     3.014024
      3.006381     2.998738     2.991095     2.983451     2.975808     2.968165     2.960522     2.952878     2.945235     2.937592
      2.929949     2.922306     2.914662     2.907019     2.899376     2.891733     2.884089     2.876446     2.868803     2.861160
      2.853517     2.845873     2.838230     2.830587     2.822944     2.815300     2.807657     2.800014     2.792371     2.784728
      2.777084     2.769441     2.761798     2.754155     2.746511     2.738868     2.731225     2.723582     2.715939     2.708295
      2.700652     2.693009     2.685366     2.677722     2.670079     2.662436     2.654793     2.647150     2.639506     2.631863
      2.624220     2.616577     2.608933     2.601290     2.593647     2.586004     2.578361     2.570717     2.563074     2.555431
      2.547788     2.540144     2.532501     2.524858     2.517215     2.509572     2.501928     2.494285     2.486642     2.478999
      2.471355     2.463712     2.456069     2.448426     2.440783     2.433139     2.425496     2.417853     2.410210     2.402566
      2.394923     2.387280     2.379637     2.371994     2.364350     2.356707     2.349064     2.341421     2.333777     2.326134
      2.318491     2.310848     2.303205     2.295561     2.287918     2.280275     2.272632     2.264988     2.257345     2.249702
      2.242059     2.234416     2.226772     2.219129     2.211486     2.203843     2.196199     2.188556     2.180913     2.173270
      2.165627     2.157983     2.150340     2.142697     2.135054     2.127410     2.119767     2.112124     2.104481     2.096838
      2.089194     2.081551     2.073908     2.066265     2.058621     2.050978     2.043335     2.035692     2.028049     2.020405
      2.012762     2.005119     1.997476     1.989833     1.982190     1.974546     1.966903     1.959260     1.951617     1.943974
      1.936331     1.928688     1.921045     1.913402     1.905759     1.898115     1.890472     1.882829     1.875186     1.867543
      1.859900     1.852257     1.844614     1.836971     1.829327     1.821684     1.814041     1.806398     1.798755     1.791112
      1.783469     1.775826     1.768183     1.760540     1.752896     1.745253     1.737610     1.729967     1.722324     1.714681
      1.707038     1.699395     1.691752     1.684108     1.676465     1.668822     1.661179     1.653536     1.645893     1.638250
      1.630607     1.622964     1.615321     1.607677     1.600034     1.592391     1.584748     1.577105     1.569462     1.561819
      1.554176     1.546533     1.538890     1.531246     1.523603     1.515960     1.508317     1.500674     1.493031     1.485388
      1.477745     1.470102     1.462458     1.454815     1.447172     1.439529     1.431886     1.424243     1.416600     1.408957
      1.401314     1.393671     1.386027     1.378384     1.370741     1.363098     1.355455     1.347812     1.340169     1.332526
      1.324883     1.317240     1.309596     1.301953     1.294310     1.286667     1.279024     1.271381     1.263738     1.256095
      1.248452     1.240808     1.233165     1.225522     1.217879     1.210236     1.202593     1.194950     1.187307     1.179664
      1.172021     1.164377     1.156734     1.149091     1.141448     1.133805     1.126162     1.118519     1.110876     1.103233
      1.095590     1.087946     1.080303     1.072660     1.065017     1.057374     1.049731     1.042088     1.034445     1.026802
      1.019158     1.011515     1.003872     0.996229     0.988586     0.980943     0.973300     0.965657     0.958014     0.950371
      0.942727     0.935084     0.927441     0.919798     0.912155     0.904512     0.896869     0.889226     0.881583     0.873940
      0.866296     0.858653     0.851010     0.843367     0.835724     0.828081     0.820438     0.812795     0.805152     0.797508
      0.789865     0.782222     0.774579     0.766936     0.759293     0.751650     0.744007     0.736364     0.728721     0.721077
      0.713434     0.705791     0.698148     0.690505     0.682862     0.675219     0.667576     0.659933     0.652290     0.644646
      0.637003     0.629360     0.621717     0.614074     0.606431     0.598788     0.591145     0.583502     0.575858     0.568215
      0.560572     0.552929     0.545286     0.537643     0.530000     0.522357     0.514714     0.507071     0.499427     0.491784
      0.484141     0.476498     0.468855     0.461212     0.453569     0.445925     0.438282     0.430639     0.422996     0.415353
      0.407710     0.400067     0.392424     0.384780     0.377137     0.369494     0.361851     0.354208     0.346565     0.338922
      0.331278     0.323635     0.315992     0.308349     0.300706     0.293063     0.285420     0.277777     0.270133     0.262490
      0.254847     0.247204     0.239561     0.231918     0.224275     0.216631     0.208988     0.201345
 NY phased data points follow
   1.01314E+02  1.03121E+02  1.01095E+02  1.02955E+02  1.09762E+02  1.02392E+02  1.16032E+02  1.15201E+02  1.18783E+02  1.32819E+02
   1.34253E+02  1.33780E+02  1.34784E+02  1.21285E+02  1.18877E+02  1.13388E+02  1.07578E+02  9.79989E+01  8.91674E+01  8.53053E+01
   8.33837E+01  8.45341E+01  8.75103E+01  8.53302E+01  8.52025E+01  8.43163E+01  9.01772E+01  8.24132E+01  8.40230E+01  8.95672E+01
   8.98391E+01  8.60264E+01  8.73716E+01  8.51232E+01  8.66116E+01  8.04314E+01  7.64408E+01  7.06769E+01  6.87989E+01  7.21090E+01
   6.89645E+01  6.67033E+01  6.77978E+01  6.89062E+01  7.12308E+01  7.17256E+01  7.32106E+01  7.19402E+01  7.23343E+01  7.19739E+01
   6.96490E+01  6.35505E+01  6.64077E+01  5.73776E+01  6.10757E+01  6.27797E+01  5.82770E+01  6.16809E+01  5.36696E+01  6.20902E+01
   6.70826E+01  5.60513E+01  5.32035E+01  4.91796E+01  4.90483E+01  4.56606E+01  4.53538E+01  3.98598E+01  4.54480E+01  3.99992E+01
   3.77768E+01  4.43849E+01  4.69173E+01  4.34228E+01  4.61462E+01  4.29693E+01  4.54631E+01  4.32288E+01  4.41198E+01  4.27500E+01
   4.21592E+01  4.19464E+01  4.53974E+01  4.44021E+01  4.53580E+01  3.65546E+01  3.77589E+01  4.14467E+01  4.27396E+01  4.32698E+01
   3.35621E+01  3.26560E+01  4.03752E+01  3.46890E+01  3.50271E+01  3.14040E+01  3.49203E+01  3.23945E+01  3.22691E+01  3.95321E+01
   5.40021E+01  7.74433E+01  8.56745E+01  9.32522E+01  9.77962E+01  8.24975E+01  7.73828E+01  6.94261E+01  5.62842E+01  4.77362E+01
   4.39166E+01  3.78435E+01  3.36449E+01  3.35408E+01  3.00580E+01  3.45532E+01  3.10436E+01  3.17491E+01  2.85072E+01  2.66170E+01
   2.58448E+01  2.41827E+01  3.08649E+01  3.72749E+01  3.89496E+01  5.54769E+01  7.35737E+01  7.84440E+01  8.03148E+01  7.42602E+01
   7.31455E+01  6.04222E+01  4.30966E+01  4.00916E+01  4.16782E+01  3.41076E+01  2.69691E+01  2.88321E+01  2.64329E+01  2.01996E+01
   2.68494E+01  2.31197E+01  2.46230E+01  2.29397E+01  2.27080E+01  1.88474E+01  2.37588E+01  2.28956E+01  2.40824E+01  2.32059E+01
   1.88199E+01  2.22904E+01  1.76479E+01  2.38692E+01  1.95065E+01  1.85578E+01  1.82901E+01  1.96410E+01  2.04629E+01  1.51801E+01
   1.51624E+01  1.30829E+01  1.43144E+01  1.21138E+01  1.49068E+01  2.25057E+01  1.34625E+01  2.29337E+01  1.80525E+01  2.00456E+01
   1.66963E+01  1.11875E+01  1.45415E+01  5.70250E+00  7.10615E+00  2.13933E+00  8.94500E+00  8.43879E+00  6.31917E+00  4.87841E+00
   1.10775E+01  1.06338E+01  6.00761E+00  6.29732E+00  8.09414E+00  9.38658E+00  3.92604E+00  7.50300E+00  1.46767E+01  1.15286E+01
   1.70000E+01  1.68549E+01  1.72214E+01  1.79272E+01  1.88615E+01  1.74900E+01  1.88585E+01  1.35302E+01  1.45647E+01  9.94849E+00
   1.47284E+01  1.30169E+01  1.63678E+01  1.47539E+01  1.50145E+01  1.18603E+01  1.05284E+01  6.99088E+00  3.64517E+00  3.92446E+00
   4.35385E+00  6.35507E+00  7.55474E+00  9.62753E+00  1.92410E+01  2.65140E+01  1.92376E+01  2.81946E+01  1.98463E+01  2.15438E+01
   1.26913E+01  3.89558E+00  1.01902E+01  9.20815E+00  1.32686E+01  1.29724E+01  1.11846E+01  1.65126E+01  1.42860E+01  1.28204E+01
   1.36086E+01  1.35853E+01  2.31165E+01  1.08339E+01  1.61951E+01  1.34678E+01  1.34013E+01  1.88244E+01  1.49158E+01  1.63613E+01
   1.10907E+01  9.09995E+00  1.27291E+01  1.14309E+01  1.43320E+01  1.16601E+01  1.59961E+01  1.40878E+01  1.83862E+01  1.40747E+01
   1.55027E+01  1.66444E+01  2.11060E+01  2.64138E+01  2.14496E+01  2.34762E+01  2.58590E+01  3.95639E+01  5.45797E+01  7.57958E+01
   8.26645E+01  7.83032E+01  6.53856E+01  5.71318E+01  4.63764E+01  3.86500E+01  3.01144E+01  1.74588E+01  1.20279E+01  1.34503E+01
   1.38201E+01  1.57542E+01  1.16656E+01  7.26922E+00  7.23064E+00  5.96850E+00  1.20321E+01  6.84392E+00  1.14683E+01  5.45868E+00
   8.50297E+00  5.94992E+00  7.52729E+00  4.72401E+00  8.86709E+00  5.18270E+00  8.68873E+00  6.48952E+00  5.96560E+00  3.77714E+00
   7.01921E+00  1.28563E+01 -2.11783E-01  1.32533E+01  6.06371E+00  6.60010E+00  6.84561E+00  8.16359E+00  1.04561E+01  7.58123E+00
   9.93798E+00  1.28622E+01  1.20207E+01  1.30243E+01  7.97174E+00  1.17886E+01  1.39942E+01  1.22160E+01  1.22730E+01  1.00552E+01
   1.63567E+01  1.21559E+01  1.68107E+01  2.01827E+01  1.27943E+01  1.26906E+01  9.93774E+00  1.26601E+01  1.67015E+01  1.63190E+01
   1.02847E+01  1.57910E+01  1.67573E+01  9.89925E+00  7.46343E+00  7.99436E+00  6.93626E+00  4.82586E+00  7.07567E+00  8.23229E+00
   1.17536E+01  6.61516E+00  6.72851E+00  5.15732E+00  8.24312E+00  9.00525E+00  9.41001E+00  1.02096E+01  9.89980E+00  9.10230E+00
   8.32381E+00  1.07623E+01  1.10888E+01  1.52913E+01  1.86341E+01  2.12856E+01  2.20047E+01  2.19053E+01  2.20809E+01  1.84021E+01
   1.90643E+01  2.23359E+01  1.69080E+01  2.34289E+01  1.80636E+01  2.19177E+01  2.53009E+01  2.18103E+01  1.97942E+01  2.26363E+01
   1.97756E+01  1.75262E+01  2.08132E+01  1.64763E+01  1.55230E+01  1.35147E+01  1.29331E+01  1.15325E+01  1.58623E+01  1.60869E+01
   1.47088E+01  1.20910E+01  1.10197E+01  1.02970E+01  1.58296E+01  1.20045E+01  8.06373E+00  1.11326E+01  9.72655E+00  8.33121E+00
   1.04578E+01  4.73548E+00  7.98825E+00  3.91113E+00  5.90635E+00  4.67755E+00  1.12531E+01  1.28017E+00  6.36331E+00  8.39325E+00
   5.82897E+00  1.19567E+01  6.63551E+00  6.28941E+00  1.65867E+00  6.37686E+00  1.35004E+01  9.27314E+00  9.86753E+00  1.81709E+01
   7.90997E+00  1.29349E+01  1.24042E+01  1.28971E+01  1.61544E+01  1.55129E+01  1.14186E+01  1.59165E+01  1.68544E+01  7.97973E+00
   1.33849E+01  9.20426E+00  1.25760E+01  1.02654E+01  9.47799E+00  1.01467E+01  1.08705E+01  8.59880E+00  7.36531E+00  1.18015E+01
   1.11509E+01  7.55212E+00  5.12428E+00  6.85772E+00  1.20768E+01  9.10705E+00  5.30417E+00  3.66901E+00  7.35670E+00  2.74818E+00
   3.26570E+00  7.87095E-01  7.74593E+00  4.60426E+00  7.43748E+00  1.01592E+01  6.06946E+00  3.06409E+00  4.13066E+00  2.31212E+00
  -2.86662E+00  9.77308E-01  4.20191E+00  4.01813E+00  5.65465E+00  1.03345E+01  3.96381E+00  2.60261E+00  4.38575E-01 -1.90978E+00
   4.66915E-01  3.36602E+00  9.26771E-01  3.62194E+00  9.62661E-01  7.90592E+00  4.10947E+00  2.98059E+00 -7.74715E-01  3.80785E+00
   4.59760E+00 -8.04942E-01  3.65263E+00  2.91898E+00  7.22624E+00  4.66610E+00  5.50409E-01 -1.48735E+00  1.43800E+00  4.65669E+00
   6.64672E+00 -2.01015E+00 -3.95439E+00  3.81479E+00 -3.54868E-01  3.96773E+00  5.30202E+00  3.12505E+00 -4.38982E+00  4.08157E+00
   4.01618E+00  9.23818E-01 -2.48975E+00 -8.61306E-01 -3.19959E-01  4.50296E+00  3.68509E+00  1.00370E+00  6.21648E-01  2.65152E+00
  -6.43900E-01 -1.94947E-01  8.40514E+00  2.07263E+00  2.21412E-01 -3.00801E-01  2.08943E+00  2.16812E+00
 NY points of the fit to the data follow
   9.92855E+01  9.87400E+01  9.84285E+01  9.84161E+01  9.89876E+01  1.00893E+02  1.05182E+02  1.12244E+02  1.20807E+02  1.28216E+02
   1.31946E+02  1.31101E+02  1.26690E+02  1.20478E+02  1.13880E+02  1.07589E+02  1.01632E+02  9.61397E+01  9.20804E+01  8.96612E+01
   8.82492E+01  8.71224E+01  8.59288E+01  8.45386E+01  8.30548E+01  8.19080E+01  8.17135E+01  8.28132E+01  8.49157E+01  8.72298E+01
   8.88547E+01  8.92026E+01  8.81496E+01  8.58540E+01  8.26839E+01  7.93004E+01  7.61289E+01  7.36072E+01  7.22210E+01  7.16378E+01
   7.14689E+01  7.14469E+01  7.14664E+01  7.15360E+01  7.15085E+01  7.12902E+01  7.07757E+01  6.99184E+01  6.89240E+01  6.79009E+01
   6.67561E+01  6.55560E+01  6.44078E+01  6.32026E+01  6.19665E+01  6.09135E+01  6.00411E+01  5.92169E+01  5.84215E+01  5.76830E+01
   5.69049E+01  5.60396E+01  5.50908E+01  5.41293E+01  5.32401E+01  5.24422E+01  5.17226E+01  5.10841E+01  5.05314E+01  5.00427E+01
   4.95846E+01  4.91059E+01  4.85776E+01  4.79966E+01  4.73797E+01  4.67513E+01  4.61261E+01  4.55105E+01  4.49016E+01  4.43011E+01
   4.37389E+01  4.32427E+01  4.28363E+01  4.24961E+01  4.21337E+01  4.16486E+01  4.10050E+01  4.02617E+01  3.95259E+01  3.88742E+01
   3.83294E+01  3.78822E+01  3.75019E+01  3.71687E+01  3.69059E+01  3.66895E+01  3.65425E+01  3.67769E+01  3.86272E+01  4.45551E+01
   5.62092E+01  7.19056E+01  8.65616E+01  9.49078E+01  9.47853E+01  8.79814E+01  7.80588E+01  6.74834E+01  5.75395E+01  4.85042E+01
   4.00144E+01  3.36284E+01  3.12534E+01  3.03980E+01  2.98721E+01  2.94701E+01  2.91274E+01  2.88178E+01  2.85492E+01  2.83662E+01
   2.83647E+01  2.88038E+01  3.05593E+01  3.55087E+01  4.52330E+01  5.88627E+01  7.25188E+01  8.15333E+01  8.34020E+01  7.90151E+01
   7.12277E+01  6.22961E+01  5.33031E+01  4.45477E+01  3.59283E+01  2.86876E+01  2.49181E+01  2.35450E+01  2.31519E+01  2.32367E+01
   2.34637E+01  2.36793E+01  2.38313E+01  2.38053E+01  2.35855E+01  2.32104E+01  2.26983E+01  2.21183E+01  2.15408E+01  2.10002E+01
   2.05292E+01  2.00886E+01  1.96855E+01  1.93501E+01  1.91090E+01  1.89198E+01  1.86647E+01  1.82273E+01  1.75754E+01  1.68435E+01
   1.62813E+01  1.60666E+01  1.61482E+01  1.62848E+01  1.62671E+01  1.60205E+01  1.56058E+01  1.51630E+01  1.47451E+01  1.42828E+01
   1.37795E+01  1.32027E+01  1.25165E+01  1.18293E+01  1.12361E+01  1.08792E+01  1.07836E+01  1.07724E+01  1.06460E+01  1.03917E+01
   1.01572E+01  1.00395E+01  9.98554E+00  9.86130E+00  9.61746E+00  9.49751E+00  9.88705E+00  1.08657E+01  1.21992E+01  1.34088E+01
   1.41594E+01  1.43444E+01  1.40157E+01  1.32925E+01  1.23062E+01  1.12011E+01  1.03392E+01  1.00955E+01  1.06063E+01  1.18140E+01
   1.34791E+01  1.52386E+01  1.67044E+01  1.75227E+01  1.73548E+01  1.60058E+01  1.34922E+01  1.03989E+01  7.54662E+00  5.63375E+00
   4.99680E+00  5.74910E+00  7.92555E+00  1.12365E+01  1.48935E+01  1.78283E+01  1.92564E+01  1.88651E+01  1.66409E+01  1.32989E+01
   9.68314E+00  6.62812E+00  4.96568E+00  5.01334E+00  6.60967E+00  9.11090E+00  1.15868E+01  1.35481E+01  1.47810E+01  1.53257E+01
   1.52678E+01  1.46888E+01  1.39813E+01  1.36363E+01  1.38272E+01  1.45325E+01  1.55252E+01  1.63908E+01  1.67305E+01  1.62743E+01
   1.50634E+01  1.36063E+01  1.25038E+01  1.20131E+01  1.20626E+01  1.25984E+01  1.34162E+01  1.42172E+01  1.48871E+01  1.54823E+01
   1.60668E+01  1.67113E+01  1.75811E+01  1.87284E+01  2.02574E+01  2.33504E+01  3.04917E+01  4.30093E+01  5.86271E+01  7.20423E+01
   7.84748E+01  7.66719E+01  6.90384E+01  5.89546E+01  4.85982E+01  3.89816E+01  2.99727E+01  2.13662E+01  1.55563E+01  1.33551E+01
   1.22106E+01  1.14354E+01  1.09361E+01  1.06319E+01  1.03642E+01  1.00926E+01  9.79950E+00  9.47135E+00  9.11371E+00  8.74781E+00
   8.38426E+00  8.04310E+00  7.75500E+00  7.52584E+00  7.33806E+00  7.17703E+00  7.03936E+00  6.92997E+00  6.85286E+00  6.80490E+00
   6.79438E+00  6.83082E+00  6.91709E+00  7.05255E+00  7.23808E+00  7.47523E+00  7.76543E+00  8.10934E+00  8.50761E+00  8.95869E+00
   9.45897E+00  1.00002E+01  1.05705E+01  1.11549E+01  1.17364E+01  1.22973E+01  1.28197E+01  1.32857E+01  1.36798E+01  1.39886E+01
   1.42003E+01  1.43072E+01  1.43064E+01  1.41985E+01  1.39884E+01  1.36850E+01  1.33002E+01  1.28491E+01  1.23490E+01  1.18180E+01
   1.12743E+01  1.07353E+01  1.02169E+01  9.73344E+00  9.29738E+00  8.91869E+00  8.60496E+00  8.36162E+00  8.19244E+00  8.09998E+00
   8.08574E+00  8.15032E+00  8.29368E+00  8.51554E+00  8.81571E+00  9.19416E+00  9.65083E+00  1.01856E+01  1.07986E+01  1.14909E+01
   1.22672E+01  1.31423E+01  1.41495E+01  1.53029E+01  1.65172E+01  1.76001E+01  1.83604E+01  1.87378E+01  1.88243E+01  1.87828E+01
   1.87667E+01  1.89132E+01  1.93359E+01  2.00285E+01  2.08543E+01  2.16581E+01  2.22387E+01  2.24422E+01  2.23165E+01  2.19368E+01
   2.13667E+01  2.06281E+01  1.97224E+01  1.87643E+01  1.78409E+01  1.69294E+01  1.60240E+01  1.51307E+01  1.42582E+01  1.34156E+01
   1.26110E+01  1.18512E+01  1.11412E+01  1.04848E+01  9.88462E+00  9.34198E+00  8.85732E+00  8.43032E+00  8.06016E+00  7.74586E+00
   7.48638E+00  7.28069E+00  7.12784E+00  7.02707E+00  6.97783E+00  6.97984E+00  7.03293E+00  7.13689E+00  7.29129E+00  7.49537E+00
   7.74790E+00  8.04696E+00  8.38967E+00  8.77195E+00  9.18846E+00  9.63250E+00  1.00961E+01  1.05700E+01  1.10438E+01  1.15062E+01
   1.19454E+01  1.23495E+01  1.27072E+01  1.30079E+01  1.32423E+01  1.34031E+01  1.34847E+01  1.34845E+01  1.34018E+01  1.32389E+01
   1.29999E+01  1.26913E+01  1.23213E+01  1.18992E+01  1.14354E+01  1.09406E+01  1.04250E+01  9.89888E+00  9.37133E+00  8.85058E+00
   8.34361E+00  7.85602E+00  7.39210E+00  6.95493E+00  6.54647E+00  6.16770E+00  5.81869E+00  5.49879E+00  5.20683E+00  4.94130E+00
   4.70048E+00  4.48249E+00  4.28536E+00  4.10709E+00  3.94582E+00  3.79981E+00  3.66746E+00  3.54729E+00  3.43791E+00  3.33809E+00
   3.24674E+00  3.16295E+00  3.08589E+00  3.01483E+00  2.94905E+00  2.88796E+00  2.83107E+00  2.77797E+00  2.72829E+00  2.68163E+00
   2.63766E+00  2.59609E+00  2.55673E+00  2.51939E+00  2.48389E+00  2.45002E+00  2.41763E+00  2.38660E+00  2.35685E+00  2.32830E+00
   2.30082E+00  2.27431E+00  2.24868E+00  2.22390E+00  2.19993E+00  2.17673E+00  2.15420E+00  2.13228E+00  2.11093E+00  2.09015E+00
   2.06992E+00  2.05020E+00  2.03092E+00  2.01206E+00  1.99361E+00  1.97558E+00  1.95796E+00  1.94070E+00  1.92375E+00  1.90711E+00
   1.89079E+00  1.87480E+00  1.85911E+00  1.84369E+00  1.82851E+00  1.81358E+00  1.79893E+00  1.78456E+00  1.77043E+00  1.75651E+00
   1.74278E+00  1.72928E+00  1.71603E+00  1.70302E+00  1.69020E+00  1.67754E+00  1.66507E+00  1.65282E+00
 NY background values follow
     9.718E+01    9.643E+01    9.568E+01    9.493E+01    9.418E+01    9.343E+01    9.268E+01    9.192E+01    9.117E+01    9.042E+01
     8.967E+01    8.892E+01    8.817E+01    8.742E+01    8.667E+01    8.592E+01    8.517E+01    8.443E+01    8.368E+01    8.294E+01
     8.219E+01    8.145E+01    8.071E+01    7.997E+01    7.923E+01    7.849E+01    7.776E+01    7.702E+01    7.629E+01    7.556E+01
     7.483E+01    7.411E+01    7.339E+01    7.266E+01    7.195E+01    7.123E+01    7.052E+01    6.981E+01    6.910E+01    6.839E+01
     6.769E+01    6.699E+01    6.630E+01    6.560E+01    6.491E+01    6.423E+01    6.355E+01    6.287E+01    6.219E+01    6.152E+01
     6.085E+01    6.019E+01    5.953E+01    5.887E+01    5.822E+01    5.757E+01    5.692E+01    5.628E+01    5.565E+01    5.501E+01
     5.439E+01    5.376E+01    5.314E+01    5.253E+01    5.192E+01    5.131E+01    5.071E+01    5.011E+01    4.952E+01    4.893E+01
     4.834E+01    4.776E+01    4.719E+01    4.662E+01    4.606E+01    4.550E+01    4.494E+01    4.439E+01    4.385E+01    4.331E+01
     4.277E+01    4.224E+01    4.172E+01    4.120E+01    4.068E+01    4.018E+01    3.967E+01    3.918E+01    3.868E+01    3.820E+01
     3.772E+01    3.724E+01    3.677E+01    3.631E+01    3.585E+01    3.540E+01    3.495E+01    3.451E+01    3.407E+01    3.364E+01
     3.322E+01    3.280E+01    3.238E+01    3.197E+01    3.157E+01    3.117E+01    3.077E+01    3.038E+01    3.000E+01    2.962E+01
     2.924E+01    2.888E+01    2.851E+01    2.815E+01    2.779E+01    2.744E+01    2.710E+01    2.676E+01    2.642E+01    2.609E+01
     2.576E+01    2.543E+01    2.511E+01    2.480E+01    2.449E+01    2.418E+01    2.388E+01    2.358E+01    2.329E+01    2.300E+01
     2.271E+01    2.243E+01    2.215E+01    2.188E+01    2.161E+01    2.135E+01    2.108E+01    2.082E+01    2.057E+01    2.032E+01
     2.007E+01    1.983E+01    1.959E+01    1.935E+01    1.912E+01    1.889E+01    1.866E+01    1.844E+01    1.822E+01    1.800E+01
     1.779E+01    1.758E+01    1.737E+01    1.717E+01    1.697E+01    1.677E+01    1.658E+01    1.639E+01    1.620E+01    1.601E+01
     1.583E+01    1.565E+01    1.547E+01    1.530E+01    1.513E+01    1.496E+01    1.479E+01    1.463E+01    1.447E+01    1.431E+01
     1.415E+01    1.400E+01    1.385E+01    1.370E+01    1.355E+01    1.341E+01    1.327E+01    1.313E+01    1.299E+01    1.285E+01
     1.272E+01    1.259E+01    1.246E+01    1.233E+01    1.221E+01    1.208E+01    1.196E+01    1.184E+01    1.172E+01    1.161E+01
     1.149E+01    1.138E+01    1.127E+01    1.116E+01    1.105E+01    1.094E+01    1.083E+01    1.073E+01    1.063E+01    1.053E+01
     1.042E+01    1.033E+01    1.023E+01    1.013E+01    1.003E+01    9.939E+00    9.844E+00    9.751E+00    9.659E+00    9.567E+00
     9.476E+00    9.386E+00    9.297E+00    9.208E+00    9.120E+00    9.032E+00    8.945E+00    8.859E+00    8.773E+00    8.687E+00
     8.601E+00    8.516E+00    8.431E+00    8.347E+00    8.262E+00    8.178E+00    8.093E+00    8.009E+00    7.925E+00    7.841E+00
     7.757E+00    7.673E+00    7.589E+00    7.505E+00    7.421E+00    7.338E+00    7.255E+00    7.172E+00    7.089E+00    7.007E+00
     6.924E+00    6.842E+00    6.761E+00    6.679E+00    6.598E+00    6.518E+00    6.437E+00    6.357E+00    6.278E+00    6.199E+00
     6.120E+00    6.042E+00    5.964E+00    5.887E+00    5.810E+00    5.734E+00    5.658E+00    5.583E+00    5.508E+00    5.434E+00
     5.361E+00    5.288E+00    5.216E+00    5.145E+00    5.074E+00    5.004E+00    4.934E+00    4.866E+00    4.798E+00    4.731E+00
     4.664E+00    4.599E+00    4.534E+00    4.470E+00    4.407E+00    4.345E+00    4.283E+00    4.222E+00    4.162E+00    4.103E+00
     4.045E+00    3.987E+00    3.930E+00    3.874E+00    3.818E+00    3.763E+00    3.709E+00    3.656E+00    3.603E+00    3.551E+00
     3.499E+00    3.449E+00    3.399E+00    3.349E+00    3.300E+00    3.252E+00    3.205E+00    3.158E+00    3.112E+00    3.066E+00
     3.021E+00    2.976E+00    2.933E+00    2.889E+00    2.846E+00    2.804E+00    2.763E+00    2.721E+00    2.681E+00    2.641E+00
     2.601E+00    2.562E+00    2.524E+00    2.486E+00    2.448E+00    2.411E+00    2.374E+00    2.338E+00    2.302E+00    2.267E+00
     2.232E+00    2.198E+00    2.164E+00    2.131E+00    2.098E+00    2.065E+00    2.033E+00    2.002E+00    1.971E+00    1.940E+00
     1.910E+00    1.880E+00    1.851E+00    1.822E+00    1.794E+00    1.766E+00    1.739E+00    1.712E+00    1.685E+00    1.659E+00
     1.634E+00    1.609E+00    1.584E+00    1.560E+00    1.536E+00    1.513E+00    1.490E+00    1.468E+00    1.446E+00    1.425E+00
     1.404E+00    1.384E+00    1.364E+00    1.345E+00    1.326E+00    1.307E+00    1.289E+00    1.272E+00    1.255E+00    1.238E+00
     1.222E+00    1.206E+00    1.191E+00    1.176E+00    1.162E+00    1.148E+00    1.135E+00    1.122E+00    1.110E+00    1.098E+00
     1.086E+00    1.075E+00    1.064E+00    1.054E+00    1.044E+00    1.034E+00    1.025E+00    1.017E+00    1.008E+00    1.000E+00
     9.928E-01    9.856E-01    9.788E-01    9.723E-01    9.661E-01    9.603E-01    9.549E-01    9.497E-01    9.450E-01    9.405E-01
     9.363E-01    9.325E-01    9.289E-01    9.257E-01    9.227E-01    9.201E-01    9.177E-01    9.156E-01    9.138E-01    9.122E-01
     9.109E-01    9.098E-01    9.090E-01    9.084E-01    9.081E-01    9.080E-01    9.081E-01    9.085E-01    9.090E-01    9.098E-01
     9.108E-01    9.119E-01    9.132E-01    9.147E-01    9.163E-01    9.180E-01    9.199E-01    9.220E-01    9.241E-01    9.263E-01
     9.287E-01    9.311E-01    9.336E-01    9.361E-01    9.387E-01    9.414E-01    9.441E-01    9.468E-01    9.495E-01    9.522E-01
     9.550E-01    9.577E-01    9.604E-01    9.630E-01    9.656E-01    9.682E-01    9.707E-01    9.731E-01    9.754E-01    9.777E-01
     9.798E-01    9.819E-01    9.838E-01    9.855E-01    9.872E-01    9.886E-01    9.899E-01    9.911E-01    9.920E-01    9.928E-01
     9.934E-01    9.937E-01    9.939E-01    9.938E-01    9.935E-01    9.929E-01    9.922E-01    9.913E-01    9.902E-01    9.888E-01
     9.873E-01    9.857E-01    9.838E-01    9.818E-01    9.797E-01    9.774E-01    9.750E-01    9.724E-01    9.697E-01    9.669E-01
     9.640E-01    9.609E-01    9.578E-01    9.546E-01    9.513E-01    9.479E-01    9.445E-01    9.409E-01    9.374E-01    9.337E-01
     9.301E-01    9.264E-01    9.226E-01    9.188E-01    9.151E-01    9.113E-01    9.075E-01    9.037E-01    8.999E-01    8.961E-01
     8.924E-01    8.887E-01    8.850E-01    8.814E-01    8.778E-01    8.743E-01    8.708E-01    8.674E-01
