 LCModel (Version 6.3-1L) Copyright: S.W. Provencher.          Ref.: Magn. Reson. Med. 30:672-679 (1993).                
 Slice#1 Row#12 Col#13  PD_24_press_1_raw_act
 36 lines in following concentration table = NCONC+1
    Conc.  %SD /Cr+PCr  Metabolite                                         
    8.231 157%   0.337 Ala                                                 
    4.543  44%   0.186 Asp                                                 
    9.391 157%   0.385 Cr                                                  
   15.003  99%   0.615 PCr                                                 
    2.704  44%   0.111 GABA                                                
    2.730  44%   0.112 Glc                                                 
   18.087 135%   0.741 Gln                                                 
   32.272  85%   1.323 Glu                                                 
    6.935  49%   0.284 GPC                                                 
    0.000 999%   0.000 PCh                                                 
    9.284 109%   0.381 GSH                                                 
    6.976 444%   0.286 Ins                                                 
   12.741 107%   0.522 Lac                                                 
   46.061  29%   1.888 NAA                                                 
    0.000 999%   0.000 NAAG                                                
    0.916  44% 3.8E-02 Scyllo                                              
    4.634  43%   0.190 Tau                                                 
    2.628  57%   0.108 -CrCH2                                              
    6.935  49%   0.284 GPC+PCh                                             
   46.061  29%   1.888 NAA+NAAG                                            
   24.394  39%   1.000 Cr+PCr                                              
   50.358  69%   2.064 Glu+Gln                                             
 2.84E+03   6% 116.360 Lip13a                                              
    0.000 999%   0.000 Lip13b                                              
  943.495  20%  38.678 Lip09                                               
   28.730 453%   1.178 MM09                                                
  331.115  24%  13.574 Lip20                                               
    0.000 999%   0.000 MM20                                                
   27.793 294%   1.139 MM12                                                
    0.000 999%   0.000 MM14                                                
  468.976  17%  19.225 MM17                                                
 2.84E+03   6% 116.360 Lip13a+Lip13b                                       
 2.87E+03   5% 117.499 MM14+Lip13a+Lip13b+MM12                             
  972.225  14%  39.856 MM09+Lip09                                          
  331.115  24%  13.574 MM20+Lip20                                          
   6 lines in following misc. output table
  FWHM = 0.031 ppm    S/N =   5                                            
  Data shift = 0.000 ppm                                                   
  Ph:  83 deg     -42.5 deg/ppm                                            
  alphaB,S = 8.5E+01,   6.4E+00                                            
   14 spline knots.   Ns = 5(1)                                            
   2 inflections.     2 extrema                                            
  498 points on ppm-axis = NY
      4.000000     3.992357     3.984714     3.977070     3.969427     3.961784     3.954141     3.946497     3.938854     3.931211
      3.923568     3.915925     3.908281     3.900638     3.892995     3.885352     3.877708     3.870065     3.862422     3.854779
      3.847136     3.839492     3.831849     3.824206     3.816563     3.808919     3.801276     3.793633     3.785990     3.778347
      3.770703     3.763060     3.755417     3.747774     3.740130     3.732487     3.724844     3.717201     3.709558     3.701914
      3.694271     3.686628     3.678985     3.671341     3.663698     3.656055     3.648412     3.640769     3.633125     3.625482
      3.617839     3.610196     3.602552     3.594909     3.587266     3.579623     3.571980     3.564336     3.556693     3.549050
      3.541407     3.533763     3.526120     3.518477     3.510834     3.503191     3.495547     3.487904     3.480261     3.472618
      3.464974     3.457331     3.449688     3.442045     3.434402     3.426758     3.419115     3.411472     3.403829     3.396185
      3.388542     3.380899     3.373256     3.365613     3.357969     3.350326     3.342683     3.335040     3.327396     3.319753
      3.312110     3.304467     3.296824     3.289180     3.281537     3.273894     3.266251     3.258607     3.250964     3.243321
      3.235678     3.228034     3.220391     3.212748     3.205105     3.197462     3.189818     3.182175     3.174532     3.166889
      3.159245     3.151602     3.143959     3.136316     3.128673     3.121029     3.113386     3.105743     3.098100     3.090456
      3.082813     3.075170     3.067527     3.059884     3.052240     3.044597     3.036954     3.029311     3.021667     3.014024
      3.006381     2.998738     2.991095     2.983451     2.975808     2.968165     2.960522     2.952878     2.945235     2.937592
      2.929949     2.922306     2.914662     2.907019     2.899376     2.891733     2.884089     2.876446     2.868803     2.861160
      2.853517     2.845873     2.838230     2.830587     2.822944     2.815300     2.807657     2.800014     2.792371     2.784728
      2.777084     2.769441     2.761798     2.754155     2.746511     2.738868     2.731225     2.723582     2.715939     2.708295
      2.700652     2.693009     2.685366     2.677722     2.670079     2.662436     2.654793     2.647150     2.639506     2.631863
      2.624220     2.616577     2.608933     2.601290     2.593647     2.586004     2.578361     2.570717     2.563074     2.555431
      2.547788     2.540144     2.532501     2.524858     2.517215     2.509572     2.501928     2.494285     2.486642     2.478999
      2.471355     2.463712     2.456069     2.448426     2.440783     2.433139     2.425496     2.417853     2.410210     2.402566
      2.394923     2.387280     2.379637     2.371994     2.364350     2.356707     2.349064     2.341421     2.333777     2.326134
      2.318491     2.310848     2.303205     2.295561     2.287918     2.280275     2.272632     2.264988     2.257345     2.249702
      2.242059     2.234416     2.226772     2.219129     2.211486     2.203843     2.196199     2.188556     2.180913     2.173270
      2.165627     2.157983     2.150340     2.142697     2.135054     2.127410     2.119767     2.112124     2.104481     2.096838
      2.089194     2.081551     2.073908     2.066265     2.058621     2.050978     2.043335     2.035692     2.028049     2.020405
      2.012762     2.005119     1.997476     1.989833     1.982190     1.974546     1.966903     1.959260     1.951617     1.943974
      1.936331     1.928688     1.921045     1.913402     1.905759     1.898115     1.890472     1.882829     1.875186     1.867543
      1.859900     1.852257     1.844614     1.836971     1.829327     1.821684     1.814041     1.806398     1.798755     1.791112
      1.783469     1.775826     1.768183     1.760540     1.752896     1.745253     1.737610     1.729967     1.722324     1.714681
      1.707038     1.699395     1.691752     1.684108     1.676465     1.668822     1.661179     1.653536     1.645893     1.638250
      1.630607     1.622964     1.615321     1.607677     1.600034     1.592391     1.584748     1.577105     1.569462     1.561819
      1.554176     1.546533     1.538890     1.531246     1.523603     1.515960     1.508317     1.500674     1.493031     1.485388
      1.477745     1.470102     1.462458     1.454815     1.447172     1.439529     1.431886     1.424243     1.416600     1.408957
      1.401314     1.393671     1.386027     1.378384     1.370741     1.363098     1.355455     1.347812     1.340169     1.332526
      1.324883     1.317240     1.309596     1.301953     1.294310     1.286667     1.279024     1.271381     1.263738     1.256095
      1.248452     1.240808     1.233165     1.225522     1.217879     1.210236     1.202593     1.194950     1.187307     1.179664
      1.172021     1.164377     1.156734     1.149091     1.141448     1.133805     1.126162     1.118519     1.110876     1.103233
      1.095590     1.087946     1.080303     1.072660     1.065017     1.057374     1.049731     1.042088     1.034445     1.026802
      1.019158     1.011515     1.003872     0.996229     0.988586     0.980943     0.973300     0.965657     0.958014     0.950371
      0.942727     0.935084     0.927441     0.919798     0.912155     0.904512     0.896869     0.889226     0.881583     0.873940
      0.866296     0.858653     0.851010     0.843367     0.835724     0.828081     0.820438     0.812795     0.805152     0.797508
      0.789865     0.782222     0.774579     0.766936     0.759293     0.751650     0.744007     0.736364     0.728721     0.721077
      0.713434     0.705791     0.698148     0.690505     0.682862     0.675219     0.667576     0.659933     0.652290     0.644646
      0.637003     0.629360     0.621717     0.614074     0.606431     0.598788     0.591145     0.583502     0.575858     0.568215
      0.560572     0.552929     0.545286     0.537643     0.530000     0.522357     0.514714     0.507071     0.499427     0.491784
      0.484141     0.476498     0.468855     0.461212     0.453569     0.445925     0.438282     0.430639     0.422996     0.415353
      0.407710     0.400067     0.392424     0.384780     0.377137     0.369494     0.361851     0.354208     0.346565     0.338922
      0.331278     0.323635     0.315992     0.308349     0.300706     0.293063     0.285420     0.277777     0.270133     0.262490
      0.254847     0.247204     0.239561     0.231918     0.224275     0.216631     0.208988     0.201345
 NY phased data points follow
  -3.70235E+00  1.10972E-01 -1.07972E+00 -1.25456E+00 -1.30912E+00 -6.00372E-01 -2.61224E-01 -7.08223E-02 -2.19261E+00 -4.93575E-01
  -4.84132E-01 -1.24858E+00 -1.70348E+00 -8.96474E-01 -8.68044E-01 -1.88628E+00 -2.39362E+00 -1.08072E+00 -9.81874E-01 -1.19838E+00
  -3.39215E+00 -3.11647E-01 -2.04291E+00  1.69672E+00 -2.53493E-01  3.48525E-01 -1.82075E+00 -1.76629E-01 -4.41311E-01 -1.18162E+00
   6.86288E-02 -8.63228E-01 -7.52296E-01 -1.16825E+00 -1.01762E+00  3.71216E-01 -1.28791E+00 -7.06532E-01  3.68633E-01 -4.85666E-01
   5.31988E-02 -2.05991E-01  1.13121E+00 -1.28366E+00 -2.49633E+00 -4.93535E-01 -9.02636E-01  6.91857E-01 -5.93928E-02  6.31251E-01
  -3.99866E-01  1.38692E+00 -2.14715E-01  5.65522E-01 -1.65388E+00 -4.59801E-01 -4.34741E-01  1.31244E-01 -1.93581E+00 -1.33270E+00
  -3.66187E-01 -4.67515E-01 -3.25392E+00 -1.42445E+00 -1.77835E+00 -6.35110E-01 -1.11200E+00 -8.40725E-01 -2.60013E+00  5.55268E-01
  -2.46995E+00  6.80037E-01 -6.90445E-01 -1.44218E-01 -6.88917E-01 -1.60803E+00 -2.52453E+00  3.47238E-02 -2.47929E+00  4.45898E-01
  -8.18909E-02  4.44880E-01 -7.60719E-02 -1.67486E+00 -6.41005E-01 -8.62932E-01 -7.57639E-01  8.95846E-01  1.01122E+00 -1.28319E+00
  -1.81864E+00  6.05527E-01 -1.07193E+00 -1.47521E-01 -1.17345E+00  1.76077E+00 -9.91738E-01 -8.02686E-02 -2.67656E+00  1.00703E-01
  -2.33867E+00 -3.82790E-01 -1.57831E+00  1.26155E+00  3.90329E-01  1.14067E+00  1.27631E+00 -3.20078E-01  5.11404E-01 -1.22193E+00
  -6.71606E-01  7.82788E-01  9.79540E-01  5.96443E-02 -5.58567E-01  5.11892E-01  3.33996E-01 -4.13100E-01  8.10192E-01 -2.03599E-01
  -1.27816E+00 -1.40137E+00 -1.99788E+00 -1.06903E+00 -2.38180E+00  7.09507E-01 -1.34357E+00  6.42603E-01  1.33091E+00  1.94608E+00
   1.83582E+00  1.97204E+00  1.60814E+00  3.97006E-01 -1.16104E+00  1.56369E+00  1.41837E+00 -7.06208E-01  7.18938E-01  1.29997E-01
   1.04172E-02 -1.97849E+00 -2.29263E-01 -4.81906E-01 -3.73824E-01 -1.36723E+00  2.96177E-01  1.64461E+00  1.50099E+00  1.06753E+00
  -2.62461E-01  5.21218E-01  2.73816E-03  4.50601E-01  1.56334E+00  1.17500E+00 -8.66597E-01 -3.95416E-01  2.39060E-01 -4.81781E-01
   1.58701E-03 -1.09712E+00  2.85845E-01  6.71055E-01  1.20637E+00 -3.46201E-01  1.59388E+00  1.08042E+00  9.32850E-02 -1.48318E+00
   1.56023E+00  5.01684E-01 -9.35996E-01 -4.48822E-01  4.30032E-01  6.15103E-01 -2.10714E+00 -6.45286E-01  2.87988E-01  9.95978E-01
   8.51228E-01  8.37993E-01  1.60392E+00 -1.09855E+00 -1.99191E+00 -4.46982E-01 -5.87813E-01  5.33267E-01  1.15058E+00  1.56494E+00
   2.78837E-01  1.69235E+00  1.12850E+00  8.63046E-01  1.70730E+00  6.14179E-01  2.97607E+00  2.00034E+00  5.05693E-01  1.05777E+00
  -1.22977E+00 -1.80125E+00 -7.94708E-01  3.88693E-01 -1.20450E-01  1.40860E+00  9.93473E-02  1.20335E+00  2.35254E-01 -2.12830E+00
  -1.46396E+00  7.53027E-01  3.65235E-01 -1.10925E+00  1.23592E+00  8.20414E-01 -7.48897E-01  1.33531E+00  1.53927E+00  2.97015E+00
   3.96447E-02  3.36650E+00  8.35739E-01  1.32360E+00  1.14142E+00 -1.33468E-01 -7.18707E-01 -2.97941E-01  1.55192E+00  1.00838E+00
   9.62310E-01  8.73675E-01 -7.54056E-02 -1.83716E+00 -8.70191E-01  8.07019E-01  1.15175E-01 -1.62383E+00  2.02313E-01  2.22013E+00
   1.57577E+00  7.98621E-01  2.32149E-02  1.94451E+00  1.05755E+00  1.38972E+00 -8.27516E-01  1.82621E+00  2.53938E-01  1.24219E+00
   1.75233E+00  7.04800E-01 -1.04814E-01  1.11085E+00 -8.11125E-01 -4.90968E-01 -2.03963E+00  2.90155E+00 -2.15185E+00 -2.10984E-02
   2.62548E-01  3.10419E+00  5.16890E+00  4.75049E+00  2.58273E+00  1.57813E+00 -5.43020E-01 -1.60815E-01  2.05102E+00  3.52165E-01
   1.14864E+00  2.30810E+00 -4.75659E-01  4.66045E-01  2.21400E+00  9.50844E-01  4.06572E-01  1.16130E+00  1.02011E+00 -3.81337E-01
   1.20652E+00  3.82731E+00  1.32075E+00  5.22129E-01  3.37229E+00  2.35824E+00  1.21832E+00  2.32449E+00  3.77818E-01  1.41741E+00
   1.30686E+00  2.48982E+00  3.43438E+00  3.39982E+00  2.67691E+00  3.24618E+00  1.06307E+00  1.27068E+00  1.12037E+00  1.36963E+00
   2.24854E+00  2.98761E+00  3.22467E+00  2.42934E+00  2.17737E+00  4.20717E+00  1.70784E+00  3.71500E+00  3.02533E+00  4.85154E+00
   3.30747E+00  3.02025E+00  3.38093E+00  3.87519E+00  3.92143E+00  4.50894E+00  5.06837E+00  3.78939E+00  2.12571E+00  1.88387E+00
   3.95749E+00  3.07593E+00  2.60789E+00  1.57968E+00  4.04547E+00  2.00583E+00  2.04704E+00  3.42577E+00  1.46153E+00  3.11274E+00
   1.41924E+00  2.82117E+00  3.16879E+00  4.23993E+00  5.35991E+00  5.77525E+00  7.09836E+00  5.13290E+00  5.77991E+00  5.70633E+00
   6.48880E+00  6.03372E+00  6.01401E+00  6.36543E+00  8.41409E+00  8.93783E+00  9.06039E+00  8.60641E+00  9.12287E+00  7.04795E+00
   7.99022E+00  1.02064E+01  1.03462E+01  1.03105E+01  9.32334E+00  1.10174E+01  9.89768E+00  1.07253E+01  9.50244E+00  1.05601E+01
   9.56587E+00  1.09945E+01  9.42035E+00  8.77201E+00  7.76576E+00  6.58922E+00  4.45366E+00  5.77875E+00  4.20805E+00  5.78350E+00
   3.36849E+00  1.56358E+00  7.77440E-01  9.68070E-01  9.04944E-01  2.96409E-01  3.45729E-01  1.45443E-01 -1.20124E+00  1.74167E-01
   4.38716E-01 -1.08695E-01 -4.57074E-01 -9.75376E-01 -4.32802E-01  3.24726E-01 -1.41721E+00 -1.92458E-01  1.68260E+00  1.71198E+00
  -1.01822E+00  1.22232E+00 -1.36907E+00 -8.16529E-02 -6.41682E-01 -3.22664E-02 -9.83577E-01 -4.17165E-01 -1.79710E+00  1.79173E+00
   1.48530E-01 -9.56181E-01  3.93938E-02 -1.59675E+00 -1.52384E+00 -1.31277E+00 -1.66160E+00 -3.04393E+00 -1.39775E+00  2.10099E+00
  -3.74680E-01 -2.25268E+00 -3.90045E+00 -3.33978E+00 -3.29126E+00 -3.79508E+00 -2.85554E+00 -3.53748E+00 -3.56537E+00 -2.76251E+00
  -4.24258E+00 -3.39424E+00 -2.83952E+00 -3.40880E+00 -3.78623E+00 -4.98583E+00 -5.64756E+00 -3.82480E+00 -5.06318E+00 -4.46966E+00
  -5.15770E+00 -5.18426E+00 -6.11231E+00 -4.73614E+00 -5.84934E+00 -4.85389E+00 -4.03628E+00 -3.82083E+00 -6.11871E+00 -5.52708E+00
  -6.02302E+00 -4.94920E+00 -6.51890E+00 -5.50426E+00 -3.25900E+00 -4.38757E+00 -4.00342E+00 -4.45646E+00 -4.41596E+00 -4.51856E+00
  -4.95260E+00 -4.49832E+00 -4.35528E+00 -4.88354E+00 -4.73290E+00 -3.03674E+00 -4.00605E+00 -5.28513E+00 -3.44325E+00 -4.56669E+00
  -3.74270E+00 -2.97367E+00 -3.95134E+00 -4.39754E+00 -4.31336E+00 -3.33720E+00 -1.65338E+00 -3.35030E+00 -3.96553E+00 -3.97637E+00
  -4.07712E+00 -3.13593E+00 -3.77158E+00 -3.83761E+00 -3.31065E+00 -2.29255E+00 -2.26089E+00 -1.13909E+00 -1.79529E+00 -1.81698E+00
  -2.21292E+00 -2.50357E+00 -4.02796E+00 -8.61398E-01 -2.88136E+00 -1.18704E+00 -1.37606E+00 -8.42044E-01 -2.97164E+00 -1.86007E+00
  -2.90726E+00 -3.53130E+00 -1.20028E+00 -1.43645E+00 -4.17721E-02 -4.50071E+00 -2.15119E+00 -1.57115E+00
 NY points of the fit to the data follow
  -1.39112E+00 -1.40216E+00 -1.40092E+00 -1.38404E+00 -1.41223E+00 -1.48850E+00 -1.57935E+00 -1.73255E+00 -1.85838E+00 -1.85361E+00
  -1.68521E+00 -1.39077E+00 -1.05840E+00 -7.83776E-01 -6.36757E-01 -6.11255E-01 -6.63029E-01 -7.40034E-01 -7.85323E-01 -8.18610E-01
  -8.64945E-01 -9.16869E-01 -9.42148E-01 -9.23434E-01 -8.45754E-01 -7.59873E-01 -7.32957E-01 -7.51057E-01 -8.64052E-01 -1.05600E+00
  -1.22007E+00 -1.22488E+00 -1.04549E+00 -7.73299E-01 -5.15263E-01 -3.40972E-01 -2.61538E-01 -2.72024E-01 -3.82090E-01 -5.26540E-01
  -6.38009E-01 -6.90208E-01 -6.88845E-01 -6.54545E-01 -6.15166E-01 -5.95764E-01 -5.91736E-01 -5.83767E-01 -5.54963E-01 -5.04129E-01
  -4.51900E-01 -4.17709E-01 -4.06408E-01 -4.11940E-01 -4.25841E-01 -4.40335E-01 -4.48097E-01 -4.52386E-01 -4.56647E-01 -4.59913E-01
  -4.55928E-01 -4.39441E-01 -4.16622E-01 -3.96665E-01 -3.90231E-01 -3.97914E-01 -4.05824E-01 -4.09367E-01 -4.07288E-01 -3.99019E-01
  -3.92655E-01 -3.98807E-01 -4.09541E-01 -4.15082E-01 -4.13988E-01 -4.00336E-01 -3.68458E-01 -3.28855E-01 -2.98606E-01 -2.91187E-01
  -3.09463E-01 -3.47941E-01 -3.89254E-01 -4.09677E-01 -4.12151E-01 -3.98765E-01 -3.63048E-01 -3.09424E-01 -2.61543E-01 -2.44994E-01
  -2.65964E-01 -3.02574E-01 -3.24219E-01 -3.23680E-01 -3.26382E-01 -3.37706E-01 -3.48286E-01 -4.01695E-01 -6.16870E-01 -8.29219E-01
  -9.93308E-01 -1.07939E+00 -9.01958E-01 -3.45766E-01  3.94664E-01  9.30309E-01  1.00882E+00  7.18430E-01  3.57371E-01  1.57129E-01
   6.23454E-02  1.61915E-03 -4.28595E-02 -7.84730E-02 -1.06698E-01 -1.27492E-01 -1.43111E-01 -1.55736E-01 -1.63514E-01 -1.67127E-01
  -1.71094E-01 -2.15344E-01 -4.40490E-01 -7.19818E-01 -9.27082E-01 -1.02702E+00 -8.36014E-01 -2.07482E-01  6.65010E-01  1.32307E+00
   1.45424E+00  1.13324E+00  6.97921E-01  4.61050E-01  4.02401E-01  3.77155E-01  3.25609E-01  2.25109E-01  1.06822E-01  1.85185E-02
  -6.05230E-03  2.88661E-02  9.75921E-02  1.69647E-01  2.17410E-01  2.38133E-01  2.47768E-01  2.55382E-01  2.66117E-01  2.76425E-01
   2.86322E-01  2.96408E-01  3.05645E-01  3.13510E-01  3.18887E-01  3.24984E-01  3.41557E-01  3.69415E-01  3.96380E-01  4.16404E-01
   4.09964E-01  3.70861E-01  3.16813E-01  2.72542E-01  2.70242E-01  3.15648E-01  3.75246E-01  4.03581E-01  3.85557E-01  3.42323E-01
   3.00935E-01  2.81067E-01  2.78259E-01  2.62260E-01  2.35356E-01  1.95997E-01  1.43859E-01  9.10501E-02  5.75884E-02  6.23077E-02
   8.55283E-02  8.83173E-02  5.75025E-02  1.55961E-02 -1.14384E-02 -2.16513E-02 -4.84316E-02 -1.08757E-01 -1.68428E-01 -1.70966E-01
  -1.04283E-01  3.37990E-03  9.67896E-02  1.43819E-01  1.33016E-01  8.10219E-02  1.24735E-02 -5.94692E-02 -1.29415E-01 -1.91656E-01
  -2.19401E-01 -1.85657E-01 -9.36833E-02  3.39330E-02  1.62020E-01  2.94378E-01  3.76472E-01  3.64694E-01  2.76604E-01  1.12284E-01
  -1.03773E-01 -3.04141E-01 -4.07401E-01 -3.61610E-01 -2.13502E-01  9.41852E-03  2.79905E-01  5.54032E-01  7.30858E-01  7.13074E-01
   5.33014E-01  3.03364E-01  8.35243E-02 -9.42871E-02 -1.70397E-01 -8.33242E-02  1.38996E-01  3.88895E-01  5.55360E-01  6.16503E-01
   6.14930E-01  5.83215E-01  5.15868E-01  4.51514E-01  4.38549E-01  4.66008E-01  5.06782E-01  5.64521E-01  6.65521E-01  7.71250E-01
   8.31505E-01  8.19491E-01  7.46244E-01  6.44443E-01  5.62804E-01  5.45798E-01  6.06421E-01  7.13261E-01  8.08851E-01  8.56691E-01
   8.69519E-01  8.66710E-01  8.65073E-01  8.77197E-01  8.78791E-01  6.76274E-01  3.19848E-01  2.50003E-01  4.12529E-01  9.90498E-01
   2.18356E+00  3.62776E+00  4.46613E+00  4.16538E+00  2.99964E+00  1.75701E+00  1.05228E+00  8.66084E-01  7.96344E-01  7.45902E-01
   7.06544E-01  6.73370E-01  6.47262E-01  6.40391E-01  6.54949E-01  6.84085E-01  7.17586E-01  7.45014E-01  7.62966E-01  7.76498E-01
   7.91463E-01  8.11574E-01  8.40866E-01  8.82299E-01  9.36369E-01  1.00237E+00  1.07896E+00  1.16384E+00  1.25600E+00  1.35548E+00
   1.46257E+00  1.57797E+00  1.70156E+00  1.83238E+00  1.96941E+00  2.11164E+00  2.25759E+00  2.40513E+00  2.55176E+00  2.69482E+00
   2.83135E+00  2.95854E+00  3.07373E+00  3.17452E+00  3.25879E+00  3.32476E+00  3.37120E+00  3.39758E+00  3.40417E+00  3.39205E+00
   3.36290E+00  3.31892E+00  3.26284E+00  3.19781E+00  3.12728E+00  3.05485E+00  2.98411E+00  2.91843E+00  2.86086E+00  2.81389E+00
   2.77901E+00  2.75581E+00  2.75530E+00  2.81163E+00  2.90207E+00  3.01824E+00  3.15264E+00  3.26352E+00  3.30986E+00  3.30263E+00
   3.29180E+00  3.37415E+00  3.57267E+00  3.84784E+00  4.18103E+00  4.58981E+00  5.04016E+00  5.45639E+00  5.79369E+00  6.07496E+00
   6.35990E+00  6.68970E+00  7.06137E+00  7.50670E+00  7.98308E+00  8.46362E+00  8.93151E+00  9.31627E+00  9.54229E+00  9.60768E+00
   9.60021E+00  9.68087E+00  9.86472E+00  1.00911E+01  1.03147E+01  1.05238E+01  1.06399E+01  1.05578E+01  1.02510E+01  9.79212E+00
   9.28286E+00  8.77343E+00  8.23572E+00  7.65839E+00  7.04742E+00  6.41210E+00  5.76287E+00  5.11035E+00  4.46495E+00  3.83639E+00
   3.23345E+00  2.66369E+00  2.13330E+00  1.64703E+00  1.20824E+00  8.18955E-01  4.79946E-01  1.90870E-01 -4.95986E-02 -2.43590E-01
  -3.93842E-01 -5.03558E-01 -5.76269E-01 -6.15759E-01 -6.25962E-01 -6.10890E-01 -5.74562E-01 -5.20985E-01 -4.54146E-01 -3.78028E-01
  -2.96587E-01 -2.13739E-01 -1.33319E-01 -5.90792E-02  5.34675E-03  5.64732E-02  9.10483E-02  1.06132E-01  9.91851E-02  6.81258E-02
   1.14081E-02 -7.19312E-02 -1.82194E-01 -3.18995E-01 -4.81244E-01 -6.67199E-01 -8.74506E-01 -1.10029E+00 -1.34121E+00 -1.59360E+00
  -1.85359E+00 -2.11723E+00 -2.38065E+00 -2.64017E+00 -2.89238E+00 -3.13422E+00 -3.36309E+00 -3.57687E+00 -3.77394E+00 -3.95319E+00
  -4.11395E+00 -4.25601E+00 -4.37953E+00 -4.48501E+00 -4.57323E+00 -4.64518E+00 -4.70197E+00 -4.74482E+00 -4.77498E+00 -4.79375E+00
  -4.80236E+00 -4.80203E+00 -4.79386E+00 -4.77888E+00 -4.75803E+00 -4.73220E+00 -4.70213E+00 -4.66851E+00 -4.63190E+00 -4.59282E+00
  -4.55172E+00 -4.50898E+00 -4.46492E+00 -4.41982E+00 -4.37389E+00 -4.32733E+00 -4.28031E+00 -4.23298E+00 -4.18543E+00 -4.13777E+00
  -4.09004E+00 -4.04233E+00 -3.99469E+00 -3.94717E+00 -3.89978E+00 -3.85255E+00 -3.80549E+00 -3.75863E+00 -3.71198E+00 -3.66556E+00
  -3.61935E+00 -3.57336E+00 -3.52758E+00 -3.48202E+00 -3.43668E+00 -3.39156E+00 -3.34664E+00 -3.30192E+00 -3.25739E+00 -3.21306E+00
  -3.16891E+00 -3.12495E+00 -3.08114E+00 -3.03749E+00 -2.99400E+00 -2.95066E+00 -2.90747E+00 -2.86441E+00 -2.82147E+00 -2.77864E+00
  -2.73593E+00 -2.69334E+00 -2.65085E+00 -2.60844E+00 -2.56612E+00 -2.52388E+00 -2.48172E+00 -2.43963E+00 -2.39761E+00 -2.35564E+00
  -2.31371E+00 -2.27184E+00 -2.23001E+00 -2.18822E+00 -2.14646E+00 -2.10473E+00 -2.06300E+00 -2.02131E+00
 NY background values follow
    -7.827E-02   -5.770E-02   -3.731E-02   -1.709E-02    2.949E-03    2.282E-02    4.251E-02    6.202E-02    8.135E-02    1.005E-01
     1.195E-01    1.383E-01    1.569E-01    1.753E-01    1.936E-01    2.116E-01    2.295E-01    2.472E-01    2.647E-01    2.821E-01
     2.992E-01    3.162E-01    3.329E-01    3.495E-01    3.659E-01    3.821E-01    3.981E-01    4.139E-01    4.296E-01    4.450E-01
     4.602E-01    4.753E-01    4.902E-01    5.048E-01    5.193E-01    5.336E-01    5.477E-01    5.616E-01    5.753E-01    5.888E-01
     6.021E-01    6.152E-01    6.282E-01    6.409E-01    6.534E-01    6.657E-01    6.779E-01    6.898E-01    7.016E-01    7.131E-01
     7.245E-01    7.356E-01    7.466E-01    7.573E-01    7.679E-01    7.782E-01    7.884E-01    7.984E-01    8.081E-01    8.177E-01
     8.271E-01    8.362E-01    8.452E-01    8.540E-01    8.626E-01    8.710E-01    8.791E-01    8.871E-01    8.949E-01    9.025E-01
     9.099E-01    9.171E-01    9.241E-01    9.309E-01    9.375E-01    9.439E-01    9.501E-01    9.561E-01    9.620E-01    9.676E-01
     9.730E-01    9.783E-01    9.833E-01    9.881E-01    9.928E-01    9.973E-01    1.002E+00    1.006E+00    1.009E+00    1.013E+00
     1.017E+00    1.020E+00    1.023E+00    1.026E+00    1.029E+00    1.031E+00    1.034E+00    1.036E+00    1.038E+00    1.040E+00
     1.041E+00    1.043E+00    1.044E+00    1.045E+00    1.046E+00    1.047E+00    1.047E+00    1.047E+00    1.047E+00    1.047E+00
     1.047E+00    1.047E+00    1.046E+00    1.045E+00    1.045E+00    1.043E+00    1.042E+00    1.041E+00    1.039E+00    1.037E+00
     1.035E+00    1.033E+00    1.031E+00    1.028E+00    1.026E+00    1.023E+00    1.020E+00    1.017E+00    1.013E+00    1.010E+00
     1.006E+00    1.002E+00    9.983E-01    9.941E-01    9.898E-01    9.854E-01    9.807E-01    9.760E-01    9.710E-01    9.659E-01
     9.607E-01    9.553E-01    9.497E-01    9.440E-01    9.382E-01    9.322E-01    9.260E-01    9.197E-01    9.133E-01    9.067E-01
     9.000E-01    8.931E-01    8.861E-01    8.789E-01    8.716E-01    8.642E-01    8.567E-01    8.490E-01    8.411E-01    8.332E-01
     8.251E-01    8.169E-01    8.085E-01    8.000E-01    7.914E-01    7.827E-01    7.739E-01    7.649E-01    7.558E-01    7.466E-01
     7.372E-01    7.278E-01    7.182E-01    7.086E-01    6.988E-01    6.889E-01    6.789E-01    6.687E-01    6.585E-01    6.482E-01
     6.378E-01    6.272E-01    6.166E-01    6.058E-01    5.950E-01    5.841E-01    5.730E-01    5.619E-01    5.507E-01    5.394E-01
     5.280E-01    5.165E-01    5.049E-01    4.933E-01    4.815E-01    4.697E-01    4.578E-01    4.458E-01    4.337E-01    4.216E-01
     4.094E-01    3.971E-01    3.848E-01    3.723E-01    3.598E-01    3.473E-01    3.346E-01    3.220E-01    3.092E-01    2.964E-01
     2.835E-01    2.706E-01    2.576E-01    2.446E-01    2.315E-01    2.183E-01    2.051E-01    1.919E-01    1.786E-01    1.653E-01
     1.519E-01    1.385E-01    1.250E-01    1.115E-01    9.802E-02    8.446E-02    7.086E-02    5.724E-02    4.358E-02    2.989E-02
     1.618E-02    2.446E-03   -1.131E-02   -2.509E-02   -3.889E-02   -5.271E-02   -6.655E-02   -8.040E-02   -9.426E-02   -1.081E-01
    -1.220E-01   -1.359E-01   -1.498E-01   -1.637E-01   -1.776E-01   -1.915E-01   -2.054E-01   -2.193E-01   -2.332E-01   -2.471E-01
    -2.610E-01   -2.749E-01   -2.888E-01   -3.026E-01   -3.165E-01   -3.303E-01   -3.441E-01   -3.579E-01   -3.717E-01   -3.855E-01
    -3.992E-01   -4.129E-01   -4.266E-01   -4.402E-01   -4.538E-01   -4.674E-01   -4.810E-01   -4.945E-01   -5.080E-01   -5.214E-01
    -5.348E-01   -5.482E-01   -5.615E-01   -5.748E-01   -5.880E-01   -6.012E-01   -6.143E-01   -6.274E-01   -6.404E-01   -6.533E-01
    -6.663E-01   -6.791E-01   -6.919E-01   -7.046E-01   -7.173E-01   -7.299E-01   -7.424E-01   -7.549E-01   -7.673E-01   -7.796E-01
    -7.919E-01   -8.041E-01   -8.162E-01   -8.282E-01   -8.402E-01   -8.520E-01   -8.638E-01   -8.755E-01   -8.872E-01   -8.987E-01
    -9.101E-01   -9.215E-01   -9.328E-01   -9.439E-01   -9.550E-01   -9.660E-01   -9.769E-01   -9.877E-01   -9.983E-01   -1.009E+00
    -1.019E+00   -1.030E+00   -1.040E+00   -1.050E+00   -1.060E+00   -1.070E+00   -1.080E+00   -1.090E+00   -1.099E+00   -1.109E+00
    -1.118E+00   -1.128E+00   -1.137E+00   -1.146E+00   -1.155E+00   -1.163E+00   -1.172E+00   -1.180E+00   -1.189E+00   -1.197E+00
    -1.205E+00   -1.213E+00   -1.221E+00   -1.229E+00   -1.236E+00   -1.244E+00   -1.251E+00   -1.258E+00   -1.265E+00   -1.272E+00
    -1.279E+00   -1.286E+00   -1.292E+00   -1.298E+00   -1.305E+00   -1.311E+00   -1.316E+00   -1.322E+00   -1.328E+00   -1.333E+00
    -1.338E+00   -1.343E+00   -1.348E+00   -1.353E+00   -1.358E+00   -1.362E+00   -1.367E+00   -1.371E+00   -1.375E+00   -1.378E+00
    -1.382E+00   -1.386E+00   -1.389E+00   -1.392E+00   -1.395E+00   -1.398E+00   -1.400E+00   -1.403E+00   -1.405E+00   -1.407E+00
    -1.409E+00   -1.411E+00   -1.412E+00   -1.414E+00   -1.415E+00   -1.416E+00   -1.417E+00   -1.418E+00   -1.418E+00   -1.418E+00
    -1.418E+00   -1.418E+00   -1.418E+00   -1.418E+00   -1.417E+00   -1.416E+00   -1.415E+00   -1.414E+00   -1.413E+00   -1.411E+00
    -1.409E+00   -1.407E+00   -1.405E+00   -1.403E+00   -1.400E+00   -1.398E+00   -1.395E+00   -1.392E+00   -1.388E+00   -1.385E+00
    -1.381E+00   -1.377E+00   -1.373E+00   -1.369E+00   -1.364E+00   -1.360E+00   -1.355E+00   -1.350E+00   -1.344E+00   -1.339E+00
    -1.333E+00   -1.327E+00   -1.321E+00   -1.315E+00   -1.308E+00   -1.302E+00   -1.295E+00   -1.288E+00   -1.280E+00   -1.273E+00
    -1.265E+00   -1.257E+00   -1.249E+00   -1.241E+00   -1.232E+00   -1.223E+00   -1.214E+00   -1.205E+00   -1.196E+00   -1.186E+00
    -1.176E+00   -1.166E+00   -1.156E+00   -1.146E+00   -1.135E+00   -1.124E+00   -1.113E+00   -1.102E+00   -1.091E+00   -1.079E+00
    -1.067E+00   -1.055E+00   -1.043E+00   -1.030E+00   -1.018E+00   -1.005E+00   -9.918E-01   -9.785E-01   -9.650E-01   -9.513E-01
    -9.374E-01   -9.233E-01   -9.090E-01   -8.945E-01   -8.797E-01   -8.648E-01   -8.497E-01   -8.343E-01   -8.188E-01   -8.031E-01
    -7.871E-01   -7.710E-01   -7.546E-01   -7.381E-01   -7.213E-01   -7.044E-01   -6.872E-01   -6.699E-01   -6.523E-01   -6.346E-01
    -6.166E-01   -5.985E-01   -5.802E-01   -5.616E-01   -5.429E-01   -5.240E-01   -5.048E-01   -4.855E-01   -4.660E-01   -4.463E-01
    -4.264E-01   -4.063E-01   -3.861E-01   -3.656E-01   -3.449E-01   -3.241E-01   -3.030E-01   -2.818E-01   -2.604E-01   -2.388E-01
    -2.170E-01   -1.951E-01   -1.729E-01   -1.506E-01   -1.281E-01   -1.054E-01   -8.254E-02   -5.949E-02
 Ala      Conc. = 8.23E+00
