 LCModel (Version 6.3-1L) Copyright: S.W. Provencher.          Ref.: Magn. Reson. Med. 30:672-679 (1993).                
 Slice#3 Row#8 Col#11  PD_24_press_1_raw_act
 36 lines in following concentration table = NCONC+1
    Conc.  %SD /Cr+PCr  Metabolite                                         
    0.000 999%   0.000 Ala                                                 
    0.000 999%   0.000 Asp                                                 
  747.041  27%   0.745 Cr                                                  
  255.105  84%   0.255 PCr                                                 
    0.000 999%   0.000 GABA                                                
    0.000 999%   0.000 Glc                                                 
  284.922  66%   0.284 Gln                                                 
 1.12E+03  19%   1.118 Glu                                                 
  377.925   5%   0.377 GPC                                                 
    0.000 999%   0.000 PCh                                                 
  317.928  20%   0.317 GSH                                                 
  935.500  25%   0.933 Ins                                                 
    0.000 999%   0.000 Lac                                                 
 1.55E+03   6%   1.548 NAA                                                 
  334.283  29%   0.334 NAAG                                                
   43.583  54% 4.3E-02 Scyllo                                              
    0.000 999%   0.000 Tau                                                 
  492.540  22%   0.491 -CrCH2                                              
  377.925   5%   0.377 GPC+PCh                                             
 1.89E+03   4%   1.882 NAA+NAAG                                            
 1.00E+03   5%   1.000 Cr+PCr                                              
 1.41E+03  20%   1.402 Glu+Gln                                             
    0.000 999%   0.000 Lip13a                                              
    0.000 999%   0.000 Lip13b                                              
    0.000 999%   0.000 Lip09                                               
 2.68E+03  12%   2.676 MM09                                                
   82.165 179% 8.2E-02 Lip20                                               
 7.25E+03   8%   7.234 MM20                                                
 1.34E+03  17%   1.338 MM12                                                
    0.000 999%   0.000 MM14                                                
 2.01E+03  19%   2.009 MM17                                                
    0.000 999%   0.000 Lip13a+Lip13b                                       
 1.34E+03  17%   1.338 MM14+Lip13a+Lip13b+MM12                             
 2.68E+03  12%   2.676 MM09+Lip09                                          
 7.33E+03   8%   7.316 MM20+Lip20                                          
   6 lines in following misc. output table
  FWHM = 0.046 ppm    S/N =  12                                            
  Data shift = 0.015 ppm                                                   
  Ph:  14 deg      -0.5 deg/ppm                                            
  alphaB,S = 2.4E-01,   1.4E+02                                            
   14 spline knots.   Ns = 6(1)                                            
  (10) 2 infls.   ( 3) 1 extrs.                                            
  498 points on ppm-axis = NY
      4.000000     3.992357     3.984714     3.977070     3.969427     3.961784     3.954141     3.946497     3.938854     3.931211
      3.923568     3.915925     3.908281     3.900638     3.892995     3.885352     3.877708     3.870065     3.862422     3.854779
      3.847136     3.839492     3.831849     3.824206     3.816563     3.808919     3.801276     3.793633     3.785990     3.778347
      3.770703     3.763060     3.755417     3.747774     3.740130     3.732487     3.724844     3.717201     3.709558     3.701914
      3.694271     3.686628     3.678985     3.671341     3.663698     3.656055     3.648412     3.640769     3.633125     3.625482
      3.617839     3.610196     3.602552     3.594909     3.587266     3.579623     3.571980     3.564336     3.556693     3.549050
      3.541407     3.533763     3.526120     3.518477     3.510834     3.503191     3.495547     3.487904     3.480261     3.472618
      3.464974     3.457331     3.449688     3.442045     3.434402     3.426758     3.419115     3.411472     3.403829     3.396185
      3.388542     3.380899     3.373256     3.365613     3.357969     3.350326     3.342683     3.335040     3.327396     3.319753
      3.312110     3.304467     3.296824     3.289180     3.281537     3.273894     3.266251     3.258607     3.250964     3.243321
      3.235678     3.228034     3.220391     3.212748     3.205105     3.197462     3.189818     3.182175     3.174532     3.166889
      3.159245     3.151602     3.143959     3.136316     3.128673     3.121029     3.113386     3.105743     3.098100     3.090456
      3.082813     3.075170     3.067527     3.059884     3.052240     3.044597     3.036954     3.029311     3.021667     3.014024
      3.006381     2.998738     2.991095     2.983451     2.975808     2.968165     2.960522     2.952878     2.945235     2.937592
      2.929949     2.922306     2.914662     2.907019     2.899376     2.891733     2.884089     2.876446     2.868803     2.861160
      2.853517     2.845873     2.838230     2.830587     2.822944     2.815300     2.807657     2.800014     2.792371     2.784728
      2.777084     2.769441     2.761798     2.754155     2.746511     2.738868     2.731225     2.723582     2.715939     2.708295
      2.700652     2.693009     2.685366     2.677722     2.670079     2.662436     2.654793     2.647150     2.639506     2.631863
      2.624220     2.616577     2.608933     2.601290     2.593647     2.586004     2.578361     2.570717     2.563074     2.555431
      2.547788     2.540144     2.532501     2.524858     2.517215     2.509572     2.501928     2.494285     2.486642     2.478999
      2.471355     2.463712     2.456069     2.448426     2.440783     2.433139     2.425496     2.417853     2.410210     2.402566
      2.394923     2.387280     2.379637     2.371994     2.364350     2.356707     2.349064     2.341421     2.333777     2.326134
      2.318491     2.310848     2.303205     2.295561     2.287918     2.280275     2.272632     2.264988     2.257345     2.249702
      2.242059     2.234416     2.226772     2.219129     2.211486     2.203843     2.196199     2.188556     2.180913     2.173270
      2.165627     2.157983     2.150340     2.142697     2.135054     2.127410     2.119767     2.112124     2.104481     2.096838
      2.089194     2.081551     2.073908     2.066265     2.058621     2.050978     2.043335     2.035692     2.028049     2.020405
      2.012762     2.005119     1.997476     1.989833     1.982190     1.974546     1.966903     1.959260     1.951617     1.943974
      1.936331     1.928688     1.921045     1.913402     1.905759     1.898115     1.890472     1.882829     1.875186     1.867543
      1.859900     1.852257     1.844614     1.836971     1.829327     1.821684     1.814041     1.806398     1.798755     1.791112
      1.783469     1.775826     1.768183     1.760540     1.752896     1.745253     1.737610     1.729967     1.722324     1.714681
      1.707038     1.699395     1.691752     1.684108     1.676465     1.668822     1.661179     1.653536     1.645893     1.638250
      1.630607     1.622964     1.615321     1.607677     1.600034     1.592391     1.584748     1.577105     1.569462     1.561819
      1.554176     1.546533     1.538890     1.531246     1.523603     1.515960     1.508317     1.500674     1.493031     1.485388
      1.477745     1.470102     1.462458     1.454815     1.447172     1.439529     1.431886     1.424243     1.416600     1.408957
      1.401314     1.393671     1.386027     1.378384     1.370741     1.363098     1.355455     1.347812     1.340169     1.332526
      1.324883     1.317240     1.309596     1.301953     1.294310     1.286667     1.279024     1.271381     1.263738     1.256095
      1.248452     1.240808     1.233165     1.225522     1.217879     1.210236     1.202593     1.194950     1.187307     1.179664
      1.172021     1.164377     1.156734     1.149091     1.141448     1.133805     1.126162     1.118519     1.110876     1.103233
      1.095590     1.087946     1.080303     1.072660     1.065017     1.057374     1.049731     1.042088     1.034445     1.026802
      1.019158     1.011515     1.003872     0.996229     0.988586     0.980943     0.973300     0.965657     0.958014     0.950371
      0.942727     0.935084     0.927441     0.919798     0.912155     0.904512     0.896869     0.889226     0.881583     0.873940
      0.866296     0.858653     0.851010     0.843367     0.835724     0.828081     0.820438     0.812795     0.805152     0.797508
      0.789865     0.782222     0.774579     0.766936     0.759293     0.751650     0.744007     0.736364     0.728721     0.721077
      0.713434     0.705791     0.698148     0.690505     0.682862     0.675219     0.667576     0.659933     0.652290     0.644646
      0.637003     0.629360     0.621717     0.614074     0.606431     0.598788     0.591145     0.583502     0.575858     0.568215
      0.560572     0.552929     0.545286     0.537643     0.530000     0.522357     0.514714     0.507071     0.499427     0.491784
      0.484141     0.476498     0.468855     0.461212     0.453569     0.445925     0.438282     0.430639     0.422996     0.415353
      0.407710     0.400067     0.392424     0.384780     0.377137     0.369494     0.361851     0.354208     0.346565     0.338922
      0.331278     0.323635     0.315992     0.308349     0.300706     0.293063     0.285420     0.277777     0.270133     0.262490
      0.254847     0.247204     0.239561     0.231918     0.224275     0.216631     0.208988     0.201345
 NY phased data points follow
  -2.22032E+00 -4.13270E+00 -8.71796E-01 -4.47449E+00 -3.98405E+00 -3.69741E+00 -2.46905E+00 -1.75395E+00  1.75087E+00  4.52738E+00
   1.16441E+01  1.50444E+01  1.48823E+01  1.61018E+01  1.02756E+01  1.30277E+01  7.79869E+00  6.97979E+00  4.08836E+00  1.06720E+00
   5.14234E+00  5.03820E+00  1.16851E+00  4.31128E+00  3.11390E+00  4.65617E+00  3.78676E+00  3.09111E+00  3.94735E+00  8.93536E+00
   6.59343E+00  8.48485E+00  7.53669E+00  9.12398E+00  7.62453E+00  9.02066E+00  5.03327E+00  5.87325E+00  3.21211E+00  6.75149E+00
   8.33614E+00  5.56538E+00  5.26005E+00  5.62713E+00  7.13427E+00  7.55712E+00  9.24325E+00  1.06750E+01  1.32056E+01  1.37835E+01
   1.10932E+01  7.24378E+00  7.62949E+00  8.66388E+00  8.21258E+00  6.83505E+00  7.74611E+00  7.87179E+00  1.07933E+01  9.87134E+00
   5.97143E+00  4.71045E+00  2.02442E+00  1.77715E+00  1.44163E+00  7.11151E-01  3.48940E+00  2.70063E-01 -1.55483E+00  1.84401E+00
  -1.18702E+00 -1.59414E+00  2.88021E+00  1.03495E+00 -1.95631E+00  2.74951E+00  1.71488E+00 -9.37681E-01  3.68987E+00  1.59013E+00
  -1.68406E+00  8.90305E-01  3.97744E+00  4.04454E+00  1.78614E+00  2.34503E-01  3.33483E+00  3.46317E+00 -2.12589E+00  1.41024E+00
   2.94420E+00  4.29590E+00  5.66711E+00  3.60196E+00  3.49966E+00  5.13018E+00  2.51660E+00  6.86345E-01  3.73375E+00  3.94622E+00
   1.24060E+01  2.79094E+01  3.65623E+01  4.13263E+01  4.11886E+01  3.32871E+01  3.14526E+01  2.42679E+01  1.94120E+01  1.64977E+01
   1.24824E+01  7.20167E+00  6.26247E+00  2.47092E+00  8.09586E+00  4.32329E+00  4.35235E+00  4.24426E+00  2.06508E+00  1.64160E+00
   3.22737E+00  3.05406E+00  4.60600E+00  1.06858E+01  2.24683E+01  3.19403E+01  4.12842E+01  5.02211E+01  4.06066E+01  3.97939E+01
   2.89064E+01  2.66035E+01  2.12630E+01  2.15863E+01  1.65219E+01  1.34719E+01  7.19593E+00  1.24237E+01  7.81814E+00  1.09886E+01
   1.41652E+01  9.20648E+00  1.03310E+01  7.88247E+00  1.03071E+01  8.38990E+00  1.04617E+01  6.85409E+00  1.01018E+01  8.28156E+00
   6.42016E+00  6.99510E+00  9.98607E+00  5.11853E+00  4.62633E+00  9.99093E+00  6.42624E+00  5.88785E+00  6.61528E+00  7.50919E+00
   6.74605E+00  4.98684E+00  6.81403E+00  7.29268E+00  2.66920E+00  3.30385E+00  5.12790E+00  3.81153E+00  9.80576E-01  2.29985E+00
   1.65829E+00 -2.87949E-02  2.02755E+00 -2.81657E+00 -2.91413E+00 -4.46782E+00 -2.45284E+00 -1.03914E+00  1.72641E+00  1.66412E+00
   1.17194E-01  1.68095E-01  1.85741E+00  7.76907E-01  1.16188E-01 -2.35919E-01  4.55877E-01  3.22006E+00  8.07103E-01  2.13096E-01
   6.63121E+00  6.70136E+00  8.51107E+00  1.11397E+01  1.06938E+01  8.88464E+00  9.61554E+00  5.03868E+00  6.48332E+00  6.59406E+00
   7.83475E+00  1.14046E+01  1.16978E+01  1.25167E+01  1.43319E+01  1.40059E+01  1.32308E+01  8.75887E+00  1.47257E+01  1.24615E+01
   1.30365E+01  1.76983E+01  1.76873E+01  2.00551E+01  2.62040E+01  2.53637E+01  2.67884E+01  2.25978E+01  2.28042E+01  1.97413E+01
   1.42224E+01  1.14286E+01  1.57626E+01  1.31785E+01  1.44159E+01  1.69043E+01  2.18512E+01  2.06994E+01  2.22593E+01  1.92350E+01
   2.48645E+01  2.07578E+01  2.11902E+01  2.08336E+01  1.88222E+01  1.81721E+01  2.19959E+01  2.11374E+01  1.96835E+01  1.86133E+01
   2.04660E+01  1.87394E+01  1.90781E+01  2.08486E+01  2.01671E+01  2.57818E+01  2.49967E+01  2.00560E+01  2.86826E+01  2.77913E+01
   2.79045E+01  3.07025E+01  3.50141E+01  3.96228E+01  3.99244E+01  4.73629E+01  5.16627E+01  6.22897E+01  7.75051E+01  8.60934E+01
   8.69736E+01  7.93429E+01  6.69095E+01  5.15272E+01  4.19840E+01  3.00878E+01  2.92563E+01  2.28767E+01  1.95014E+01  1.95914E+01
   1.25564E+01  1.42250E+01  1.73002E+01  1.60437E+01  1.15811E+01  1.23859E+01  9.41774E+00  7.71574E+00  8.86408E+00  7.53490E+00
   1.09032E+01  1.00250E+01  9.15301E+00  1.13831E+01  6.11254E+00  7.67874E+00  4.90788E+00  7.41407E+00  1.05021E+01  4.68387E+00
   6.89302E+00  7.48570E+00  4.11979E+00  5.77934E+00  7.64189E+00  7.34665E+00  7.81904E+00  4.38233E+00  5.66036E+00  6.22104E+00
   5.28521E+00  1.00557E+01  6.46501E+00  4.11410E+00  5.33100E+00  7.39323E+00  7.03200E+00  5.32024E+00  6.11544E+00  6.37748E+00
  -9.38286E-01  2.68252E+00  4.44790E+00  3.07054E+00  1.64385E+00  1.37027E+00  8.94996E-01  9.55995E-01 -3.87921E+00 -4.08701E+00
  -3.91617E+00 -8.32924E+00 -8.99942E+00 -7.84032E+00 -8.97583E+00 -8.99989E+00 -6.96734E+00 -6.38419E+00 -9.25426E+00 -7.78109E+00
  -1.28247E+01 -1.00128E+01 -1.23705E+01 -1.05300E+01 -1.10524E+01 -9.20330E+00 -1.36235E+01 -9.88700E+00 -1.10972E+01 -1.39754E+01
  -9.50830E+00 -1.25081E+01 -1.45204E+01 -1.20427E+01 -1.11892E+01 -1.74065E+01 -1.58719E+01 -1.72471E+01 -1.42844E+01 -1.59282E+01
  -1.57988E+01 -1.32470E+01 -1.05385E+01 -1.45051E+01 -7.78066E+00 -1.10488E+01 -8.99623E+00 -7.92877E+00 -7.50883E+00 -4.20327E+00
  -1.93384E+00 -6.00690E+00  4.67231E-01 -9.60648E-01 -3.15441E+00  4.69083E-01  1.41396E+00  4.47034E+00  1.61913E+00  2.80150E+00
   1.45730E+00  2.16368E+00  3.78773E+00  2.04769E+00  5.54790E+00  4.78979E+00  3.59592E+00  2.90548E+00  5.27361E+00 -8.00778E-01
   3.53820E+00  3.94805E+00 -2.15576E+00  2.91474E+00  3.25417E+00  1.72741E+00  5.38569E+00  1.23308E+00  2.69556E+00  3.63271E+00
   4.96166E+00  3.73258E+00  3.52918E+00  4.45497E+00  5.90941E+00  3.03841E+00  2.60791E+00  4.80531E+00  2.25904E+00  4.56309E+00
   8.39544E+00  7.08169E+00  9.79235E+00  4.69702E+00  6.51639E+00  5.89901E+00  8.70249E+00  5.50108E+00  4.26148E+00  5.58695E+00
   7.28216E+00  6.44097E+00  5.21615E+00  4.48137E+00  6.28544E+00  4.27668E+00  4.44699E+00  3.77293E+00  3.19690E+00  4.67088E-01
   2.13257E+00 -1.90626E+00 -1.99115E+00 -7.83990E-01 -1.04236E+00 -8.64750E-01  2.42919E+00  6.59932E-01  4.04956E+00  2.72124E+00
   2.52700E+00 -1.38317E+00  2.69616E+00 -3.11388E+00  1.82798E+00  4.20893E-01  1.71829E+00  2.69204E+00  7.34059E-01  1.87376E+00
   1.78931E+00  4.11945E+00  2.93611E+00  3.99988E+00  3.10723E+00  2.06710E+00  1.71009E+00 -1.32790E+00  1.99854E+00  2.90432E+00
   1.39592E+00  1.96767E+00  2.67658E+00  3.91906E+00 -1.69178E+00  7.32568E-01  6.50903E-01  1.67614E+00  3.70318E+00  9.15065E-01
   1.35202E+00 -9.33213E-02  3.35038E+00  1.07612E+00  2.82714E+00  2.20439E+00  2.21247E+00  2.59003E+00  3.09453E+00  3.25276E+00
   9.23234E-01  8.05170E-01  3.28090E+00  2.53909E+00  1.32521E+00 -4.49693E-01  1.82918E-01 -5.75849E-01 -5.94127E-01  2.39942E+00
   1.65856E+00 -8.18607E-01 -1.03221E+00  1.15401E+00 -1.10784E+00 -8.04818E-01 -5.14811E+00  2.09355E+00  4.35951E+00 -1.81929E+00
   1.33781E+00  1.86399E-01 -1.31987E+00 -1.81929E+00 -2.79691E-01  1.45858E+00  1.92406E+00  2.44485E-01
 NY points of the fit to the data follow
  -4.03662E-01 -7.99437E-01 -1.08280E+00 -1.49142E+00 -2.12598E+00 -2.87101E+00 -3.02278E+00 -1.71389E+00  1.52872E+00  6.27342E+00
   1.11782E+01  1.47231E+01  1.60584E+01  1.53658E+01  1.35064E+01  1.13810E+01  9.37907E+00  7.43242E+00  5.63063E+00  4.20115E+00
   3.49220E+00  3.11573E+00  2.75072E+00  2.27421E+00  1.77722E+00  1.56629E+00  2.00423E+00  3.32704E+00  5.43702E+00  7.86226E+00
   9.93275E+00  1.11130E+01  1.11910E+01  1.02807E+01  8.74889E+00  7.01593E+00  5.31945E+00  3.88140E+00  2.99921E+00  2.69406E+00
   2.71687E+00  3.04306E+00  3.80773E+00  5.12364E+00  6.87250E+00  8.74002E+00  1.02117E+01  1.07893E+01  1.03671E+01  9.17918E+00
   7.60221E+00  6.05967E+00  4.80367E+00  3.83519E+00  3.16198E+00  2.95024E+00  3.26136E+00  3.88052E+00  4.52482E+00  4.98515E+00
   5.08371E+00  4.76775E+00  4.13523E+00  3.39794E+00  2.77896E+00  2.39095E+00  2.25135E+00  2.35401E+00  2.65572E+00  3.05756E+00
   3.45394E+00  3.72724E+00  3.81647E+00  3.72801E+00  3.51734E+00  3.26590E+00  3.03294E+00  2.83955E+00  2.67630E+00  2.54412E+00
   2.51582E+00  2.64044E+00  2.89960E+00  3.19225E+00  3.34625E+00  3.20106E+00  2.71801E+00  2.02974E+00  1.36901E+00  9.32980E-01
   7.99745E-01  9.19651E-01  1.15480E+00  1.37265E+00  1.51748E+00  1.52719E+00  1.38833E+00  1.57467E+00  3.43826E+00  8.18538E+00
   1.60989E+01  2.59107E+01  3.49461E+01  4.04295E+01  4.10056E+01  3.73257E+01  3.12850E+01  2.48305E+01  1.91210E+01  1.43575E+01
   1.02983E+01  7.30347E+00  6.06523E+00  5.69226E+00  5.55067E+00  5.49456E+00  5.47532E+00  5.47232E+00  5.48731E+00  5.55079E+00
   5.77790E+00  6.75077E+00  9.63058E+00  1.52118E+01  2.33307E+01  3.24110E+01  3.99019E+01  4.36151E+01  4.29220E+01  3.89023E+01
   3.33773E+01  2.78270E+01  2.28526E+01  1.83144E+01  1.40840E+01  1.08866E+01  9.30843E+00  8.62483E+00  8.49573E+00  8.72523E+00
   9.07991E+00  9.37943E+00  9.53988E+00  9.51330E+00  9.31416E+00  9.01868E+00  8.68025E+00  8.32915E+00  7.98826E+00  7.64487E+00
   7.31711E+00  7.00507E+00  6.73190E+00  6.54660E+00  6.47175E+00  6.44841E+00  6.36694E+00  6.13441E+00  5.74727E+00  5.33996E+00
   5.09260E+00  5.09945E+00  5.28729E+00  5.46418E+00  5.45255E+00  5.19755E+00  4.79187E+00  4.39758E+00  4.10736E+00  3.89057E+00
   3.67894E+00  3.38933E+00  3.02108E+00  2.68146E+00  2.46933E+00  2.45334E+00  2.61309E+00  2.81639E+00  2.93652E+00  2.96970E+00
   2.99477E+00  3.06722E+00  3.18864E+00  3.32074E+00  3.47248E+00  3.81615E+00  4.56828E+00  5.75001E+00  7.16764E+00  8.49180E+00
   9.46773E+00  9.99165E+00  1.00667E+01  9.76818E+00  9.21444E+00  8.56054E+00  8.05375E+00  7.90884E+00  8.23582E+00  9.03081E+00
   1.01702E+01  1.14105E+01  1.24488E+01  1.30443E+01  1.30224E+01  1.23475E+01  1.10970E+01  9.56684E+00  8.17397E+00  7.28546E+00
   7.23428E+00  8.24330E+00  1.02595E+01  1.28618E+01  1.53676E+01  1.70534E+01  1.74268E+01  1.63796E+01  1.41760E+01  1.15086E+01
   9.14314E+00  7.69665E+00  7.57390E+00  8.77942E+00  1.09939E+01  1.35672E+01  1.58281E+01  1.74675E+01  1.84609E+01  1.89474E+01
   1.90875E+01  1.91172E+01  1.93747E+01  2.00474E+01  2.10247E+01  2.20817E+01  2.29546E+01  2.34108E+01  2.33731E+01  2.29309E+01
   2.23573E+01  2.20371E+01  2.22509E+01  2.30262E+01  2.41562E+01  2.53698E+01  2.64106E+01  2.71135E+01  2.74894E+01  2.78007E+01
   2.85532E+01  3.01256E+01  3.26290E+01  3.58543E+01  4.01464E+01  4.64345E+01  5.52954E+01  6.62019E+01  7.67658E+01  8.35232E+01
   8.39028E+01  7.77793E+01  6.73236E+01  5.56236E+01  4.51046E+01  3.63481E+01  2.88788E+01  2.25736E+01  1.85377E+01  1.66126E+01
   1.53407E+01  1.43388E+01  1.35101E+01  1.27616E+01  1.20045E+01  1.12251E+01  1.04293E+01  9.64360E+00  8.90151E+00  8.22938E+00
   7.63596E+00  7.12687E+00  6.70557E+00  6.36100E+00  6.07099E+00  5.82285E+00  5.62505E+00  5.49392E+00  5.44049E+00  5.46769E+00
   5.57618E+00  5.75795E+00  5.99218E+00  6.25254E+00  6.51876E+00  6.77518E+00  7.01021E+00  7.21499E+00  7.37998E+00  7.49570E+00
   7.55274E+00  7.53626E+00  7.43150E+00  7.22799E+00  6.92079E+00  6.51048E+00  6.00068E+00  5.39792E+00  4.71490E+00  3.96583E+00
   3.16519E+00  2.32853E+00  1.47135E+00  6.08516E-01 -2.46237E-01 -1.08077E+00 -1.88497E+00 -2.65068E+00 -3.37189E+00 -4.04453E+00
  -4.66651E+00 -5.23742E+00 -5.75835E+00 -6.23117E+00 -6.65855E+00 -7.04356E+00 -7.38975E+00 -7.70074E+00 -7.98009E+00 -8.23098E+00
  -8.45639E+00 -8.65895E+00 -8.84117E+00 -9.00512E+00 -9.15254E+00 -9.28470E+00 -9.40263E+00 -9.50705E+00 -9.59855E+00 -9.67725E+00
  -9.74293E+00 -9.79488E+00 -9.83207E+00 -9.85301E+00 -9.85575E+00 -9.83762E+00 -9.79523E+00 -9.72448E+00 -9.62068E+00 -9.47853E+00
  -9.29228E+00 -9.05568E+00 -8.76255E+00 -8.40703E+00 -7.98425E+00 -7.49069E+00 -6.92483E+00 -6.28753E+00 -5.58276E+00 -4.81787E+00
  -4.00396E+00 -3.15563E+00 -2.29071E+00 -1.42960E+00 -5.94635E-01  1.91302E-01  9.05886E-01  1.52898E+00  2.04382E+00  2.43831E+00
   2.70566E+00  2.84516E+00  2.86216E+00  2.76801E+00  2.57928E+00  2.31679E+00  2.00414E+00  1.66655E+00  1.32924E+00  1.01639E+00
   7.49701E-01  5.47609E-01  4.24441E-01  3.90283E-01  4.50769E-01  6.07408E-01  8.57678E-01  1.19560E+00  1.61212E+00  2.09586E+00
   2.63361E+00  3.21094E+00  3.81253E+00  4.42273E+00  5.02590E+00  5.60700E+00  6.15183E+00  6.64747E+00  7.08241E+00  7.44697E+00
   7.73346E+00  7.93651E+00  8.05304E+00  8.08237E+00  8.02601E+00  7.88766E+00  7.67295E+00  7.38927E+00  7.04531E+00  6.65076E+00
   6.21577E+00  5.75076E+00  5.26592E+00  4.77112E+00  4.27534E+00  3.78667E+00  3.31202E+00  2.85721E+00  2.42685E+00  2.02450E+00
   1.65252E+00  1.31234E+00  1.00444E+00  7.28699E-01  4.84352E-01  2.70257E-01  8.48098E-02 -7.37740E-02 -2.07487E-01 -3.18255E-01
  -4.08072E-01 -4.78825E-01 -5.32451E-01 -5.70711E-01 -5.95306E-01 -6.07689E-01 -6.09272E-01 -6.01294E-01 -5.84996E-01 -5.61412E-01
  -5.31528E-01 -4.96118E-01 -4.55983E-01 -4.11796E-01 -3.64270E-01 -3.13942E-01 -2.61347E-01 -2.06873E-01 -1.50990E-01 -9.40714E-02
  -3.65463E-02  2.13139E-02  7.92018E-02  1.36948E-01  1.94358E-01  2.51335E-01  3.07728E-01  3.63526E-01  4.18655E-01  4.73116E-01
   5.26797E-01  5.79683E-01  6.31710E-01  6.82939E-01  7.33342E-01  7.82955E-01  8.31702E-01  8.79617E-01  9.26687E-01  9.73010E-01
   1.01858E+00  1.06343E+00  1.10753E+00  1.15095E+00  1.19371E+00  1.23592E+00  1.27756E+00  1.31869E+00  1.35929E+00  1.39946E+00
   1.43923E+00  1.47872E+00  1.51791E+00  1.55688E+00  1.59561E+00  1.63423E+00  1.67279E+00  1.71140E+00  1.75002E+00  1.78876E+00
   1.82762E+00  1.86676E+00  1.90622E+00  1.94608E+00  1.98635E+00  2.02713E+00  2.06848E+00  2.11054E+00
 NY background values follow
    -1.064E+00   -1.008E+00   -9.517E-01   -8.954E-01   -8.391E-01   -7.828E-01   -7.265E-01   -6.702E-01   -6.140E-01   -5.580E-01
    -5.021E-01   -4.464E-01   -3.909E-01   -3.357E-01   -2.807E-01   -2.261E-01   -1.718E-01   -1.179E-01   -6.440E-02   -1.137E-02
     4.118E-02    9.322E-02    1.447E-01    1.956E-01    2.459E-01    2.955E-01    3.445E-01    3.927E-01    4.402E-01    4.869E-01
     5.328E-01    5.778E-01    6.220E-01    6.652E-01    7.075E-01    7.488E-01    7.891E-01    8.284E-01    8.665E-01    9.036E-01
     9.395E-01    9.742E-01    1.008E+00    1.040E+00    1.071E+00    1.101E+00    1.129E+00    1.156E+00    1.181E+00    1.206E+00
     1.229E+00    1.251E+00    1.272E+00    1.292E+00    1.311E+00    1.329E+00    1.346E+00    1.363E+00    1.378E+00    1.392E+00
     1.406E+00    1.419E+00    1.432E+00    1.444E+00    1.455E+00    1.466E+00    1.476E+00    1.486E+00    1.495E+00    1.504E+00
     1.513E+00    1.522E+00    1.530E+00    1.538E+00    1.546E+00    1.554E+00    1.562E+00    1.570E+00    1.578E+00    1.586E+00
     1.594E+00    1.602E+00    1.611E+00    1.620E+00    1.629E+00    1.639E+00    1.649E+00    1.659E+00    1.670E+00    1.682E+00
     1.694E+00    1.706E+00    1.720E+00    1.734E+00    1.749E+00    1.764E+00    1.780E+00    1.797E+00    1.814E+00    1.832E+00
     1.851E+00    1.870E+00    1.890E+00    1.911E+00    1.932E+00    1.954E+00    1.977E+00    2.000E+00    2.025E+00    2.049E+00
     2.075E+00    2.101E+00    2.128E+00    2.155E+00    2.184E+00    2.213E+00    2.242E+00    2.273E+00    2.304E+00    2.336E+00
     2.368E+00    2.401E+00    2.435E+00    2.470E+00    2.505E+00    2.541E+00    2.578E+00    2.615E+00    2.654E+00    2.693E+00
     2.732E+00    2.773E+00    2.814E+00    2.856E+00    2.898E+00    2.942E+00    2.986E+00    3.030E+00    3.076E+00    3.122E+00
     3.169E+00    3.217E+00    3.265E+00    3.314E+00    3.363E+00    3.413E+00    3.464E+00    3.515E+00    3.566E+00    3.619E+00
     3.671E+00    3.725E+00    3.778E+00    3.833E+00    3.887E+00    3.942E+00    3.997E+00    4.053E+00    4.109E+00    4.166E+00
     4.223E+00    4.280E+00    4.337E+00    4.395E+00    4.453E+00    4.511E+00    4.570E+00    4.628E+00    4.687E+00    4.746E+00
     4.806E+00    4.865E+00    4.924E+00    4.984E+00    5.044E+00    5.103E+00    5.163E+00    5.223E+00    5.283E+00    5.342E+00
     5.402E+00    5.462E+00    5.522E+00    5.581E+00    5.640E+00    5.699E+00    5.757E+00    5.815E+00    5.871E+00    5.927E+00
     5.982E+00    6.036E+00    6.088E+00    6.139E+00    6.189E+00    6.237E+00    6.283E+00    6.327E+00    6.370E+00    6.410E+00
     6.448E+00    6.484E+00    6.517E+00    6.548E+00    6.576E+00    6.601E+00    6.624E+00    6.643E+00    6.660E+00    6.673E+00
     6.682E+00    6.688E+00    6.691E+00    6.690E+00    6.685E+00    6.676E+00    6.662E+00    6.645E+00    6.623E+00    6.597E+00
     6.567E+00    6.531E+00    6.491E+00    6.446E+00    6.396E+00    6.341E+00    6.280E+00    6.215E+00    6.144E+00    6.067E+00
     5.986E+00    5.900E+00    5.808E+00    5.712E+00    5.612E+00    5.507E+00    5.397E+00    5.283E+00    5.164E+00    5.042E+00
     4.915E+00    4.784E+00    4.650E+00    4.511E+00    4.369E+00    4.223E+00    4.074E+00    3.921E+00    3.765E+00    3.606E+00
     3.444E+00    3.279E+00    3.110E+00    2.939E+00    2.765E+00    2.589E+00    2.410E+00    2.229E+00    2.045E+00    1.859E+00
     1.671E+00    1.481E+00    1.289E+00    1.095E+00    8.990E-01    7.017E-01    5.028E-01    3.025E-01    1.008E-01   -1.021E-01
    -3.062E-01   -5.113E-01   -7.174E-01   -9.244E-01   -1.132E+00   -1.341E+00   -1.549E+00   -1.759E+00   -1.969E+00   -2.179E+00
    -2.389E+00   -2.599E+00   -2.809E+00   -3.020E+00   -3.229E+00   -3.439E+00   -3.648E+00   -3.857E+00   -4.065E+00   -4.272E+00
    -4.479E+00   -4.684E+00   -4.889E+00   -5.092E+00   -5.294E+00   -5.495E+00   -5.695E+00   -5.893E+00   -6.089E+00   -6.284E+00
    -6.476E+00   -6.667E+00   -6.856E+00   -7.043E+00   -7.228E+00   -7.410E+00   -7.590E+00   -7.767E+00   -7.942E+00   -8.114E+00
    -8.283E+00   -8.450E+00   -8.613E+00   -8.773E+00   -8.930E+00   -9.084E+00   -9.235E+00   -9.382E+00   -9.525E+00   -9.665E+00
    -9.801E+00   -9.934E+00   -1.006E+01   -1.019E+01   -1.031E+01   -1.043E+01   -1.054E+01   -1.065E+01   -1.076E+01   -1.086E+01
    -1.096E+01   -1.105E+01   -1.114E+01   -1.123E+01   -1.131E+01   -1.139E+01   -1.147E+01   -1.154E+01   -1.160E+01   -1.166E+01
    -1.172E+01   -1.177E+01   -1.182E+01   -1.187E+01   -1.191E+01   -1.194E+01   -1.198E+01   -1.200E+01   -1.203E+01   -1.204E+01
    -1.206E+01   -1.207E+01   -1.207E+01   -1.207E+01   -1.207E+01   -1.206E+01   -1.204E+01   -1.202E+01   -1.200E+01   -1.197E+01
    -1.194E+01   -1.190E+01   -1.186E+01   -1.181E+01   -1.176E+01   -1.170E+01   -1.164E+01   -1.157E+01   -1.150E+01   -1.142E+01
    -1.134E+01   -1.126E+01   -1.117E+01   -1.108E+01   -1.099E+01   -1.089E+01   -1.079E+01   -1.069E+01   -1.058E+01   -1.047E+01
    -1.035E+01   -1.023E+01   -1.011E+01   -9.991E+00   -9.866E+00   -9.738E+00   -9.607E+00   -9.475E+00   -9.340E+00   -9.203E+00
    -9.064E+00   -8.923E+00   -8.780E+00   -8.636E+00   -8.490E+00   -8.343E+00   -8.195E+00   -8.045E+00   -7.894E+00   -7.742E+00
    -7.589E+00   -7.435E+00   -7.281E+00   -7.126E+00   -6.971E+00   -6.815E+00   -6.659E+00   -6.502E+00   -6.346E+00   -6.190E+00
    -6.033E+00   -5.877E+00   -5.721E+00   -5.565E+00   -5.410E+00   -5.254E+00   -5.100E+00   -4.945E+00   -4.792E+00   -4.639E+00
    -4.486E+00   -4.334E+00   -4.184E+00   -4.033E+00   -3.884E+00   -3.736E+00   -3.589E+00   -3.443E+00   -3.298E+00   -3.154E+00
    -3.012E+00   -2.871E+00   -2.731E+00   -2.593E+00   -2.457E+00   -2.322E+00   -2.188E+00   -2.057E+00   -1.927E+00   -1.799E+00
    -1.673E+00   -1.548E+00   -1.426E+00   -1.306E+00   -1.188E+00   -1.073E+00   -9.593E-01   -8.483E-01   -7.396E-01   -6.334E-01
    -5.297E-01   -4.286E-01   -3.301E-01   -2.343E-01   -1.411E-01   -5.044E-02    3.774E-02    1.235E-01    2.070E-01    2.881E-01
     3.671E-01    4.439E-01    5.187E-01    5.915E-01    6.623E-01    7.313E-01    7.985E-01    8.640E-01    9.279E-01    9.901E-01
     1.051E+00    1.110E+00    1.168E+00    1.225E+00    1.280E+00    1.334E+00    1.387E+00    1.439E+00    1.490E+00    1.540E+00
     1.590E+00    1.638E+00    1.686E+00    1.733E+00    1.780E+00    1.826E+00    1.872E+00    1.917E+00    1.962E+00    2.007E+00
     2.052E+00    2.096E+00    2.141E+00    2.185E+00    2.230E+00    2.275E+00    2.320E+00    2.366E+00
 Cr       Conc. = 7.47E+02
