 LCModel (Version 6.3-1L) Copyright: S.W. Provencher.          Ref.: Magn. Reson. Med. 30:672-679 (1993).                
 Slice#3 Row#3 Col#3  PD_24_press_1_raw_act
 36 lines in following concentration table = NCONC+1
    Conc.  %SD /Cr+PCr  Metabolite                                         
    0.000 999%   0.000 Ala                                                 
   91.698 103%   0.000 Asp                                                 
    0.000 999%   0.000 Cr                                                  
    0.000 999%   0.000 PCr                                                 
   48.024 119%   0.000 GABA                                                
   58.376  97%   0.000 Glc                                                 
 4.66E+03  27%   0.000 Gln                                                 
 3.12E+03  49%   0.000 Glu                                                 
    0.000 999%   0.000 GPC                                                 
    0.000 999%   0.000 PCh                                                 
    0.000 999%   0.000 GSH                                                 
  438.276 106%   0.000 Ins                                                 
    0.000 999%   0.000 Lac                                                 
 1.74E+03  10%   0.000 NAA                                                 
    0.000 999%   0.000 NAAG                                                
   29.412  62%   0.000 Scyllo                                              
  116.505  81%   0.000 Tau                                                 
    0.000 999%   0.000 -CrCH2                                              
    0.000 999%   0.000 GPC+PCh                                             
 1.74E+03  10%   0.000 NAA+NAAG                                            
    0.000 999%   0.000 Cr+PCr                                              
 7.78E+03  32%   0.000 Glu+Gln                                             
 1.45E+04  13%   0.000 Lip13a                                              
  196.145 246%   0.000 Lip13b                                              
 1.58E+04  12%   0.000 Lip09                                               
 1.31E+04   9%   0.000 MM09                                                
 4.67E+03  22%   0.000 Lip20                                               
 1.13E+04  11%   0.000 MM20                                                
 1.76E+04  10%   0.000 MM12                                                
 9.16E+03  12%   0.000 MM14                                                
  395.180  89%   0.000 MM17                                                
 1.47E+04  12%   0.000 Lip13a+Lip13b                                       
 4.14E+04   5%   0.000 MM14+Lip13a+Lip13b+MM12                             
 2.90E+04   9%   0.000 MM09+Lip09                                          
 1.59E+04   7%   0.000 MM20+Lip20                                          
   6 lines in following misc. output table
  FWHM = 0.153 ppm    S/N =  20                                            
  Data shift = 0.115 ppm                                                   
  Ph:   4 deg     155.9 deg/ppm                                            
  alphaB,S = 2.4E-01,   3.4E+02                                            
   10 spline knots.   Ns = 9(2)                                            
  (15) 2 infls.   (14) 1 extrs.                                            
  498 points on ppm-axis = NY
      4.000000     3.992357     3.984714     3.977070     3.969427     3.961784     3.954141     3.946497     3.938854     3.931211
      3.923568     3.915925     3.908281     3.900638     3.892995     3.885352     3.877708     3.870065     3.862422     3.854779
      3.847136     3.839492     3.831849     3.824206     3.816563     3.808919     3.801276     3.793633     3.785990     3.778347
      3.770703     3.763060     3.755417     3.747774     3.740130     3.732487     3.724844     3.717201     3.709558     3.701914
      3.694271     3.686628     3.678985     3.671341     3.663698     3.656055     3.648412     3.640769     3.633125     3.625482
      3.617839     3.610196     3.602552     3.594909     3.587266     3.579623     3.571980     3.564336     3.556693     3.549050
      3.541407     3.533763     3.526120     3.518477     3.510834     3.503191     3.495547     3.487904     3.480261     3.472618
      3.464974     3.457331     3.449688     3.442045     3.434402     3.426758     3.419115     3.411472     3.403829     3.396185
      3.388542     3.380899     3.373256     3.365613     3.357969     3.350326     3.342683     3.335040     3.327396     3.319753
      3.312110     3.304467     3.296824     3.289180     3.281537     3.273894     3.266251     3.258607     3.250964     3.243321
      3.235678     3.228034     3.220391     3.212748     3.205105     3.197462     3.189818     3.182175     3.174532     3.166889
      3.159245     3.151602     3.143959     3.136316     3.128673     3.121029     3.113386     3.105743     3.098100     3.090456
      3.082813     3.075170     3.067527     3.059884     3.052240     3.044597     3.036954     3.029311     3.021667     3.014024
      3.006381     2.998738     2.991095     2.983451     2.975808     2.968165     2.960522     2.952878     2.945235     2.937592
      2.929949     2.922306     2.914662     2.907019     2.899376     2.891733     2.884089     2.876446     2.868803     2.861160
      2.853517     2.845873     2.838230     2.830587     2.822944     2.815300     2.807657     2.800014     2.792371     2.784728
      2.777084     2.769441     2.761798     2.754155     2.746511     2.738868     2.731225     2.723582     2.715939     2.708295
      2.700652     2.693009     2.685366     2.677722     2.670079     2.662436     2.654793     2.647150     2.639506     2.631863
      2.624220     2.616577     2.608933     2.601290     2.593647     2.586004     2.578361     2.570717     2.563074     2.555431
      2.547788     2.540144     2.532501     2.524858     2.517215     2.509572     2.501928     2.494285     2.486642     2.478999
      2.471355     2.463712     2.456069     2.448426     2.440783     2.433139     2.425496     2.417853     2.410210     2.402566
      2.394923     2.387280     2.379637     2.371994     2.364350     2.356707     2.349064     2.341421     2.333777     2.326134
      2.318491     2.310848     2.303205     2.295561     2.287918     2.280275     2.272632     2.264988     2.257345     2.249702
      2.242059     2.234416     2.226772     2.219129     2.211486     2.203843     2.196199     2.188556     2.180913     2.173270
      2.165627     2.157983     2.150340     2.142697     2.135054     2.127410     2.119767     2.112124     2.104481     2.096838
      2.089194     2.081551     2.073908     2.066265     2.058621     2.050978     2.043335     2.035692     2.028049     2.020405
      2.012762     2.005119     1.997476     1.989833     1.982190     1.974546     1.966903     1.959260     1.951617     1.943974
      1.936331     1.928688     1.921045     1.913402     1.905759     1.898115     1.890472     1.882829     1.875186     1.867543
      1.859900     1.852257     1.844614     1.836971     1.829327     1.821684     1.814041     1.806398     1.798755     1.791112
      1.783469     1.775826     1.768183     1.760540     1.752896     1.745253     1.737610     1.729967     1.722324     1.714681
      1.707038     1.699395     1.691752     1.684108     1.676465     1.668822     1.661179     1.653536     1.645893     1.638250
      1.630607     1.622964     1.615321     1.607677     1.600034     1.592391     1.584748     1.577105     1.569462     1.561819
      1.554176     1.546533     1.538890     1.531246     1.523603     1.515960     1.508317     1.500674     1.493031     1.485388
      1.477745     1.470102     1.462458     1.454815     1.447172     1.439529     1.431886     1.424243     1.416600     1.408957
      1.401314     1.393671     1.386027     1.378384     1.370741     1.363098     1.355455     1.347812     1.340169     1.332526
      1.324883     1.317240     1.309596     1.301953     1.294310     1.286667     1.279024     1.271381     1.263738     1.256095
      1.248452     1.240808     1.233165     1.225522     1.217879     1.210236     1.202593     1.194950     1.187307     1.179664
      1.172021     1.164377     1.156734     1.149091     1.141448     1.133805     1.126162     1.118519     1.110876     1.103233
      1.095590     1.087946     1.080303     1.072660     1.065017     1.057374     1.049731     1.042088     1.034445     1.026802
      1.019158     1.011515     1.003872     0.996229     0.988586     0.980943     0.973300     0.965657     0.958014     0.950371
      0.942727     0.935084     0.927441     0.919798     0.912155     0.904512     0.896869     0.889226     0.881583     0.873940
      0.866296     0.858653     0.851010     0.843367     0.835724     0.828081     0.820438     0.812795     0.805152     0.797508
      0.789865     0.782222     0.774579     0.766936     0.759293     0.751650     0.744007     0.736364     0.728721     0.721077
      0.713434     0.705791     0.698148     0.690505     0.682862     0.675219     0.667576     0.659933     0.652290     0.644646
      0.637003     0.629360     0.621717     0.614074     0.606431     0.598788     0.591145     0.583502     0.575858     0.568215
      0.560572     0.552929     0.545286     0.537643     0.530000     0.522357     0.514714     0.507071     0.499427     0.491784
      0.484141     0.476498     0.468855     0.461212     0.453569     0.445925     0.438282     0.430639     0.422996     0.415353
      0.407710     0.400067     0.392424     0.384780     0.377137     0.369494     0.361851     0.354208     0.346565     0.338922
      0.331278     0.323635     0.315992     0.308349     0.300706     0.293063     0.285420     0.277777     0.270133     0.262490
      0.254847     0.247204     0.239561     0.231918     0.224275     0.216631     0.208988     0.201345
 NY phased data points follow
  -5.33682E+00 -6.86951E+00 -4.31368E+00 -6.60954E+00 -1.49950E+00 -7.42796E+00  4.84351E-02 -5.93933E+00 -2.91180E+00 -3.98652E+00
  -3.79838E+00 -8.26931E+00 -3.12330E+00 -4.69072E+00 -7.61796E+00 -6.27809E+00 -5.43375E+00 -8.70372E+00 -2.33227E+00 -6.42958E+00
  -3.85126E+00 -7.86017E+00 -7.78031E+00 -8.98640E+00 -3.84506E+00 -8.24861E+00 -5.09031E+00 -9.81187E+00 -6.58077E+00 -9.94434E+00
  -5.80135E+00 -1.14845E+01 -7.97728E+00 -1.06562E+01 -5.14358E+00 -1.19373E+01 -2.98467E+00 -1.16527E+01 -8.83499E+00 -1.08815E+01
  -1.04394E+01 -9.48413E+00 -9.50403E+00 -1.11680E+01 -1.17893E+01 -1.61968E+01 -9.84862E+00 -1.17251E+01 -9.83093E+00 -1.15334E+01
  -1.11343E+01 -1.41068E+01 -9.87245E+00 -1.22849E+01 -6.74375E+00 -1.71522E+01 -1.15352E+01 -1.31705E+01 -1.09290E+01 -1.58104E+01
  -1.06467E+01 -1.53080E+01 -1.32030E+01 -1.63916E+01 -1.13839E+01 -1.26460E+01 -1.25680E+01 -1.49540E+01 -1.42491E+01 -1.68965E+01
  -9.41464E+00 -1.50847E+01 -1.23729E+01 -1.32073E+01 -1.55834E+01 -1.25614E+01 -1.19164E+01 -1.69005E+01 -1.22195E+01 -1.54490E+01
  -1.20354E+01 -1.56275E+01 -1.31250E+01 -1.43667E+01 -1.57086E+01 -1.31744E+01 -1.49254E+01 -1.98469E+01 -1.65645E+01 -1.55536E+01
  -1.76993E+01 -1.85169E+01 -1.32605E+01 -1.78744E+01 -1.44222E+01 -1.94884E+01 -1.37098E+01 -1.74798E+01 -1.29786E+01 -1.81286E+01
  -1.09875E+01 -1.67150E+01 -1.58192E+01 -1.74568E+01 -1.53559E+01 -1.67024E+01 -1.20731E+01 -1.75392E+01 -1.46816E+01 -1.52718E+01
  -1.24196E+01 -2.03134E+01 -1.40211E+01 -1.32023E+01 -1.46352E+01 -1.63181E+01 -1.50624E+01 -1.61445E+01 -8.16102E+00 -1.49941E+01
  -9.04935E+00 -8.50364E+00 -1.02818E+01 -1.40521E+01 -6.48484E+00 -8.81358E+00 -6.74026E+00 -9.02554E+00 -7.14312E+00 -8.07152E+00
  -2.74872E+00 -3.48921E+00 -9.93050E-01 -3.90922E+00 -5.60907E+00 -4.96319E+00 -1.05010E-01 -5.12608E+00 -9.54784E-01 -1.94303E+00
   7.43593E-01 -1.83566E+00  1.82113E+00  3.65955E+00  2.40141E-01  6.20654E+00  1.49801E+00  2.08214E+00  4.85171E+00  7.00717E+00
   8.14034E+00  8.00434E+00  5.30135E+00  6.81281E+00  1.24372E+01  1.28057E+01  9.41000E+00  1.45549E+01  1.41830E+01  1.13259E+01
   1.56855E+01  1.77778E+01  1.80871E+01  1.88820E+01  1.86787E+01  2.08930E+01  2.31242E+01  2.40967E+01  2.66460E+01  2.41474E+01
   2.62566E+01  2.64403E+01  3.03782E+01  3.12942E+01  3.58751E+01  3.07984E+01  2.98160E+01  3.38058E+01  3.15913E+01  3.80193E+01
   4.18367E+01  3.92295E+01  4.27220E+01  4.19310E+01  3.93902E+01  4.66388E+01  4.59032E+01  4.72024E+01  4.80512E+01  4.86900E+01
   5.32905E+01  5.34635E+01  5.47843E+01  5.51790E+01  5.52406E+01  5.65978E+01  5.60774E+01  5.88855E+01  5.99423E+01  6.29231E+01
   6.32684E+01  6.66989E+01  6.74556E+01  6.96193E+01  6.56351E+01  6.83951E+01  6.85787E+01  6.77547E+01  7.10745E+01  7.11480E+01
   6.82880E+01  7.27936E+01  7.31426E+01  7.19579E+01  7.20032E+01  7.46020E+01  7.42431E+01  7.42543E+01  8.02210E+01  7.62879E+01
   7.73322E+01  7.65445E+01  7.77167E+01  7.66812E+01  7.74740E+01  7.60644E+01  7.63336E+01  8.17241E+01  7.96350E+01  7.70631E+01
   7.61049E+01  7.71099E+01  7.81318E+01  7.42554E+01  7.39306E+01  7.72026E+01  7.87901E+01  7.41293E+01  7.46794E+01  7.78976E+01
   7.29908E+01  7.29546E+01  7.38649E+01  7.55666E+01  7.70105E+01  7.50567E+01  7.27424E+01  7.36272E+01  7.02784E+01  7.18366E+01
   6.77951E+01  6.95628E+01  6.50416E+01  6.55354E+01  6.40112E+01  6.75294E+01  6.35514E+01  6.10365E+01  6.22774E+01  5.85713E+01
   5.99211E+01  5.72449E+01  5.10280E+01  5.19533E+01  4.92209E+01  4.33848E+01  3.82541E+01  3.85503E+01  3.51487E+01  3.06833E+01
   2.23439E+01  1.79512E+01  1.39692E+01  9.26786E+00  5.50261E+00 -6.40698E-01 -7.90784E+00 -1.30584E+01 -1.89888E+01 -1.89775E+01
  -2.80972E+01 -3.30617E+01 -4.04901E+01 -3.86920E+01 -4.60228E+01 -4.85961E+01 -5.23462E+01 -5.38465E+01 -5.74238E+01 -6.00909E+01
  -6.52967E+01 -6.66217E+01 -7.00572E+01 -6.69920E+01 -7.18746E+01 -7.15430E+01 -7.70895E+01 -8.11093E+01 -8.23701E+01 -8.14925E+01
  -8.81307E+01 -8.96925E+01 -9.58780E+01 -9.24684E+01 -1.00675E+02 -1.01026E+02 -1.01401E+02 -1.01748E+02 -1.09184E+02 -1.13025E+02
  -1.13258E+02 -1.15848E+02 -1.19726E+02 -1.22331E+02 -1.24275E+02 -1.28657E+02 -1.31615E+02 -1.34490E+02 -1.35974E+02 -1.37586E+02
  -1.39066E+02 -1.41664E+02 -1.42005E+02 -1.40165E+02 -1.45417E+02 -1.42791E+02 -1.41684E+02 -1.40143E+02 -1.39570E+02 -1.34591E+02
  -1.39181E+02 -1.30929E+02 -1.31296E+02 -1.29650E+02 -1.23724E+02 -1.21114E+02 -1.13456E+02 -1.14752E+02 -1.05973E+02 -9.80783E+01
  -9.74605E+01 -9.11400E+01 -8.76687E+01 -8.18610E+01 -7.60591E+01 -7.05370E+01 -6.98162E+01 -6.30225E+01 -6.02788E+01 -5.67961E+01
  -5.49282E+01 -5.20643E+01 -4.78715E+01 -4.39818E+01 -3.98709E+01 -3.54219E+01 -3.67681E+01 -2.91290E+01 -3.23713E+01 -3.06299E+01
  -2.92702E+01 -2.77207E+01 -2.67755E+01 -2.29702E+01 -1.68585E+01 -1.87137E+01 -1.35581E+01 -1.76717E+01 -1.19362E+01 -1.26397E+01
  -1.13104E+01 -9.79144E+00 -5.30607E+00 -5.05269E+00 -1.45389E+00 -1.09889E+00 -2.86581E+00  2.29459E+00  2.64143E+00  7.83070E+00
   6.13128E+00  6.96447E+00  9.33668E+00  8.23582E+00  1.17459E+01  1.36452E+01  1.43178E+01  1.39748E+01  1.31996E+01  1.69251E+01
   1.55865E+01  1.49851E+01  1.68806E+01  1.70356E+01  2.13904E+01  1.92315E+01  2.14471E+01  2.34783E+01  2.29749E+01  2.33179E+01
   2.43291E+01  3.07650E+01  2.74172E+01  2.89511E+01  2.67136E+01  2.37653E+01  2.86859E+01  2.62748E+01  2.50426E+01  2.46396E+01
   2.75630E+01  2.57202E+01  3.19159E+01  2.87208E+01  3.02733E+01  2.87994E+01  3.00759E+01  2.68818E+01  2.70256E+01  2.83042E+01
   3.13739E+01  2.71262E+01  3.21858E+01  2.90861E+01  3.09257E+01  2.76806E+01  3.27089E+01  3.12237E+01  3.21996E+01  3.33710E+01
   3.25862E+01  3.05733E+01  3.26168E+01  2.97335E+01  2.97020E+01  2.96335E+01  3.24920E+01  3.14096E+01  3.00336E+01  3.06227E+01
   3.28907E+01  3.10806E+01  2.92353E+01  3.26495E+01  3.05328E+01  2.97665E+01  3.18846E+01  3.19696E+01  3.08301E+01  2.93458E+01
   3.18608E+01  2.86355E+01  3.07433E+01  2.91922E+01  3.07816E+01  2.68551E+01  2.74444E+01  3.06563E+01  3.04457E+01  2.90728E+01
   2.88257E+01  3.14535E+01  2.57049E+01  2.81077E+01  2.93427E+01  2.58090E+01  2.78683E+01  2.72401E+01  3.05671E+01  2.95006E+01
   2.82071E+01  2.82284E+01  2.81834E+01  2.51184E+01  3.03936E+01  2.82858E+01  2.57202E+01  2.81108E+01  2.43159E+01  2.25680E+01
   2.51459E+01  2.60478E+01  2.53025E+01  2.61159E+01  2.55825E+01  2.46862E+01  2.35308E+01  2.54061E+01  2.39719E+01  2.40755E+01
   2.54087E+01  2.29281E+01  2.10597E+01  1.80967E+01  2.08359E+01  2.17875E+01  2.26277E+01  2.07067E+01
 NY points of the fit to the data follow
  -3.77860E+00 -4.01623E+00 -4.24345E+00 -4.44827E+00 -4.63006E+00 -4.79025E+00 -4.92415E+00 -5.09450E+00 -5.28324E+00 -5.47119E+00
  -5.66968E+00 -5.78029E+00 -5.88361E+00 -5.74447E+00 -5.71024E+00 -5.54973E+00 -5.51337E+00 -5.54703E+00 -5.56946E+00 -5.87216E+00
  -5.85515E+00 -6.25765E+00 -6.13014E+00 -6.56703E+00 -6.30705E+00 -6.81580E+00 -6.42673E+00 -7.12552E+00 -6.60061E+00 -7.53492E+00
  -6.83657E+00 -8.02262E+00 -7.12962E+00 -8.55116E+00 -7.49430E+00 -9.13794E+00 -7.97099E+00 -9.75712E+00 -8.54244E+00 -1.03397E+01
  -9.13658E+00 -1.07928E+01 -9.67323E+00 -1.11016E+01 -1.01751E+01 -1.13823E+01 -1.07825E+01 -1.18188E+01 -1.16851E+01 -1.24239E+01
  -1.24743E+01 -1.26974E+01 -1.27563E+01 -1.25154E+01 -1.25703E+01 -1.25462E+01 -1.27954E+01 -1.30315E+01 -1.33473E+01 -1.36540E+01
  -1.38208E+01 -1.39372E+01 -1.40150E+01 -1.40834E+01 -1.41265E+01 -1.41671E+01 -1.41829E+01 -1.41902E+01 -1.41780E+01 -1.41782E+01
  -1.41747E+01 -1.42343E+01 -1.42676E+01 -1.43742E+01 -1.44203E+01 -1.45622E+01 -1.46054E+01 -1.47737E+01 -1.47997E+01 -1.49926E+01
  -1.49935E+01 -1.52094E+01 -1.51878E+01 -1.54398E+01 -1.54014E+01 -1.56936E+01 -1.56330E+01 -1.59442E+01 -1.58561E+01 -1.61628E+01
  -1.60500E+01 -1.63314E+01 -1.62007E+01 -1.64382E+01 -1.62857E+01 -1.64691E+01 -1.63070E+01 -1.64175E+01 -1.62545E+01 -1.62952E+01
  -1.61326E+01 -1.60914E+01 -1.59209E+01 -1.57875E+01 -1.55951E+01 -1.53750E+01 -1.51507E+01 -1.48572E+01 -1.45890E+01 -1.42721E+01
  -1.39758E+01 -1.36301E+01 -1.32930E+01 -1.29195E+01 -1.25463E+01 -1.21581E+01 -1.17575E+01 -1.13596E+01 -1.09361E+01 -1.05353E+01
  -1.01012E+01 -9.70237E+00 -9.27561E+00 -8.88138E+00 -8.46276E+00 -8.07403E+00 -7.66079E+00 -7.26727E+00 -6.85374E+00 -6.45619E+00
  -6.03483E+00 -5.63063E+00 -5.19414E+00 -4.77215E+00 -4.30992E+00 -3.85718E+00 -3.35766E+00 -2.86022E+00 -2.31141E+00 -1.75628E+00
  -1.14826E+00 -5.27003E-01  1.39728E-01  8.22571E-01  1.56329E+00  2.31215E+00  3.13863E+00  3.95907E+00  4.84949E+00  5.73036E+00
   6.66632E+00  7.59268E+00  8.56013E+00  9.51605E+00  1.05041E+01  1.14765E+01  1.24805E+01  1.34624E+01  1.44681E+01  1.54685E+01
   1.64827E+01  1.75042E+01  1.85217E+01  1.95523E+01  2.05793E+01  2.16284E+01  2.26731E+01  2.37443E+01  2.47993E+01  2.58858E+01
   2.69728E+01  2.80825E+01  2.92210E+01  3.03493E+01  3.15469E+01  3.26663E+01  3.38967E+01  3.50087E+01  3.62183E+01  3.73460E+01
   3.85303E+01  3.96935E+01  4.08938E+01  4.21947E+01  4.34807E+01  4.49654E+01  4.62830E+01  4.79737E+01  4.91275E+01  5.08944E+01
   5.17445E+01  5.33742E+01  5.37289E+01  5.55037E+01  5.55253E+01  5.76251E+01  5.74797E+01  6.00218E+01  5.98287E+01  6.25886E+01
   6.23268E+01  6.50162E+01  6.45628E+01  6.69467E+01  6.62024E+01  6.83464E+01  6.75334E+01  6.94782E+01  6.87626E+01  7.05157E+01
   7.00614E+01  7.15760E+01  7.14292E+01  7.25989E+01  7.27583E+01  7.35077E+01  7.39117E+01  7.41763E+01  7.46882E+01  7.46232E+01
   7.53219E+01  7.51494E+01  7.60976E+01  7.61515E+01  7.71835E+01  7.72972E+01  7.81256E+01  7.81872E+01  7.84643E+01  7.82270E+01
   7.77400E+01  7.72817E+01  7.59721E+01  7.60591E+01  7.46517E+01  7.53111E+01  7.39917E+01  7.50868E+01  7.39471E+01  7.48868E+01
   7.36616E+01  7.42849E+01  7.33971E+01  7.37425E+01  7.29315E+01  7.30500E+01  7.24447E+01  7.23313E+01  7.17218E+01  7.13451E+01
   7.06285E+01  6.99871E+01  6.91181E+01  6.82633E+01  6.71412E+01  6.61957E+01  6.45649E+01  6.35341E+01  6.11107E+01  6.02907E+01
   5.72261E+01  5.66215E+01  5.27748E+01  5.21800E+01  4.73060E+01  4.61352E+01  4.03488E+01  3.85243E+01  3.19481E+01  2.94494E+01
   2.24573E+01  1.93320E+01  1.22391E+01  8.66477E+00  1.77137E+00 -2.16875E+00 -8.68278E+00 -1.29362E+01 -1.88949E+01 -2.33127E+01
  -2.84108E+01 -3.25955E+01 -3.63220E+01 -3.98002E+01 -4.31992E+01 -4.64431E+01 -4.96193E+01 -5.27248E+01 -5.57446E+01 -5.87132E+01
  -6.16105E+01 -6.44716E+01 -6.72718E+01 -7.00416E+01 -7.27604E+01 -7.54343E+01 -7.80663E+01 -8.06669E+01 -8.32423E+01 -8.57967E+01
  -8.83446E+01 -9.08815E+01 -9.34293E+01 -9.59730E+01 -9.85315E+01 -1.01092E+02 -1.03669E+02 -1.06250E+02 -1.08844E+02 -1.11439E+02
  -1.14040E+02 -1.16633E+02 -1.19214E+02 -1.21771E+02 -1.24291E+02 -1.26759E+02 -1.29153E+02 -1.31451E+02 -1.33626E+02 -1.35645E+02
  -1.37474E+02 -1.39076E+02 -1.40407E+02 -1.41428E+02 -1.42095E+02 -1.42368E+02 -1.42210E+02 -1.41590E+02 -1.40485E+02 -1.38882E+02
  -1.36779E+02 -1.34186E+02 -1.31126E+02 -1.27636E+02 -1.23761E+02 -1.19557E+02 -1.15089E+02 -1.10422E+02 -1.05624E+02 -1.00760E+02
  -9.58890E+01 -9.10632E+01 -8.63239E+01 -8.17021E+01 -7.72183E+01 -7.28833E+01 -6.87002E+01 -6.46667E+01 -6.07783E+01 -5.70315E+01
  -5.34266E+01 -4.99691E+01 -4.66709E+01 -4.35491E+01 -4.06229E+01 -3.79103E+01 -3.54228E+01 -3.31622E+01 -3.11167E+01 -2.92602E+01
  -2.75530E+01 -2.59459E+01 -2.43852E+01 -2.28183E+01 -2.11996E+01 -1.94949E+01 -1.76849E+01 -1.57660E+01 -1.37503E+01 -1.16633E+01
  -9.54130E+00 -7.42681E+00 -5.36472E+00 -3.39790E+00 -1.56319E+00  1.11754E-01  1.61076E+00  2.93038E+00  4.07980E+00  5.07997E+00
   5.96129E+00  6.76084E+00  7.51908E+00  8.27622E+00  9.06897E+00  9.92762E+00  1.08738E+01  1.19187E+01  1.30634E+01  1.42981E+01
   1.56041E+01  1.69551E+01  1.83201E+01  1.96650E+01  2.09561E+01  2.21617E+01  2.32548E+01  2.42142E+01  2.50261E+01  2.56839E+01
   2.61889E+01  2.65492E+01  2.67790E+01  2.68974E+01  2.69268E+01  2.68918E+01  2.68172E+01  2.67271E+01  2.66436E+01  2.65861E+01
   2.65703E+01  2.66081E+01  2.67073E+01  2.68719E+01  2.71020E+01  2.73944E+01  2.77433E+01  2.81404E+01  2.85757E+01  2.90382E+01
   2.95163E+01  2.99984E+01  3.04732E+01  3.09300E+01  3.13594E+01  3.17531E+01  3.21043E+01  3.24075E+01  3.26589E+01  3.28561E+01
   3.29981E+01  3.30853E+01  3.31190E+01  3.31013E+01  3.30355E+01  3.29253E+01  3.27747E+01  3.25883E+01  3.23707E+01  3.21266E+01
   3.18606E+01  3.15772E+01  3.12807E+01  3.09749E+01  3.06636E+01  3.03502E+01  3.00375E+01  2.97282E+01  2.94246E+01  2.91287E+01
   2.88420E+01  2.85660E+01  2.83016E+01  2.80497E+01  2.78109E+01  2.75855E+01  2.73739E+01  2.71761E+01  2.69921E+01  2.68217E+01
   2.66646E+01  2.65206E+01  2.63893E+01  2.62702E+01  2.61630E+01  2.60670E+01  2.59818E+01  2.59068E+01  2.58416E+01  2.57856E+01
   2.57383E+01  2.56992E+01  2.56678E+01  2.56435E+01  2.56259E+01  2.56146E+01  2.56090E+01  2.56088E+01  2.56135E+01  2.56227E+01
   2.56361E+01  2.56533E+01  2.56740E+01  2.56977E+01  2.57243E+01  2.57534E+01  2.57847E+01  2.58180E+01  2.58530E+01  2.58894E+01
   2.59270E+01  2.59656E+01  2.60049E+01  2.60447E+01  2.60847E+01  2.61245E+01  2.61640E+01  2.62026E+01
 NY background values follow
    -2.977E+01   -3.002E+01   -3.026E+01   -3.049E+01   -3.072E+01   -3.094E+01   -3.115E+01   -3.136E+01   -3.156E+01   -3.176E+01
    -3.195E+01   -3.214E+01   -3.232E+01   -3.249E+01   -3.266E+01   -3.282E+01   -3.298E+01   -3.314E+01   -3.329E+01   -3.343E+01
    -3.357E+01   -3.370E+01   -3.383E+01   -3.396E+01   -3.408E+01   -3.420E+01   -3.431E+01   -3.442E+01   -3.452E+01   -3.462E+01
    -3.472E+01   -3.481E+01   -3.490E+01   -3.499E+01   -3.507E+01   -3.515E+01   -3.523E+01   -3.531E+01   -3.538E+01   -3.545E+01
    -3.552E+01   -3.558E+01   -3.565E+01   -3.571E+01   -3.577E+01   -3.583E+01   -3.589E+01   -3.594E+01   -3.600E+01   -3.605E+01
    -3.611E+01   -3.616E+01   -3.622E+01   -3.627E+01   -3.632E+01   -3.638E+01   -3.643E+01   -3.649E+01   -3.655E+01   -3.660E+01
    -3.666E+01   -3.672E+01   -3.679E+01   -3.685E+01   -3.692E+01   -3.699E+01   -3.706E+01   -3.713E+01   -3.721E+01   -3.729E+01
    -3.738E+01   -3.746E+01   -3.756E+01   -3.765E+01   -3.775E+01   -3.785E+01   -3.796E+01   -3.806E+01   -3.817E+01   -3.828E+01
    -3.839E+01   -3.850E+01   -3.862E+01   -3.873E+01   -3.884E+01   -3.895E+01   -3.906E+01   -3.917E+01   -3.927E+01   -3.937E+01
    -3.947E+01   -3.957E+01   -3.966E+01   -3.974E+01   -3.982E+01   -3.990E+01   -3.997E+01   -4.003E+01   -4.008E+01   -4.013E+01
    -4.017E+01   -4.020E+01   -4.021E+01   -4.022E+01   -4.022E+01   -4.021E+01   -4.018E+01   -4.014E+01   -4.009E+01   -4.002E+01
    -3.994E+01   -3.985E+01   -3.973E+01   -3.961E+01   -3.946E+01   -3.930E+01   -3.912E+01   -3.891E+01   -3.869E+01   -3.845E+01
    -3.819E+01   -3.791E+01   -3.760E+01   -3.727E+01   -3.691E+01   -3.653E+01   -3.613E+01   -3.570E+01   -3.524E+01   -3.476E+01
    -3.424E+01   -3.370E+01   -3.313E+01   -3.253E+01   -3.189E+01   -3.123E+01   -3.053E+01   -2.980E+01   -2.903E+01   -2.823E+01
    -2.740E+01   -2.652E+01   -2.561E+01   -2.467E+01   -2.368E+01   -2.266E+01   -2.161E+01   -2.052E+01   -1.940E+01   -1.825E+01
    -1.708E+01   -1.587E+01   -1.463E+01   -1.337E+01   -1.209E+01   -1.078E+01   -9.453E+00   -8.103E+00   -6.734E+00   -5.348E+00
    -3.946E+00   -2.528E+00   -1.097E+00    3.456E-01    1.799E+00    3.262E+00    4.732E+00    6.208E+00    7.689E+00    9.173E+00
     1.066E+01    1.215E+01    1.363E+01    1.511E+01    1.659E+01    1.806E+01    1.952E+01    2.098E+01    2.242E+01    2.386E+01
     2.527E+01    2.668E+01    2.806E+01    2.943E+01    3.077E+01    3.210E+01    3.340E+01    3.468E+01    3.593E+01    3.715E+01
     3.834E+01    3.950E+01    4.063E+01    4.172E+01    4.277E+01    4.379E+01    4.477E+01    4.570E+01    4.660E+01    4.745E+01
     4.825E+01    4.901E+01    4.971E+01    5.037E+01    5.097E+01    5.152E+01    5.201E+01    5.244E+01    5.282E+01    5.313E+01
     5.339E+01    5.358E+01    5.370E+01    5.376E+01    5.375E+01    5.367E+01    5.353E+01    5.332E+01    5.304E+01    5.270E+01
     5.230E+01    5.184E+01    5.132E+01    5.073E+01    5.009E+01    4.939E+01    4.864E+01    4.783E+01    4.696E+01    4.604E+01
     4.507E+01    4.405E+01    4.298E+01    4.186E+01    4.069E+01    3.948E+01    3.822E+01    3.691E+01    3.556E+01    3.417E+01
     3.274E+01    3.127E+01    2.976E+01    2.822E+01    2.663E+01    2.502E+01    2.336E+01    2.168E+01    1.996E+01    1.822E+01
     1.644E+01    1.464E+01    1.281E+01    1.095E+01    9.075E+00    7.172E+00    5.248E+00    3.304E+00    1.340E+00   -6.423E-01
    -2.641E+00   -4.656E+00   -6.685E+00   -8.727E+00   -1.078E+01   -1.285E+01   -1.492E+01   -1.700E+01   -1.909E+01   -2.119E+01
    -2.329E+01   -2.540E+01   -2.750E+01   -2.961E+01   -3.172E+01   -3.382E+01   -3.593E+01   -3.803E+01   -4.012E+01   -4.221E+01
    -4.430E+01   -4.637E+01   -4.843E+01   -5.049E+01   -5.253E+01   -5.456E+01   -5.658E+01   -5.858E+01   -6.057E+01   -6.254E+01
    -6.449E+01   -6.643E+01   -6.836E+01   -7.026E+01   -7.215E+01   -7.401E+01   -7.586E+01   -7.769E+01   -7.950E+01   -8.128E+01
    -8.305E+01   -8.479E+01   -8.651E+01   -8.820E+01   -8.987E+01   -9.152E+01   -9.314E+01   -9.474E+01   -9.631E+01   -9.786E+01
    -9.937E+01   -1.009E+02   -1.023E+02   -1.038E+02   -1.052E+02   -1.065E+02   -1.079E+02   -1.092E+02   -1.105E+02   -1.117E+02
    -1.130E+02   -1.142E+02   -1.153E+02   -1.164E+02   -1.175E+02   -1.186E+02   -1.196E+02   -1.206E+02   -1.216E+02   -1.225E+02
    -1.234E+02   -1.242E+02   -1.250E+02   -1.258E+02   -1.266E+02   -1.273E+02   -1.280E+02   -1.286E+02   -1.292E+02   -1.297E+02
    -1.303E+02   -1.307E+02   -1.312E+02   -1.316E+02   -1.320E+02   -1.323E+02   -1.326E+02   -1.329E+02   -1.331E+02   -1.332E+02
    -1.334E+02   -1.335E+02   -1.335E+02   -1.336E+02   -1.335E+02   -1.335E+02   -1.334E+02   -1.332E+02   -1.331E+02   -1.328E+02
    -1.326E+02   -1.323E+02   -1.320E+02   -1.316E+02   -1.312E+02   -1.308E+02   -1.304E+02   -1.299E+02   -1.294E+02   -1.288E+02
    -1.283E+02   -1.277E+02   -1.270E+02   -1.264E+02   -1.257E+02   -1.250E+02   -1.243E+02   -1.235E+02   -1.227E+02   -1.220E+02
    -1.211E+02   -1.203E+02   -1.194E+02   -1.186E+02   -1.177E+02   -1.168E+02   -1.158E+02   -1.149E+02   -1.139E+02   -1.130E+02
    -1.120E+02   -1.110E+02   -1.100E+02   -1.089E+02   -1.079E+02   -1.069E+02   -1.058E+02   -1.047E+02   -1.037E+02   -1.026E+02
    -1.015E+02   -1.004E+02   -9.928E+01   -9.817E+01   -9.706E+01   -9.593E+01   -9.481E+01   -9.368E+01   -9.255E+01   -9.141E+01
    -9.028E+01   -8.914E+01   -8.800E+01   -8.686E+01   -8.572E+01   -8.458E+01   -8.345E+01   -8.231E+01   -8.117E+01   -8.004E+01
    -7.891E+01   -7.779E+01   -7.666E+01   -7.554E+01   -7.443E+01   -7.332E+01   -7.221E+01   -7.112E+01   -7.002E+01   -6.894E+01
    -6.785E+01   -6.678E+01   -6.571E+01   -6.465E+01   -6.359E+01   -6.255E+01   -6.151E+01   -6.047E+01   -5.945E+01   -5.843E+01
    -5.742E+01   -5.642E+01   -5.542E+01   -5.444E+01   -5.346E+01   -5.249E+01   -5.153E+01   -5.058E+01   -4.964E+01   -4.871E+01
    -4.778E+01   -4.687E+01   -4.596E+01   -4.506E+01   -4.418E+01   -4.330E+01   -4.243E+01   -4.157E+01   -4.072E+01   -3.988E+01
    -3.905E+01   -3.823E+01   -3.742E+01   -3.662E+01   -3.583E+01   -3.504E+01   -3.427E+01   -3.351E+01   -3.276E+01   -3.201E+01
    -3.128E+01   -3.055E+01   -2.984E+01   -2.913E+01   -2.844E+01   -2.775E+01   -2.707E+01   -2.640E+01   -2.574E+01   -2.509E+01
    -2.445E+01   -2.382E+01   -2.320E+01   -2.258E+01   -2.197E+01   -2.138E+01   -2.079E+01   -2.020E+01   -1.963E+01   -1.906E+01
    -1.850E+01   -1.795E+01   -1.741E+01   -1.687E+01   -1.634E+01   -1.582E+01   -1.530E+01   -1.479E+01
 Asp      Conc. = 9.17E+01
