 LCModel (Version 6.3-1L) Copyright: S.W. Provencher.          Ref.: Magn. Reson. Med. 30:672-679 (1993).                
 Slice#1 Row#4 Col#14  PD_24_press_1_raw_act
 36 lines in following concentration table = NCONC+1
    Conc.  %SD /Cr+PCr  Metabolite                                         
   22.462  78%   1.026 Ala                                                 
    4.590  88%   0.210 Asp                                                 
    1.716 999% 7.8E-02 Cr                                                  
   20.168 107%   0.922 PCr                                                 
    2.578  94%   0.118 GABA                                                
    2.804  87%   0.128 Glc                                                 
    0.000 999%   0.000 Gln                                                 
   35.838  90%   1.638 Glu                                                 
   13.656  53%   0.624 GPC                                                 
    0.000 999%   0.000 PCh                                                 
   42.331  56%   1.934 GSH                                                 
   31.083 123%   1.420 Ins                                                 
    0.915 999% 4.2E-02 Lac                                                 
   30.064  57%   1.374 NAA                                                 
    0.000 999%   0.000 NAAG                                                
    0.891  91% 4.1E-02 Scyllo                                              
    4.564  89%   0.209 Tau                                                 
    2.308 234%   0.105 -CrCH2                                              
   13.656  53%   0.624 GPC+PCh                                             
   30.064  57%   1.374 NAA+NAAG                                            
   21.884  62%   1.000 Cr+PCr                                              
   35.838  90%   1.638 Glu+Gln                                             
 3.31E+04  16% 1.5E+03 Lip13a                                              
    0.000 999%   0.000 Lip13b                                              
 1.89E+04  11% 865.040 Lip09                                               
 1.07E+04  19% 487.733 MM09                                                
    0.000 999%   0.000 Lip20                                               
    0.000 999%   0.000 MM20                                                
 1.34E+04  22% 611.645 MM12                                                
 3.82E+03  34% 174.449 MM14                                                
 2.84E+03  31% 129.556 MM17                                                
 3.31E+04  16% 1.5E+03 Lip13a+Lip13b                                       
 5.03E+04   9% 2.3E+03 MM14+Lip13a+Lip13b+MM12                             
 2.96E+04   8% 1.4E+03 MM09+Lip09                                          
    0.000 999%   0.000 MM20+Lip20                                          
   6 lines in following misc. output table
  FWHM = 0.046 ppm    S/N =  42                                            
  Data shift = 0.031 ppm                                                   
  Ph:  44 deg      11.3 deg/ppm                                            
  alphaB,S = 8.8E-01,   3.7E+00                                            
   14 spline knots.   Ns = 5(1)                                            
   1 inflections.     2 extrema                                            
  498 points on ppm-axis = NY
      4.000000     3.992357     3.984714     3.977070     3.969427     3.961784     3.954141     3.946497     3.938854     3.931211
      3.923568     3.915925     3.908281     3.900638     3.892995     3.885352     3.877708     3.870065     3.862422     3.854779
      3.847136     3.839492     3.831849     3.824206     3.816563     3.808919     3.801276     3.793633     3.785990     3.778347
      3.770703     3.763060     3.755417     3.747774     3.740130     3.732487     3.724844     3.717201     3.709558     3.701914
      3.694271     3.686628     3.678985     3.671341     3.663698     3.656055     3.648412     3.640769     3.633125     3.625482
      3.617839     3.610196     3.602552     3.594909     3.587266     3.579623     3.571980     3.564336     3.556693     3.549050
      3.541407     3.533763     3.526120     3.518477     3.510834     3.503191     3.495547     3.487904     3.480261     3.472618
      3.464974     3.457331     3.449688     3.442045     3.434402     3.426758     3.419115     3.411472     3.403829     3.396185
      3.388542     3.380899     3.373256     3.365613     3.357969     3.350326     3.342683     3.335040     3.327396     3.319753
      3.312110     3.304467     3.296824     3.289180     3.281537     3.273894     3.266251     3.258607     3.250964     3.243321
      3.235678     3.228034     3.220391     3.212748     3.205105     3.197462     3.189818     3.182175     3.174532     3.166889
      3.159245     3.151602     3.143959     3.136316     3.128673     3.121029     3.113386     3.105743     3.098100     3.090456
      3.082813     3.075170     3.067527     3.059884     3.052240     3.044597     3.036954     3.029311     3.021667     3.014024
      3.006381     2.998738     2.991095     2.983451     2.975808     2.968165     2.960522     2.952878     2.945235     2.937592
      2.929949     2.922306     2.914662     2.907019     2.899376     2.891733     2.884089     2.876446     2.868803     2.861160
      2.853517     2.845873     2.838230     2.830587     2.822944     2.815300     2.807657     2.800014     2.792371     2.784728
      2.777084     2.769441     2.761798     2.754155     2.746511     2.738868     2.731225     2.723582     2.715939     2.708295
      2.700652     2.693009     2.685366     2.677722     2.670079     2.662436     2.654793     2.647150     2.639506     2.631863
      2.624220     2.616577     2.608933     2.601290     2.593647     2.586004     2.578361     2.570717     2.563074     2.555431
      2.547788     2.540144     2.532501     2.524858     2.517215     2.509572     2.501928     2.494285     2.486642     2.478999
      2.471355     2.463712     2.456069     2.448426     2.440783     2.433139     2.425496     2.417853     2.410210     2.402566
      2.394923     2.387280     2.379637     2.371994     2.364350     2.356707     2.349064     2.341421     2.333777     2.326134
      2.318491     2.310848     2.303205     2.295561     2.287918     2.280275     2.272632     2.264988     2.257345     2.249702
      2.242059     2.234416     2.226772     2.219129     2.211486     2.203843     2.196199     2.188556     2.180913     2.173270
      2.165627     2.157983     2.150340     2.142697     2.135054     2.127410     2.119767     2.112124     2.104481     2.096838
      2.089194     2.081551     2.073908     2.066265     2.058621     2.050978     2.043335     2.035692     2.028049     2.020405
      2.012762     2.005119     1.997476     1.989833     1.982190     1.974546     1.966903     1.959260     1.951617     1.943974
      1.936331     1.928688     1.921045     1.913402     1.905759     1.898115     1.890472     1.882829     1.875186     1.867543
      1.859900     1.852257     1.844614     1.836971     1.829327     1.821684     1.814041     1.806398     1.798755     1.791112
      1.783469     1.775826     1.768183     1.760540     1.752896     1.745253     1.737610     1.729967     1.722324     1.714681
      1.707038     1.699395     1.691752     1.684108     1.676465     1.668822     1.661179     1.653536     1.645893     1.638250
      1.630607     1.622964     1.615321     1.607677     1.600034     1.592391     1.584748     1.577105     1.569462     1.561819
      1.554176     1.546533     1.538890     1.531246     1.523603     1.515960     1.508317     1.500674     1.493031     1.485388
      1.477745     1.470102     1.462458     1.454815     1.447172     1.439529     1.431886     1.424243     1.416600     1.408957
      1.401314     1.393671     1.386027     1.378384     1.370741     1.363098     1.355455     1.347812     1.340169     1.332526
      1.324883     1.317240     1.309596     1.301953     1.294310     1.286667     1.279024     1.271381     1.263738     1.256095
      1.248452     1.240808     1.233165     1.225522     1.217879     1.210236     1.202593     1.194950     1.187307     1.179664
      1.172021     1.164377     1.156734     1.149091     1.141448     1.133805     1.126162     1.118519     1.110876     1.103233
      1.095590     1.087946     1.080303     1.072660     1.065017     1.057374     1.049731     1.042088     1.034445     1.026802
      1.019158     1.011515     1.003872     0.996229     0.988586     0.980943     0.973300     0.965657     0.958014     0.950371
      0.942727     0.935084     0.927441     0.919798     0.912155     0.904512     0.896869     0.889226     0.881583     0.873940
      0.866296     0.858653     0.851010     0.843367     0.835724     0.828081     0.820438     0.812795     0.805152     0.797508
      0.789865     0.782222     0.774579     0.766936     0.759293     0.751650     0.744007     0.736364     0.728721     0.721077
      0.713434     0.705791     0.698148     0.690505     0.682862     0.675219     0.667576     0.659933     0.652290     0.644646
      0.637003     0.629360     0.621717     0.614074     0.606431     0.598788     0.591145     0.583502     0.575858     0.568215
      0.560572     0.552929     0.545286     0.537643     0.530000     0.522357     0.514714     0.507071     0.499427     0.491784
      0.484141     0.476498     0.468855     0.461212     0.453569     0.445925     0.438282     0.430639     0.422996     0.415353
      0.407710     0.400067     0.392424     0.384780     0.377137     0.369494     0.361851     0.354208     0.346565     0.338922
      0.331278     0.323635     0.315992     0.308349     0.300706     0.293063     0.285420     0.277777     0.270133     0.262490
      0.254847     0.247204     0.239561     0.231918     0.224275     0.216631     0.208988     0.201345
 NY phased data points follow
   4.33281E+00  4.28621E+00  2.45456E+00  2.19396E+00  3.29059E+00 -1.60636E+00  2.10099E+00  4.03229E+00  3.32925E+00  2.69125E+00
   5.66434E+00  2.17694E+00  2.31727E+00  4.32825E+00  6.30152E+00  3.09912E+00  3.14907E+00  5.51367E+00  3.53280E+00  2.85879E+00
   1.99864E+00  5.51069E+00  3.38029E+00  1.01791E+00  3.21149E+00  1.20232E+00  7.76657E+00 -1.47184E+00  2.61681E+00  5.33221E+00
   5.58977E+00  6.67752E+00  5.03762E+00  5.94794E+00  5.62049E+00  4.52565E+00  2.04443E+00  3.96444E+00  2.25167E+00  3.17088E+00
   2.29004E+00  3.54917E+00  3.94872E+00  2.74231E+00  3.85719E+00  5.95658E+00  2.49865E+00  6.47788E+00  5.89209E+00  4.84449E+00
   3.05229E+00  3.57096E+00  3.80515E+00  7.53627E+00  4.00823E+00  4.14337E+00  2.69634E+00  4.47345E+00  1.41901E+00  6.46199E+00
   5.03780E+00  3.05092E+00  2.97948E+00  5.79657E+00  2.56343E+00  6.10775E+00  3.51139E+00  3.85160E+00  4.12664E+00  3.15975E+00
   1.65871E+00  2.56309E+00  5.22625E+00  3.28244E+00  5.16696E+00  2.37489E+00  3.96007E+00  4.22152E+00  2.59706E+00  3.33586E+00
   6.54699E+00  5.04731E+00  4.69749E+00  2.57373E+00  3.88826E+00  3.31431E+00  2.59440E+00  5.39485E+00  3.69016E+00  2.66029E+00
   2.41770E+00  4.31398E+00  2.93583E+00  4.71321E+00  6.18309E+00  5.27379E+00  3.34311E+00  3.49963E+00 -2.14213E-01  1.04800E+00
   3.07632E+00  2.13779E+00  2.01087E+00  5.90084E+00  5.12087E+00  5.43793E+00  7.96695E+00  7.26545E+00  6.65020E+00  4.63089E+00
   6.65702E+00  4.62921E+00  4.52476E+00  4.16122E+00  4.77492E+00  4.86428E+00  5.57141E+00  2.24428E+00  4.50867E+00  5.48791E+00
   3.96461E+00  2.30566E+00  8.07094E-01  3.25885E+00  4.14935E+00  2.50015E+00  1.67266E+00  6.64992E+00  6.84842E+00  5.44879E+00
   5.64248E+00  4.13883E+00  5.94467E+00  6.39842E+00  5.12178E+00  2.01546E+00  5.35389E+00  4.27634E+00  2.56158E+00  4.11645E+00
   3.65392E+00  4.61229E+00  3.97812E+00  6.62305E+00  4.69886E+00  3.25959E+00  6.34497E+00  3.38629E+00  5.55812E+00  5.34787E+00
   7.35211E+00  5.07463E+00  3.75110E+00  3.84623E+00  8.21621E+00  5.10274E+00  4.71067E+00  3.75586E+00  8.55803E+00  5.86863E+00
   7.51222E+00  6.23990E+00  6.27860E+00  7.24028E+00  7.47215E+00  5.63156E+00  5.76380E+00  5.44751E+00  7.16209E+00  5.00833E+00
   7.48705E+00  7.87257E+00  5.57019E+00  6.03048E+00  4.86364E+00  3.56856E+00  5.72377E+00  7.17322E+00  5.92382E+00  6.50679E+00
   7.14287E+00  5.20984E+00  3.07144E+00  8.40393E+00  6.57944E+00  8.47853E+00  8.42183E+00  6.92044E+00  4.57348E+00  6.04182E+00
   7.18326E+00  7.85214E+00  8.16384E+00  5.95648E+00  9.46218E+00  6.59797E+00  8.86573E+00  7.87794E+00  8.23805E+00  8.41335E+00
   4.54157E+00  7.75630E+00  8.36679E+00  9.68882E+00  8.46026E+00  7.36490E+00  7.71996E+00  8.51691E+00  7.81805E+00  8.10753E+00
   8.87150E+00  6.97903E+00  7.79465E+00  7.68538E+00  9.52978E+00  7.48694E+00  6.64876E+00  7.73758E+00  8.59300E+00  9.78431E+00
   1.06797E+01  8.05004E+00  9.19732E+00  8.26363E+00  8.60532E+00  7.76482E+00  7.16402E+00  8.22499E+00  9.55030E+00  9.48546E+00
   1.14487E+01  8.56215E+00  1.18637E+01  8.29221E+00  9.54515E+00  8.65223E+00  9.14511E+00  1.08953E+01  1.17713E+01  1.23419E+01
   1.07436E+01  1.04471E+01  9.94372E+00  7.75080E+00  8.88755E+00  8.16512E+00  1.03184E+01  1.01054E+01  9.04893E+00  1.13171E+01
   1.20880E+01  1.10320E+01  1.18613E+01  1.14927E+01  1.05271E+01  1.11174E+01  9.19277E+00  1.11843E+01  8.81787E+00  1.13058E+01
   1.31391E+01  1.43696E+01  1.63633E+01  1.45884E+01  1.46745E+01  1.41809E+01  1.50868E+01  1.30170E+01  1.38312E+01  1.70997E+01
   1.52054E+01  1.51164E+01  1.39192E+01  1.69413E+01  1.82529E+01  1.33992E+01  1.71788E+01  1.79138E+01  1.53838E+01  1.56930E+01
   1.84409E+01  1.96252E+01  1.82187E+01  1.95200E+01  2.13137E+01  2.10762E+01  2.06847E+01  2.10511E+01  2.33044E+01  2.30157E+01
   2.50588E+01  2.50902E+01  2.23763E+01  2.21658E+01  2.39182E+01  2.70624E+01  2.69151E+01  2.97494E+01  2.65204E+01  2.74146E+01
   2.93690E+01  3.11261E+01  3.27041E+01  3.34778E+01  3.35186E+01  3.35586E+01  3.62968E+01  3.66963E+01  3.77701E+01  3.69044E+01
   4.01117E+01  3.84350E+01  4.25143E+01  4.33638E+01  4.55627E+01  4.44375E+01  4.77136E+01  4.80498E+01  4.80683E+01  4.87385E+01
   5.39723E+01  5.29256E+01  5.35974E+01  5.35561E+01  5.82909E+01  6.01074E+01  5.87703E+01  6.14401E+01  6.46131E+01  6.36557E+01
   6.53582E+01  6.70990E+01  6.78319E+01  6.97861E+01  7.23298E+01  7.08097E+01  7.78824E+01  7.64958E+01  8.25421E+01  8.29224E+01
   8.55402E+01  8.76988E+01  8.79462E+01  9.30269E+01  9.03099E+01  9.59096E+01  9.44326E+01  9.69938E+01  1.04039E+02  1.06466E+02
   1.05913E+02  1.09943E+02  1.13203E+02  1.15054E+02  1.21017E+02  1.24463E+02  1.28485E+02  1.28983E+02  1.33684E+02  1.33768E+02
   1.42923E+02  1.44109E+02  1.49283E+02  1.49190E+02  1.51550E+02  1.55505E+02  1.53813E+02  1.53378E+02  1.55778E+02  1.57587E+02
   1.58209E+02  1.55913E+02  1.55986E+02  1.53367E+02  1.54160E+02  1.50594E+02  1.52420E+02  1.52251E+02  1.49576E+02  1.48071E+02
   1.47776E+02  1.52190E+02  1.48729E+02  1.46679E+02  1.46140E+02  1.44230E+02  1.43693E+02  1.39828E+02  1.39891E+02  1.41405E+02
   1.36617E+02  1.39203E+02  1.37032E+02  1.37582E+02  1.34450E+02  1.31669E+02  1.31799E+02  1.31279E+02  1.32792E+02  1.24868E+02
   1.26780E+02  1.25356E+02  1.23890E+02  1.21654E+02  1.19385E+02  1.22190E+02  1.17956E+02  1.16552E+02  1.13058E+02  1.12524E+02
   1.10403E+02  1.10503E+02  1.06441E+02  1.07525E+02  1.03803E+02  9.94220E+01  9.86864E+01  9.52324E+01  9.66334E+01  9.42311E+01
   9.09062E+01  8.82267E+01  8.44926E+01  8.47504E+01  8.06093E+01  7.72143E+01  7.21559E+01  7.07952E+01  6.85216E+01  6.57802E+01
   6.29245E+01  6.37225E+01  5.84170E+01  6.21180E+01  5.52499E+01  5.41627E+01  5.13160E+01  4.72963E+01  4.59145E+01  4.33001E+01
   4.20226E+01  4.09840E+01  3.66985E+01  3.70741E+01  3.36888E+01  3.27174E+01  3.03826E+01  2.65311E+01  2.63175E+01  2.67377E+01
   2.30941E+01  2.12674E+01  2.17504E+01  2.03566E+01  1.85989E+01  1.67443E+01  1.46690E+01  1.57890E+01  1.32255E+01  1.17356E+01
   9.13204E+00  9.26476E+00  9.12967E+00  7.02190E+00  7.62187E+00  3.47301E+00  3.26950E+00  4.75596E+00  2.94988E+00  3.74635E+00
   1.25162E+00  4.54369E-01  8.79631E-02  1.19606E+00 -8.07736E-01 -2.14089E+00 -5.74524E-01 -1.93140E+00 -3.43655E+00 -4.80166E+00
  -4.56206E+00 -6.59716E+00 -5.13743E+00 -5.32910E+00 -6.36589E+00 -7.31699E+00 -7.81937E+00 -4.56414E+00 -7.72736E+00 -9.03492E+00
  -7.71553E+00 -9.28398E+00 -9.85577E+00 -8.23010E+00 -1.06210E+01 -1.26272E+01 -9.58732E+00 -9.65464E+00
 NY points of the fit to the data follow
   3.03459E+00  2.97263E+00  2.89761E+00  2.80617E+00  2.60629E+00  2.49814E+00  2.52307E+00  2.71177E+00  3.17967E+00  3.75699E+00
   4.12873E+00  4.25076E+00  4.26476E+00  4.17952E+00  3.91050E+00  3.57406E+00  3.41504E+00  3.34067E+00  3.28924E+00  3.31402E+00
   3.36583E+00  3.45398E+00  3.52725E+00  3.53037E+00  3.25351E+00  2.61460E+00  2.25286E+00  2.12139E+00  2.49283E+00  3.68789E+00
   5.04029E+00  5.70273E+00  5.83198E+00  5.91432E+00  5.71940E+00  4.89735E+00  4.03598E+00  3.83002E+00  3.80097E+00  3.69353E+00
   3.60687E+00  3.56502E+00  3.49977E+00  3.40746E+00  3.37348E+00  3.44208E+00  3.67453E+00  4.02824E+00  4.28983E+00  4.37925E+00
   4.37958E+00  4.31927E+00  4.15122E+00  3.91763E+00  3.73081E+00  3.64664E+00  3.61796E+00  3.61104E+00  3.65865E+00  3.76891E+00
   3.89980E+00  3.99218E+00  4.02222E+00  4.00665E+00  3.94028E+00  3.84440E+00  3.75703E+00  3.69469E+00  3.68083E+00  3.70600E+00
   3.73837E+00  3.78191E+00  3.83575E+00  3.87024E+00  3.89485E+00  3.93087E+00  3.96535E+00  3.95571E+00  3.91331E+00  3.87774E+00
   3.84051E+00  3.79032E+00  3.77586E+00  3.81009E+00  3.86739E+00  3.93669E+00  3.98233E+00  3.95153E+00  3.86117E+00  3.77622E+00
   3.72429E+00  3.68491E+00  3.67018E+00  3.70464E+00  3.75618E+00  3.79867E+00  3.79160E+00  3.60577E+00  2.91993E+00  2.28190E+00
   2.07600E+00  2.36860E+00  3.60041E+00  5.42769E+00  6.74663E+00  7.15168E+00  7.14120E+00  6.88511E+00  6.07469E+00  4.86355E+00
   4.14804E+00  4.00675E+00  3.98480E+00  3.98593E+00  3.99969E+00  4.03180E+00  4.06556E+00  4.09698E+00  4.11423E+00  4.09100E+00
   4.02090E+00  3.83549E+00  3.40701E+00  3.14283E+00  3.12856E+00  3.46747E+00  4.31748E+00  5.29512E+00  5.80534E+00  5.89423E+00
   5.96890E+00  6.00360E+00  5.86980E+00  5.65876E+00  5.51893E+00  5.25790E+00  4.82587E+00  4.36345E+00  3.99249E+00  3.81033E+00
   3.96824E+00  4.40197E+00  4.84660E+00  5.17243E+00  5.35630E+00  5.40222E+00  5.35966E+00  5.26644E+00  5.21489E+00  5.23393E+00
   5.26185E+00  5.27103E+00  5.27378E+00  5.27149E+00  5.26370E+00  5.28212E+00  5.35378E+00  5.44045E+00  5.51524E+00  5.57251E+00
   5.59942E+00  5.61243E+00  5.62492E+00  5.66296E+00  5.72743E+00  5.79879E+00  5.86750E+00  5.93333E+00  5.98642E+00  6.02895E+00
   6.07226E+00  6.13312E+00  6.21514E+00  6.27864E+00  6.31554E+00  6.32516E+00  6.33451E+00  6.36713E+00  6.41734E+00  6.46535E+00
   6.52319E+00  6.58294E+00  6.66193E+00  6.71531E+00  6.66980E+00  6.53810E+00  6.38547E+00  6.28917E+00  6.32543E+00  6.53177E+00
   6.89979E+00  7.35120E+00  7.76496E+00  8.03349E+00  8.04378E+00  7.85473E+00  7.48998E+00  7.05958E+00  6.80662E+00  6.83128E+00
   6.99432E+00  7.17535E+00  7.42305E+00  7.73796E+00  7.96855E+00  8.06851E+00  8.12518E+00  8.17870E+00  8.23282E+00  8.23174E+00
   8.15112E+00  7.99577E+00  7.87419E+00  7.85977E+00  7.96599E+00  8.25129E+00  8.66327E+00  9.02703E+00  9.25532E+00  9.32865E+00
   9.21555E+00  8.90164E+00  8.45527E+00  8.15757E+00  8.14652E+00  8.32706E+00  8.64192E+00  9.03518E+00  9.41635E+00  9.65469E+00
   9.60525E+00  9.34009E+00  9.07450E+00  8.98346E+00  9.13092E+00  9.47007E+00  1.00319E+01  1.06856E+01  1.11046E+01  1.11169E+01
   1.08488E+01  1.04713E+01  1.00504E+01  9.66374E+00  9.58385E+00  9.91459E+00  1.04133E+01  1.08829E+01  1.12794E+01  1.15987E+01
   1.17334E+01  1.16698E+01  1.15648E+01  1.15427E+01  1.15231E+01  1.12241E+01  1.07986E+01  1.06964E+01  1.08814E+01  1.16806E+01
   1.31387E+01  1.45085E+01  1.52169E+01  1.55205E+01  1.56844E+01  1.54631E+01  1.47844E+01  1.42599E+01  1.42410E+01  1.43573E+01
   1.45000E+01  1.46736E+01  1.48774E+01  1.51060E+01  1.53721E+01  1.56692E+01  1.59888E+01  1.63229E+01  1.66676E+01  1.70144E+01
   1.73634E+01  1.77265E+01  1.81138E+01  1.85301E+01  1.89784E+01  1.94612E+01  1.99809E+01  2.05361E+01  2.11225E+01  2.17423E+01
   2.23962E+01  2.30824E+01  2.38007E+01  2.45522E+01  2.53355E+01  2.61476E+01  2.69860E+01  2.78485E+01  2.87312E+01  2.96300E+01
   3.05415E+01  3.14620E+01  3.23880E+01  3.33166E+01  3.42453E+01  3.51726E+01  3.60980E+01  3.70223E+01  3.79473E+01  3.88760E+01
   3.98125E+01  4.07618E+01  4.17295E+01  4.27216E+01  4.37441E+01  4.48029E+01  4.59031E+01  4.70489E+01  4.82426E+01  4.94839E+01
   5.07664E+01  5.20661E+01  5.33638E+01  5.48478E+01  5.65376E+01  5.83853E+01  6.03953E+01  6.23483E+01  6.40144E+01  6.54695E+01
   6.67704E+01  6.79204E+01  6.89858E+01  7.01057E+01  7.16603E+01  7.36905E+01  7.58969E+01  7.80454E+01  8.01405E+01  8.22572E+01
   8.43067E+01  8.61720E+01  8.80206E+01  9.00445E+01  9.22191E+01  9.45241E+01  9.69588E+01  9.95181E+01  1.02192E+02  1.04980E+02
   1.07881E+02  1.10895E+02  1.14012E+02  1.17223E+02  1.20527E+02  1.23904E+02  1.27310E+02  1.30706E+02  1.34054E+02  1.37319E+02
   1.40453E+02  1.43411E+02  1.46157E+02  1.48658E+02  1.50875E+02  1.52776E+02  1.54338E+02  1.55545E+02  1.56393E+02  1.56886E+02
   1.57039E+02  1.56876E+02  1.56431E+02  1.55742E+02  1.54855E+02  1.53818E+02  1.52678E+02  1.51482E+02  1.50271E+02  1.49082E+02
   1.47943E+02  1.46873E+02  1.45883E+02  1.44975E+02  1.44142E+02  1.43371E+02  1.42644E+02  1.41936E+02  1.41223E+02  1.40481E+02
   1.39686E+02  1.38818E+02  1.37862E+02  1.36807E+02  1.35648E+02  1.34387E+02  1.33027E+02  1.31578E+02  1.30055E+02  1.28471E+02
   1.26841E+02  1.25183E+02  1.23508E+02  1.21830E+02  1.20157E+02  1.18494E+02  1.16843E+02  1.15203E+02  1.13568E+02  1.11932E+02
   1.10284E+02  1.08614E+02  1.06910E+02  1.05159E+02  1.03352E+02  1.01478E+02  9.95288E+01  9.74988E+01  9.53842E+01  9.31838E+01
   9.08990E+01  8.85333E+01  8.60925E+01  8.35843E+01  8.10179E+01  7.84038E+01  7.57533E+01  7.30781E+01  7.03903E+01  6.77015E+01
   6.50233E+01  6.23663E+01  5.97404E+01  5.71544E+01  5.46164E+01  5.21329E+01  4.97097E+01  4.73512E+01  4.50610E+01  4.28415E+01
   4.06945E+01  3.86206E+01  3.66201E+01  3.46924E+01  3.28364E+01  3.10508E+01  2.93337E+01  2.76830E+01  2.60965E+01  2.45717E+01
   2.31062E+01  2.16974E+01  2.03427E+01  1.90396E+01  1.77855E+01  1.65781E+01  1.54149E+01  1.42937E+01  1.32124E+01  1.21687E+01
   1.11608E+01  1.01868E+01  9.24477E+00  8.33311E+00  7.45021E+00  6.59456E+00  5.76475E+00  4.95943E+00  4.17734E+00  3.41730E+00
   2.67822E+00  1.95904E+00  1.25879E+00  5.76529E-01 -8.85879E-02 -7.37368E-01 -1.37057E+00 -1.98891E+00 -2.59306E+00 -3.18366E+00
  -3.76130E+00 -4.32651E+00 -4.87984E+00 -5.42176E+00 -5.95276E+00 -6.47325E+00 -6.98366E+00 -7.48435E+00 -7.97569E+00 -8.45802E+00
  -8.93169E+00 -9.39697E+00 -9.85415E+00 -1.03035E+01 -1.07453E+01 -1.11797E+01 -1.16071E+01 -1.20275E+01
 NY background values follow
    -9.285E-01   -9.078E-01   -8.868E-01   -8.657E-01   -8.445E-01   -8.231E-01   -8.017E-01   -7.801E-01   -7.585E-01   -7.367E-01
    -7.150E-01   -6.932E-01   -6.715E-01   -6.497E-01   -6.280E-01   -6.063E-01   -5.847E-01   -5.632E-01   -5.418E-01   -5.205E-01
    -4.993E-01   -4.783E-01   -4.575E-01   -4.369E-01   -4.165E-01   -3.963E-01   -3.764E-01   -3.568E-01   -3.374E-01   -3.183E-01
    -2.996E-01   -2.812E-01   -2.631E-01   -2.455E-01   -2.282E-01   -2.114E-01   -1.949E-01   -1.790E-01   -1.635E-01   -1.485E-01
    -1.339E-01   -1.200E-01   -1.065E-01   -9.362E-02   -8.131E-02   -6.960E-02   -5.850E-02   -4.800E-02   -3.808E-02   -2.872E-02
    -1.990E-02   -1.160E-02   -3.795E-03    3.528E-03    1.039E-02    1.682E-02    2.283E-02    2.845E-02    3.368E-02    3.857E-02
     4.311E-02    4.735E-02    5.128E-02    5.495E-02    5.836E-02    6.154E-02    6.451E-02    6.728E-02    6.989E-02    7.234E-02
     7.467E-02    7.688E-02    7.901E-02    8.107E-02    8.308E-02    8.507E-02    8.704E-02    8.904E-02    9.106E-02    9.315E-02
     9.531E-02    9.756E-02    9.993E-02    1.024E-01    1.051E-01    1.080E-01    1.110E-01    1.143E-01    1.178E-01    1.216E-01
     1.256E-01    1.300E-01    1.347E-01    1.397E-01    1.450E-01    1.507E-01    1.568E-01    1.632E-01    1.701E-01    1.773E-01
     1.850E-01    1.931E-01    2.016E-01    2.106E-01    2.201E-01    2.300E-01    2.405E-01    2.514E-01    2.629E-01    2.749E-01
     2.874E-01    3.004E-01    3.141E-01    3.283E-01    3.431E-01    3.585E-01    3.746E-01    3.912E-01    4.085E-01    4.265E-01
     4.451E-01    4.644E-01    4.844E-01    5.050E-01    5.264E-01    5.486E-01    5.714E-01    5.951E-01    6.194E-01    6.446E-01
     6.705E-01    6.973E-01    7.248E-01    7.532E-01    7.825E-01    8.125E-01    8.435E-01    8.753E-01    9.079E-01    9.413E-01
     9.754E-01    1.010E+00    1.046E+00    1.082E+00    1.119E+00    1.156E+00    1.194E+00    1.233E+00    1.272E+00    1.311E+00
     1.351E+00    1.391E+00    1.432E+00    1.473E+00    1.514E+00    1.555E+00    1.597E+00    1.639E+00    1.680E+00    1.722E+00
     1.765E+00    1.807E+00    1.849E+00    1.891E+00    1.933E+00    1.975E+00    2.017E+00    2.059E+00    2.100E+00    2.141E+00
     2.182E+00    2.223E+00    2.263E+00    2.303E+00    2.343E+00    2.382E+00    2.421E+00    2.459E+00    2.497E+00    2.534E+00
     2.570E+00    2.606E+00    2.641E+00    2.676E+00    2.710E+00    2.743E+00    2.776E+00    2.808E+00    2.840E+00    2.872E+00
     2.902E+00    2.933E+00    2.963E+00    2.992E+00    3.021E+00    3.050E+00    3.079E+00    3.107E+00    3.135E+00    3.163E+00
     3.190E+00    3.218E+00    3.245E+00    3.272E+00    3.299E+00    3.326E+00    3.352E+00    3.379E+00    3.406E+00    3.432E+00
     3.459E+00    3.486E+00    3.512E+00    3.539E+00    3.566E+00    3.593E+00    3.620E+00    3.648E+00    3.676E+00    3.704E+00
     3.732E+00    3.760E+00    3.789E+00    3.818E+00    3.848E+00    3.877E+00    3.908E+00    3.938E+00    3.969E+00    4.001E+00
     4.033E+00    4.065E+00    4.097E+00    4.129E+00    4.162E+00    4.195E+00    4.227E+00    4.260E+00    4.293E+00    4.326E+00
     4.358E+00    4.391E+00    4.423E+00    4.455E+00    4.487E+00    4.519E+00    4.550E+00    4.581E+00    4.612E+00    4.642E+00
     4.672E+00    4.701E+00    4.730E+00    4.758E+00    4.785E+00    4.812E+00    4.838E+00    4.863E+00    4.888E+00    4.911E+00
     4.934E+00    4.956E+00    4.977E+00    4.997E+00    5.016E+00    5.034E+00    5.050E+00    5.066E+00    5.080E+00    5.094E+00
     5.106E+00    5.116E+00    5.126E+00    5.134E+00    5.140E+00    5.145E+00    5.149E+00    5.152E+00    5.153E+00    5.153E+00
     5.151E+00    5.148E+00    5.143E+00    5.137E+00    5.130E+00    5.121E+00    5.110E+00    5.098E+00    5.085E+00    5.070E+00
     5.053E+00    5.035E+00    5.016E+00    4.995E+00    4.972E+00    4.948E+00    4.922E+00    4.895E+00    4.866E+00    4.836E+00
     4.803E+00    4.770E+00    4.734E+00    4.697E+00    4.659E+00    4.618E+00    4.576E+00    4.532E+00    4.487E+00    4.440E+00
     4.391E+00    4.341E+00    4.288E+00    4.234E+00    4.178E+00    4.121E+00    4.062E+00    4.001E+00    3.938E+00    3.873E+00
     3.807E+00    3.739E+00    3.669E+00    3.597E+00    3.524E+00    3.449E+00    3.373E+00    3.295E+00    3.215E+00    3.133E+00
     3.050E+00    2.966E+00    2.879E+00    2.792E+00    2.702E+00    2.611E+00    2.519E+00    2.425E+00    2.329E+00    2.233E+00
     2.134E+00    2.034E+00    1.933E+00    1.830E+00    1.726E+00    1.620E+00    1.513E+00    1.405E+00    1.295E+00    1.184E+00
     1.072E+00    9.581E-01    8.431E-01    7.267E-01    6.091E-01    4.902E-01    3.701E-01    2.487E-01    1.260E-01    2.193E-03
    -1.229E-01   -2.491E-01   -3.765E-01   -5.051E-01   -6.349E-01   -7.658E-01   -8.979E-01   -1.031E+00   -1.166E+00   -1.301E+00
    -1.438E+00   -1.576E+00   -1.716E+00   -1.856E+00   -1.998E+00   -2.141E+00   -2.285E+00   -2.430E+00   -2.576E+00   -2.724E+00
    -2.873E+00   -3.023E+00   -3.175E+00   -3.327E+00   -3.481E+00   -3.636E+00   -3.793E+00   -3.950E+00   -4.109E+00   -4.269E+00
    -4.430E+00   -4.593E+00   -4.757E+00   -4.922E+00   -5.088E+00   -5.256E+00   -5.425E+00   -5.595E+00   -5.766E+00   -5.939E+00
    -6.113E+00   -6.288E+00   -6.465E+00   -6.643E+00   -6.822E+00   -7.002E+00   -7.184E+00   -7.367E+00   -7.551E+00   -7.737E+00
    -7.924E+00   -8.112E+00   -8.301E+00   -8.491E+00   -8.683E+00   -8.876E+00   -9.070E+00   -9.265E+00   -9.461E+00   -9.658E+00
    -9.857E+00   -1.006E+01   -1.026E+01   -1.046E+01   -1.066E+01   -1.086E+01   -1.107E+01   -1.127E+01   -1.148E+01   -1.169E+01
    -1.189E+01   -1.210E+01   -1.231E+01   -1.252E+01   -1.273E+01   -1.295E+01   -1.316E+01   -1.337E+01   -1.359E+01   -1.380E+01
    -1.402E+01   -1.423E+01   -1.445E+01   -1.467E+01   -1.489E+01   -1.511E+01   -1.532E+01   -1.554E+01   -1.576E+01   -1.599E+01
    -1.621E+01   -1.643E+01   -1.665E+01   -1.687E+01   -1.710E+01   -1.732E+01   -1.754E+01   -1.777E+01   -1.799E+01   -1.822E+01
    -1.844E+01   -1.867E+01   -1.889E+01   -1.912E+01   -1.934E+01   -1.957E+01   -1.979E+01   -2.002E+01   -2.025E+01   -2.047E+01
    -2.070E+01   -2.092E+01   -2.115E+01   -2.137E+01   -2.159E+01   -2.182E+01   -2.204E+01   -2.227E+01   -2.249E+01   -2.271E+01
    -2.293E+01   -2.316E+01   -2.338E+01   -2.360E+01   -2.382E+01   -2.404E+01   -2.426E+01   -2.448E+01   -2.469E+01   -2.491E+01
    -2.513E+01   -2.534E+01   -2.556E+01   -2.577E+01   -2.599E+01   -2.620E+01   -2.641E+01   -2.662E+01
 Ala      Conc. = 2.25E+01
