 LCModel (Version 6.3-1L) Copyright: S.W. Provencher.          Ref.: Magn. Reson. Med. 30:672-679 (1993).                
 Slice#2 Row#3 Col#10  PD_24_press_1_raw_act
 36 lines in following concentration table = NCONC+1
    Conc.  %SD /Cr+PCr  Metabolite                                         
    0.000 999%   0.000 Ala                                                 
    0.000 999%   0.000 Asp                                                 
 1.54E+03   4%   1.000 Cr                                                  
    0.000 999%   0.000 PCr                                                 
  191.478 103%   0.124 GABA                                                
    0.000 999%   0.000 Glc                                                 
 1.80E+03  26%   1.163 Gln                                                 
  827.621  66%   0.536 Glu                                                 
  665.023   3%   0.431 GPC                                                 
    0.000 999%   0.000 PCh                                                 
  759.094  13%   0.491 GSH                                                 
 2.80E+03  10%   1.812 Ins                                                 
    0.000 999%   0.000 Lac                                                 
 1.93E+03   9%   1.249 NAA                                                 
  243.588  74%   0.158 NAAG                                                
  149.105  18% 9.7E-02 Scyllo                                              
    0.000 999%   0.000 Tau                                                 
    0.000 999%   0.000 -CrCH2                                              
  665.023   3%   0.431 GPC+PCh                                             
 2.17E+03   4%   1.406 NAA+NAAG                                            
 1.54E+03   4%   1.000 Cr+PCr                                              
 2.62E+03  33%   1.699 Glu+Gln                                             
    0.000 999%   0.000 Lip13a                                              
  399.045  40%   0.258 Lip13b                                              
   92.181 110% 6.0E-02 Lip09                                               
  893.225  16%   0.578 MM09                                                
   89.415  78% 5.8E-02 Lip20                                               
 1.77E+03  16%   1.143 MM20                                                
  245.333  48%   0.159 MM12                                                
    0.000 999%   0.000 MM14                                                
  572.819  25%   0.371 MM17                                                
  399.045  40%   0.258 Lip13a+Lip13b                                       
  644.379  22%   0.417 MM14+Lip13a+Lip13b+MM12                             
  985.406  12%   0.638 MM09+Lip09                                          
 1.85E+03  15%   1.201 MM20+Lip20                                          
   6 lines in following misc. output table
  FWHM = 0.107 ppm    S/N =   8                                            
  Data shift = 0.008 ppm                                                   
  Ph:  -1 deg      -3.8 deg/ppm                                            
  alphaB,S = 2.1E+00,   1.3E+02                                            
   14 spline knots.   Ns = 6(2)                                            
  ( 5) 4 infls.   ( 3) 1 extrs.                                            
  498 points on ppm-axis = NY
      4.000000     3.992357     3.984714     3.977070     3.969427     3.961784     3.954141     3.946497     3.938854     3.931211
      3.923568     3.915925     3.908281     3.900638     3.892995     3.885352     3.877708     3.870065     3.862422     3.854779
      3.847136     3.839492     3.831849     3.824206     3.816563     3.808919     3.801276     3.793633     3.785990     3.778347
      3.770703     3.763060     3.755417     3.747774     3.740130     3.732487     3.724844     3.717201     3.709558     3.701914
      3.694271     3.686628     3.678985     3.671341     3.663698     3.656055     3.648412     3.640769     3.633125     3.625482
      3.617839     3.610196     3.602552     3.594909     3.587266     3.579623     3.571980     3.564336     3.556693     3.549050
      3.541407     3.533763     3.526120     3.518477     3.510834     3.503191     3.495547     3.487904     3.480261     3.472618
      3.464974     3.457331     3.449688     3.442045     3.434402     3.426758     3.419115     3.411472     3.403829     3.396185
      3.388542     3.380899     3.373256     3.365613     3.357969     3.350326     3.342683     3.335040     3.327396     3.319753
      3.312110     3.304467     3.296824     3.289180     3.281537     3.273894     3.266251     3.258607     3.250964     3.243321
      3.235678     3.228034     3.220391     3.212748     3.205105     3.197462     3.189818     3.182175     3.174532     3.166889
      3.159245     3.151602     3.143959     3.136316     3.128673     3.121029     3.113386     3.105743     3.098100     3.090456
      3.082813     3.075170     3.067527     3.059884     3.052240     3.044597     3.036954     3.029311     3.021667     3.014024
      3.006381     2.998738     2.991095     2.983451     2.975808     2.968165     2.960522     2.952878     2.945235     2.937592
      2.929949     2.922306     2.914662     2.907019     2.899376     2.891733     2.884089     2.876446     2.868803     2.861160
      2.853517     2.845873     2.838230     2.830587     2.822944     2.815300     2.807657     2.800014     2.792371     2.784728
      2.777084     2.769441     2.761798     2.754155     2.746511     2.738868     2.731225     2.723582     2.715939     2.708295
      2.700652     2.693009     2.685366     2.677722     2.670079     2.662436     2.654793     2.647150     2.639506     2.631863
      2.624220     2.616577     2.608933     2.601290     2.593647     2.586004     2.578361     2.570717     2.563074     2.555431
      2.547788     2.540144     2.532501     2.524858     2.517215     2.509572     2.501928     2.494285     2.486642     2.478999
      2.471355     2.463712     2.456069     2.448426     2.440783     2.433139     2.425496     2.417853     2.410210     2.402566
      2.394923     2.387280     2.379637     2.371994     2.364350     2.356707     2.349064     2.341421     2.333777     2.326134
      2.318491     2.310848     2.303205     2.295561     2.287918     2.280275     2.272632     2.264988     2.257345     2.249702
      2.242059     2.234416     2.226772     2.219129     2.211486     2.203843     2.196199     2.188556     2.180913     2.173270
      2.165627     2.157983     2.150340     2.142697     2.135054     2.127410     2.119767     2.112124     2.104481     2.096838
      2.089194     2.081551     2.073908     2.066265     2.058621     2.050978     2.043335     2.035692     2.028049     2.020405
      2.012762     2.005119     1.997476     1.989833     1.982190     1.974546     1.966903     1.959260     1.951617     1.943974
      1.936331     1.928688     1.921045     1.913402     1.905759     1.898115     1.890472     1.882829     1.875186     1.867543
      1.859900     1.852257     1.844614     1.836971     1.829327     1.821684     1.814041     1.806398     1.798755     1.791112
      1.783469     1.775826     1.768183     1.760540     1.752896     1.745253     1.737610     1.729967     1.722324     1.714681
      1.707038     1.699395     1.691752     1.684108     1.676465     1.668822     1.661179     1.653536     1.645893     1.638250
      1.630607     1.622964     1.615321     1.607677     1.600034     1.592391     1.584748     1.577105     1.569462     1.561819
      1.554176     1.546533     1.538890     1.531246     1.523603     1.515960     1.508317     1.500674     1.493031     1.485388
      1.477745     1.470102     1.462458     1.454815     1.447172     1.439529     1.431886     1.424243     1.416600     1.408957
      1.401314     1.393671     1.386027     1.378384     1.370741     1.363098     1.355455     1.347812     1.340169     1.332526
      1.324883     1.317240     1.309596     1.301953     1.294310     1.286667     1.279024     1.271381     1.263738     1.256095
      1.248452     1.240808     1.233165     1.225522     1.217879     1.210236     1.202593     1.194950     1.187307     1.179664
      1.172021     1.164377     1.156734     1.149091     1.141448     1.133805     1.126162     1.118519     1.110876     1.103233
      1.095590     1.087946     1.080303     1.072660     1.065017     1.057374     1.049731     1.042088     1.034445     1.026802
      1.019158     1.011515     1.003872     0.996229     0.988586     0.980943     0.973300     0.965657     0.958014     0.950371
      0.942727     0.935084     0.927441     0.919798     0.912155     0.904512     0.896869     0.889226     0.881583     0.873940
      0.866296     0.858653     0.851010     0.843367     0.835724     0.828081     0.820438     0.812795     0.805152     0.797508
      0.789865     0.782222     0.774579     0.766936     0.759293     0.751650     0.744007     0.736364     0.728721     0.721077
      0.713434     0.705791     0.698148     0.690505     0.682862     0.675219     0.667576     0.659933     0.652290     0.644646
      0.637003     0.629360     0.621717     0.614074     0.606431     0.598788     0.591145     0.583502     0.575858     0.568215
      0.560572     0.552929     0.545286     0.537643     0.530000     0.522357     0.514714     0.507071     0.499427     0.491784
      0.484141     0.476498     0.468855     0.461212     0.453569     0.445925     0.438282     0.430639     0.422996     0.415353
      0.407710     0.400067     0.392424     0.384780     0.377137     0.369494     0.361851     0.354208     0.346565     0.338922
      0.331278     0.323635     0.315992     0.308349     0.300706     0.293063     0.285420     0.277777     0.270133     0.262490
      0.254847     0.247204     0.239561     0.231918     0.224275     0.216631     0.208988     0.201345
 NY phased data points follow
   9.87837E+00  1.00068E+01  1.07983E+01  1.00425E+01  1.21095E+01  1.58262E+01  1.62556E+01  2.64244E+01  2.05229E+01  2.75704E+01
   2.71449E+01  2.60976E+01  2.51322E+01  2.65602E+01  2.57710E+01  2.17682E+01  2.15341E+01  2.14133E+01  1.65571E+01  1.73876E+01
   1.93752E+01  1.55650E+01  1.54583E+01  1.25164E+01  1.49537E+01  1.53040E+01  1.61904E+01  1.29265E+01  1.54179E+01  1.73181E+01
   1.33640E+01  8.20694E+00  1.32969E+01  1.34389E+01  1.32110E+01  1.24873E+01  1.28835E+01  1.38484E+01  1.13149E+01  9.45875E+00
   1.13160E+01  8.90190E+00  1.32152E+01  1.47969E+01  1.33193E+01  1.28824E+01  1.56568E+01  1.78638E+01  1.38030E+01  1.39763E+01
   1.68279E+01  1.57224E+01  1.49871E+01  1.77590E+01  1.58194E+01  1.04944E+01  1.55370E+01  1.05432E+01  1.20640E+01  1.14191E+01
   7.48493E+00  6.73358E+00  8.12587E+00  8.84152E+00  4.20427E+00  6.37952E+00  2.38090E+00  2.69830E+00  4.98892E+00  3.53692E+00
   6.86629E+00  4.92628E+00  4.56137E+00  3.78888E+00 -4.38495E-01  1.78284E+00  2.60788E+00  3.00206E+00  2.09130E+00  5.19211E+00
   5.63302E+00 -1.58619E+00  5.41596E+00  5.18362E+00  1.30411E+00  4.49428E+00  4.87474E+00  6.54281E+00  4.56429E+00  7.49909E+00
   2.36372E+00  7.92316E+00  7.97994E+00  6.31497E+00  5.53584E+00  5.24057E+00  8.17111E+00  1.14786E+01  1.95546E+01  1.92564E+01
   2.53993E+01  3.04924E+01  3.31894E+01  2.83431E+01  3.39453E+01  3.04001E+01  3.02957E+01  2.73464E+01  2.44275E+01  2.15256E+01
   1.80872E+01  1.38600E+01  1.58438E+01  1.74855E+01  1.31670E+01  1.40071E+01  9.84264E+00  3.29664E+00  4.41853E+00  5.09983E+00
   8.46014E+00  1.13996E+01  1.26866E+01  2.21646E+01  2.50585E+01  2.66175E+01  2.72600E+01  2.79566E+01  2.96529E+01  2.47042E+01
   1.90943E+01  2.52073E+01  1.83177E+01  1.72358E+01  1.37226E+01  1.56896E+01  1.35548E+01  1.22486E+01  1.40169E+01  7.47833E+00
   1.08603E+01  7.63106E+00  8.40223E+00  5.30940E+00  3.49359E+00  3.89648E+00  2.01185E+00  1.54159E+00  3.81068E-01  1.45179E+00
  -1.55067E+00  4.24909E+00  8.56259E-01  8.34039E-01 -6.75059E-01  2.42720E+00 -1.30609E-01 -1.47994E+00  1.65011E+00 -1.20578E+00
  -1.85575E+00 -2.79234E+00  5.19205E-01 -2.89624E+00 -2.65009E+00 -1.58231E+00 -5.52711E+00 -5.47569E+00  8.87930E-02 -3.05913E+00
  -3.61341E+00 -4.19347E+00 -3.18628E+00 -4.54805E+00 -7.65355E+00 -6.03861E+00 -5.24120E+00 -9.33680E+00 -6.81671E+00 -8.10238E+00
  -1.03388E+01 -5.44216E+00 -8.11105E+00 -1.44363E+01 -6.34259E+00 -9.64696E+00 -7.55171E+00 -4.87566E+00 -2.22278E+00 -6.49992E-01
  -4.61552E+00 -3.85473E+00 -6.99879E+00 -5.49947E+00 -2.19240E+00 -4.40452E-01 -4.08508E+00 -4.96580E+00 -4.66929E+00 -1.96796E+00
  -1.97129E-01 -1.85118E+00  4.15682E-02 -2.49947E+00 -3.84404E+00 -4.32476E+00 -1.84652E+00 -5.49481E+00 -1.71583E+00 -3.61771E+00
  -1.39259E+00 -4.73532E+00 -1.63110E+00  3.79208E+00  2.71797E+00  4.38988E-02  3.38076E+00 -2.41181E-03  2.10845E+00 -3.43765E+00
   9.70570E-01  2.00825E+00  1.85053E+00  3.65622E-01  6.04280E-01  1.36298E+00  1.33263E+00  3.30990E+00  1.68841E+00  4.16940E+00
   1.01781E+00 -6.68098E-01  1.53094E+00 -1.63129E+00  4.99390E+00  2.99753E+00  2.88121E+00  2.74651E+00  3.48609E+00  5.15650E-02
   3.63750E+00  5.41187E-01  4.98960E+00  3.05575E+00  1.73777E+00  6.40339E+00  6.96246E+00  7.53630E+00  9.51195E+00  1.16365E+01
   1.22550E+01  1.06251E+01  1.29576E+01  1.93663E+01  2.18103E+01  3.02611E+01  3.57423E+01  3.92851E+01  4.13871E+01  4.55624E+01
   4.37915E+01  3.72158E+01  4.19479E+01  3.69898E+01  3.37788E+01  3.29763E+01  2.53971E+01  2.24897E+01  1.95070E+01  1.56554E+01
   1.18162E+01  6.68088E+00  8.95452E+00  4.96125E+00  1.23086E+00  2.37051E+00  4.87042E+00  1.86754E-01  6.90647E-01 -1.01968E+00
   4.45183E+00  2.27394E-01 -3.33173E+00 -8.14291E-01 -5.58499E+00 -8.63235E-01 -4.38958E+00 -1.94313E+00 -1.49886E+00 -1.30617E+00
  -5.83753E-01 -2.14617E+00 -4.47362E+00 -1.36853E+00 -6.98303E-02 -6.40759E-01 -2.12145E+00 -1.24931E+00 -1.62672E+00 -2.41926E+00
   1.24796E+00 -1.47373E+00  1.84320E+00  2.13958E+00  1.93747E-01  3.02288E+00  6.67352E-01  3.24754E+00  5.98655E+00  3.44808E-01
   1.68616E+00  2.64590E+00  2.16210E+00  2.79937E+00  5.70311E-01 -1.90437E+00  2.51727E+00 -2.36874E+00  2.74573E+00  9.67994E-01
   3.15423E+00 -3.68331E-01  7.97260E-01  9.55733E-01  8.38790E-01  2.87858E+00  4.96514E+00  5.41806E-01  2.43910E+00  6.71623E-01
  -1.02258E+00  1.10657E+00 -4.37088E+00 -6.13063E+00 -4.67613E+00 -5.29771E+00 -8.36436E+00 -5.43683E+00 -6.47094E+00 -7.89270E+00
  -8.28926E+00 -3.76776E+00 -4.91348E+00 -2.85826E+00 -4.78140E+00 -2.12541E+00 -3.76565E-01 -2.48375E+00  2.58469E+00  1.64840E+00
   5.46977E+00 -3.25979E-01  4.71370E+00 -1.03447E+00  5.50775E+00  2.41116E+00  2.74356E+00  2.28574E-01  1.56218E+00  3.07365E+00
   4.94947E+00  3.13335E+00  1.44247E+00  6.16558E+00  6.25838E+00  4.54337E+00  1.43512E+00  2.84154E-01  3.53527E+00 -6.48998E-01
  -1.70938E+00  1.61581E+00  3.70784E+00 -2.24497E+00  1.65203E+00 -1.82424E+00 -1.21156E+00 -2.04151E+00 -1.79009E+00 -3.95003E+00
  -3.06928E+00  1.78773E+00 -1.77367E+00 -1.98558E+00 -1.08539E+00 -8.12202E-01  2.13898E+00  4.22041E+00  2.03709E+00  2.74193E+00
   6.57290E+00  1.38618E+00  2.95749E+00 -6.32685E-01  2.97190E+00  2.75458E+00  1.73017E+00  5.21809E+00  1.40965E+00  3.55047E+00
   5.40948E+00  6.22741E+00  7.08605E+00  9.89191E+00  4.05302E+00  7.66579E+00  1.12351E+01  6.44003E+00  7.71280E+00  3.66825E+00
   4.03707E+00  4.04049E+00  6.58816E+00  2.98037E+00  4.40226E+00  1.23315E+00  3.99086E+00  4.28972E+00  7.36315E-01  4.16448E+00
   1.73396E+00  2.04287E+00  2.98517E+00  2.63105E+00  1.70444E+00 -1.04188E+00  3.76807E+00 -2.67874E+00 -1.36487E+00  1.98309E-01
  -9.78486E-01  2.05205E+00 -1.20964E+00 -3.01371E+00  1.04607E+00  1.31754E+00  7.81928E-01 -1.35258E+00  3.85201E-01 -1.78494E+00
  -2.71588E+00 -1.36073E+00 -8.01322E-01 -3.85494E-01 -4.71306E-01 -1.39886E+00  8.00687E-01 -3.70184E-01  8.71194E-01  1.62650E+00
   1.39210E+00 -3.45370E+00  1.26197E-02  1.49902E+00  1.55855E+00 -1.24204E+00  3.29006E+00  9.67306E-01  3.89396E-01 -3.41074E+00
  -8.23098E-01  2.61368E-01  2.28990E+00  3.51659E+00  3.93167E+00  4.06529E+00  3.22824E+00  3.37415E+00 -1.16772E+00  7.73377E-01
   2.86638E+00  2.14240E-01 -2.54826E+00  6.33837E-01  1.19044E+00 -1.63770E+00 -1.76501E+00  8.11688E-01 -1.73868E-01  4.97962E-01
   1.19427E+00  2.78441E-01  1.11110E+00  1.70751E-01  1.32465E+00 -1.19144E+00 -5.48665E-01 -2.52375E+00  7.59909E-01  1.21759E+00
   2.20615E+00  2.25205E+00  3.01711E-01 -2.54635E-01 -1.60221E+00  8.84841E-01  1.18056E-01 -4.20017E-01
 NY points of the fit to the data follow
   1.10327E+01  1.11814E+01  1.12562E+01  1.22133E+01  1.29080E+01  1.52818E+01  1.66251E+01  1.94674E+01  2.06465E+01  2.28344E+01
   2.34637E+01  2.39609E+01  2.40061E+01  2.34491E+01  2.29249E+01  2.14861E+01  2.05942E+01  1.90830E+01  1.83737E+01  1.67862E+01
   1.62155E+01  1.47219E+01  1.43229E+01  1.26040E+01  1.31156E+01  1.14137E+01  1.33396E+01  1.29241E+01  1.55462E+01  1.44288E+01
   1.62870E+01  1.47786E+01  1.57098E+01  1.41174E+01  1.43856E+01  1.31072E+01  1.33076E+01  1.24461E+01  1.25867E+01  1.18643E+01
   1.24006E+01  1.22294E+01  1.30895E+01  1.31825E+01  1.38231E+01  1.43729E+01  1.48225E+01  1.46390E+01  1.48317E+01  1.42056E+01
   1.39004E+01  1.28766E+01  1.22931E+01  1.12770E+01  1.08832E+01  1.03029E+01  1.03919E+01  9.84524E+00  9.82701E+00  8.96194E+00
   8.47602E+00  7.20210E+00  6.56522E+00  5.67235E+00  5.92222E+00  5.54597E+00  6.10949E+00  5.79304E+00  6.41337E+00  6.11801E+00
   6.56264E+00  6.20834E+00  6.30891E+00  5.90859E+00  5.79080E+00  5.62366E+00  5.39633E+00  5.36137E+00  5.27874E+00  5.49927E+00
   5.34821E+00  5.85221E+00  5.17579E+00  5.82036E+00  4.45087E+00  5.08864E+00  3.29128E+00  3.84073E+00  2.23065E+00  3.02483E+00
   1.93041E+00  4.27171E+00  4.03927E+00  5.67548E+00  5.81144E+00  8.48269E+00  1.00358E+01  1.44973E+01  1.80744E+01  2.22437E+01
   2.70212E+01  2.82727E+01  3.29309E+01  3.08382E+01  3.39505E+01  2.95168E+01  3.12198E+01  2.57387E+01  2.63873E+01  2.07521E+01
   2.08743E+01  1.63444E+01  1.64019E+01  1.24755E+01  1.23564E+01  9.43876E+00  8.49582E+00  5.91141E+00  5.25432E+00  7.59651E+00
   8.95434E+00  1.41319E+01  1.58346E+01  2.20640E+01  2.29163E+01  2.78979E+01  2.72553E+01  2.99297E+01  2.79718E+01  2.86419E+01
   2.58053E+01  2.49206E+01  2.17079E+01  2.00755E+01  1.71560E+01  1.60373E+01  1.34770E+01  1.24107E+01  9.89696E+00  7.98235E+00
   5.65013E+00  3.40271E+00  2.15011E+00  2.11681E+00  1.46368E+00  1.39065E+00  8.49416E-01  7.95110E-01  4.22122E-01  5.00193E-01
   2.17786E-01  1.02213E-01 -1.28969E-01 -5.11389E-01 -7.78052E-01 -1.28069E+00 -1.43682E+00 -1.83744E+00 -1.88796E+00 -2.18048E+00
  -2.23919E+00 -2.43193E+00 -2.61984E+00 -2.80674E+00 -3.12733E+00 -3.26878E+00 -3.57087E+00 -3.70481E+00 -4.08744E+00 -4.32715E+00
  -4.76177E+00 -4.99637E+00 -5.31234E+00 -5.52790E+00 -5.69609E+00 -5.97188E+00 -5.96939E+00 -6.36451E+00 -6.15033E+00 -6.57529E+00
  -6.08061E+00 -6.46256E+00 -5.77827E+00 -6.03210E+00 -5.10025E+00 -5.20504E+00 -4.13103E+00 -4.07113E+00 -3.15056E+00 -3.29021E+00
  -2.69469E+00 -3.12724E+00 -2.89052E+00 -3.24793E+00 -2.88471E+00 -2.89573E+00 -2.25068E+00 -1.88528E+00 -1.20494E+00 -5.96880E-01
   2.17974E-01  3.80568E-01  5.30430E-01 -1.34223E-01 -5.92611E-01 -1.86756E+00 -2.28517E+00 -3.48969E+00 -3.01197E+00 -3.85791E+00
  -2.47783E+00 -3.09425E+00 -1.26548E+00 -2.09400E+00 -5.16140E-01 -1.53260E+00 -4.09565E-01 -1.39780E+00 -5.50513E-01 -1.14056E+00
  -2.10706E-01 -1.16818E-01  1.00142E+00  1.32404E+00  2.04201E+00  2.14071E+00  2.01461E+00  1.87300E+00  1.62799E+00  1.66957E+00
   1.38472E+00  1.60666E+00  1.66957E+00  2.10590E+00  2.44349E+00  2.69778E+00  3.26081E+00  2.87134E+00  3.37571E+00  2.38924E+00
   3.13451E+00  2.01129E+00  2.96884E+00  2.14693E+00  3.40343E+00  2.92025E+00  4.22184E+00  4.38103E+00  7.62439E+00  8.48985E+00
   1.16616E+01  1.27504E+01  1.72347E+01  1.91366E+01  2.58834E+01  2.83390E+01  3.52760E+01  3.72897E+01  4.15413E+01  4.17388E+01
   4.23289E+01  4.10571E+01  3.90670E+01  3.68560E+01  3.34705E+01  3.07689E+01  2.66217E+01  2.40258E+01  2.04101E+01  1.81818E+01
   1.46353E+01  1.25864E+01  8.67568E+00  6.57134E+00  2.70649E+00  1.45088E+00  9.13181E-01  5.47638E-01  2.40841E-01 -1.92861E-02
  -2.09349E-01 -4.19359E-01 -5.34164E-01 -6.86982E-01 -7.46097E-01 -8.78395E-01 -9.25080E-01 -1.03339E+00 -1.06612E+00 -1.12618E+00
  -1.11588E+00 -1.11755E+00 -1.05760E+00 -1.00189E+00 -9.00839E-01 -7.93097E-01 -6.50413E-01 -4.98678E-01 -3.16504E-01 -1.19422E-01
   9.88714E-02  3.33203E-01  5.80999E-01  8.31550E-01  1.07795E+00  1.31709E+00  1.53405E+00  1.72575E+00  1.88756E+00  2.00889E+00
   2.08717E+00  2.11855E+00  2.10066E+00  2.03606E+00  1.92310E+00  1.76828E+00  1.57704E+00  1.35619E+00  1.11327E+00  8.56233E-01
   5.92178E-01  3.28656E-01  7.17846E-02 -1.72972E-01 -4.01410E-01 -6.10386E-01 -7.97777E-01 -9.62658E-01 -1.10471E+00 -1.22478E+00
  -1.32376E+00 -1.40332E+00 -1.46485E+00 -1.51021E+00 -1.54087E+00 -1.55834E+00 -1.56364E+00 -1.55750E+00 -1.54002E+00 -1.51075E+00
  -1.46832E+00 -1.41028E+00 -1.33285E+00 -1.23068E+00 -1.09687E+00 -9.23112E-01 -7.00393E-01 -4.20031E-01 -7.55473E-02  3.35294E-01
   8.07963E-01  1.32955E+00  1.87767E+00  2.42150E+00  2.92419E+00  3.34737E+00  3.65636E+00  3.82579E+00  3.84362E+00  3.71333E+00
   3.45305E+00  3.09252E+00  2.66799E+00  2.21683E+00  1.77250E+00  1.36109E+00  9.99580E-01  6.96078E-01  4.51236E-01  2.60505E-01
   1.16440E-01  1.06796E-02 -6.46606E-02 -1.16138E-01 -1.48652E-01 -1.65422E-01 -1.68226E-01 -1.57694E-01 -1.33611E-01 -9.51567E-02
  -4.10654E-02  3.02321E-02  1.20512E-01  2.31639E-01  3.65506E-01  5.23946E-01  7.08668E-01  9.21129E-01  1.16240E+00  1.43297E+00
   1.73263E+00  2.06027E+00  2.41376E+00  2.78983E+00  3.18394E+00  3.59024E+00  4.00166E+00  4.41004E+00  4.80636E+00  5.18102E+00
   5.52422E+00  5.82640E+00  6.07871E+00  6.27345E+00  6.40454E+00  6.46776E+00  6.46107E+00  6.38470E+00  6.24114E+00  6.03502E+00
   5.77283E+00  5.46258E+00  5.11330E+00  4.73468E+00  4.33651E+00  3.92835E+00  3.51907E+00  3.11658E+00  2.72758E+00  2.35752E+00
   2.01050E+00  1.68936E+00  1.39572E+00  1.13017E+00  8.92417E-01  6.81470E-01  4.95861E-01  3.33754E-01  1.93122E-01  7.18179E-02
  -3.22508E-02 -1.21122E-01 -1.96654E-01 -2.60585E-01 -3.14455E-01 -3.59663E-01 -3.97397E-01 -4.28700E-01 -4.54446E-01 -4.75407E-01
  -4.92234E-01 -5.05490E-01 -5.15639E-01 -5.23068E-01 -5.28114E-01 -5.31059E-01 -5.32172E-01 -5.31654E-01 -5.29691E-01 -5.26420E-01
  -5.21980E-01 -5.16493E-01 -5.10071E-01 -5.02801E-01 -4.94754E-01 -4.85992E-01 -4.76578E-01 -4.66581E-01 -4.56044E-01 -4.45019E-01
  -4.33516E-01 -4.21589E-01 -4.09251E-01 -3.96561E-01 -3.83525E-01 -3.70177E-01 -3.56512E-01 -3.42568E-01 -3.28358E-01 -3.13912E-01
  -2.99232E-01 -2.84330E-01 -2.69203E-01 -2.53877E-01 -2.38360E-01 -2.22670E-01 -2.06802E-01 -1.90759E-01 -1.74545E-01 -1.58174E-01
  -1.41653E-01 -1.24986E-01 -1.08163E-01 -9.11837E-02 -7.40508E-02 -5.67737E-02 -3.93524E-02 -2.17792E-02 -4.04338E-03  1.38611E-02
   3.19341E-02  5.01782E-02  6.86048E-02  8.72353E-02  1.06090E-01  1.25186E-01  1.44541E-01  1.64181E-01
 NY background values follow
     2.276E-02    5.482E-03   -1.180E-02   -2.909E-02   -4.638E-02   -6.367E-02   -8.097E-02   -9.827E-02   -1.156E-01   -1.329E-01
    -1.502E-01   -1.675E-01   -1.848E-01   -2.021E-01   -2.194E-01   -2.367E-01   -2.540E-01   -2.713E-01   -2.886E-01   -3.059E-01
    -3.232E-01   -3.405E-01   -3.577E-01   -3.750E-01   -3.923E-01   -4.095E-01   -4.268E-01   -4.440E-01   -4.612E-01   -4.784E-01
    -4.956E-01   -5.128E-01   -5.300E-01   -5.472E-01   -5.644E-01   -5.815E-01   -5.986E-01   -6.157E-01   -6.328E-01   -6.499E-01
    -6.670E-01   -6.840E-01   -7.011E-01   -7.181E-01   -7.351E-01   -7.521E-01   -7.690E-01   -7.860E-01   -8.029E-01   -8.198E-01
    -8.366E-01   -8.535E-01   -8.703E-01   -8.871E-01   -9.039E-01   -9.206E-01   -9.373E-01   -9.540E-01   -9.706E-01   -9.872E-01
    -1.004E+00   -1.020E+00   -1.037E+00   -1.053E+00   -1.070E+00   -1.086E+00   -1.103E+00   -1.119E+00   -1.135E+00   -1.151E+00
    -1.168E+00   -1.184E+00   -1.200E+00   -1.216E+00   -1.232E+00   -1.248E+00   -1.264E+00   -1.280E+00   -1.295E+00   -1.311E+00
    -1.327E+00   -1.343E+00   -1.358E+00   -1.374E+00   -1.389E+00   -1.405E+00   -1.420E+00   -1.435E+00   -1.451E+00   -1.466E+00
    -1.481E+00   -1.496E+00   -1.511E+00   -1.526E+00   -1.541E+00   -1.556E+00   -1.571E+00   -1.585E+00   -1.600E+00   -1.615E+00
    -1.629E+00   -1.643E+00   -1.658E+00   -1.672E+00   -1.686E+00   -1.701E+00   -1.715E+00   -1.729E+00   -1.743E+00   -1.757E+00
    -1.771E+00   -1.784E+00   -1.798E+00   -1.812E+00   -1.825E+00   -1.839E+00   -1.852E+00   -1.866E+00   -1.879E+00   -1.892E+00
    -1.906E+00   -1.919E+00   -1.932E+00   -1.945E+00   -1.958E+00   -1.971E+00   -1.983E+00   -1.996E+00   -2.009E+00   -2.021E+00
    -2.034E+00   -2.046E+00   -2.059E+00   -2.071E+00   -2.083E+00   -2.095E+00   -2.107E+00   -2.119E+00   -2.131E+00   -2.143E+00
    -2.155E+00   -2.167E+00   -2.179E+00   -2.190E+00   -2.202E+00   -2.213E+00   -2.224E+00   -2.236E+00   -2.247E+00   -2.258E+00
    -2.269E+00   -2.280E+00   -2.291E+00   -2.302E+00   -2.313E+00   -2.323E+00   -2.334E+00   -2.344E+00   -2.355E+00   -2.365E+00
    -2.375E+00   -2.385E+00   -2.395E+00   -2.405E+00   -2.415E+00   -2.425E+00   -2.435E+00   -2.444E+00   -2.454E+00   -2.463E+00
    -2.472E+00   -2.481E+00   -2.491E+00   -2.500E+00   -2.509E+00   -2.517E+00   -2.526E+00   -2.535E+00   -2.543E+00   -2.552E+00
    -2.560E+00   -2.568E+00   -2.576E+00   -2.584E+00   -2.592E+00   -2.600E+00   -2.608E+00   -2.615E+00   -2.623E+00   -2.630E+00
    -2.637E+00   -2.644E+00   -2.651E+00   -2.658E+00   -2.665E+00   -2.672E+00   -2.679E+00   -2.685E+00   -2.692E+00   -2.698E+00
    -2.704E+00   -2.710E+00   -2.716E+00   -2.722E+00   -2.728E+00   -2.733E+00   -2.739E+00   -2.744E+00   -2.750E+00   -2.755E+00
    -2.760E+00   -2.765E+00   -2.770E+00   -2.775E+00   -2.779E+00   -2.784E+00   -2.788E+00   -2.793E+00   -2.797E+00   -2.801E+00
    -2.805E+00   -2.809E+00   -2.813E+00   -2.816E+00   -2.820E+00   -2.823E+00   -2.827E+00   -2.830E+00   -2.833E+00   -2.836E+00
    -2.839E+00   -2.842E+00   -2.844E+00   -2.847E+00   -2.849E+00   -2.851E+00   -2.854E+00   -2.856E+00   -2.858E+00   -2.859E+00
    -2.861E+00   -2.863E+00   -2.864E+00   -2.866E+00   -2.867E+00   -2.868E+00   -2.869E+00   -2.870E+00   -2.871E+00   -2.871E+00
    -2.872E+00   -2.872E+00   -2.872E+00   -2.873E+00   -2.873E+00   -2.872E+00   -2.872E+00   -2.872E+00   -2.871E+00   -2.871E+00
    -2.870E+00   -2.869E+00   -2.868E+00   -2.867E+00   -2.866E+00   -2.865E+00   -2.863E+00   -2.862E+00   -2.860E+00   -2.858E+00
    -2.856E+00   -2.854E+00   -2.852E+00   -2.850E+00   -2.847E+00   -2.845E+00   -2.842E+00   -2.839E+00   -2.836E+00   -2.833E+00
    -2.830E+00   -2.827E+00   -2.823E+00   -2.819E+00   -2.816E+00   -2.812E+00   -2.808E+00   -2.804E+00   -2.800E+00   -2.795E+00
    -2.791E+00   -2.786E+00   -2.781E+00   -2.776E+00   -2.771E+00   -2.766E+00   -2.761E+00   -2.756E+00   -2.750E+00   -2.744E+00
    -2.739E+00   -2.733E+00   -2.727E+00   -2.720E+00   -2.714E+00   -2.708E+00   -2.701E+00   -2.694E+00   -2.688E+00   -2.681E+00
    -2.674E+00   -2.666E+00   -2.659E+00   -2.652E+00   -2.644E+00   -2.636E+00   -2.628E+00   -2.620E+00   -2.612E+00   -2.604E+00
    -2.596E+00   -2.587E+00   -2.578E+00   -2.570E+00   -2.561E+00   -2.552E+00   -2.543E+00   -2.533E+00   -2.524E+00   -2.514E+00
    -2.505E+00   -2.495E+00   -2.485E+00   -2.475E+00   -2.465E+00   -2.455E+00   -2.444E+00   -2.434E+00   -2.423E+00   -2.412E+00
    -2.402E+00   -2.391E+00   -2.379E+00   -2.368E+00   -2.357E+00   -2.345E+00   -2.334E+00   -2.322E+00   -2.310E+00   -2.299E+00
    -2.287E+00   -2.274E+00   -2.262E+00   -2.250E+00   -2.237E+00   -2.225E+00   -2.212E+00   -2.199E+00   -2.186E+00   -2.173E+00
    -2.160E+00   -2.147E+00   -2.134E+00   -2.120E+00   -2.107E+00   -2.093E+00   -2.079E+00   -2.065E+00   -2.051E+00   -2.037E+00
    -2.023E+00   -2.009E+00   -1.994E+00   -1.980E+00   -1.965E+00   -1.951E+00   -1.936E+00   -1.921E+00   -1.906E+00   -1.891E+00
    -1.876E+00   -1.861E+00   -1.845E+00   -1.830E+00   -1.815E+00   -1.799E+00   -1.783E+00   -1.768E+00   -1.752E+00   -1.736E+00
    -1.720E+00   -1.704E+00   -1.688E+00   -1.672E+00   -1.655E+00   -1.639E+00   -1.623E+00   -1.606E+00   -1.590E+00   -1.573E+00
    -1.556E+00   -1.540E+00   -1.523E+00   -1.506E+00   -1.489E+00   -1.472E+00   -1.455E+00   -1.438E+00   -1.421E+00   -1.403E+00
    -1.386E+00   -1.369E+00   -1.351E+00   -1.334E+00   -1.316E+00   -1.298E+00   -1.281E+00   -1.263E+00   -1.245E+00   -1.228E+00
    -1.210E+00   -1.192E+00   -1.174E+00   -1.156E+00   -1.138E+00   -1.120E+00   -1.102E+00   -1.083E+00   -1.065E+00   -1.047E+00
    -1.029E+00   -1.011E+00   -9.922E-01   -9.738E-01   -9.554E-01   -9.370E-01   -9.185E-01   -9.000E-01   -8.815E-01   -8.630E-01
    -8.444E-01   -8.258E-01   -8.072E-01   -7.886E-01   -7.699E-01   -7.512E-01   -7.325E-01   -7.138E-01   -6.951E-01   -6.763E-01
    -6.576E-01   -6.388E-01   -6.200E-01   -6.012E-01   -5.824E-01   -5.636E-01   -5.448E-01   -5.259E-01   -5.071E-01   -4.882E-01
    -4.694E-01   -4.505E-01   -4.316E-01   -4.127E-01   -3.938E-01   -3.749E-01   -3.560E-01   -3.371E-01   -3.182E-01   -2.992E-01
    -2.803E-01   -2.614E-01   -2.424E-01   -2.235E-01   -2.046E-01   -1.856E-01   -1.666E-01   -1.477E-01   -1.287E-01   -1.098E-01
    -9.082E-02   -7.186E-02   -5.290E-02   -3.394E-02   -1.498E-02    3.980E-03    2.294E-02    4.190E-02    6.085E-02    7.980E-02
     9.875E-02    1.177E-01    1.366E-01    1.556E-01    1.745E-01    1.935E-01    2.124E-01    2.313E-01
 Cr       Conc. = 1.54E+03
