 LCModel (Version 6.3-1L) Copyright: S.W. Provencher.          Ref.: Magn. Reson. Med. 30:672-679 (1993).                
 Slice#3 Row#3 Col#10  PD_24_press_1_raw_act
 36 lines in following concentration table = NCONC+1
    Conc.  %SD /Cr+PCr  Metabolite                                         
  437.180  32%   0.537 Ala                                                 
   39.240 361% 4.8E-02 Asp                                                 
    0.000 999%   0.000 Cr                                                  
  814.683   9%   1.000 PCr                                                 
    0.000 999%   0.000 GABA                                                
   24.506 360% 3.0E-02 Glc                                                 
  533.515  55%   0.655 Gln                                                 
  889.975  37%   1.092 Glu                                                 
  236.541  11%   0.290 GPC                                                 
    0.000 999%   0.000 PCh                                                 
  271.090  31%   0.333 GSH                                                 
  349.823  81%   0.429 Ins                                                 
    0.000 999%   0.000 Lac                                                 
  979.924   8%   1.203 NAA                                                 
    0.000 999%   0.000 NAAG                                                
    0.000 999%   0.000 Scyllo                                              
    0.000 999%   0.000 Tau                                                 
  215.347  50%   0.264 -CrCH2                                              
  236.541  11%   0.290 GPC+PCh                                             
  979.924   8%   1.203 NAA+NAAG                                            
  814.683   9%   1.000 Cr+PCr                                              
 1.42E+03  36%   1.747 Glu+Gln                                             
    0.000 999%   0.000 Lip13a                                              
    0.000 999%   0.000 Lip13b                                              
    0.000 999%   0.000 Lip09                                               
  678.027  28%   0.832 MM09                                                
    0.000 999%   0.000 Lip20                                               
    0.000 999%   0.000 MM20                                                
    0.000 999%   0.000 MM12                                                
 5.06E+03   4%   6.208+MM14                                                
 3.90E+03  12%   4.791+MM17                                                
    0.000 999%   0.000 Lip13a+Lip13b                                       
 5.06E+03   4%   6.208 MM14+Lip13a+Lip13b+MM12                             
  678.027  28%   0.832 MM09+Lip09                                          
    0.000 999%   0.000 MM20+Lip20                                          
   6 lines in following misc. output table
  FWHM = 0.076 ppm    S/N =   5                                            
  Data shift = 0.000 ppm                                                   
  Ph: -25 deg     -45.7 deg/ppm                                            
  alphaB,S = 2.5E-01,   7.5E+01                                            
   14 spline knots.   Ns = 9(1)                                            
  (16) 2 infls.   (10) 2 extrs.                                            
  498 points on ppm-axis = NY
      4.000000     3.992357     3.984714     3.977070     3.969427     3.961784     3.954141     3.946497     3.938854     3.931211
      3.923568     3.915925     3.908281     3.900638     3.892995     3.885352     3.877708     3.870065     3.862422     3.854779
      3.847136     3.839492     3.831849     3.824206     3.816563     3.808919     3.801276     3.793633     3.785990     3.778347
      3.770703     3.763060     3.755417     3.747774     3.740130     3.732487     3.724844     3.717201     3.709558     3.701914
      3.694271     3.686628     3.678985     3.671341     3.663698     3.656055     3.648412     3.640769     3.633125     3.625482
      3.617839     3.610196     3.602552     3.594909     3.587266     3.579623     3.571980     3.564336     3.556693     3.549050
      3.541407     3.533763     3.526120     3.518477     3.510834     3.503191     3.495547     3.487904     3.480261     3.472618
      3.464974     3.457331     3.449688     3.442045     3.434402     3.426758     3.419115     3.411472     3.403829     3.396185
      3.388542     3.380899     3.373256     3.365613     3.357969     3.350326     3.342683     3.335040     3.327396     3.319753
      3.312110     3.304467     3.296824     3.289180     3.281537     3.273894     3.266251     3.258607     3.250964     3.243321
      3.235678     3.228034     3.220391     3.212748     3.205105     3.197462     3.189818     3.182175     3.174532     3.166889
      3.159245     3.151602     3.143959     3.136316     3.128673     3.121029     3.113386     3.105743     3.098100     3.090456
      3.082813     3.075170     3.067527     3.059884     3.052240     3.044597     3.036954     3.029311     3.021667     3.014024
      3.006381     2.998738     2.991095     2.983451     2.975808     2.968165     2.960522     2.952878     2.945235     2.937592
      2.929949     2.922306     2.914662     2.907019     2.899376     2.891733     2.884089     2.876446     2.868803     2.861160
      2.853517     2.845873     2.838230     2.830587     2.822944     2.815300     2.807657     2.800014     2.792371     2.784728
      2.777084     2.769441     2.761798     2.754155     2.746511     2.738868     2.731225     2.723582     2.715939     2.708295
      2.700652     2.693009     2.685366     2.677722     2.670079     2.662436     2.654793     2.647150     2.639506     2.631863
      2.624220     2.616577     2.608933     2.601290     2.593647     2.586004     2.578361     2.570717     2.563074     2.555431
      2.547788     2.540144     2.532501     2.524858     2.517215     2.509572     2.501928     2.494285     2.486642     2.478999
      2.471355     2.463712     2.456069     2.448426     2.440783     2.433139     2.425496     2.417853     2.410210     2.402566
      2.394923     2.387280     2.379637     2.371994     2.364350     2.356707     2.349064     2.341421     2.333777     2.326134
      2.318491     2.310848     2.303205     2.295561     2.287918     2.280275     2.272632     2.264988     2.257345     2.249702
      2.242059     2.234416     2.226772     2.219129     2.211486     2.203843     2.196199     2.188556     2.180913     2.173270
      2.165627     2.157983     2.150340     2.142697     2.135054     2.127410     2.119767     2.112124     2.104481     2.096838
      2.089194     2.081551     2.073908     2.066265     2.058621     2.050978     2.043335     2.035692     2.028049     2.020405
      2.012762     2.005119     1.997476     1.989833     1.982190     1.974546     1.966903     1.959260     1.951617     1.943974
      1.936331     1.928688     1.921045     1.913402     1.905759     1.898115     1.890472     1.882829     1.875186     1.867543
      1.859900     1.852257     1.844614     1.836971     1.829327     1.821684     1.814041     1.806398     1.798755     1.791112
      1.783469     1.775826     1.768183     1.760540     1.752896     1.745253     1.737610     1.729967     1.722324     1.714681
      1.707038     1.699395     1.691752     1.684108     1.676465     1.668822     1.661179     1.653536     1.645893     1.638250
      1.630607     1.622964     1.615321     1.607677     1.600034     1.592391     1.584748     1.577105     1.569462     1.561819
      1.554176     1.546533     1.538890     1.531246     1.523603     1.515960     1.508317     1.500674     1.493031     1.485388
      1.477745     1.470102     1.462458     1.454815     1.447172     1.439529     1.431886     1.424243     1.416600     1.408957
      1.401314     1.393671     1.386027     1.378384     1.370741     1.363098     1.355455     1.347812     1.340169     1.332526
      1.324883     1.317240     1.309596     1.301953     1.294310     1.286667     1.279024     1.271381     1.263738     1.256095
      1.248452     1.240808     1.233165     1.225522     1.217879     1.210236     1.202593     1.194950     1.187307     1.179664
      1.172021     1.164377     1.156734     1.149091     1.141448     1.133805     1.126162     1.118519     1.110876     1.103233
      1.095590     1.087946     1.080303     1.072660     1.065017     1.057374     1.049731     1.042088     1.034445     1.026802
      1.019158     1.011515     1.003872     0.996229     0.988586     0.980943     0.973300     0.965657     0.958014     0.950371
      0.942727     0.935084     0.927441     0.919798     0.912155     0.904512     0.896869     0.889226     0.881583     0.873940
      0.866296     0.858653     0.851010     0.843367     0.835724     0.828081     0.820438     0.812795     0.805152     0.797508
      0.789865     0.782222     0.774579     0.766936     0.759293     0.751650     0.744007     0.736364     0.728721     0.721077
      0.713434     0.705791     0.698148     0.690505     0.682862     0.675219     0.667576     0.659933     0.652290     0.644646
      0.637003     0.629360     0.621717     0.614074     0.606431     0.598788     0.591145     0.583502     0.575858     0.568215
      0.560572     0.552929     0.545286     0.537643     0.530000     0.522357     0.514714     0.507071     0.499427     0.491784
      0.484141     0.476498     0.468855     0.461212     0.453569     0.445925     0.438282     0.430639     0.422996     0.415353
      0.407710     0.400067     0.392424     0.384780     0.377137     0.369494     0.361851     0.354208     0.346565     0.338922
      0.331278     0.323635     0.315992     0.308349     0.300706     0.293063     0.285420     0.277777     0.270133     0.262490
      0.254847     0.247204     0.239561     0.231918     0.224275     0.216631     0.208988     0.201345
 NY phased data points follow
   3.18732E+01  3.06462E+01  2.85455E+01  3.41213E+01  3.02372E+01  3.06517E+01  3.61804E+01  3.50140E+01  4.08230E+01  3.59629E+01
   3.83172E+01  3.54094E+01  3.59691E+01  3.25617E+01  3.21367E+01  2.89922E+01  2.68829E+01  2.29819E+01  2.32503E+01  2.32377E+01
   2.03783E+01  1.80279E+01  1.99044E+01  1.79419E+01  1.92101E+01  1.71283E+01  1.89116E+01  1.87060E+01  2.41008E+01  2.00999E+01
   2.31633E+01  2.32841E+01  1.79435E+01  1.77262E+01  1.82598E+01  1.86250E+01  1.90654E+01  1.32499E+01  1.57552E+01  1.55829E+01
   1.51148E+01  1.33013E+01  1.41615E+01  1.45328E+01  1.44615E+01  1.31238E+01  1.59402E+01  1.33746E+01  1.37082E+01  1.61101E+01
   1.38822E+01  1.33101E+01  1.02557E+01  1.00056E+01  1.05471E+01  1.01585E+01  6.24689E+00  8.65931E+00  9.71214E+00  5.52701E+00
   5.69868E+00  7.10507E+00  5.80378E+00  5.26805E+00  4.50117E+00  9.57983E-01  3.72332E+00  2.17327E+00  9.80672E-01  6.55492E-01
   1.42473E+00 -1.79339E+00  4.25488E+00 -4.41568E-01  2.49079E+00 -2.27977E+00  4.85835E-01  1.25075E+00 -5.25150E-01 -1.95812E-01
  -3.47420E+00 -1.94270E+00  1.03633E+00  2.66174E-01  1.26627E+00 -2.08911E+00 -5.64877E+00 -2.55699E+00 -2.50280E+00 -2.07510E+00
  -2.63662E+00 -4.25114E+00 -6.48418E+00 -2.32209E+00 -3.77055E+00 -1.07636E+00 -9.96445E-01 -2.43109E+00 -1.33738E-01  4.06955E+00
   4.68477E+00  1.14006E+01  1.96704E+01  1.97753E+01  1.57278E+01  1.50579E+01  1.70600E+01  1.26440E+01  1.06470E+01  7.11245E+00
   3.90876E+00  3.30241E+00  4.66632E-01 -4.09595E+00  5.21338E-01 -1.48303E+00 -2.70629E+00 -1.01147E+00 -3.26030E+00 -5.60419E+00
  -5.62051E+00 -3.04132E+00 -4.25772E-01  1.09896E+00  5.69282E+00  1.44369E+01  1.74874E+01  1.94247E+01  2.21590E+01  2.02765E+01
   1.74144E+01  1.63563E+01  1.10114E+01  1.23215E+01  5.15683E+00  3.87638E+00  2.56370E+00  2.45836E+00 -5.16702E-01 -3.65226E-01
   7.01194E-02  1.93301E+00 -2.78005E+00 -1.78747E-01 -4.16025E-01  9.69414E-01 -2.00330E+00 -2.10683E+00  1.78661E-01 -2.74396E+00
  -3.36811E+00  1.68002E+00 -3.38128E+00 -2.35343E+00 -2.07586E+00 -3.20696E+00 -6.67666E+00 -2.04993E+00 -6.33898E+00 -2.63084E+00
  -5.57202E+00 -4.80057E+00 -4.66408E+00 -3.50460E+00 -4.57301E+00 -5.30758E+00 -3.94299E+00 -6.97336E+00 -8.06637E+00 -9.38084E+00
  -3.97257E+00 -8.13318E+00 -8.03298E+00 -5.98249E+00 -6.33361E+00 -6.32412E+00 -1.07542E+01 -8.51704E+00 -9.15125E+00 -1.11941E+01
  -1.06567E+01 -1.10983E+01 -8.69453E+00 -7.16560E+00 -1.05218E+01 -9.67193E+00 -1.28286E+01 -1.45773E+01 -1.05393E+01 -9.34428E+00
  -8.43464E+00 -5.17783E+00 -5.74682E+00 -4.22328E+00 -8.24607E+00 -6.62956E+00 -5.54376E+00 -5.88669E+00 -6.33774E+00 -3.70299E+00
  -1.14514E+01 -7.05072E+00 -6.17698E+00 -7.24340E+00 -6.21963E+00 -3.09714E+00 -8.36972E+00 -6.66411E+00 -6.45036E+00 -5.73662E+00
  -5.66357E+00 -7.65650E+00 -4.79763E+00 -6.73252E+00 -6.02360E+00 -1.11619E+00 -4.08791E+00 -4.91833E+00 -3.35394E+00 -6.98808E+00
  -4.11696E+00 -1.18750E+01 -7.19287E+00 -8.06948E+00 -1.02590E+01 -8.01631E+00 -5.20023E+00 -7.67349E+00 -8.20846E+00 -3.71953E+00
  -4.92895E+00 -3.24869E+00 -8.61882E+00 -6.87985E+00 -8.85291E+00 -9.81562E+00 -5.17059E+00 -3.88434E+00 -6.70376E+00 -3.82927E+00
  -5.10646E+00 -7.63247E+00 -5.05304E+00 -7.66988E+00 -8.65071E+00 -8.76957E+00 -1.36370E+01 -8.52649E+00 -1.48756E+01 -1.10881E+01
  -1.39063E+01 -1.14867E+01 -1.13266E+01 -1.33705E+01 -8.91543E+00 -8.88089E+00 -9.49190E+00 -4.73681E+00  6.05566E-01  9.99482E+00
   1.69245E+01  2.48783E+01  2.72563E+01  2.76124E+01  2.43265E+01  2.38762E+01  2.12363E+01  2.36503E+01  1.80939E+01  1.88584E+01
   1.52799E+01  1.50130E+01  1.50218E+01  1.33623E+01  1.24481E+01  8.02445E+00  1.06864E+01  7.68205E+00  1.12957E+01  1.16562E+01
   7.15760E+00  9.97821E+00  1.29177E+01  1.01684E+01  1.35842E+01  1.49401E+01  8.08613E+00  1.27098E+01  1.19939E+01  1.19035E+01
   1.10232E+01  1.57877E+01  1.26616E+01  1.37841E+01  1.23341E+01  1.50551E+01  1.23972E+01  1.49399E+01  1.39872E+01  1.83638E+01
   1.54233E+01  1.22347E+01  1.42701E+01  1.44404E+01  1.25155E+01  1.67771E+01  1.62635E+01  2.20345E+01  1.80826E+01  1.93803E+01
   2.35863E+01  2.08281E+01  2.06674E+01  2.73343E+01  2.44442E+01  2.57017E+01  2.63854E+01  2.54155E+01  2.86770E+01  2.78478E+01
   2.68771E+01  2.57288E+01  2.94593E+01  2.98804E+01  3.23414E+01  3.24602E+01  3.12075E+01  3.14529E+01  3.51591E+01  3.25466E+01
   3.44558E+01  3.20834E+01  3.58062E+01  3.84785E+01  3.51289E+01  3.72552E+01  3.65976E+01  3.23853E+01  3.55714E+01  3.34918E+01
   3.71083E+01  3.27402E+01  2.58547E+01  2.64636E+01  2.12138E+01  1.78622E+01  1.22655E+01  8.69994E+00  5.43335E+00  1.70071E+00
  -7.43290E-01 -4.83114E+00 -4.25069E+00 -4.71283E+00 -2.19304E+00 -5.16144E+00 -5.97750E+00 -2.33559E+00 -4.59940E+00 -5.70209E+00
  -9.81451E+00 -1.01766E+01 -1.09431E+01 -1.10014E+01 -1.35232E+01 -1.10736E+01 -9.93806E+00 -1.10066E+01 -1.21354E+01 -1.19527E+01
  -7.56300E+00 -9.32338E+00 -1.04965E+01 -6.90354E+00 -9.85974E+00 -8.14589E+00 -6.77794E+00 -5.29103E+00 -6.07739E+00 -4.84934E+00
  -7.29433E+00 -7.03469E+00 -6.66675E+00 -9.73719E-01 -6.81928E+00 -5.31835E+00 -5.88581E+00 -4.62961E+00 -6.46732E+00 -4.38071E+00
  -3.07679E+00 -3.97456E+00 -6.24686E+00 -3.74085E+00 -5.30646E+00 -3.34631E+00 -3.15046E+00 -3.17047E+00 -2.47606E+00 -3.71749E+00
  -4.21334E+00 -5.98730E+00 -3.69483E+00 -5.40216E+00 -9.21936E+00 -2.82997E+00 -2.06757E+00 -4.73531E+00 -2.78306E+00 -3.92188E-02
  -6.20405E-01  1.27198E+00 -1.19113E+00 -1.04112E+00  1.95906E+00  2.51581E+00  2.55450E+00  6.13365E-01  3.74511E-01  1.25139E+00
  -1.55296E+00  2.73612E+00  3.44821E-01  5.59918E-01 -3.65232E+00  1.02786E-01  3.09462E+00  1.09459E+00  1.57108E+00 -2.13147E+00
   2.97831E+00 -1.54490E+00 -2.31249E+00 -1.16064E+00  2.44144E+00  9.12529E-01 -5.13099E-01  1.23431E+00 -8.31253E-02 -7.66580E-01
   2.14099E+00  3.85929E+00  1.63527E-01 -3.13727E-01  6.28018E-01  2.82374E+00  2.56089E-01 -1.21662E+00 -3.84543E+00 -9.81340E-01
  -4.65302E+00 -1.81008E-01  8.17340E-03 -2.47024E-01 -4.05173E+00 -2.29065E+00  8.17594E-01 -4.03529E+00  1.02363E+00  2.91213E-01
   1.86562E+00  8.24642E-01 -1.51515E+00 -1.19027E+00 -3.90886E+00 -2.24079E+00 -3.68230E-01 -3.29740E+00 -1.41395E+00 -8.10807E-01
  -1.55448E+00  1.00219E-02 -1.00992E+00  3.42480E+00 -8.26959E-01 -1.21234E+00  4.57059E-01 -1.86694E+00 -2.16723E+00 -2.76173E+00
  -1.87438E+00 -1.89069E+00 -1.61588E+00 -5.44022E+00 -9.97531E-02 -6.05759E-01 -3.41011E+00  3.01896E-01 -4.87098E-01 -1.81850E+00
  -2.81171E+00 -5.19132E-01 -7.40093E-01 -3.08375E+00 -1.33377E+00  1.19567E-01 -3.11590E-01 -3.08417E-01
 NY points of the fit to the data follow
   2.74087E+01  2.66759E+01  2.64243E+01  2.66936E+01  2.77356E+01  2.95903E+01  3.19921E+01  3.44045E+01  3.61196E+01  3.67261E+01
   3.63518E+01  3.54636E+01  3.43890E+01  3.32151E+01  3.18860E+01  3.03053E+01  2.83568E+01  2.60691E+01  2.38096E+01  2.27377E+01
   2.25142E+01  2.20477E+01  2.14893E+01  2.08041E+01  1.98778E+01  1.88849E+01  1.81711E+01  1.80427E+01  1.85544E+01  1.95354E+01
   2.06424E+01  2.15213E+01  2.19435E+01  2.17986E+01  2.11636E+01  2.02853E+01  1.94043E+01  1.85299E+01  1.75378E+01  1.62367E+01
   1.48447E+01  1.38236E+01  1.29617E+01  1.23451E+01  1.21894E+01  1.24231E+01  1.28219E+01  1.31373E+01  1.32186E+01  1.29768E+01
   1.24718E+01  1.17733E+01  1.10094E+01  1.03100E+01  9.67408E+00  9.03008E+00  8.40493E+00  7.82392E+00  7.31352E+00  6.93815E+00
   6.68433E+00  6.42684E+00  6.09838E+00  5.69558E+00  5.26342E+00  4.85839E+00  4.50217E+00  4.19428E+00  3.91610E+00  3.63794E+00
   3.37903E+00  3.16632E+00  2.98914E+00  2.83629E+00  2.67873E+00  2.50321E+00  2.30505E+00  2.08302E+00  1.86023E+00  1.64071E+00
   1.41730E+00  1.16815E+00  8.81220E-01  5.76792E-01  2.40711E-01 -1.44992E-01 -5.66663E-01 -9.89969E-01 -1.36837E+00 -1.66207E+00
  -1.86779E+00 -2.02708E+00 -2.33404E+00 -3.30155E+00 -4.37548E+00 -4.76681E+00 -4.37575E+00 -3.12043E+00 -7.71813E-01  2.80187E+00
   7.29901E+00  1.18572E+01  1.53365E+01  1.70159E+01  1.70275E+01  1.60496E+01  1.46744E+01  1.31613E+01  1.15054E+01  9.53817E+00
   7.04093E+00  3.85154E+00  4.63200E-01 -1.47116E+00 -2.10518E+00 -2.46526E+00 -2.99113E+00 -4.24090E+00 -5.52114E+00 -5.97834E+00
  -5.50239E+00 -3.97970E+00 -1.14268E+00  3.11104E+00  8.35818E+00  1.35908E+01  1.75922E+01  1.96063E+01  1.98122E+01  1.89744E+01
   1.76923E+01  1.61619E+01  1.42857E+01  1.18308E+01  8.58195E+00  4.47707E+00  2.96654E-01 -2.01721E+00 -2.71906E+00 -2.91359E+00
  -2.94258E+00 -2.95762E+00 -3.03184E+00 -3.14313E+00 -3.17475E+00 -3.09278E+00 -3.01475E+00 -3.01118E+00 -3.11159E+00 -3.33754E+00
  -3.63235E+00 -3.94573E+00 -4.20942E+00 -4.36381E+00 -4.46087E+00 -4.54995E+00 -4.65681E+00 -4.80899E+00 -4.99525E+00 -5.19698E+00
  -5.40691E+00 -5.60307E+00 -5.73741E+00 -5.78115E+00 -5.75971E+00 -5.74244E+00 -5.79175E+00 -5.90943E+00 -6.05192E+00 -6.19256E+00
  -6.35359E+00 -6.51721E+00 -6.68283E+00 -6.91670E+00 -7.24438E+00 -7.63281E+00 -7.97575E+00 -8.16549E+00 -8.23335E+00 -8.26559E+00
  -8.35731E+00 -8.56029E+00 -8.81240E+00 -9.03481E+00 -9.16688E+00 -9.17161E+00 -9.03220E+00 -8.71313E+00 -8.24769E+00 -7.74076E+00
  -7.25538E+00 -6.89654E+00 -6.77577E+00 -6.94773E+00 -7.29101E+00 -7.61933E+00 -7.88123E+00 -7.95278E+00 -7.76337E+00 -7.42878E+00
  -6.93183E+00 -6.17166E+00 -5.35737E+00 -4.70764E+00 -4.34309E+00 -4.39170E+00 -4.96234E+00 -6.09258E+00 -7.41623E+00 -8.51020E+00
  -9.08699E+00 -9.05629E+00 -8.42258E+00 -7.31520E+00 -6.12101E+00 -5.26653E+00 -4.84136E+00 -4.87597E+00 -5.37343E+00 -6.12287E+00
  -7.02067E+00 -8.04816E+00 -8.78518E+00 -8.97744E+00 -8.82156E+00 -8.58138E+00 -8.22440E+00 -7.53976E+00 -6.86131E+00 -6.30710E+00
  -5.75193E+00 -5.12130E+00 -4.55044E+00 -4.23933E+00 -4.10859E+00 -3.99270E+00 -3.86120E+00 -3.76691E+00 -3.73305E+00 -3.81461E+00
  -3.96414E+00 -4.12488E+00 -4.32876E+00 -4.52599E+00 -4.60564E+00 -4.55802E+00 -4.49954E+00 -4.54079E+00 -4.52010E+00 -4.30839E+00
  -3.98919E+00 -3.73228E+00 -4.05878E+00 -4.91505E+00 -5.19690E+00 -4.52106E+00 -2.71548E+00  5.38112E-01  5.49934E+00  1.19686E+01
   1.88485E+01  2.44811E+01  2.76131E+01  2.81587E+01  2.70056E+01  2.51295E+01  2.30530E+01  2.08368E+01  1.82809E+01  1.50692E+01
   1.09943E+01  6.44893E+00  3.37174E+00  2.66274E+00  2.69720E+00  2.92696E+00  3.19953E+00  3.48361E+00  3.79734E+00  4.13701E+00
   4.50182E+00  4.89139E+00  5.29400E+00  5.70202E+00  6.13665E+00  6.61847E+00  7.14681E+00  7.71829E+00  8.33326E+00  8.99202E+00
   9.69076E+00  1.04167E+01  1.11619E+01  1.19240E+01  1.26966E+01  1.34705E+01  1.42359E+01  1.49817E+01  1.56963E+01  1.63664E+01
   1.69810E+01  1.75307E+01  1.80065E+01  1.84015E+01  1.87132E+01  1.89424E+01  1.90939E+01  1.91769E+01  1.92047E+01  1.91952E+01
   1.91701E+01  1.91544E+01  1.91754E+01  1.92612E+01  1.94397E+01  1.97331E+01  2.01480E+01  2.06646E+01  2.14515E+01  2.27608E+01
   2.44921E+01  2.65304E+01  2.88185E+01  3.12428E+01  3.35768E+01  3.53886E+01  3.62362E+01  3.62830E+01  3.59017E+01  3.54075E+01
   3.50068E+01  3.48144E+01  3.48909E+01  3.51881E+01  3.54816E+01  3.54509E+01  3.49698E+01  3.42767E+01  3.33646E+01  3.18968E+01
   2.99840E+01  2.77498E+01  2.52333E+01  2.23835E+01  1.91011E+01  1.56447E+01  1.25995E+01  9.92901E+00  7.53723E+00  5.39651E+00
   3.49544E+00  1.82420E+00  3.71033E-01 -8.78625E-01 -1.94147E+00 -2.83589E+00 -3.58086E+00 -4.19551E+00 -4.69810E+00 -5.10576E+00
  -5.43383E+00 -5.69595E+00 -5.90382E+00 -6.06764E+00 -6.19588E+00 -6.29556E+00 -6.37213E+00 -6.43002E+00 -6.47254E+00 -6.50234E+00
  -6.52127E+00 -6.53073E+00 -6.53160E+00 -6.52460E+00 -6.51010E+00 -6.48843E+00 -6.45962E+00 -6.42366E+00 -6.38037E+00 -6.32961E+00
  -6.27109E+00 -6.20453E+00 -6.12942E+00 -6.04531E+00 -5.95156E+00 -5.84761E+00 -5.73271E+00 -5.60614E+00 -5.46700E+00 -5.31449E+00
  -5.14771E+00 -4.96600E+00 -4.76862E+00 -4.55514E+00 -4.32520E+00 -4.07894E+00 -3.81682E+00 -3.53991E+00 -3.24968E+00 -2.94834E+00
  -2.63862E+00 -2.32406E+00 -2.00867E+00 -1.69715E+00 -1.39440E+00 -1.10571E+00 -8.36276E-01 -5.91282E-01 -3.75358E-01 -1.92599E-01
  -4.60857E-02  6.19793E-02  1.30648E-01  1.60016E-01  1.51518E-01  1.07604E-01  3.18694E-02 -7.14207E-02 -1.97295E-01 -3.40565E-01
  -4.95769E-01 -6.57666E-01 -8.21197E-01 -9.81932E-01 -1.13594E+00 -1.28010E+00 -1.41185E+00 -1.52947E+00 -1.63177E+00 -1.71832E+00
  -1.78912E+00 -1.84467E+00 -1.88567E+00 -1.91320E+00 -1.92836E+00 -1.93251E+00 -1.92689E+00 -1.91283E+00 -1.89148E+00 -1.86403E+00
  -1.83147E+00 -1.79486E+00 -1.75500E+00 -1.71271E+00 -1.66859E+00 -1.62331E+00 -1.57735E+00 -1.53127E+00 -1.48540E+00 -1.44018E+00
  -1.39583E+00 -1.35273E+00 -1.31109E+00 -1.27118E+00 -1.23298E+00 -1.19657E+00 -1.16190E+00 -1.12903E+00 -1.09792E+00 -1.06861E+00
  -1.04100E+00 -1.01509E+00 -9.90795E-01 -9.68141E-01 -9.47037E-01 -9.27481E-01 -9.09343E-01 -8.92612E-01 -8.77179E-01 -8.63057E-01
  -8.50127E-01 -8.38367E-01 -8.27629E-01 -8.17902E-01 -8.09075E-01 -8.01147E-01 -7.93982E-01 -7.87546E-01 -7.81694E-01 -7.76415E-01
  -7.71595E-01 -7.67220E-01 -7.63143E-01 -7.59324E-01 -7.55624E-01 -7.52035E-01 -7.48435E-01 -7.44797E-01 -7.40967E-01 -7.36903E-01
  -7.32473E-01 -7.27668E-01 -7.22355E-01 -7.16495E-01 -7.09926E-01 -7.02611E-01 -6.94420E-01 -6.85333E-01
 NY background values follow
     2.834E+01    2.790E+01    2.747E+01    2.703E+01    2.659E+01    2.616E+01    2.572E+01    2.529E+01    2.485E+01    2.442E+01
     2.398E+01    2.355E+01    2.312E+01    2.268E+01    2.225E+01    2.183E+01    2.140E+01    2.097E+01    2.055E+01    2.012E+01
     1.970E+01    1.928E+01    1.886E+01    1.845E+01    1.804E+01    1.762E+01    1.722E+01    1.681E+01    1.640E+01    1.600E+01
     1.560E+01    1.521E+01    1.482E+01    1.443E+01    1.404E+01    1.366E+01    1.327E+01    1.290E+01    1.252E+01    1.216E+01
     1.179E+01    1.143E+01    1.107E+01    1.072E+01    1.037E+01    1.002E+01    9.679E+00    9.343E+00    9.010E+00    8.683E+00
     8.359E+00    8.040E+00    7.726E+00    7.416E+00    7.110E+00    6.809E+00    6.513E+00    6.221E+00    5.934E+00    5.651E+00
     5.373E+00    5.099E+00    4.830E+00    4.566E+00    4.306E+00    4.051E+00    3.801E+00    3.555E+00    3.314E+00    3.078E+00
     2.846E+00    2.620E+00    2.398E+00    2.180E+00    1.968E+00    1.760E+00    1.558E+00    1.360E+00    1.167E+00    9.782E-01
     7.948E-01    6.163E-01    4.427E-01    2.740E-01    1.103E-01   -4.855E-02   -2.024E-01   -3.513E-01   -4.952E-01   -6.341E-01
    -7.680E-01   -8.969E-01   -1.021E+00   -1.140E+00   -1.254E+00   -1.364E+00   -1.470E+00   -1.571E+00   -1.668E+00   -1.762E+00
    -1.851E+00   -1.937E+00   -2.019E+00   -2.098E+00   -2.174E+00   -2.246E+00   -2.316E+00   -2.382E+00   -2.446E+00   -2.508E+00
    -2.567E+00   -2.624E+00   -2.679E+00   -2.731E+00   -2.782E+00   -2.831E+00   -2.879E+00   -2.925E+00   -2.970E+00   -3.014E+00
    -3.057E+00   -3.099E+00   -3.140E+00   -3.181E+00   -3.221E+00   -3.262E+00   -3.302E+00   -3.342E+00   -3.382E+00   -3.422E+00
    -3.463E+00   -3.504E+00   -3.547E+00   -3.590E+00   -3.634E+00   -3.679E+00   -3.725E+00   -3.773E+00   -3.822E+00   -3.873E+00
    -3.924E+00   -3.977E+00   -4.031E+00   -4.086E+00   -4.142E+00   -4.199E+00   -4.257E+00   -4.316E+00   -4.376E+00   -4.436E+00
    -4.498E+00   -4.560E+00   -4.622E+00   -4.685E+00   -4.749E+00   -4.814E+00   -4.879E+00   -4.944E+00   -5.010E+00   -5.076E+00
    -5.142E+00   -5.209E+00   -5.275E+00   -5.342E+00   -5.410E+00   -5.477E+00   -5.544E+00   -5.611E+00   -5.678E+00   -5.745E+00
    -5.812E+00   -5.879E+00   -5.945E+00   -6.011E+00   -6.077E+00   -6.143E+00   -6.208E+00   -6.272E+00   -6.336E+00   -6.399E+00
    -6.462E+00   -6.524E+00   -6.586E+00   -6.646E+00   -6.706E+00   -6.765E+00   -6.822E+00   -6.878E+00   -6.933E+00   -6.986E+00
    -7.038E+00   -7.088E+00   -7.137E+00   -7.183E+00   -7.227E+00   -7.270E+00   -7.310E+00   -7.347E+00   -7.383E+00   -7.416E+00
    -7.446E+00   -7.473E+00   -7.498E+00   -7.519E+00   -7.538E+00   -7.553E+00   -7.565E+00   -7.574E+00   -7.579E+00   -7.580E+00
    -7.578E+00   -7.572E+00   -7.562E+00   -7.548E+00   -7.530E+00   -7.508E+00   -7.481E+00   -7.450E+00   -7.414E+00   -7.374E+00
    -7.328E+00   -7.278E+00   -7.223E+00   -7.163E+00   -7.098E+00   -7.027E+00   -6.951E+00   -6.869E+00   -6.782E+00   -6.690E+00
    -6.594E+00   -6.492E+00   -6.386E+00   -6.276E+00   -6.162E+00   -6.043E+00   -5.922E+00   -5.796E+00   -5.668E+00   -5.537E+00
    -5.402E+00   -5.265E+00   -5.126E+00   -4.985E+00   -4.841E+00   -4.696E+00   -4.549E+00   -4.401E+00   -4.252E+00   -4.102E+00
    -3.951E+00   -3.799E+00   -3.647E+00   -3.495E+00   -3.343E+00   -3.192E+00   -3.040E+00   -2.890E+00   -2.741E+00   -2.592E+00
    -2.445E+00   -2.300E+00   -2.156E+00   -2.014E+00   -1.874E+00   -1.737E+00   -1.602E+00   -1.470E+00   -1.341E+00   -1.215E+00
    -1.093E+00   -9.738E-01   -8.588E-01   -7.475E-01   -6.402E-01   -5.368E-01   -4.373E-01   -3.419E-01   -2.505E-01   -1.631E-01
    -7.985E-02   -7.463E-04    7.419E-02    1.449E-01    2.114E-01    2.736E-01    3.314E-01    3.850E-01    4.341E-01    4.788E-01
     5.191E-01    5.548E-01    5.860E-01    6.127E-01    6.348E-01    6.522E-01    6.649E-01    6.730E-01    6.763E-01    6.748E-01
     6.685E-01    6.574E-01    6.414E-01    6.204E-01    5.945E-01    5.637E-01    5.278E-01    4.868E-01    4.407E-01    3.896E-01
     3.332E-01    2.717E-01    2.049E-01    1.328E-01    5.548E-02   -2.721E-02   -1.153E-01   -2.087E-01   -3.074E-01   -4.111E-01
    -5.195E-01   -6.323E-01   -7.493E-01   -8.703E-01   -9.950E-01   -1.123E+00   -1.254E+00   -1.389E+00   -1.525E+00   -1.665E+00
    -1.806E+00   -1.949E+00   -2.094E+00   -2.241E+00   -2.388E+00   -2.537E+00   -2.685E+00   -2.835E+00   -2.984E+00   -3.133E+00
    -3.282E+00   -3.430E+00   -3.578E+00   -3.724E+00   -3.868E+00   -4.011E+00   -4.152E+00   -4.291E+00   -4.427E+00   -4.561E+00
    -4.691E+00   -4.819E+00   -4.943E+00   -5.063E+00   -5.179E+00   -5.291E+00   -5.398E+00   -5.501E+00   -5.599E+00   -5.691E+00
    -5.778E+00   -5.859E+00   -5.934E+00   -6.003E+00   -6.066E+00   -6.123E+00   -6.174E+00   -6.220E+00   -6.260E+00   -6.295E+00
    -6.325E+00   -6.349E+00   -6.368E+00   -6.382E+00   -6.392E+00   -6.396E+00   -6.396E+00   -6.392E+00   -6.383E+00   -6.369E+00
    -6.352E+00   -6.330E+00   -6.305E+00   -6.275E+00   -6.242E+00   -6.205E+00   -6.164E+00   -6.120E+00   -6.073E+00   -6.023E+00
    -5.969E+00   -5.913E+00   -5.853E+00   -5.791E+00   -5.726E+00   -5.659E+00   -5.589E+00   -5.517E+00   -5.442E+00   -5.366E+00
    -5.287E+00   -5.207E+00   -5.125E+00   -5.041E+00   -4.956E+00   -4.869E+00   -4.780E+00   -4.691E+00   -4.600E+00   -4.509E+00
    -4.416E+00   -4.323E+00   -4.228E+00   -4.134E+00   -4.038E+00   -3.942E+00   -3.846E+00   -3.749E+00   -3.652E+00   -3.555E+00
    -3.457E+00   -3.360E+00   -3.263E+00   -3.166E+00   -3.070E+00   -2.974E+00   -2.878E+00   -2.783E+00   -2.688E+00   -2.594E+00
    -2.501E+00   -2.409E+00   -2.318E+00   -2.228E+00   -2.140E+00   -2.052E+00   -1.966E+00   -1.881E+00   -1.798E+00   -1.717E+00
    -1.637E+00   -1.559E+00   -1.483E+00   -1.409E+00   -1.337E+00   -1.267E+00   -1.199E+00   -1.134E+00   -1.071E+00   -1.010E+00
    -9.523E-01   -8.971E-01   -8.447E-01   -7.951E-01   -7.482E-01   -7.040E-01   -6.624E-01   -6.232E-01   -5.865E-01   -5.521E-01
    -5.199E-01   -4.899E-01   -4.619E-01   -4.360E-01   -4.120E-01   -3.898E-01   -3.693E-01   -3.505E-01   -3.333E-01   -3.176E-01
    -3.033E-01   -2.904E-01   -2.787E-01   -2.681E-01   -2.587E-01   -2.503E-01   -2.428E-01   -2.361E-01   -2.302E-01   -2.250E-01
    -2.203E-01   -2.162E-01   -2.125E-01   -2.092E-01   -2.061E-01   -2.032E-01   -2.005E-01   -1.977E-01   -1.949E-01   -1.920E-01
    -1.888E-01   -1.853E-01   -1.815E-01   -1.772E-01   -1.723E-01   -1.668E-01   -1.606E-01   -1.536E-01
 Ala      Conc. = 4.37E+02
