 LCModel (Version 6.3-1L) Copyright: S.W. Provencher.          Ref.: Magn. Reson. Med. 30:672-679 (1993).                
 Slice#1 Row#12 Col#8  PD_24_press_1_raw_act
 36 lines in following concentration table = NCONC+1
    Conc.  %SD /Cr+PCr  Metabolite                                         
  242.407  39%   0.350 Ala                                                 
  233.301  62%   0.337 Asp                                                 
    0.000 999%   0.000 Cr                                                  
  692.670   6%   1.000 PCr                                                 
   22.290 426% 3.2E-02 GABA                                                
   16.557 557% 2.4E-02 Glc                                                 
  661.686  31%   0.955 Gln                                                 
 1.24E+03  19%   1.791 Glu                                                 
  269.565   6%   0.389 GPC                                                 
    0.000 999%   0.000 PCh                                                 
  268.077  22%   0.387 GSH                                                 
 1.32E+03  15%   1.909 Ins                                                 
    0.000 999%   0.000 Lac                                                 
 1.35E+03   8%   1.953 NAA                                                 
  138.502  90%   0.200 NAAG                                                
   70.166  27%   0.101 Scyllo                                              
    0.000 999%   0.000 Tau                                                 
    0.000 999%   0.000 -CrCH2                                              
  269.565   6%   0.389 GPC+PCh                                             
 1.49E+03   5%   2.153 NAA+NAAG                                            
  692.670   6%   1.000 Cr+PCr                                              
 1.90E+03  18%   2.746 Glu+Gln                                             
   16.222 997% 2.3E-02 Lip13a                                              
    0.000 999%   0.000 Lip13b                                              
    0.000 999%   0.000 Lip09                                               
 1.38E+03  11%   1.986 MM09                                                
    0.000 999%   0.000 Lip20                                               
 2.25E+03  13%   3.245 MM20                                                
  514.172  28%   0.742 MM12                                                
 1.51E+03  18%   2.184 MM14                                                
  592.190  32%   0.855 MM17                                                
   16.222 997% 2.3E-02 Lip13a+Lip13b                                       
 2.04E+03  13%   2.950 MM14+Lip13a+Lip13b+MM12                             
 1.38E+03  11%   1.986 MM09+Lip09                                          
 2.25E+03  13%   3.245 MM20+Lip20                                          
   6 lines in following misc. output table
  FWHM = 0.054 ppm    S/N =   9                                            
  Data shift =-0.023 ppm                                                   
  Ph: -34 deg       5.9 deg/ppm                                            
  alphaB,S = 2.5E+00,   1.0E+02                                            
   14 spline knots.   Ns = 7(1)                                            
  (13) 2 infls.   (11) 1 extrs.                                            
  498 points on ppm-axis = NY
      4.000000     3.992357     3.984714     3.977070     3.969427     3.961784     3.954141     3.946497     3.938854     3.931211
      3.923568     3.915925     3.908281     3.900638     3.892995     3.885352     3.877708     3.870065     3.862422     3.854779
      3.847136     3.839492     3.831849     3.824206     3.816563     3.808919     3.801276     3.793633     3.785990     3.778347
      3.770703     3.763060     3.755417     3.747774     3.740130     3.732487     3.724844     3.717201     3.709558     3.701914
      3.694271     3.686628     3.678985     3.671341     3.663698     3.656055     3.648412     3.640769     3.633125     3.625482
      3.617839     3.610196     3.602552     3.594909     3.587266     3.579623     3.571980     3.564336     3.556693     3.549050
      3.541407     3.533763     3.526120     3.518477     3.510834     3.503191     3.495547     3.487904     3.480261     3.472618
      3.464974     3.457331     3.449688     3.442045     3.434402     3.426758     3.419115     3.411472     3.403829     3.396185
      3.388542     3.380899     3.373256     3.365613     3.357969     3.350326     3.342683     3.335040     3.327396     3.319753
      3.312110     3.304467     3.296824     3.289180     3.281537     3.273894     3.266251     3.258607     3.250964     3.243321
      3.235678     3.228034     3.220391     3.212748     3.205105     3.197462     3.189818     3.182175     3.174532     3.166889
      3.159245     3.151602     3.143959     3.136316     3.128673     3.121029     3.113386     3.105743     3.098100     3.090456
      3.082813     3.075170     3.067527     3.059884     3.052240     3.044597     3.036954     3.029311     3.021667     3.014024
      3.006381     2.998738     2.991095     2.983451     2.975808     2.968165     2.960522     2.952878     2.945235     2.937592
      2.929949     2.922306     2.914662     2.907019     2.899376     2.891733     2.884089     2.876446     2.868803     2.861160
      2.853517     2.845873     2.838230     2.830587     2.822944     2.815300     2.807657     2.800014     2.792371     2.784728
      2.777084     2.769441     2.761798     2.754155     2.746511     2.738868     2.731225     2.723582     2.715939     2.708295
      2.700652     2.693009     2.685366     2.677722     2.670079     2.662436     2.654793     2.647150     2.639506     2.631863
      2.624220     2.616577     2.608933     2.601290     2.593647     2.586004     2.578361     2.570717     2.563074     2.555431
      2.547788     2.540144     2.532501     2.524858     2.517215     2.509572     2.501928     2.494285     2.486642     2.478999
      2.471355     2.463712     2.456069     2.448426     2.440783     2.433139     2.425496     2.417853     2.410210     2.402566
      2.394923     2.387280     2.379637     2.371994     2.364350     2.356707     2.349064     2.341421     2.333777     2.326134
      2.318491     2.310848     2.303205     2.295561     2.287918     2.280275     2.272632     2.264988     2.257345     2.249702
      2.242059     2.234416     2.226772     2.219129     2.211486     2.203843     2.196199     2.188556     2.180913     2.173270
      2.165627     2.157983     2.150340     2.142697     2.135054     2.127410     2.119767     2.112124     2.104481     2.096838
      2.089194     2.081551     2.073908     2.066265     2.058621     2.050978     2.043335     2.035692     2.028049     2.020405
      2.012762     2.005119     1.997476     1.989833     1.982190     1.974546     1.966903     1.959260     1.951617     1.943974
      1.936331     1.928688     1.921045     1.913402     1.905759     1.898115     1.890472     1.882829     1.875186     1.867543
      1.859900     1.852257     1.844614     1.836971     1.829327     1.821684     1.814041     1.806398     1.798755     1.791112
      1.783469     1.775826     1.768183     1.760540     1.752896     1.745253     1.737610     1.729967     1.722324     1.714681
      1.707038     1.699395     1.691752     1.684108     1.676465     1.668822     1.661179     1.653536     1.645893     1.638250
      1.630607     1.622964     1.615321     1.607677     1.600034     1.592391     1.584748     1.577105     1.569462     1.561819
      1.554176     1.546533     1.538890     1.531246     1.523603     1.515960     1.508317     1.500674     1.493031     1.485388
      1.477745     1.470102     1.462458     1.454815     1.447172     1.439529     1.431886     1.424243     1.416600     1.408957
      1.401314     1.393671     1.386027     1.378384     1.370741     1.363098     1.355455     1.347812     1.340169     1.332526
      1.324883     1.317240     1.309596     1.301953     1.294310     1.286667     1.279024     1.271381     1.263738     1.256095
      1.248452     1.240808     1.233165     1.225522     1.217879     1.210236     1.202593     1.194950     1.187307     1.179664
      1.172021     1.164377     1.156734     1.149091     1.141448     1.133805     1.126162     1.118519     1.110876     1.103233
      1.095590     1.087946     1.080303     1.072660     1.065017     1.057374     1.049731     1.042088     1.034445     1.026802
      1.019158     1.011515     1.003872     0.996229     0.988586     0.980943     0.973300     0.965657     0.958014     0.950371
      0.942727     0.935084     0.927441     0.919798     0.912155     0.904512     0.896869     0.889226     0.881583     0.873940
      0.866296     0.858653     0.851010     0.843367     0.835724     0.828081     0.820438     0.812795     0.805152     0.797508
      0.789865     0.782222     0.774579     0.766936     0.759293     0.751650     0.744007     0.736364     0.728721     0.721077
      0.713434     0.705791     0.698148     0.690505     0.682862     0.675219     0.667576     0.659933     0.652290     0.644646
      0.637003     0.629360     0.621717     0.614074     0.606431     0.598788     0.591145     0.583502     0.575858     0.568215
      0.560572     0.552929     0.545286     0.537643     0.530000     0.522357     0.514714     0.507071     0.499427     0.491784
      0.484141     0.476498     0.468855     0.461212     0.453569     0.445925     0.438282     0.430639     0.422996     0.415353
      0.407710     0.400067     0.392424     0.384780     0.377137     0.369494     0.361851     0.354208     0.346565     0.338922
      0.331278     0.323635     0.315992     0.308349     0.300706     0.293063     0.285420     0.277777     0.270133     0.262490
      0.254847     0.247204     0.239561     0.231918     0.224275     0.216631     0.208988     0.201345
 NY phased data points follow
   1.23777E+01  1.06072E+01  1.16923E+01  1.56128E+01  9.20818E+00  1.30522E+01  2.24030E+01  1.84763E+01  2.22976E+01  1.82979E+01
   2.24047E+01  2.42413E+01  2.63962E+01  2.08709E+01  1.80972E+01  2.04684E+01  1.76764E+01  1.48773E+01  1.48535E+01  1.25472E+01
   1.43196E+01  1.19492E+01  1.41840E+01  1.26286E+01  1.48134E+01  1.38041E+01  1.04272E+01  1.46237E+01  1.28734E+01  9.68560E+00
   1.39066E+01  1.52268E+01  1.54673E+01  1.49201E+01  1.49513E+01  1.65747E+01  9.72316E+00  9.25514E+00  1.70395E+01  1.33197E+01
   9.73171E+00  1.31566E+01  1.35296E+01  1.33012E+01  1.01532E+01  1.63602E+01  1.60659E+01  1.61398E+01  1.49010E+01  1.64978E+01
   2.02113E+01  1.44706E+01  1.32309E+01  8.26052E+00  1.09043E+01  1.07644E+01  1.38865E+01  1.21348E+01  6.79710E+00  8.63293E+00
   9.77443E+00  8.92785E+00  8.86437E+00  8.06322E+00  6.87855E+00  5.16214E+00  1.07574E+01  6.56329E+00  6.03117E+00  8.20820E+00
   7.85747E+00  4.54129E+00  3.19055E+00  7.16355E+00  8.82075E+00  8.27944E+00  8.55359E+00  4.09158E+00  3.03642E+00  8.50099E+00
   4.12506E+00  8.63703E+00  4.88283E+00  7.48082E+00  7.33365E+00  5.53317E+00  2.47500E+00  1.06294E+01  9.25604E+00  9.45377E+00
   9.36415E+00  6.91994E+00  1.01975E+01  8.05660E+00  5.71146E+00  9.20632E+00  9.02056E+00  7.68882E+00  1.00568E+01  7.73226E+00
   1.88633E+01  1.82203E+01  2.50616E+01  2.48913E+01  3.01892E+01  2.58146E+01  2.51807E+01  1.55752E+01  1.37100E+01  7.32273E+00
   1.07676E+01  5.98191E+00  5.57607E+00  6.59080E+00  7.59967E+00  8.02983E+00  1.10387E+01  9.78256E+00  8.98841E+00  5.40470E+00
   4.55412E+00  4.83784E+00  5.46110E+00  9.52914E+00  9.58745E+00  1.47735E+01  2.31158E+01  2.53832E+01  2.77405E+01  2.58273E+01
   2.67768E+01  2.41832E+01  1.78551E+01  1.14983E+01  1.15331E+01  7.04421E+00  8.79611E+00  6.52252E+00  8.61184E+00  6.47168E+00
   4.70236E+00  7.31451E+00  4.73877E+00  5.00041E+00  3.60504E+00  2.06660E+00  3.16474E+00  2.40613E+00 -1.43136E+00  7.05580E+00
   3.70882E+00  3.48857E+00  1.48920E+00  1.53241E+00 -1.16170E+00 -1.25877E+00  3.79663E+00  3.51828E+00  5.80828E+00  4.68722E+00
   1.01866E-01 -1.53581E+00  2.48369E-01  2.12024E+00  1.27286E-01  1.87043E+00 -5.38505E-01 -1.40802E+00  2.28526E+00  2.18641E-01
  -1.85322E+00 -4.28387E-01 -4.73214E+00 -5.60389E+00 -2.97043E+00 -4.01740E+00 -3.27092E+00 -6.89370E+00 -4.35180E+00 -4.03632E+00
  -1.70708E+00 -4.09777E+00  1.08232E+00 -7.93436E-01  4.36567E-01  3.04646E+00  7.87789E+00 -4.00935E+00  5.34312E+00  3.77039E+00
   5.74456E-03 -9.25815E-01 -2.87623E+00 -1.41058E+00 -1.65726E+00 -4.62506E+00 -2.58359E+00 -9.55048E-01 -3.29348E+00  1.04041E+00
   3.94046E-02  2.60270E+00 -7.57288E-01  8.00812E+00  5.47784E+00  5.18337E-01  6.03285E+00  2.66293E+00  2.50807E+00  7.25137E-01
   2.13996E+00  2.94260E+00  3.54376E+00  1.53192E+00  9.39992E+00  6.78570E+00  1.05375E+01  4.90672E+00  8.10675E+00  3.02385E+00
   4.43141E+00 -6.57054E-01  3.13199E-01  1.50070E+00 -1.28958E-01  1.46180E+00  5.83814E+00  6.54473E+00  7.22476E+00  8.75029E+00
   1.12878E+01  7.59151E+00  5.94440E+00  4.16898E+00  9.21863E+00  7.11947E+00  1.71900E+00  5.18891E+00  5.58757E+00  7.79583E+00
   8.74993E+00  7.77558E+00  1.93806E+00  7.73391E+00  7.82156E+00  7.79392E+00  8.22542E+00  1.16629E+01  1.21626E+01  1.18009E+01
   1.40661E+01  1.45468E+01  1.09100E+01  1.46769E+01  2.18797E+01  2.43070E+01  2.85958E+01  3.97584E+01  4.30137E+01  5.28677E+01
   5.63192E+01  5.73067E+01  4.84535E+01  4.12145E+01  2.59894E+01  2.23635E+01  1.58785E+01  1.65164E+01  1.23801E+01  9.81592E+00
   7.77376E+00  5.61902E+00  6.87878E+00  3.56390E+00  6.99479E+00  8.57995E+00  2.06689E+00  6.42838E+00  5.04217E+00  1.63766E+00
   4.33610E+00  3.12061E+00  4.61306E+00  6.52389E+00  2.68766E+00  6.09599E+00  6.73830E+00  4.32457E+00  1.65400E+00 -8.94775E-01
  -4.95222E-02  2.08633E+00  5.13227E+00  6.82869E+00  4.98431E+00  4.88286E+00  6.43150E+00  2.95679E+00 -4.90698E-01  3.00744E+00
   3.18708E+00  5.00220E+00  1.41577E-01 -5.87699E-02  6.15127E+00  3.29688E+00  3.43992E+00  5.69868E+00  8.45807E+00  5.91458E+00
   9.31206E+00  5.99036E+00  8.27757E+00  8.10009E+00  8.96863E+00  8.56724E+00  4.51678E+00  7.04549E+00  9.06562E+00  7.01096E+00
   6.02492E+00  8.14873E+00  9.54619E+00  8.45831E+00  9.88033E+00  5.93702E+00  6.23097E+00  1.02490E+01  3.83017E+00  5.35656E+00
   7.46811E+00  6.77358E+00  8.57166E+00  4.18364E+00  6.62857E+00  9.82818E+00  1.03243E+01  8.95704E+00  9.64602E+00  9.92679E+00
   1.22058E+01  9.74411E+00  6.86146E+00  1.52243E+01  1.09815E+01  7.67019E+00  9.07519E+00  8.30986E+00  6.80685E+00  6.28759E+00
   7.41011E+00  6.26314E+00  1.09712E+01  6.89521E+00  5.04936E+00  1.23753E+00  2.28395E+00  3.22415E+00  5.80991E+00  3.95931E+00
   4.75431E+00  7.30312E+00  2.96461E+00  6.03374E+00  5.66341E+00  4.78279E+00  9.13855E+00  4.11646E+00  5.99035E+00  6.54322E+00
   3.58648E+00  5.06313E+00  4.90942E+00  5.65163E+00  2.97028E+00  6.23424E+00 -1.13731E+00  8.48769E+00  7.49121E+00  6.42290E+00
   6.90198E+00  2.16253E+00  5.30944E+00  9.82324E+00  3.44606E+00  8.00153E+00  4.81572E+00  6.05126E+00  5.67108E+00  3.60476E+00
   6.20790E+00  5.76413E+00  5.00297E+00  4.53557E+00  8.02031E+00  9.14247E+00  1.22765E+01  9.60129E+00  8.47236E+00  1.06059E+01
   9.78660E+00  9.03012E+00  1.05752E+01  9.86046E+00  8.57253E+00  1.10723E+01  8.49104E+00  1.16133E+01  1.27117E+01  9.93199E+00
   7.15536E+00  9.09315E+00  6.97495E+00  9.39542E+00  4.69939E+00  5.49366E+00  6.34804E+00  4.02173E+00  4.79107E+00  4.13126E+00
   8.18068E+00  5.70536E+00  3.17220E+00  3.82366E+00  6.72035E+00  4.02108E+00  5.15540E+00  6.51150E+00  5.39930E+00  5.23679E+00
   3.57221E+00  4.34132E+00  2.67147E+00 -2.35569E+00  1.21440E+00  2.50066E+00  8.60195E+00  3.72952E+00  1.93131E+00  6.88125E+00
   9.99788E-01  1.62184E+00  2.81819E+00 -3.18603E+00  1.39055E+00 -1.61607E+00  2.05838E+00  1.90577E-01 -1.50590E+00  2.59024E+00
  -1.60872E+00  4.90572E+00  5.74872E+00 -1.14105E+00  4.48109E+00 -1.41817E+00  3.58400E-01  1.63576E+00  2.27349E+00 -7.75973E-01
   1.52973E+00  6.74061E-01  3.11221E-01  2.11843E+00 -1.94587E+00  3.28724E-01  2.04933E+00  2.23876E+00  4.71432E+00  3.76351E+00
   4.40941E+00  1.21903E+00  1.23645E+00  2.37288E-01  2.03002E+00  3.22372E+00 -1.76379E+00  3.64928E+00  1.88053E+00  3.29342E+00
   2.90876E+00  4.47483E+00 -1.38104E+00  2.09609E+00  9.40459E-03  1.98620E+00  1.62264E+00  6.46748E-01 -4.72823E-01 -2.47090E+00
  -7.30889E-01  1.00087E+00 -1.34873E+00  3.00967E-02  3.15634E+00  1.93327E+00  3.97301E+00  6.15810E+00
 NY points of the fit to the data follow
   1.15508E+01  1.09546E+01  1.07809E+01  1.11902E+01  1.22770E+01  1.38086E+01  1.56476E+01  1.78133E+01  2.01804E+01  2.23930E+01
   2.39771E+01  2.44104E+01  2.33778E+01  2.10616E+01  1.81941E+01  1.56597E+01  1.38436E+01  1.25070E+01  1.13684E+01  1.05984E+01
   1.03884E+01  1.03673E+01  1.05195E+01  1.07804E+01  1.09391E+01  1.11023E+01  1.14808E+01  1.21129E+01  1.29643E+01  1.39972E+01
   1.50739E+01  1.58633E+01  1.60340E+01  1.55524E+01  1.45903E+01  1.32761E+01  1.17445E+01  1.02589E+01  9.26212E+00  8.88574E+00
   8.98974E+00  9.61066E+00  1.06292E+01  1.18733E+01  1.32771E+01  1.47527E+01  1.60788E+01  1.69110E+01  1.69536E+01  1.60618E+01
   1.42809E+01  1.20442E+01  1.00613E+01  8.80046E+00  8.16733E+00  7.92306E+00  8.03701E+00  8.53428E+00  9.21357E+00  9.80303E+00
   1.01435E+01  1.01421E+01  9.75882E+00  9.06756E+00  8.28571E+00  7.70827E+00  7.46859E+00  7.50528E+00  7.74654E+00  8.12876E+00
   8.53084E+00  8.87250E+00  9.07354E+00  9.09580E+00  8.93544E+00  8.62556E+00  8.26128E+00  7.94375E+00  7.71323E+00  7.58109E+00
   7.57033E+00  7.63926E+00  7.70714E+00  7.78461E+00  7.87178E+00  7.89369E+00  7.76832E+00  7.44395E+00  6.91676E+00  6.29310E+00
   5.78255E+00  5.55445E+00  5.63011E+00  5.85384E+00  6.04309E+00  6.25225E+00  7.07300E+00  8.79516E+00  1.09188E+01  1.34558E+01
   1.67276E+01  2.06169E+01  2.44552E+01  2.73315E+01  2.82721E+01  2.67066E+01  2.29602E+01  1.82505E+01  1.40608E+01  1.10560E+01
   8.82742E+00  6.83530E+00  5.47577E+00  5.11885E+00  5.06632E+00  5.07728E+00  5.10514E+00  5.14913E+00  5.22267E+00  5.35978E+00
   5.68776E+00  6.69083E+00  8.60630E+00  1.10157E+01  1.38465E+01  1.72579E+01  2.10650E+01  2.46398E+01  2.71749E+01  2.78842E+01
   2.63233E+01  2.27979E+01  1.84179E+01  1.44332E+01  1.13619E+01  8.86242E+00  6.63246E+00  5.22389E+00  4.91175E+00  5.02654E+00
   5.22148E+00  5.35280E+00  5.39185E+00  5.31993E+00  5.15097E+00  4.94231E+00  4.70659E+00  4.42064E+00  4.09872E+00  3.76898E+00
   3.49564E+00  3.27708E+00  3.09549E+00  2.91805E+00  2.71193E+00  2.51324E+00  2.32669E+00  2.12741E+00  1.90776E+00  1.64343E+00
   1.38938E+00  1.24011E+00  1.24494E+00  1.37188E+00  1.53223E+00  1.61355E+00  1.54650E+00  1.37157E+00  1.17604E+00  9.61326E-01
   7.24482E-01  5.01673E-01  2.72030E-01  3.93801E-02 -1.76350E-01 -3.65020E-01 -4.61794E-01 -4.44769E-01 -3.57113E-01 -2.93725E-01
  -3.29803E-01 -3.85409E-01 -3.29469E-01 -9.22711E-02  2.94817E-01  7.29532E-01  1.20172E+00  1.76700E+00  2.43642E+00  3.09648E+00
   3.51233E+00  3.56176E+00  3.27246E+00  2.77622E+00  2.25441E+00  1.85309E+00  1.67282E+00  1.81848E+00  2.31790E+00  3.15512E+00
   4.21506E+00  5.31229E+00  6.17717E+00  6.48449E+00  6.15541E+00  5.26231E+00  3.81784E+00  2.04038E+00  3.64133E-01 -7.34263E-01
  -1.02786E+00 -4.06614E-01  1.15171E+00  3.34609E+00  5.56729E+00  7.12742E+00  7.58897E+00  6.96648E+00  5.43384E+00  3.19216E+00
   9.21297E-01 -6.83476E-01 -1.38538E+00 -1.12573E+00  1.54450E-02  1.88455E+00  3.87831E+00  5.41355E+00  6.31270E+00  6.71493E+00
   6.86542E+00  6.82368E+00  6.65707E+00  6.59067E+00  6.76290E+00  7.05909E+00  7.29035E+00  7.45980E+00  7.65080E+00  7.80394E+00
   7.77862E+00  7.62091E+00  7.47092E+00  7.42758E+00  7.55535E+00  7.84289E+00  8.29150E+00  8.78426E+00  9.22440E+00  9.74401E+00
   1.04691E+01  1.14114E+01  1.28377E+01  1.60337E+01  2.07584E+01  2.60091E+01  3.18006E+01  3.83616E+01  4.50699E+01  5.07731E+01
   5.41386E+01  5.37820E+01  4.90732E+01  4.10064E+01  3.21294E+01  2.48856E+01  1.96052E+01  1.51047E+01  1.09758E+01  8.62478E+00
   7.64492E+00  7.04472E+00  6.63378E+00  6.37316E+00  6.18218E+00  5.98263E+00  5.75386E+00  5.47980E+00  5.17494E+00  4.87151E+00
   4.58915E+00  4.32697E+00  4.09566E+00  3.91109E+00  3.76885E+00  3.65392E+00  3.55395E+00  3.46766E+00  3.40074E+00  3.35518E+00
   3.32964E+00  3.32844E+00  3.35305E+00  3.40192E+00  3.47113E+00  3.55908E+00  3.66527E+00  3.78980E+00  3.93340E+00  4.09607E+00
   4.27597E+00  4.47233E+00  4.68197E+00  4.89847E+00  5.11498E+00  5.32617E+00  5.52817E+00  5.71751E+00  5.89033E+00  6.04494E+00
   6.18090E+00  6.29854E+00  6.39997E+00  6.48839E+00  6.56811E+00  6.64535E+00  6.72842E+00  6.82852E+00  6.96252E+00  7.16376E+00
   7.48624E+00  7.86911E+00  8.22197E+00  8.54955E+00  8.83391E+00  8.97625E+00  8.85738E+00  8.39028E+00  7.64303E+00  6.81920E+00
   6.10841E+00  5.72760E+00  5.83012E+00  6.37460E+00  7.20441E+00  8.20926E+00  9.30505E+00  1.02098E+01  1.06674E+01  1.06956E+01
   1.04756E+01  1.01844E+01  9.85471E+00  9.42236E+00  8.95541E+00  8.56626E+00  8.22283E+00  7.90277E+00  7.59948E+00  7.31172E+00
   7.04032E+00  6.78673E+00  6.55230E+00  6.33804E+00  6.14449E+00  5.97163E+00  5.81883E+00  5.68485E+00  5.56789E+00  5.46576E+00
   5.37608E+00  5.29636E+00  5.22407E+00  5.15677E+00  5.09221E+00  5.02854E+00  4.96439E+00  4.89889E+00  4.83163E+00  4.76270E+00
   4.69270E+00  4.62279E+00  4.55461E+00  4.49019E+00  4.43182E+00  4.38203E+00  4.34359E+00  4.31942E+00  4.31254E+00  4.32591E+00
   4.36237E+00  4.42461E+00  4.51515E+00  4.63624E+00  4.78973E+00  4.97691E+00  5.19840E+00  5.45414E+00  5.74324E+00  6.06384E+00
   6.41302E+00  6.78666E+00  7.17950E+00  7.58520E+00  7.99643E+00  8.40501E+00  8.80207E+00  9.17835E+00  9.52457E+00  9.83184E+00
   1.00920E+01  1.02979E+01  1.04438E+01  1.05255E+01  1.05407E+01  1.04891E+01  1.03723E+01  1.01935E+01  9.95783E+00  9.67144E+00
   9.34169E+00  8.97665E+00  8.58465E+00  8.17398E+00  7.75259E+00  7.32783E+00  6.90635E+00  6.49386E+00  6.09503E+00  5.71351E+00
   5.35197E+00  5.01219E+00  4.69518E+00  4.40126E+00  4.13014E+00  3.88105E+00  3.65294E+00  3.44454E+00  3.25449E+00  3.08133E+00
   2.92354E+00  2.77968E+00  2.64839E+00  2.52840E+00  2.41860E+00  2.31788E+00  2.22528E+00  2.13989E+00  2.06098E+00  1.98790E+00
   1.92006E+00  1.85691E+00  1.79795E+00  1.74277E+00  1.69103E+00  1.64243E+00  1.59668E+00  1.55350E+00  1.51264E+00  1.47392E+00
   1.43717E+00  1.40227E+00  1.36904E+00  1.33734E+00  1.30703E+00  1.27803E+00  1.25029E+00  1.22370E+00  1.19816E+00  1.17358E+00
   1.14990E+00  1.12708E+00  1.10508E+00  1.08385E+00  1.06331E+00  1.04341E+00  1.02411E+00  1.00542E+00  9.87296E-01  9.69684E-01
   9.52531E-01  9.35815E-01  9.19536E-01  9.03687E-01  8.88236E-01  8.73134E-01  8.58348E-01  8.43873E-01  8.29714E-01  8.15858E-01
   8.02269E-01  7.88907E-01  7.75757E-01  7.62826E-01  7.50118E-01  7.37611E-01  7.25267E-01  7.13057E-01  7.00980E-01  6.89043E-01
   6.77240E-01  6.65538E-01  6.53899E-01  6.42307E-01  6.30763E-01  6.19268E-01  6.07797E-01  5.96308E-01
 NY background values follow
     6.828E+00    6.800E+00    6.772E+00    6.743E+00    6.715E+00    6.686E+00    6.658E+00    6.629E+00    6.601E+00    6.572E+00
     6.544E+00    6.515E+00    6.487E+00    6.458E+00    6.430E+00    6.401E+00    6.373E+00    6.344E+00    6.316E+00    6.287E+00
     6.259E+00    6.230E+00    6.202E+00    6.173E+00    6.144E+00    6.116E+00    6.087E+00    6.059E+00    6.030E+00    6.002E+00
     5.973E+00    5.945E+00    5.916E+00    5.888E+00    5.859E+00    5.831E+00    5.802E+00    5.774E+00    5.746E+00    5.717E+00
     5.689E+00    5.660E+00    5.632E+00    5.603E+00    5.575E+00    5.547E+00    5.518E+00    5.490E+00    5.462E+00    5.433E+00
     5.405E+00    5.377E+00    5.348E+00    5.320E+00    5.292E+00    5.264E+00    5.235E+00    5.207E+00    5.179E+00    5.151E+00
     5.123E+00    5.095E+00    5.067E+00    5.039E+00    5.011E+00    4.983E+00    4.955E+00    4.927E+00    4.899E+00    4.871E+00
     4.843E+00    4.815E+00    4.787E+00    4.760E+00    4.732E+00    4.704E+00    4.677E+00    4.649E+00    4.622E+00    4.594E+00
     4.567E+00    4.539E+00    4.512E+00    4.484E+00    4.457E+00    4.430E+00    4.403E+00    4.376E+00    4.348E+00    4.321E+00
     4.294E+00    4.267E+00    4.241E+00    4.214E+00    4.187E+00    4.160E+00    4.133E+00    4.107E+00    4.080E+00    4.054E+00
     4.027E+00    4.001E+00    3.974E+00    3.948E+00    3.922E+00    3.896E+00    3.870E+00    3.844E+00    3.818E+00    3.792E+00
     3.766E+00    3.740E+00    3.714E+00    3.689E+00    3.663E+00    3.637E+00    3.612E+00    3.587E+00    3.561E+00    3.536E+00
     3.511E+00    3.486E+00    3.461E+00    3.436E+00    3.411E+00    3.386E+00    3.361E+00    3.337E+00    3.312E+00    3.288E+00
     3.263E+00    3.239E+00    3.215E+00    3.190E+00    3.166E+00    3.142E+00    3.118E+00    3.095E+00    3.071E+00    3.047E+00
     3.024E+00    3.000E+00    2.977E+00    2.953E+00    2.930E+00    2.907E+00    2.884E+00    2.861E+00    2.838E+00    2.815E+00
     2.793E+00    2.770E+00    2.748E+00    2.725E+00    2.703E+00    2.681E+00    2.659E+00    2.637E+00    2.615E+00    2.593E+00
     2.571E+00    2.550E+00    2.528E+00    2.507E+00    2.485E+00    2.464E+00    2.443E+00    2.422E+00    2.401E+00    2.381E+00
     2.360E+00    2.339E+00    2.319E+00    2.299E+00    2.278E+00    2.258E+00    2.238E+00    2.218E+00    2.199E+00    2.179E+00
     2.159E+00    2.140E+00    2.121E+00    2.101E+00    2.082E+00    2.063E+00    2.045E+00    2.026E+00    2.007E+00    1.989E+00
     1.970E+00    1.952E+00    1.934E+00    1.916E+00    1.898E+00    1.880E+00    1.862E+00    1.845E+00    1.827E+00    1.810E+00
     1.792E+00    1.775E+00    1.758E+00    1.741E+00    1.724E+00    1.707E+00    1.691E+00    1.674E+00    1.658E+00    1.641E+00
     1.625E+00    1.609E+00    1.593E+00    1.577E+00    1.561E+00    1.545E+00    1.530E+00    1.514E+00    1.499E+00    1.483E+00
     1.468E+00    1.453E+00    1.438E+00    1.423E+00    1.408E+00    1.393E+00    1.379E+00    1.364E+00    1.350E+00    1.335E+00
     1.321E+00    1.307E+00    1.293E+00    1.279E+00    1.265E+00    1.251E+00    1.237E+00    1.224E+00    1.210E+00    1.197E+00
     1.184E+00    1.170E+00    1.157E+00    1.144E+00    1.131E+00    1.118E+00    1.106E+00    1.093E+00    1.080E+00    1.068E+00
     1.055E+00    1.043E+00    1.031E+00    1.019E+00    1.007E+00    9.946E-01    9.827E-01    9.709E-01    9.592E-01    9.476E-01
     9.360E-01    9.246E-01    9.132E-01    9.019E-01    8.908E-01    8.797E-01    8.686E-01    8.577E-01    8.468E-01    8.361E-01
     8.254E-01    8.148E-01    8.043E-01    7.938E-01    7.835E-01    7.732E-01    7.630E-01    7.529E-01    7.429E-01    7.330E-01
     7.231E-01    7.133E-01    7.036E-01    6.940E-01    6.844E-01    6.750E-01    6.656E-01    6.562E-01    6.470E-01    6.378E-01
     6.288E-01    6.197E-01    6.108E-01    6.020E-01    5.932E-01    5.844E-01    5.758E-01    5.672E-01    5.587E-01    5.503E-01
     5.420E-01    5.337E-01    5.255E-01    5.174E-01    5.093E-01    5.013E-01    4.934E-01    4.855E-01    4.777E-01    4.700E-01
     4.623E-01    4.548E-01    4.472E-01    4.398E-01    4.324E-01    4.251E-01    4.178E-01    4.106E-01    4.035E-01    3.965E-01
     3.895E-01    3.825E-01    3.756E-01    3.688E-01    3.621E-01    3.554E-01    3.488E-01    3.422E-01    3.357E-01    3.293E-01
     3.229E-01    3.165E-01    3.103E-01    3.041E-01    2.979E-01    2.918E-01    2.858E-01    2.798E-01    2.738E-01    2.680E-01
     2.621E-01    2.564E-01    2.506E-01    2.450E-01    2.394E-01    2.338E-01    2.283E-01    2.228E-01    2.174E-01    2.121E-01
     2.068E-01    2.015E-01    1.963E-01    1.911E-01    1.860E-01    1.809E-01    1.759E-01    1.710E-01    1.660E-01    1.611E-01
     1.563E-01    1.515E-01    1.468E-01    1.421E-01    1.374E-01    1.328E-01    1.282E-01    1.237E-01    1.192E-01    1.147E-01
     1.103E-01    1.059E-01    1.016E-01    9.729E-02    9.304E-02    8.882E-02    8.465E-02    8.051E-02    7.641E-02    7.235E-02
     6.832E-02    6.433E-02    6.038E-02    5.646E-02    5.258E-02    4.874E-02    4.492E-02    4.115E-02    3.740E-02    3.370E-02
     3.002E-02    2.638E-02    2.277E-02    1.919E-02    1.564E-02    1.213E-02    8.642E-03    5.188E-03    1.765E-03   -1.629E-03
    -4.993E-03   -8.328E-03   -1.163E-02   -1.491E-02   -1.816E-02   -2.138E-02   -2.458E-02   -2.775E-02   -3.089E-02   -3.401E-02
    -3.710E-02   -4.016E-02   -4.320E-02   -4.622E-02   -4.921E-02   -5.217E-02   -5.512E-02   -5.804E-02   -6.094E-02   -6.381E-02
    -6.667E-02   -6.950E-02   -7.231E-02   -7.510E-02   -7.787E-02   -8.062E-02   -8.335E-02   -8.606E-02   -8.875E-02   -9.143E-02
    -9.408E-02   -9.672E-02   -9.934E-02   -1.019E-01   -1.045E-01   -1.071E-01   -1.097E-01   -1.122E-01   -1.147E-01   -1.172E-01
    -1.197E-01   -1.222E-01   -1.247E-01   -1.271E-01   -1.296E-01   -1.320E-01   -1.344E-01   -1.368E-01   -1.392E-01   -1.416E-01
    -1.440E-01   -1.463E-01   -1.487E-01   -1.510E-01   -1.533E-01   -1.557E-01   -1.580E-01   -1.603E-01   -1.626E-01   -1.649E-01
    -1.671E-01   -1.694E-01   -1.717E-01   -1.739E-01   -1.762E-01   -1.784E-01   -1.807E-01   -1.829E-01   -1.851E-01   -1.874E-01
    -1.896E-01   -1.918E-01   -1.940E-01   -1.962E-01   -1.984E-01   -2.006E-01   -2.028E-01   -2.049E-01   -2.071E-01   -2.093E-01
    -2.115E-01   -2.136E-01   -2.158E-01   -2.180E-01   -2.201E-01   -2.223E-01   -2.244E-01   -2.266E-01   -2.287E-01   -2.309E-01
    -2.330E-01   -2.352E-01   -2.373E-01   -2.395E-01   -2.416E-01   -2.438E-01   -2.459E-01   -2.481E-01
 Ala      Conc. = 2.42E+02
