 LCModel (Version 6.3-1L) Copyright: S.W. Provencher.          Ref.: Magn. Reson. Med. 30:672-679 (1993).                
 Slice#2 Row#4 Col#4  PD_24_press_1_raw_act
 36 lines in following concentration table = NCONC+1
    Conc.  %SD /Cr+PCr  Metabolite                                         
 3.81E+03  16%   2.895 Ala                                                 
    0.000 999%   0.000 Asp                                                 
    0.000 999%   0.000 Cr                                                  
 1.32E+03   7%   1.000 PCr                                                 
  164.113  88%   0.125 GABA                                                
  133.176 105%   0.101 Glc                                                 
 5.66E+03  15%   4.305 Gln                                                 
 8.78E+03  13%   6.669 Glu                                                 
  153.974 122%   0.117 GPC                                                 
  260.127  74%   0.198 PCh                                                 
    0.000 999%   0.000 GSH                                                 
 1.39E+03  28%   1.054 Ins                                                 
 1.27E+03  49%   0.965 Lac                                                 
 1.87E+03   6%   1.424 NAA                                                 
    0.000 999%   0.000 NAAG                                                
  120.685  30% 9.2E-02 Scyllo                                              
  244.461  88%   0.186 Tau                                                 
    0.000 999%   0.000 -CrCH2                                              
  414.101   9%   0.315 GPC+PCh                                             
 1.87E+03   6%   1.424 NAA+NAAG                                            
 1.32E+03   7%   1.000 Cr+PCr                                              
 1.44E+04  12%  10.974 Glu+Gln                                             
    0.000 999%   0.000 Lip13a                                              
    0.000 999%   0.000 Lip13b                                              
    0.000 999%   0.000 Lip09                                               
  395.810  37%   0.301 MM09                                                
   98.060 254% 7.5E-02 Lip20                                               
  676.322  59%   0.514 MM20                                                
   97.171 139% 7.4E-02 MM12                                                
 2.21E+03  17%   1.679 MM14                                                
 2.14E+03  14%   1.627+MM17                                                
    0.000 999%   0.000 Lip13a+Lip13b                                       
 2.31E+03  18%   1.753 MM14+Lip13a+Lip13b+MM12                             
  395.810  37%   0.301 MM09+Lip09                                          
  774.382  53%   0.588 MM20+Lip20                                          
   6 lines in following misc. output table
  FWHM = 0.138 ppm    S/N =   6                                            
  Data shift = 0.031 ppm                                                   
  Ph: -32 deg     -19.4 deg/ppm                                            
  alphaB,S = 3.3E-01,   2.0E+02                                            
   14 spline knots.   Ns = 8(2)                                            
  ( 7) 2 infls.   ( 1) 1 extrs.                                            
  498 points on ppm-axis = NY
      4.000000     3.992357     3.984714     3.977070     3.969427     3.961784     3.954141     3.946497     3.938854     3.931211
      3.923568     3.915925     3.908281     3.900638     3.892995     3.885352     3.877708     3.870065     3.862422     3.854779
      3.847136     3.839492     3.831849     3.824206     3.816563     3.808919     3.801276     3.793633     3.785990     3.778347
      3.770703     3.763060     3.755417     3.747774     3.740130     3.732487     3.724844     3.717201     3.709558     3.701914
      3.694271     3.686628     3.678985     3.671341     3.663698     3.656055     3.648412     3.640769     3.633125     3.625482
      3.617839     3.610196     3.602552     3.594909     3.587266     3.579623     3.571980     3.564336     3.556693     3.549050
      3.541407     3.533763     3.526120     3.518477     3.510834     3.503191     3.495547     3.487904     3.480261     3.472618
      3.464974     3.457331     3.449688     3.442045     3.434402     3.426758     3.419115     3.411472     3.403829     3.396185
      3.388542     3.380899     3.373256     3.365613     3.357969     3.350326     3.342683     3.335040     3.327396     3.319753
      3.312110     3.304467     3.296824     3.289180     3.281537     3.273894     3.266251     3.258607     3.250964     3.243321
      3.235678     3.228034     3.220391     3.212748     3.205105     3.197462     3.189818     3.182175     3.174532     3.166889
      3.159245     3.151602     3.143959     3.136316     3.128673     3.121029     3.113386     3.105743     3.098100     3.090456
      3.082813     3.075170     3.067527     3.059884     3.052240     3.044597     3.036954     3.029311     3.021667     3.014024
      3.006381     2.998738     2.991095     2.983451     2.975808     2.968165     2.960522     2.952878     2.945235     2.937592
      2.929949     2.922306     2.914662     2.907019     2.899376     2.891733     2.884089     2.876446     2.868803     2.861160
      2.853517     2.845873     2.838230     2.830587     2.822944     2.815300     2.807657     2.800014     2.792371     2.784728
      2.777084     2.769441     2.761798     2.754155     2.746511     2.738868     2.731225     2.723582     2.715939     2.708295
      2.700652     2.693009     2.685366     2.677722     2.670079     2.662436     2.654793     2.647150     2.639506     2.631863
      2.624220     2.616577     2.608933     2.601290     2.593647     2.586004     2.578361     2.570717     2.563074     2.555431
      2.547788     2.540144     2.532501     2.524858     2.517215     2.509572     2.501928     2.494285     2.486642     2.478999
      2.471355     2.463712     2.456069     2.448426     2.440783     2.433139     2.425496     2.417853     2.410210     2.402566
      2.394923     2.387280     2.379637     2.371994     2.364350     2.356707     2.349064     2.341421     2.333777     2.326134
      2.318491     2.310848     2.303205     2.295561     2.287918     2.280275     2.272632     2.264988     2.257345     2.249702
      2.242059     2.234416     2.226772     2.219129     2.211486     2.203843     2.196199     2.188556     2.180913     2.173270
      2.165627     2.157983     2.150340     2.142697     2.135054     2.127410     2.119767     2.112124     2.104481     2.096838
      2.089194     2.081551     2.073908     2.066265     2.058621     2.050978     2.043335     2.035692     2.028049     2.020405
      2.012762     2.005119     1.997476     1.989833     1.982190     1.974546     1.966903     1.959260     1.951617     1.943974
      1.936331     1.928688     1.921045     1.913402     1.905759     1.898115     1.890472     1.882829     1.875186     1.867543
      1.859900     1.852257     1.844614     1.836971     1.829327     1.821684     1.814041     1.806398     1.798755     1.791112
      1.783469     1.775826     1.768183     1.760540     1.752896     1.745253     1.737610     1.729967     1.722324     1.714681
      1.707038     1.699395     1.691752     1.684108     1.676465     1.668822     1.661179     1.653536     1.645893     1.638250
      1.630607     1.622964     1.615321     1.607677     1.600034     1.592391     1.584748     1.577105     1.569462     1.561819
      1.554176     1.546533     1.538890     1.531246     1.523603     1.515960     1.508317     1.500674     1.493031     1.485388
      1.477745     1.470102     1.462458     1.454815     1.447172     1.439529     1.431886     1.424243     1.416600     1.408957
      1.401314     1.393671     1.386027     1.378384     1.370741     1.363098     1.355455     1.347812     1.340169     1.332526
      1.324883     1.317240     1.309596     1.301953     1.294310     1.286667     1.279024     1.271381     1.263738     1.256095
      1.248452     1.240808     1.233165     1.225522     1.217879     1.210236     1.202593     1.194950     1.187307     1.179664
      1.172021     1.164377     1.156734     1.149091     1.141448     1.133805     1.126162     1.118519     1.110876     1.103233
      1.095590     1.087946     1.080303     1.072660     1.065017     1.057374     1.049731     1.042088     1.034445     1.026802
      1.019158     1.011515     1.003872     0.996229     0.988586     0.980943     0.973300     0.965657     0.958014     0.950371
      0.942727     0.935084     0.927441     0.919798     0.912155     0.904512     0.896869     0.889226     0.881583     0.873940
      0.866296     0.858653     0.851010     0.843367     0.835724     0.828081     0.820438     0.812795     0.805152     0.797508
      0.789865     0.782222     0.774579     0.766936     0.759293     0.751650     0.744007     0.736364     0.728721     0.721077
      0.713434     0.705791     0.698148     0.690505     0.682862     0.675219     0.667576     0.659933     0.652290     0.644646
      0.637003     0.629360     0.621717     0.614074     0.606431     0.598788     0.591145     0.583502     0.575858     0.568215
      0.560572     0.552929     0.545286     0.537643     0.530000     0.522357     0.514714     0.507071     0.499427     0.491784
      0.484141     0.476498     0.468855     0.461212     0.453569     0.445925     0.438282     0.430639     0.422996     0.415353
      0.407710     0.400067     0.392424     0.384780     0.377137     0.369494     0.361851     0.354208     0.346565     0.338922
      0.331278     0.323635     0.315992     0.308349     0.300706     0.293063     0.285420     0.277777     0.270133     0.262490
      0.254847     0.247204     0.239561     0.231918     0.224275     0.216631     0.208988     0.201345
 NY phased data points follow
   2.62262E+00  6.45383E+00  7.13906E+00  9.65023E+00  9.60875E+00  1.10699E+01  1.46671E+01  1.58430E+01  1.35013E+01  1.58625E+01
   1.20729E+01  1.80135E+01  1.35068E+01  1.73080E+01  1.37689E+01  9.86810E+00  1.61833E+01  1.06707E+01  7.68904E+00  8.02390E+00
   7.45825E+00  7.99263E+00  7.63522E+00  7.79626E+00  6.59837E+00  7.45111E+00  8.98955E+00  6.01406E+00  9.80442E+00  9.54538E+00
   1.06466E+01  9.64339E+00  1.36863E+01  1.37060E+01  8.53094E+00  7.31030E+00  9.46619E+00  1.28249E+01  8.71605E+00  9.30258E+00
   1.34849E+01  9.30441E+00  8.16172E+00  9.99729E+00  1.25772E+01  8.57357E+00  8.39498E+00  1.51309E+01  1.27755E+01  1.32001E+01
   9.64975E+00  1.03689E+01  8.17236E+00  7.95890E+00  7.62192E+00  1.04488E+01  6.56052E+00  7.14739E+00  1.04634E+01  2.03502E+00
   6.12828E+00  4.29696E+00  6.85671E+00  6.87816E+00  2.14306E+00  3.51365E+00  7.43512E+00  5.84096E+00  6.32160E+00  4.68283E+00
   3.59293E+00  8.35009E+00  8.70653E+00  3.57628E+00  7.64215E+00  9.57113E+00  3.26659E+00  7.29923E+00  6.86533E+00  7.78469E+00
   8.95935E+00  5.29342E+00  5.61816E+00  6.70003E+00  1.27459E+01  8.17094E+00  7.55525E+00  1.23635E+01  8.81763E+00  1.06749E+01
   8.20419E+00  1.24413E+01  9.91625E+00  8.24629E+00  1.16744E+01  1.21439E+01  1.44683E+01  1.28858E+01  1.80400E+01  2.15344E+01
   2.01575E+01  1.92777E+01  2.15426E+01  2.31785E+01  2.21910E+01  2.33525E+01  2.26867E+01  2.04186E+01  2.12160E+01  2.02846E+01
   1.78014E+01  1.42255E+01  1.68644E+01  1.42853E+01  1.67879E+01  1.53697E+01  1.63341E+01  1.87105E+01  1.80416E+01  1.75297E+01
   1.79465E+01  2.13963E+01  2.55918E+01  2.41257E+01  2.40645E+01  2.83460E+01  2.40851E+01  1.93452E+01  2.77956E+01  2.41318E+01
   2.79088E+01  2.21086E+01  2.70126E+01  2.23652E+01  2.32174E+01  1.72321E+01  1.96579E+01  1.46551E+01  1.35967E+01  1.54270E+01
   1.14631E+01  1.33310E+01  1.35672E+01  1.22274E+01  1.29709E+01  1.36028E+01  1.10412E+01  1.22339E+01  1.19943E+01  1.00506E+01
   1.25494E+01  1.02351E+01  9.14550E+00  1.23714E+01  1.13503E+01  1.07979E+01  1.33745E+01  9.22895E+00  8.28310E+00  7.00368E+00
   1.10117E+01  1.22323E+01  6.13815E+00  1.18272E+01  1.35814E+01  9.33731E+00  1.08364E+01  9.96975E+00  1.47187E+01  1.40569E+01
   8.97439E+00  7.39604E+00  4.64668E+00  7.15971E+00  6.37670E+00  7.63506E+00  6.27553E+00  5.48101E+00  8.74238E+00  8.70472E+00
   9.11151E+00  1.20235E+01  3.79168E+00  7.57277E+00  1.26140E+01  9.08566E+00  6.94910E+00  1.31693E+01  1.14907E+01  6.81698E+00
   1.24324E+01  1.35762E+01  1.53832E+01  1.41852E+01  1.17487E+01  1.38988E+01  1.40633E+01  1.72185E+01  1.43536E+01  1.41645E+01
   1.21443E+01  1.56482E+01  1.29209E+01  1.63655E+01  1.60229E+01  2.02377E+01  1.51318E+01  1.82226E+01  1.46689E+01  1.46650E+01
   1.47993E+01  1.85267E+01  1.78509E+01  1.67562E+01  1.54916E+01  1.47218E+01  1.64735E+01  1.59115E+01  1.98399E+01  1.57596E+01
   1.91124E+01  1.84240E+01  2.02945E+01  2.13212E+01  2.21645E+01  1.54999E+01  1.68836E+01  1.84911E+01  2.16266E+01  1.81233E+01
   1.99512E+01  2.19820E+01  2.04614E+01  2.41658E+01  2.67950E+01  2.63856E+01  2.65183E+01  2.25522E+01  2.76669E+01  2.62390E+01
   2.56477E+01  2.73006E+01  2.51688E+01  2.55903E+01  2.64730E+01  3.00151E+01  2.79121E+01  2.91670E+01  2.95580E+01  3.58483E+01
   3.66067E+01  4.15470E+01  4.01032E+01  3.99872E+01  4.61242E+01  5.41957E+01  5.44993E+01  5.42395E+01  5.58948E+01  5.53030E+01
   5.73800E+01  5.80606E+01  5.77914E+01  5.73981E+01  5.90475E+01  5.75662E+01  5.96564E+01  5.16850E+01  5.05473E+01  4.72975E+01
   4.74348E+01  4.50637E+01  4.62110E+01  4.36078E+01  4.23940E+01  4.78573E+01  4.13862E+01  3.85362E+01  4.02517E+01  4.05199E+01
   4.41881E+01  4.08476E+01  4.24963E+01  4.41850E+01  4.10971E+01  4.20028E+01  4.21816E+01  3.94694E+01  4.27704E+01  4.37584E+01
   4.76297E+01  4.55646E+01  4.25164E+01  4.55609E+01  4.26800E+01  4.40440E+01  4.54378E+01  4.55052E+01  4.26233E+01  4.63686E+01
   4.62548E+01  4.53473E+01  4.55433E+01  4.42237E+01  5.00595E+01  4.29858E+01  4.48122E+01  4.82375E+01  4.66677E+01  4.31136E+01
   4.29912E+01  4.37579E+01  4.29578E+01  3.88421E+01  4.38221E+01  4.22862E+01  4.17960E+01  4.58877E+01  4.66601E+01  4.83725E+01
   4.71398E+01  4.65527E+01  4.66418E+01  4.61859E+01  4.37365E+01  4.71920E+01  4.52014E+01  4.21433E+01  4.10593E+01  4.27104E+01
   4.58222E+01  4.60556E+01  4.42292E+01  4.66957E+01  4.78371E+01  4.58740E+01  4.80633E+01  4.46622E+01  4.76339E+01  4.71669E+01
   4.77872E+01  4.97995E+01  4.92959E+01  5.02229E+01  4.21469E+01  3.95893E+01  4.01423E+01  3.71721E+01  3.86380E+01  3.50100E+01
   3.67488E+01  2.89785E+01  2.86678E+01  3.15650E+01  3.13652E+01  3.03863E+01  2.73425E+01  2.70972E+01  2.45969E+01  2.40694E+01
   2.51107E+01  2.53096E+01  1.70604E+01  2.00565E+01  2.29237E+01  2.14379E+01  2.06322E+01  2.33377E+01  2.31601E+01  2.53752E+01
   2.18336E+01  2.07616E+01  2.68551E+01  2.11558E+01  2.01780E+01  2.13529E+01  2.22266E+01  2.39864E+01  1.81317E+01  1.91427E+01
   1.86541E+01  1.88593E+01  1.58277E+01  1.62838E+01  1.67166E+01  1.26336E+01  9.29753E+00  1.05250E+01  1.13609E+01  1.20870E+01
   1.35665E+01  1.62471E+01  1.29753E+01  1.34968E+01  1.15303E+01  1.28740E+01  1.47799E+01  1.54581E+01  1.49070E+01  1.46971E+01
   1.55946E+01  1.06052E+01  1.49891E+01  1.62094E+01  1.29167E+01  1.33639E+01  1.50899E+01  1.40899E+01  1.28170E+01  1.19567E+01
   1.22272E+01  1.19054E+01  1.17780E+01  1.39972E+01  1.57743E+01  9.90798E+00  1.18358E+01  1.06613E+01  1.41209E+01  9.33797E+00
   8.66517E+00  5.65905E+00  8.87246E+00  7.18172E+00  6.79658E+00  1.06068E+01  9.47503E+00  2.53535E+00  4.64707E+00  7.86257E+00
   5.55175E+00  4.92864E+00  5.04322E+00  1.10872E+00  5.18828E+00  7.70469E+00  8.74543E+00  7.91094E+00  9.76227E+00  8.13399E+00
   4.68170E+00  6.45654E+00  4.84889E+00  6.50595E+00  8.42080E+00  4.35620E+00  2.59237E+00  1.08911E+01  8.58693E+00  7.17590E+00
   8.78409E+00  7.19075E+00  5.98225E+00  5.48520E+00  1.03304E+01  6.87622E+00  5.11030E+00  5.20505E+00  4.58881E+00  6.48396E+00
   6.11184E+00  8.96850E+00  7.10314E+00  6.72211E+00  6.57838E+00  3.19165E+00  5.66391E+00  5.84563E+00  6.76396E+00  4.46036E+00
   4.82206E+00  8.45772E+00  8.34169E+00  5.31633E+00  3.43976E+00  2.87172E+00  4.50539E+00  7.57921E+00  4.53582E+00  5.22014E+00
   1.83215E+00  7.36302E+00  3.38323E+00  6.39933E+00  9.58994E+00  8.02353E+00  8.60112E+00  6.87347E+00  5.19023E+00  5.37245E+00
   1.05546E+01  6.54076E+00  1.57205E+01  1.69372E+00  8.33584E+00  8.48335E+00  5.88082E+00  7.65246E+00
 NY points of the fit to the data follow
   5.32334E+00  5.95147E+00  7.17318E+00  7.74395E+00  9.25696E+00  9.50141E+00  1.11587E+01  1.09840E+01  1.27387E+01  1.23978E+01
   1.38368E+01  1.32823E+01  1.40387E+01  1.34774E+01  1.35149E+01  1.30089E+01  1.27281E+01  1.25127E+01  1.18359E+01  1.19735E+01
   1.07066E+01  1.10039E+01  9.36373E+00  9.93399E+00  8.60189E+00  9.20598E+00  8.56235E+00  9.13927E+00  9.06087E+00  9.58353E+00
   9.71107E+00  9.42196E+00  9.60057E+00  8.85835E+00  9.73965E+00  9.06335E+00  1.09239E+01  1.02343E+01  1.21759E+01  1.09976E+01
   1.21648E+01  1.05018E+01  1.11695E+01  9.74694E+00  1.08814E+01  1.01701E+01  1.14723E+01  1.06483E+01  1.12224E+01  1.00834E+01
   9.89930E+00  8.87674E+00  8.86198E+00  8.35264E+00  8.62221E+00  8.13720E+00  8.21008E+00  7.50655E+00  7.31218E+00  6.78245E+00
   6.73589E+00  6.36295E+00  6.44786E+00  6.15677E+00  6.27394E+00  5.97598E+00  6.12509E+00  5.90733E+00  6.15710E+00  6.02802E+00
   6.37591E+00  6.25649E+00  6.59281E+00  6.45298E+00  6.81440E+00  6.64885E+00  7.03306E+00  6.82926E+00  7.15609E+00  6.94190E+00
   7.27275E+00  7.05046E+00  7.29173E+00  7.01958E+00  7.09706E+00  6.82360E+00  6.93293E+00  7.33356E+00  7.72422E+00  8.39222E+00
   8.92577E+00  9.86043E+00  1.05760E+01  1.17756E+01  1.26640E+01  1.40027E+01  1.51686E+01  1.65991E+01  1.79869E+01  1.90236E+01
   2.03234E+01  2.06341E+01  2.16065E+01  2.11825E+01  2.18197E+01  2.09674E+01  2.14955E+01  2.02797E+01  2.04843E+01  1.87409E+01
   1.86818E+01  1.72659E+01  1.71733E+01  1.61375E+01  1.61845E+01  1.60043E+01  1.64191E+01  1.70773E+01  1.77774E+01  1.87589E+01
   1.95569E+01  2.07942E+01  2.17210E+01  2.32985E+01  2.42514E+01  2.51521E+01  2.57505E+01  2.58817E+01  2.61396E+01  2.57720E+01
   2.57627E+01  2.49618E+01  2.46423E+01  2.31875E+01  2.24912E+01  2.04386E+01  1.95107E+01  1.74888E+01  1.66227E+01  1.50911E+01
   1.44337E+01  1.33713E+01  1.28529E+01  1.18767E+01  1.13727E+01  1.04329E+01  1.01256E+01  1.00016E+01  9.97810E+00  9.92964E+00
   9.94404E+00  9.89896E+00  9.92565E+00  9.87797E+00  9.89842E+00  9.83490E+00  9.85064E+00  9.78034E+00  9.78213E+00  9.72099E+00
   9.66348E+00  9.61690E+00  9.52804E+00  9.47898E+00  9.35196E+00  9.27094E+00  9.15075E+00  9.08562E+00  8.99435E+00  8.94234E+00
   8.85662E+00  8.77854E+00  8.77874E+00  8.68604E+00  8.80959E+00  8.70769E+00  8.97785E+00  8.87095E+00  9.18079E+00  9.10612E+00
   9.29252E+00  9.23115E+00  9.30887E+00  9.32979E+00  9.30929E+00  9.70082E+00  9.62763E+00  1.04101E+01  1.02249E+01  1.16276E+01
   1.13084E+01  1.31056E+01  1.26125E+01  1.43752E+01  1.31058E+01  1.53123E+01  1.36029E+01  1.60668E+01  1.39139E+01  1.68542E+01
   1.47550E+01  1.75847E+01  1.53809E+01  1.79556E+01  1.58571E+01  1.81342E+01  1.61424E+01  1.79067E+01  1.68363E+01  1.80972E+01
   1.77905E+01  1.79466E+01  1.78900E+01  1.70797E+01  1.71774E+01  1.61022E+01  1.65544E+01  1.58100E+01  1.71811E+01  1.64718E+01
   1.79302E+01  1.74277E+01  1.83203E+01  1.81961E+01  1.81892E+01  1.93077E+01  1.89355E+01  2.09756E+01  2.09803E+01  2.34276E+01
   2.28106E+01  2.55921E+01  2.43287E+01  2.66569E+01  2.48584E+01  2.68605E+01  2.55226E+01  2.67714E+01  2.59012E+01  2.66024E+01
   2.61336E+01  2.61992E+01  2.56257E+01  2.54958E+01  2.66833E+01  2.68591E+01  2.88085E+01  2.92412E+01  3.20525E+01  3.29689E+01
   3.65344E+01  3.81271E+01  4.19795E+01  4.40695E+01  4.80546E+01  4.99366E+01  5.29956E+01  5.45528E+01  5.65615E+01  5.76124E+01
   5.83819E+01  5.89970E+01  5.86176E+01  5.85386E+01  5.75277E+01  5.69847E+01  5.50729E+01  5.40515E+01  5.13429E+01  4.99825E+01
   4.71326E+01  4.58855E+01  4.36632E+01  4.28918E+01  4.14643E+01  4.09864E+01  3.98070E+01  3.94021E+01  3.82943E+01  3.82474E+01
   3.84114E+01  3.87755E+01  3.91219E+01  3.96011E+01  4.01172E+01  4.06011E+01  4.12050E+01  4.17803E+01  4.24394E+01  4.30269E+01
   4.36386E+01  4.41408E+01  4.46056E+01  4.50035E+01  4.53342E+01  4.55738E+01  4.57204E+01  4.57684E+01  4.57067E+01  4.55536E+01
   4.52805E+01  4.49409E+01  4.45200E+01  4.40656E+01  4.35792E+01  4.31079E+01  4.26680E+01  4.23077E+01  4.20645E+01  4.20305E+01
   4.23744E+01  4.32069E+01  4.33727E+01  4.43052E+01  4.43150E+01  4.54404E+01  4.50786E+01  4.61199E+01  4.49527E+01  4.64838E+01
   4.52748E+01  4.68660E+01  4.50791E+01  4.62366E+01  4.41455E+01  4.49125E+01  4.31624E+01  4.37309E+01  4.28019E+01  4.36799E+01
   4.39250E+01  4.48285E+01  4.55928E+01  4.55084E+01  4.65728E+01  4.55744E+01  4.70178E+01  4.58236E+01  4.75373E+01  4.66728E+01
   4.83124E+01  4.70071E+01  4.76215E+01  4.51671E+01  4.46044E+01  4.18015E+01  4.09214E+01  3.90586E+01  3.76562E+01  3.62822E+01
   3.49095E+01  3.37236E+01  3.21468E+01  3.06911E+01  2.87800E+01  2.80157E+01  2.68696E+01  2.65957E+01  2.58972E+01  2.59806E+01
   2.55048E+01  2.55354E+01  2.50358E+01  2.46558E+01  2.40937E+01  2.35142E+01  2.30718E+01  2.27354E+01  2.22443E+01  2.18432E+01
   2.13697E+01  2.08460E+01  2.03448E+01  1.96420E+01  1.91134E+01  1.86797E+01  1.82955E+01  1.79441E+01  1.76177E+01  1.73119E+01
   1.70242E+01  1.67532E+01  1.64984E+01  1.62592E+01  1.60359E+01  1.58285E+01  1.56375E+01  1.54632E+01  1.53059E+01  1.51659E+01
   1.50431E+01  1.49373E+01  1.48476E+01  1.47730E+01  1.47117E+01  1.46614E+01  1.46195E+01  1.45824E+01  1.45463E+01  1.45072E+01
   1.44606E+01  1.44023E+01  1.43280E+01  1.42341E+01  1.41174E+01  1.39756E+01  1.38074E+01  1.36123E+01  1.33911E+01  1.31452E+01
   1.28772E+01  1.25903E+01  1.22884E+01  1.19757E+01  1.16564E+01  1.13350E+01  1.10154E+01  1.07013E+01  1.03959E+01  1.01017E+01
   9.82078E+00  9.55444E+00  9.30354E+00  9.06838E+00  8.84887E+00  8.64457E+00  8.45482E+00  8.27873E+00  8.11539E+00  7.96374E+00
   7.82284E+00  7.69168E+00  7.56940E+00  7.45515E+00  7.34822E+00  7.24793E+00  7.15373E+00  7.06511E+00  6.98164E+00  6.90297E+00
   6.82878E+00  6.75881E+00  6.69279E+00  6.63059E+00  6.57197E+00  6.51684E+00  6.46502E+00  6.41646E+00  6.37098E+00  6.32856E+00
   6.28906E+00  6.25248E+00  6.21866E+00  6.18762E+00  6.15918E+00  6.13336E+00  6.10998E+00  6.08905E+00  6.07042E+00  6.05407E+00
   6.03989E+00  6.02785E+00  6.01783E+00  6.00982E+00  6.00371E+00  5.99947E+00  5.99701E+00  5.99629E+00  5.99723E+00  5.99978E+00
   6.00389E+00  6.00949E+00  6.01652E+00  6.02493E+00  6.03466E+00  6.04565E+00  6.05787E+00  6.07124E+00  6.08572E+00  6.10126E+00
   6.11782E+00  6.13533E+00  6.15376E+00  6.17306E+00  6.19319E+00  6.21411E+00  6.23578E+00  6.25817E+00  6.28125E+00  6.30500E+00
   6.32940E+00  6.35445E+00  6.38012E+00  6.40645E+00  6.43344E+00  6.46116E+00  6.48967E+00  6.51908E+00
 NY background values follow
    -2.792E+00   -2.744E+00   -2.695E+00   -2.646E+00   -2.598E+00   -2.549E+00   -2.499E+00   -2.450E+00   -2.400E+00   -2.350E+00
    -2.299E+00   -2.248E+00   -2.197E+00   -2.146E+00   -2.094E+00   -2.041E+00   -1.989E+00   -1.935E+00   -1.882E+00   -1.827E+00
    -1.773E+00   -1.717E+00   -1.661E+00   -1.605E+00   -1.548E+00   -1.490E+00   -1.432E+00   -1.373E+00   -1.313E+00   -1.252E+00
    -1.191E+00   -1.129E+00   -1.066E+00   -1.003E+00   -9.385E-01   -8.733E-01   -8.072E-01   -7.402E-01   -6.723E-01   -6.035E-01
    -5.337E-01   -4.630E-01   -3.912E-01   -3.185E-01   -2.447E-01   -1.698E-01   -9.393E-02   -1.694E-02    6.110E-02    1.402E-01
     2.202E-01    3.013E-01    3.833E-01    4.663E-01    5.503E-01    6.351E-01    7.208E-01    8.075E-01    8.949E-01    9.832E-01
     1.072E+00    1.162E+00    1.253E+00    1.344E+00    1.437E+00    1.530E+00    1.623E+00    1.718E+00    1.813E+00    1.908E+00
     2.005E+00    2.101E+00    2.199E+00    2.297E+00    2.396E+00    2.495E+00    2.594E+00    2.694E+00    2.795E+00    2.896E+00
     2.998E+00    3.099E+00    3.202E+00    3.304E+00    3.407E+00    3.511E+00    3.615E+00    3.719E+00    3.823E+00    3.927E+00
     4.032E+00    4.137E+00    4.242E+00    4.348E+00    4.453E+00    4.559E+00    4.665E+00    4.771E+00    4.877E+00    4.984E+00
     5.090E+00    5.197E+00    5.304E+00    5.411E+00    5.518E+00    5.625E+00    5.732E+00    5.839E+00    5.946E+00    6.054E+00
     6.161E+00    6.268E+00    6.376E+00    6.483E+00    6.590E+00    6.698E+00    6.805E+00    6.912E+00    7.020E+00    7.127E+00
     7.234E+00    7.341E+00    7.448E+00    7.555E+00    7.662E+00    7.768E+00    7.875E+00    7.981E+00    8.088E+00    8.194E+00
     8.300E+00    8.406E+00    8.511E+00    8.617E+00    8.722E+00    8.827E+00    8.932E+00    9.036E+00    9.141E+00    9.245E+00
     9.349E+00    9.453E+00    9.557E+00    9.661E+00    9.765E+00    9.869E+00    9.973E+00    1.008E+01    1.018E+01    1.029E+01
     1.039E+01    1.050E+01    1.060E+01    1.071E+01    1.081E+01    1.092E+01    1.102E+01    1.113E+01    1.124E+01    1.134E+01
     1.145E+01    1.156E+01    1.167E+01    1.178E+01    1.189E+01    1.200E+01    1.211E+01    1.222E+01    1.233E+01    1.245E+01
     1.256E+01    1.268E+01    1.279E+01    1.291E+01    1.303E+01    1.315E+01    1.326E+01    1.339E+01    1.351E+01    1.363E+01
     1.375E+01    1.388E+01    1.400E+01    1.413E+01    1.426E+01    1.439E+01    1.452E+01    1.465E+01    1.478E+01    1.491E+01
     1.505E+01    1.518E+01    1.532E+01    1.546E+01    1.560E+01    1.574E+01    1.588E+01    1.602E+01    1.617E+01    1.631E+01
     1.646E+01    1.660E+01    1.675E+01    1.690E+01    1.705E+01    1.721E+01    1.736E+01    1.751E+01    1.767E+01    1.783E+01
     1.799E+01    1.815E+01    1.831E+01    1.847E+01    1.863E+01    1.880E+01    1.896E+01    1.913E+01    1.930E+01    1.947E+01
     1.964E+01    1.981E+01    1.999E+01    2.016E+01    2.034E+01    2.051E+01    2.069E+01    2.087E+01    2.106E+01    2.124E+01
     2.142E+01    2.161E+01    2.179E+01    2.198E+01    2.216E+01    2.235E+01    2.253E+01    2.272E+01    2.290E+01    2.309E+01
     2.327E+01    2.346E+01    2.364E+01    2.382E+01    2.400E+01    2.418E+01    2.436E+01    2.454E+01    2.472E+01    2.489E+01
     2.506E+01    2.523E+01    2.540E+01    2.557E+01    2.573E+01    2.589E+01    2.605E+01    2.620E+01    2.636E+01    2.651E+01
     2.665E+01    2.679E+01    2.693E+01    2.707E+01    2.720E+01    2.733E+01    2.745E+01    2.757E+01    2.769E+01    2.780E+01
     2.790E+01    2.800E+01    2.810E+01    2.819E+01    2.828E+01    2.836E+01    2.844E+01    2.851E+01    2.857E+01    2.864E+01
     2.869E+01    2.875E+01    2.879E+01    2.884E+01    2.887E+01    2.891E+01    2.893E+01    2.896E+01    2.897E+01    2.899E+01
     2.900E+01    2.900E+01    2.900E+01    2.899E+01    2.898E+01    2.897E+01    2.895E+01    2.892E+01    2.889E+01    2.886E+01
     2.882E+01    2.877E+01    2.872E+01    2.867E+01    2.861E+01    2.855E+01    2.848E+01    2.841E+01    2.833E+01    2.825E+01
     2.816E+01    2.807E+01    2.797E+01    2.787E+01    2.776E+01    2.765E+01    2.754E+01    2.742E+01    2.729E+01    2.716E+01
     2.703E+01    2.689E+01    2.675E+01    2.660E+01    2.645E+01    2.630E+01    2.614E+01    2.598E+01    2.581E+01    2.564E+01
     2.547E+01    2.530E+01    2.512E+01    2.494E+01    2.475E+01    2.456E+01    2.437E+01    2.418E+01    2.398E+01    2.379E+01
     2.358E+01    2.338E+01    2.318E+01    2.297E+01    2.276E+01    2.255E+01    2.234E+01    2.212E+01    2.191E+01    2.169E+01
     2.147E+01    2.125E+01    2.103E+01    2.081E+01    2.058E+01    2.036E+01    2.013E+01    1.991E+01    1.968E+01    1.946E+01
     1.923E+01    1.900E+01    1.877E+01    1.855E+01    1.832E+01    1.809E+01    1.787E+01    1.764E+01    1.741E+01    1.719E+01
     1.696E+01    1.674E+01    1.651E+01    1.629E+01    1.606E+01    1.584E+01    1.562E+01    1.540E+01    1.518E+01    1.497E+01
     1.475E+01    1.453E+01    1.432E+01    1.411E+01    1.390E+01    1.369E+01    1.348E+01    1.328E+01    1.307E+01    1.287E+01
     1.267E+01    1.248E+01    1.228E+01    1.209E+01    1.190E+01    1.171E+01    1.153E+01    1.134E+01    1.116E+01    1.099E+01
     1.081E+01    1.064E+01    1.047E+01    1.030E+01    1.014E+01    9.983E+00    9.827E+00    9.674E+00    9.525E+00    9.379E+00
     9.237E+00    9.098E+00    8.962E+00    8.829E+00    8.700E+00    8.574E+00    8.451E+00    8.331E+00    8.215E+00    8.101E+00
     7.991E+00    7.884E+00    7.780E+00    7.679E+00    7.581E+00    7.486E+00    7.394E+00    7.304E+00    7.218E+00    7.135E+00
     7.054E+00    6.977E+00    6.902E+00    6.830E+00    6.760E+00    6.694E+00    6.630E+00    6.569E+00    6.511E+00    6.455E+00
     6.402E+00    6.351E+00    6.303E+00    6.257E+00    6.215E+00    6.174E+00    6.136E+00    6.101E+00    6.067E+00    6.037E+00
     6.008E+00    5.982E+00    5.959E+00    5.937E+00    5.918E+00    5.901E+00    5.886E+00    5.874E+00    5.863E+00    5.854E+00
     5.847E+00    5.842E+00    5.839E+00    5.837E+00    5.837E+00    5.839E+00    5.843E+00    5.847E+00    5.854E+00    5.861E+00
     5.870E+00    5.881E+00    5.892E+00    5.905E+00    5.919E+00    5.934E+00    5.950E+00    5.966E+00    5.984E+00    6.003E+00
     6.022E+00    6.042E+00    6.063E+00    6.084E+00    6.106E+00    6.129E+00    6.152E+00    6.175E+00    6.198E+00    6.222E+00
     6.246E+00    6.271E+00    6.295E+00    6.319E+00    6.344E+00    6.368E+00    6.392E+00    6.416E+00
 Ala      Conc. = 3.81E+03
