 LCModel (Version 6.3-1L) Copyright: S.W. Provencher.          Ref.: Magn. Reson. Med. 30:672-679 (1993).                
 Slice#1 Row#13 Col#14  PD_24_press_1_raw_act
 36 lines in following concentration table = NCONC+1
    Conc.  %SD /Cr+PCr  Metabolite                                         
    0.000 999%   0.000 Ala                                                 
    6.989  36%   0.186 Asp                                                 
    0.000 999%   0.000 Cr                                                  
   37.612  28%   1.000 PCr                                                 
    4.239  35%   0.113 GABA                                                
    4.204  36%   0.112 Glc                                                 
   26.324 153%   0.700 Gln                                                 
   54.194  82%   1.441 Glu                                                 
   13.398  31%   0.356 GPC                                                 
    0.000 999%   0.000 PCh                                                 
    0.000 999%   0.000 GSH                                                 
   72.110  63%   1.917 Ins                                                 
   44.433  51%   1.181 Lac                                                 
   62.303  19%   1.656 NAA                                                 
    0.000 999%   0.000 NAAG                                                
    1.450  35% 3.9E-02 Scyllo                                              
    6.915  36%   0.184 Tau                                                 
    4.700  80%   0.125 -CrCH2                                              
   13.398  31%   0.356 GPC+PCh                                             
   62.303  19%   1.656 NAA+NAAG                                            
   37.612  28%   1.000 Cr+PCr                                              
   80.518  70%   2.141 Glu+Gln                                             
  597.454  13%  15.885 Lip13a                                              
    0.000 999%   0.000 Lip13b                                              
  121.615  27%   3.233 Lip09                                               
    0.000 999%   0.000 MM09                                                
   57.836  50%   1.538 Lip20                                               
    0.000 999%   0.000 MM20                                                
 2.58E-04 999% 6.9E-06 MM12                                                
 1.05E-03 999% 2.8E-05 MM14                                                
 2.40E-03 999% 6.4E-05 MM17                                                
  597.454  13%  15.885 Lip13a+Lip13b                                       
  597.455  13%  15.885 MM14+Lip13a+Lip13b+MM12                             
  121.615  27%   3.233 MM09+Lip09                                          
   57.836  50%   1.538 MM20+Lip20                                          
   6 lines in following misc. output table
  FWHM = 0.038 ppm    S/N =   1                                            
  Data shift =-0.015 ppm                                                   
  Ph:  90 deg     -12.2 deg/ppm                                            
  alphaB,S = 8.5E+01,   5.1E+01                                            
   14 spline knots.   Ns = 5(1)                                            
   2 inflections.     1 extrema                                            
  498 points on ppm-axis = NY
      4.000000     3.992357     3.984714     3.977070     3.969427     3.961784     3.954141     3.946497     3.938854     3.931211
      3.923568     3.915925     3.908281     3.900638     3.892995     3.885352     3.877708     3.870065     3.862422     3.854779
      3.847136     3.839492     3.831849     3.824206     3.816563     3.808919     3.801276     3.793633     3.785990     3.778347
      3.770703     3.763060     3.755417     3.747774     3.740130     3.732487     3.724844     3.717201     3.709558     3.701914
      3.694271     3.686628     3.678985     3.671341     3.663698     3.656055     3.648412     3.640769     3.633125     3.625482
      3.617839     3.610196     3.602552     3.594909     3.587266     3.579623     3.571980     3.564336     3.556693     3.549050
      3.541407     3.533763     3.526120     3.518477     3.510834     3.503191     3.495547     3.487904     3.480261     3.472618
      3.464974     3.457331     3.449688     3.442045     3.434402     3.426758     3.419115     3.411472     3.403829     3.396185
      3.388542     3.380899     3.373256     3.365613     3.357969     3.350326     3.342683     3.335040     3.327396     3.319753
      3.312110     3.304467     3.296824     3.289180     3.281537     3.273894     3.266251     3.258607     3.250964     3.243321
      3.235678     3.228034     3.220391     3.212748     3.205105     3.197462     3.189818     3.182175     3.174532     3.166889
      3.159245     3.151602     3.143959     3.136316     3.128673     3.121029     3.113386     3.105743     3.098100     3.090456
      3.082813     3.075170     3.067527     3.059884     3.052240     3.044597     3.036954     3.029311     3.021667     3.014024
      3.006381     2.998738     2.991095     2.983451     2.975808     2.968165     2.960522     2.952878     2.945235     2.937592
      2.929949     2.922306     2.914662     2.907019     2.899376     2.891733     2.884089     2.876446     2.868803     2.861160
      2.853517     2.845873     2.838230     2.830587     2.822944     2.815300     2.807657     2.800014     2.792371     2.784728
      2.777084     2.769441     2.761798     2.754155     2.746511     2.738868     2.731225     2.723582     2.715939     2.708295
      2.700652     2.693009     2.685366     2.677722     2.670079     2.662436     2.654793     2.647150     2.639506     2.631863
      2.624220     2.616577     2.608933     2.601290     2.593647     2.586004     2.578361     2.570717     2.563074     2.555431
      2.547788     2.540144     2.532501     2.524858     2.517215     2.509572     2.501928     2.494285     2.486642     2.478999
      2.471355     2.463712     2.456069     2.448426     2.440783     2.433139     2.425496     2.417853     2.410210     2.402566
      2.394923     2.387280     2.379637     2.371994     2.364350     2.356707     2.349064     2.341421     2.333777     2.326134
      2.318491     2.310848     2.303205     2.295561     2.287918     2.280275     2.272632     2.264988     2.257345     2.249702
      2.242059     2.234416     2.226772     2.219129     2.211486     2.203843     2.196199     2.188556     2.180913     2.173270
      2.165627     2.157983     2.150340     2.142697     2.135054     2.127410     2.119767     2.112124     2.104481     2.096838
      2.089194     2.081551     2.073908     2.066265     2.058621     2.050978     2.043335     2.035692     2.028049     2.020405
      2.012762     2.005119     1.997476     1.989833     1.982190     1.974546     1.966903     1.959260     1.951617     1.943974
      1.936331     1.928688     1.921045     1.913402     1.905759     1.898115     1.890472     1.882829     1.875186     1.867543
      1.859900     1.852257     1.844614     1.836971     1.829327     1.821684     1.814041     1.806398     1.798755     1.791112
      1.783469     1.775826     1.768183     1.760540     1.752896     1.745253     1.737610     1.729967     1.722324     1.714681
      1.707038     1.699395     1.691752     1.684108     1.676465     1.668822     1.661179     1.653536     1.645893     1.638250
      1.630607     1.622964     1.615321     1.607677     1.600034     1.592391     1.584748     1.577105     1.569462     1.561819
      1.554176     1.546533     1.538890     1.531246     1.523603     1.515960     1.508317     1.500674     1.493031     1.485388
      1.477745     1.470102     1.462458     1.454815     1.447172     1.439529     1.431886     1.424243     1.416600     1.408957
      1.401314     1.393671     1.386027     1.378384     1.370741     1.363098     1.355455     1.347812     1.340169     1.332526
      1.324883     1.317240     1.309596     1.301953     1.294310     1.286667     1.279024     1.271381     1.263738     1.256095
      1.248452     1.240808     1.233165     1.225522     1.217879     1.210236     1.202593     1.194950     1.187307     1.179664
      1.172021     1.164377     1.156734     1.149091     1.141448     1.133805     1.126162     1.118519     1.110876     1.103233
      1.095590     1.087946     1.080303     1.072660     1.065017     1.057374     1.049731     1.042088     1.034445     1.026802
      1.019158     1.011515     1.003872     0.996229     0.988586     0.980943     0.973300     0.965657     0.958014     0.950371
      0.942727     0.935084     0.927441     0.919798     0.912155     0.904512     0.896869     0.889226     0.881583     0.873940
      0.866296     0.858653     0.851010     0.843367     0.835724     0.828081     0.820438     0.812795     0.805152     0.797508
      0.789865     0.782222     0.774579     0.766936     0.759293     0.751650     0.744007     0.736364     0.728721     0.721077
      0.713434     0.705791     0.698148     0.690505     0.682862     0.675219     0.667576     0.659933     0.652290     0.644646
      0.637003     0.629360     0.621717     0.614074     0.606431     0.598788     0.591145     0.583502     0.575858     0.568215
      0.560572     0.552929     0.545286     0.537643     0.530000     0.522357     0.514714     0.507071     0.499427     0.491784
      0.484141     0.476498     0.468855     0.461212     0.453569     0.445925     0.438282     0.430639     0.422996     0.415353
      0.407710     0.400067     0.392424     0.384780     0.377137     0.369494     0.361851     0.354208     0.346565     0.338922
      0.331278     0.323635     0.315992     0.308349     0.300706     0.293063     0.285420     0.277777     0.270133     0.262490
      0.254847     0.247204     0.239561     0.231918     0.224275     0.216631     0.208988     0.201345
 NY phased data points follow
  -1.31643E-01  6.13115E-01 -6.79498E-01 -2.02163E-02  4.99498E-01  1.27389E+00 -3.84463E-01 -4.47226E-01 -3.17038E-01 -4.85878E-01
  -1.83354E-02 -5.83233E-01  6.98644E-01 -1.21868E+00 -1.72174E+00 -9.08355E-01 -2.72578E+00 -2.95520E-01  5.47679E-02  4.07819E-01
  -1.88696E+00 -8.02195E-01 -4.80062E-02 -7.60841E-01 -7.55568E-01  6.48221E-01 -3.44985E-01 -2.34132E-01 -1.02014E+00  7.69499E-01
  -1.54775E+00  1.35547E-01 -1.76812E+00 -1.15113E+00  1.04741E+00 -6.47415E-01  9.95276E-01  4.17986E-01  1.30663E-02 -4.15506E-01
   7.62081E-01 -1.83924E+00  1.94651E-01 -3.86838E-01  1.15911E-01  1.02811E+00  2.17886E-01  1.41476E+00 -8.39970E-02  1.61111E+00
   3.41353E-01 -8.20350E-01 -3.37161E-01 -1.68837E+00 -2.02270E+00 -1.51248E+00 -3.69687E-01 -3.85233E-01  5.37586E-02 -1.30668E+00
  -2.77655E+00 -1.65187E+00 -3.83056E-01 -2.01989E-01  1.56526E+00 -1.18386E+00 -1.11493E-01 -6.70506E-01  1.50440E-01 -1.03803E+00
  -5.91999E-01 -1.20125E+00 -1.60475E+00 -5.40294E-01 -3.10432E-01 -9.39879E-02  4.34725E-02 -1.86630E-01 -1.18869E+00  5.98643E-01
  -1.28488E+00  1.23145E+00  5.24154E-01 -8.71683E-01 -4.24037E-01  9.89255E-01  7.77849E-01 -6.89581E-01  3.79563E-02 -1.18916E+00
  -6.28396E-02  6.82904E-01  1.46334E+00 -1.02761E-01 -5.74436E-01  6.59066E-01  6.47581E-01 -3.41843E-01 -3.04549E-01  4.49367E-01
  -3.13376E-02  1.44649E+00  1.61277E+00  1.58569E+00  3.48978E-01  1.49692E-01 -2.43306E+00 -1.58355E+00 -4.85942E-01 -1.32185E+00
  -1.43163E+00 -7.47684E-02  1.05650E-01 -4.56196E-01 -1.55160E+00 -7.78257E-01 -1.09301E+00 -5.58318E-01 -7.41229E-01  5.35602E-01
  -1.25852E+00 -1.70035E+00 -9.43283E-01 -1.35773E+00  5.83907E-01 -5.00233E-02  1.96207E+00  2.23086E+00  3.13685E+00  4.98266E-01
  -1.08162E+00  2.65746E-01 -2.01491E+00 -2.66238E-01 -2.39232E+00  2.00423E-01 -2.16437E+00  1.09531E-02 -6.96651E-02 -5.29224E-01
  -2.42897E+00 -3.70631E-01 -1.31495E+00 -1.67112E+00  1.71528E-01 -1.83452E+00 -7.58472E-01  3.10713E-01 -2.81258E-01 -2.54715E-01
   3.08005E-01 -4.57490E-01 -6.03040E-01 -5.02768E-01  9.33889E-01 -6.63182E-01 -5.61256E-01  2.82158E-01  1.03603E+00  7.74818E-01
  -7.01288E-01 -9.24654E-01 -9.24763E-01  9.67875E-01  8.29997E-01 -1.02988E+00 -5.54075E-01 -5.56209E-01 -7.67856E-01  8.84216E-01
  -1.58975E+00 -1.28977E-01  5.57618E-01 -5.08563E-01 -9.46993E-01 -4.25032E-01  5.14812E-01 -2.80792E+00 -9.28096E-01 -5.98274E-01
  -5.44556E-01 -3.42899E-02 -7.46193E-01  6.21973E-02  5.98323E-02  8.47519E-02 -2.24356E-01 -1.00687E+00  1.28045E+00 -4.24788E-01
  -1.65266E-02 -3.64934E-01 -7.80978E-01 -9.28119E-01 -7.17762E-01  9.76018E-01  6.68351E-01  2.18552E-01 -8.94804E-01 -5.10547E-01
  -4.64779E-02 -1.10148E+00  3.64673E-01  3.06354E-01  1.68714E-01 -7.98243E-01 -9.59276E-02 -1.00430E+00 -4.70937E-01 -4.17098E-01
  -2.28236E+00 -2.81620E-01  7.58380E-01  1.62127E+00  1.36974E+00  1.23754E+00  4.34029E-01  1.29086E-01  6.97679E-01 -1.07359E+00
   2.98806E-01 -1.44520E+00  1.52389E-01 -3.01706E-01 -5.19555E-02  1.08631E+00 -5.21690E-01  1.96651E-01 -1.56018E+00 -5.04373E-01
   9.82640E-02 -3.57674E-01 -2.40126E+00 -2.07186E-01  5.77599E-02 -1.56301E-01 -1.36255E-01 -3.86809E-01 -1.99667E+00 -2.36917E-01
   1.30988E+00 -1.03999E+00 -1.57058E+00  1.12166E-01  7.82860E-02  1.39656E-01 -5.93408E-01 -2.26405E+00 -1.43061E+00 -7.25581E-01
  -6.38319E-02 -3.27442E-01 -7.46317E-01 -2.01403E+00 -1.14893E+00 -1.41789E+00  5.25122E-01  7.76318E-01  2.96509E+00  2.68443E+00
   3.68344E+00  1.92955E+00  9.01615E-01 -6.42977E-01 -2.38176E-01 -7.11827E-01 -2.11729E+00 -3.06527E+00 -2.08886E+00  2.73876E-01
  -2.03437E-01 -1.12503E+00  1.07593E+00 -1.04007E+00 -8.16100E-01  8.01035E-02  5.20701E-01  9.22410E-01 -2.08084E+00  2.41193E-01
  -1.80344E+00  8.51977E-02  1.71416E+00 -1.74598E-01 -1.52517E+00  7.81182E-01 -1.19750E-01 -1.59610E+00 -3.62122E-01 -5.12294E-01
  -9.38095E-01 -1.42551E+00 -2.85078E-01 -9.16476E-02 -2.36812E-01 -1.45408E+00  3.62904E-01  5.16931E-01 -5.99891E-01  1.12052E-01
   3.01178E-01 -1.10448E+00  2.01344E-01  2.93295E-01 -1.12881E+00  1.27232E+00  2.00985E+00  7.42227E-01  8.55044E-01  3.29597E-01
  -4.60217E-01  1.31036E+00 -1.77250E-01 -1.59899E-03  1.60734E+00  7.69397E-01  6.86423E-01 -9.16188E-01  1.02405E+00 -1.70351E+00
  -1.41733E+00 -4.80747E-01  9.67631E-02 -2.70683E+00 -2.24076E-01  7.72002E-01  5.26545E-02 -4.59178E-01  1.74069E-01  1.16243E+00
  -2.53217E-01  9.03074E-02  6.26520E-01  2.23552E+00  2.25235E+00  1.50311E+00  1.15588E+00 -1.80576E-01 -1.41758E-01  1.28803E+00
   3.58378E-01  1.31510E+00  1.30728E+00  8.14214E-01  4.25119E+00  1.99996E+00  2.58287E+00  6.01326E-01  2.14124E+00  7.28931E-01
   1.60938E+00  7.25878E-01  1.82220E+00  3.28951E+00  2.94731E+00  1.54825E+00  3.75393E+00  2.61507E+00  5.88345E-01  2.00964E+00
   2.49370E+00  2.19001E+00  1.98216E+00 -5.66589E-03  2.54919E+00  1.25522E+00  2.34987E+00  4.96513E-01  1.43000E+00  5.18550E-01
   5.64875E-01  6.30696E-01  1.04454E+00  2.91883E+00  9.74075E-01  2.86433E+00  9.79906E-01  5.46056E-01  1.25194E+00  1.56525E-01
   1.59640E+00  8.94020E-01  2.27970E+00  1.06064E+00  2.12061E+00  8.85817E-01  9.52588E-01  1.67449E+00  6.25958E-01  2.32364E+00
   3.96639E-02 -1.05858E+00 -1.14447E-01 -1.83218E+00 -2.27711E-01 -9.92768E-01 -1.40745E+00  1.08135E+00 -1.93593E-01  9.13421E-01
  -1.14978E+00  2.42774E-01 -2.53292E-01  1.09310E-01  7.28843E-01 -9.84439E-01  3.52415E-01 -1.04325E+00 -3.85101E-01  5.36805E-01
   2.28059E+00  6.11555E-01  4.53821E-01 -2.96135E-01 -2.50413E-01  5.18461E-01  6.45903E-01 -1.94676E+00 -1.92847E+00 -1.64900E+00
  -4.23611E-01  2.06130E-01  4.55516E-01  3.45730E-01  9.31550E-01  6.23383E-01  2.58491E-01 -1.96751E+00  1.06478E+00 -9.42349E-02
  -1.63572E+00 -8.12516E-01 -3.98515E-01  2.19650E-02 -1.16114E+00 -1.06521E+00 -4.09031E-01 -3.96647E-01  7.90198E-01 -2.50478E-01
   6.14971E-01  7.62301E-01 -1.38599E+00 -2.03976E+00 -2.03978E-01 -2.93291E-01  1.92676E-01  2.25454E-01 -1.31980E+00 -7.85834E-01
  -1.64659E+00 -1.52526E+00 -2.17984E+00 -8.51215E-01  2.05805E-01 -2.80375E-01 -1.54297E-01 -3.54195E-01 -3.91640E-01 -6.54604E-01
   5.04544E-01 -5.35921E-01  3.68782E-01 -1.39659E+00  4.82638E-01 -1.97372E-01 -1.56692E+00  6.13435E-01  4.36822E-02 -4.84665E-01
   4.19320E-01 -1.75147E+00 -2.39927E-01 -6.88653E-01 -5.80401E-01 -1.26025E+00 -1.52525E-01 -1.22671E+00 -7.42676E-01  3.24544E-01
  -6.83786E-01  2.63805E-01  8.75917E-01 -3.57639E-01 -7.45302E-01 -5.96485E-01  5.31670E-01 -6.75939E-01 -2.50597E-01 -1.92437E-01
   1.77479E-01 -1.04241E+00  2.94733E-01 -3.64417E-01 -1.02014E+00 -1.52296E-02 -7.96465E-01 -6.50227E-01
 NY points of the fit to the data follow
  -4.31948E-01 -4.25054E-01 -3.99608E-01 -3.59467E-01 -2.67975E-01 -8.79857E-02  1.45008E-01  3.66206E-01  5.08516E-01  5.25821E-01
   4.11627E-01  2.04334E-01 -2.76247E-02 -2.17324E-01 -3.28587E-01 -3.68197E-01 -3.78135E-01 -3.89372E-01 -3.97873E-01 -3.98789E-01
  -3.87678E-01 -3.66422E-01 -3.47821E-01 -3.51817E-01 -3.86920E-01 -4.46001E-01 -5.07977E-01 -5.36907E-01 -5.05088E-01 -4.10725E-01
  -2.81100E-01 -1.62693E-01 -9.86009E-02 -1.08044E-01 -1.78642E-01 -2.76284E-01 -3.66873E-01 -4.24319E-01 -4.39406E-01 -4.26748E-01
  -4.03658E-01 -3.73031E-01 -3.16179E-01 -2.04995E-01 -4.16767E-02  1.31473E-01  2.55366E-01  2.84126E-01  2.01450E-01  2.68783E-02
  -1.87673E-01 -3.75810E-01 -4.89451E-01 -5.21401E-01 -4.93885E-01 -4.34207E-01 -3.59500E-01 -2.78080E-01 -2.05090E-01 -1.60411E-01
  -1.58316E-01 -2.01053E-01 -2.74565E-01 -3.53658E-01 -4.11126E-01 -4.30145E-01 -4.13993E-01 -3.73105E-01 -3.21159E-01 -2.73907E-01
  -2.38640E-01 -2.16535E-01 -2.08315E-01 -2.14484E-01 -2.34373E-01 -2.64600E-01 -2.99363E-01 -3.30713E-01 -3.52616E-01 -3.64999E-01
  -3.66965E-01 -3.55700E-01 -3.41401E-01 -3.42319E-01 -3.70916E-01 -4.25819E-01 -4.93340E-01 -5.52811E-01 -5.85572E-01 -5.81470E-01
  -5.42983E-01 -4.83368E-01 -4.21329E-01 -3.75990E-01 -3.51625E-01 -3.42790E-01 -3.32719E-01 -2.58828E-01 -2.44123E-02  3.43132E-01
   7.36652E-01  1.03138E+00  1.12739E+00  9.86871E-01  6.51671E-01  2.32541E-01 -1.39957E-01 -3.75780E-01 -4.63553E-01 -4.67302E-01
  -4.64679E-01 -4.63855E-01 -4.61945E-01 -4.60063E-01 -4.58768E-01 -4.58918E-01 -4.59576E-01 -4.58857E-01 -4.55151E-01 -4.46087E-01
  -4.25902E-01 -3.70330E-01 -1.93927E-01  1.39531E-01  5.50001E-01  9.15721E-01  1.12206E+00  1.10032E+00  8.53924E-01  4.61694E-01
   4.92384E-02 -2.67278E-01 -4.34326E-01 -4.77195E-01 -4.76398E-01 -4.74741E-01 -4.69676E-01 -4.62907E-01 -4.56994E-01 -4.52539E-01
  -4.48690E-01 -4.43584E-01 -4.36377E-01 -4.28111E-01 -4.20041E-01 -4.13648E-01 -4.10259E-01 -4.09802E-01 -4.10771E-01 -4.10947E-01
  -4.09078E-01 -4.05407E-01 -4.00955E-01 -3.96918E-01 -3.93989E-01 -3.93977E-01 -4.02052E-01 -4.19475E-01 -4.41421E-01 -4.59534E-01
  -4.63724E-01 -4.52069E-01 -4.30258E-01 -4.07614E-01 -3.94009E-01 -3.95559E-01 -4.11691E-01 -4.35344E-01 -4.56932E-01 -4.72045E-01
  -4.82295E-01 -4.94239E-01 -5.12181E-01 -5.28496E-01 -5.35533E-01 -5.31036E-01 -5.20320E-01 -5.09625E-01 -5.01986E-01 -4.98265E-01
  -4.96845E-01 -4.95959E-01 -4.95956E-01 -4.93235E-01 -4.83916E-01 -4.69235E-01 -4.49313E-01 -4.24417E-01 -3.97144E-01 -3.74846E-01
  -3.64130E-01 -3.66280E-01 -3.75083E-01 -3.83664E-01 -3.88106E-01 -3.89608E-01 -3.88126E-01 -3.79179E-01 -3.57338E-01 -3.18368E-01
  -2.63955E-01 -2.04956E-01 -1.62837E-01 -1.56644E-01 -1.99672E-01 -2.99461E-01 -4.36486E-01 -5.70854E-01 -6.66946E-01 -6.95140E-01
  -6.37519E-01 -4.90867E-01 -2.93419E-01 -1.06726E-01  1.47025E-02  3.77640E-02 -4.24243E-02 -2.07470E-01 -4.18778E-01 -6.11281E-01
  -7.20685E-01 -7.21902E-01 -6.26821E-01 -4.74757E-01 -3.07497E-01 -1.67527E-01 -8.77069E-02 -7.45736E-02 -1.06704E-01 -1.50881E-01
  -1.87021E-01 -2.16103E-01 -2.38346E-01 -2.48320E-01 -2.43409E-01 -2.24485E-01 -1.93236E-01 -1.56840E-01 -1.32929E-01 -1.31310E-01
  -1.52145E-01 -1.87992E-01 -2.25075E-01 -2.46592E-01 -2.47660E-01 -2.35137E-01 -2.18681E-01 -2.03280E-01 -1.87253E-01 -1.63767E-01
  -1.25508E-01 -7.61011E-02 -2.23711E-02  3.11473E-02  1.06873E-01  3.32647E-01  8.15986E-01  1.45754E+00  2.06699E+00  2.44930E+00
   2.46942E+00  2.10591E+00  1.46958E+00  7.62918E-01  1.89714E-01 -1.38958E-01 -2.45598E-01 -2.60340E-01 -2.76147E-01 -2.86488E-01
  -2.87316E-01 -2.79856E-01 -2.65757E-01 -2.49148E-01 -2.36055E-01 -2.30544E-01 -2.33732E-01 -2.43439E-01 -2.55834E-01 -2.67138E-01
  -2.75162E-01 -2.79068E-01 -2.78830E-01 -2.75549E-01 -2.70778E-01 -2.65693E-01 -2.61123E-01 -2.57381E-01 -2.54280E-01 -2.51676E-01
  -2.49275E-01 -2.46748E-01 -2.43941E-01 -2.40799E-01 -2.37195E-01 -2.33010E-01 -2.28284E-01 -2.23144E-01 -2.17620E-01 -2.11736E-01
  -2.05539E-01 -1.99004E-01 -1.92127E-01 -1.84921E-01 -1.77385E-01 -1.69502E-01 -1.61225E-01 -1.52490E-01 -1.43228E-01 -1.33386E-01
  -1.22931E-01 -1.11822E-01 -1.00002E-01 -8.74078E-02 -7.39648E-02 -5.95926E-02 -4.42049E-02 -2.77053E-02 -9.98281E-03  9.08886E-03
   2.96523E-02  5.18657E-02  7.59051E-02  1.01967E-01  1.30273E-01  1.61066E-01  1.94612E-01  2.31198E-01  2.71137E-01  3.14774E-01
   3.62485E-01  4.14670E-01  4.71754E-01  5.34191E-01  6.02490E-01  6.77245E-01  7.59191E-01  8.49314E-01  9.49100E-01  1.06115E+00
   1.19086E+00  1.35199E+00  1.56474E+00  1.78572E+00  1.93451E+00  1.95769E+00  1.84357E+00  1.62313E+00  1.35793E+00  1.13243E+00
   1.06680E+00  1.21977E+00  1.55024E+00  1.95206E+00  2.30657E+00  2.54486E+00  2.63696E+00  2.58516E+00  2.43459E+00  2.25206E+00
   2.09318E+00  1.97534E+00  1.87196E+00  1.76787E+00  1.66199E+00  1.55448E+00  1.44606E+00  1.33776E+00  1.23075E+00  1.12617E+00
   1.02508E+00  9.28434E-01  8.37002E-01  7.51410E-01  6.72119E-01  5.99428E-01  5.33496E-01  4.74357E-01  4.21945E-01  3.76113E-01
   3.36649E-01  3.03294E-01  2.75754E-01  2.53716E-01  2.36851E-01  2.24825E-01  2.17293E-01  2.13900E-01  2.14283E-01  2.18061E-01
   2.24840E-01  2.34198E-01  2.45690E-01  2.58841E-01  2.73150E-01  2.88092E-01  3.03123E-01  3.17689E-01  3.31236E-01  3.43223E-01
   3.53138E-01  3.60513E-01  3.64940E-01  3.66083E-01  3.63692E-01  3.57609E-01  3.47778E-01  3.34246E-01  3.17156E-01  2.96740E-01
   2.73313E-01  2.47256E-01  2.18997E-01  1.89000E-01  1.57742E-01  1.25697E-01  9.33217E-02  6.10402E-02  2.92367E-02 -1.75513E-03
  -3.16552E-02 -6.02400E-02 -8.73404E-02 -1.12840E-01 -1.36669E-01 -1.58801E-01 -1.79246E-01 -1.98041E-01 -2.15250E-01 -2.30949E-01
  -2.45229E-01 -2.58186E-01 -2.69921E-01 -2.80534E-01 -2.90122E-01 -2.98780E-01 -3.06595E-01 -3.13648E-01 -3.20015E-01 -3.25765E-01
  -3.30960E-01 -3.35656E-01 -3.39904E-01 -3.43747E-01 -3.47228E-01 -3.50382E-01 -3.53241E-01 -3.55834E-01 -3.58184E-01 -3.60317E-01
  -3.62250E-01 -3.64003E-01 -3.65590E-01 -3.67027E-01 -3.68325E-01 -3.69498E-01 -3.70554E-01 -3.71504E-01 -3.72356E-01 -3.73118E-01
  -3.73796E-01 -3.74396E-01 -3.74925E-01 -3.75387E-01 -3.75786E-01 -3.76129E-01 -3.76417E-01 -3.76656E-01 -3.76848E-01 -3.76996E-01
  -3.77102E-01 -3.77170E-01 -3.77201E-01 -3.77198E-01 -3.77163E-01 -3.77097E-01 -3.77001E-01 -3.76879E-01 -3.76731E-01 -3.76558E-01
  -3.76361E-01 -3.76141E-01 -3.75900E-01 -3.75637E-01 -3.75355E-01 -3.75053E-01 -3.74731E-01 -3.74391E-01 -3.74033E-01 -3.73656E-01
  -3.73262E-01 -3.72850E-01 -3.72419E-01 -3.71971E-01 -3.71503E-01 -3.71017E-01 -3.70510E-01 -3.69982E-01
 NY background values follow
    -5.634E-01   -5.629E-01   -5.625E-01   -5.620E-01   -5.616E-01   -5.612E-01   -5.607E-01   -5.603E-01   -5.598E-01   -5.594E-01
    -5.589E-01   -5.585E-01   -5.580E-01   -5.576E-01   -5.571E-01   -5.567E-01   -5.563E-01   -5.558E-01   -5.554E-01   -5.549E-01
    -5.545E-01   -5.540E-01   -5.536E-01   -5.531E-01   -5.527E-01   -5.522E-01   -5.518E-01   -5.513E-01   -5.509E-01   -5.505E-01
    -5.500E-01   -5.496E-01   -5.491E-01   -5.487E-01   -5.482E-01   -5.478E-01   -5.473E-01   -5.469E-01   -5.464E-01   -5.460E-01
    -5.455E-01   -5.451E-01   -5.447E-01   -5.442E-01   -5.438E-01   -5.433E-01   -5.429E-01   -5.424E-01   -5.420E-01   -5.415E-01
    -5.411E-01   -5.406E-01   -5.402E-01   -5.397E-01   -5.393E-01   -5.388E-01   -5.384E-01   -5.379E-01   -5.375E-01   -5.370E-01
    -5.366E-01   -5.362E-01   -5.357E-01   -5.353E-01   -5.348E-01   -5.344E-01   -5.339E-01   -5.335E-01   -5.330E-01   -5.326E-01
    -5.321E-01   -5.317E-01   -5.312E-01   -5.308E-01   -5.303E-01   -5.299E-01   -5.294E-01   -5.290E-01   -5.285E-01   -5.281E-01
    -5.276E-01   -5.272E-01   -5.267E-01   -5.263E-01   -5.258E-01   -5.254E-01   -5.250E-01   -5.245E-01   -5.241E-01   -5.236E-01
    -5.232E-01   -5.227E-01   -5.223E-01   -5.218E-01   -5.214E-01   -5.209E-01   -5.205E-01   -5.200E-01   -5.196E-01   -5.191E-01
    -5.187E-01   -5.182E-01   -5.178E-01   -5.173E-01   -5.169E-01   -5.164E-01   -5.160E-01   -5.155E-01   -5.151E-01   -5.146E-01
    -5.142E-01   -5.137E-01   -5.133E-01   -5.128E-01   -5.124E-01   -5.119E-01   -5.115E-01   -5.110E-01   -5.106E-01   -5.101E-01
    -5.097E-01   -5.092E-01   -5.088E-01   -5.083E-01   -5.079E-01   -5.074E-01   -5.070E-01   -5.065E-01   -5.061E-01   -5.056E-01
    -5.052E-01   -5.047E-01   -5.043E-01   -5.038E-01   -5.034E-01   -5.029E-01   -5.025E-01   -5.020E-01   -5.016E-01   -5.011E-01
    -5.007E-01   -5.002E-01   -4.998E-01   -4.993E-01   -4.989E-01   -4.984E-01   -4.980E-01   -4.975E-01   -4.971E-01   -4.966E-01
    -4.962E-01   -4.957E-01   -4.953E-01   -4.948E-01   -4.944E-01   -4.939E-01   -4.935E-01   -4.930E-01   -4.926E-01   -4.921E-01
    -4.917E-01   -4.912E-01   -4.908E-01   -4.903E-01   -4.899E-01   -4.894E-01   -4.890E-01   -4.885E-01   -4.881E-01   -4.876E-01
    -4.872E-01   -4.867E-01   -4.862E-01   -4.858E-01   -4.853E-01   -4.849E-01   -4.844E-01   -4.840E-01   -4.835E-01   -4.831E-01
    -4.826E-01   -4.822E-01   -4.817E-01   -4.813E-01   -4.808E-01   -4.804E-01   -4.799E-01   -4.795E-01   -4.790E-01   -4.786E-01
    -4.781E-01   -4.777E-01   -4.772E-01   -4.768E-01   -4.763E-01   -4.759E-01   -4.754E-01   -4.750E-01   -4.745E-01   -4.741E-01
    -4.736E-01   -4.732E-01   -4.727E-01   -4.722E-01   -4.718E-01   -4.713E-01   -4.709E-01   -4.704E-01   -4.700E-01   -4.695E-01
    -4.691E-01   -4.686E-01   -4.682E-01   -4.677E-01   -4.673E-01   -4.668E-01   -4.664E-01   -4.659E-01   -4.655E-01   -4.650E-01
    -4.646E-01   -4.641E-01   -4.637E-01   -4.632E-01   -4.628E-01   -4.623E-01   -4.618E-01   -4.614E-01   -4.609E-01   -4.605E-01
    -4.600E-01   -4.596E-01   -4.591E-01   -4.587E-01   -4.582E-01   -4.578E-01   -4.573E-01   -4.569E-01   -4.564E-01   -4.560E-01
    -4.555E-01   -4.551E-01   -4.546E-01   -4.542E-01   -4.537E-01   -4.532E-01   -4.528E-01   -4.523E-01   -4.519E-01   -4.514E-01
    -4.510E-01   -4.505E-01   -4.501E-01   -4.496E-01   -4.492E-01   -4.487E-01   -4.483E-01   -4.478E-01   -4.474E-01   -4.469E-01
    -4.465E-01   -4.460E-01   -4.455E-01   -4.451E-01   -4.446E-01   -4.442E-01   -4.437E-01   -4.433E-01   -4.428E-01   -4.424E-01
    -4.419E-01   -4.415E-01   -4.410E-01   -4.406E-01   -4.401E-01   -4.397E-01   -4.392E-01   -4.387E-01   -4.383E-01   -4.378E-01
    -4.374E-01   -4.369E-01   -4.365E-01   -4.360E-01   -4.356E-01   -4.351E-01   -4.347E-01   -4.342E-01   -4.338E-01   -4.333E-01
    -4.329E-01   -4.324E-01   -4.319E-01   -4.315E-01   -4.310E-01   -4.306E-01   -4.301E-01   -4.297E-01   -4.292E-01   -4.288E-01
    -4.283E-01   -4.279E-01   -4.274E-01   -4.270E-01   -4.265E-01   -4.261E-01   -4.256E-01   -4.251E-01   -4.247E-01   -4.242E-01
    -4.238E-01   -4.233E-01   -4.229E-01   -4.224E-01   -4.220E-01   -4.215E-01   -4.211E-01   -4.206E-01   -4.202E-01   -4.197E-01
    -4.192E-01   -4.188E-01   -4.183E-01   -4.179E-01   -4.174E-01   -4.170E-01   -4.165E-01   -4.161E-01   -4.156E-01   -4.152E-01
    -4.147E-01   -4.143E-01   -4.138E-01   -4.134E-01   -4.129E-01   -4.124E-01   -4.120E-01   -4.115E-01   -4.111E-01   -4.106E-01
    -4.102E-01   -4.097E-01   -4.093E-01   -4.088E-01   -4.084E-01   -4.079E-01   -4.075E-01   -4.070E-01   -4.065E-01   -4.061E-01
    -4.056E-01   -4.052E-01   -4.047E-01   -4.043E-01   -4.038E-01   -4.034E-01   -4.029E-01   -4.025E-01   -4.020E-01   -4.016E-01
    -4.011E-01   -4.006E-01   -4.002E-01   -3.997E-01   -3.993E-01   -3.988E-01   -3.984E-01   -3.979E-01   -3.975E-01   -3.970E-01
    -3.966E-01   -3.961E-01   -3.957E-01   -3.952E-01   -3.947E-01   -3.943E-01   -3.938E-01   -3.934E-01   -3.929E-01   -3.925E-01
    -3.920E-01   -3.916E-01   -3.911E-01   -3.907E-01   -3.902E-01   -3.898E-01   -3.893E-01   -3.889E-01   -3.884E-01   -3.879E-01
    -3.875E-01   -3.870E-01   -3.866E-01   -3.861E-01   -3.857E-01   -3.852E-01   -3.848E-01   -3.843E-01   -3.839E-01   -3.834E-01
    -3.830E-01   -3.825E-01   -3.820E-01   -3.816E-01   -3.811E-01   -3.807E-01   -3.802E-01   -3.798E-01   -3.793E-01   -3.789E-01
    -3.784E-01   -3.780E-01   -3.775E-01   -3.771E-01   -3.766E-01   -3.761E-01   -3.757E-01   -3.752E-01   -3.748E-01   -3.743E-01
    -3.739E-01   -3.734E-01   -3.730E-01   -3.725E-01   -3.721E-01   -3.716E-01   -3.712E-01   -3.707E-01   -3.703E-01   -3.698E-01
    -3.693E-01   -3.689E-01   -3.684E-01   -3.680E-01   -3.675E-01   -3.671E-01   -3.666E-01   -3.662E-01   -3.657E-01   -3.653E-01
    -3.648E-01   -3.644E-01   -3.639E-01   -3.635E-01   -3.630E-01   -3.625E-01   -3.621E-01   -3.616E-01   -3.612E-01   -3.607E-01
    -3.603E-01   -3.598E-01   -3.594E-01   -3.589E-01   -3.585E-01   -3.580E-01   -3.576E-01   -3.571E-01   -3.567E-01   -3.562E-01
    -3.557E-01   -3.553E-01   -3.548E-01   -3.544E-01   -3.539E-01   -3.535E-01   -3.530E-01   -3.526E-01   -3.521E-01   -3.517E-01
    -3.512E-01   -3.508E-01   -3.503E-01   -3.499E-01   -3.494E-01   -3.490E-01   -3.485E-01   -3.480E-01   -3.476E-01   -3.471E-01
    -3.467E-01   -3.462E-01   -3.458E-01   -3.453E-01   -3.449E-01   -3.444E-01   -3.440E-01   -3.435E-01   -3.431E-01   -3.426E-01
    -3.422E-01   -3.417E-01   -3.413E-01   -3.408E-01   -3.404E-01   -3.399E-01   -3.394E-01   -3.390E-01
 Asp      Conc. = 6.99E+00
