 LCModel (Version 6.3-1L) Copyright: S.W. Provencher.          Ref.: Magn. Reson. Med. 30:672-679 (1993).                
 Slice#3 Row#5 Col#5  PD_24_press_1_raw_act
 36 lines in following concentration table = NCONC+1
    Conc.  %SD /Cr+PCr  Metabolite                                         
  180.884  73%   0.100 Ala                                                 
    0.000 999%   0.000 Asp                                                 
  900.222  23%   0.496 Cr                                                  
  914.914  23%   0.504 PCr                                                 
   37.011 435% 2.0E-02 GABA                                                
    0.000 999%   0.000 Glc                                                 
  298.491  89%   0.164 Gln                                                 
 1.36E+03  23%   0.750 Glu                                                 
  506.330   5%   0.279 GPC                                                 
    0.000 999%   0.000 PCh                                                 
  360.942  22%   0.199 GSH                                                 
  197.099 135%   0.109 Ins                                                 
  181.602  81%   0.100 Lac                                                 
 1.86E+03   5%   1.025 NAA                                                 
  242.492  43%   0.134 NAAG                                                
    0.000 999%   0.000 Scyllo                                              
    0.000 999%   0.000 Tau                                                 
    0.000 999%   0.000 -CrCH2                                              
  506.330   5%   0.279 GPC+PCh                                             
 2.10E+03   4%   1.158 NAA+NAAG                                            
 1.82E+03   4%   1.000 Cr+PCr                                              
 1.66E+03  27%   0.914 Glu+Gln                                             
 3.97E+03  14%   2.190 Lip13a                                              
    0.000 999%   0.000 Lip13b                                              
  995.885  30%   0.549 Lip09                                               
  771.207  33%   0.425 MM09                                                
  692.708  31%   0.382 Lip20                                               
 1.59E+03  27%   0.875 MM20                                                
  255.297  95%   0.141 MM12                                                
 2.62E+03  12%   1.444 MM14                                                
  481.061  49%   0.265 MM17                                                
 3.97E+03  14%   2.190 Lip13a+Lip13b                                       
 6.85E+03   8%   3.774 MM14+Lip13a+Lip13b+MM12                             
 1.77E+03  13%   0.974 MM09+Lip09                                          
 2.28E+03  18%   1.257 MM20+Lip20                                          
   6 lines in following misc. output table
  FWHM = 0.046 ppm    S/N =  10                                            
  Data shift =-0.015 ppm                                                   
  Ph:  10 deg      -0.1 deg/ppm                                            
  alphaB,S = 8.6E-01,   1.2E+01                                            
   14 spline knots.   Ns = 8(1)                                            
  (13)10 infls.   (17) 5 extrs.                                            
  498 points on ppm-axis = NY
      4.000000     3.992357     3.984714     3.977070     3.969427     3.961784     3.954141     3.946497     3.938854     3.931211
      3.923568     3.915925     3.908281     3.900638     3.892995     3.885352     3.877708     3.870065     3.862422     3.854779
      3.847136     3.839492     3.831849     3.824206     3.816563     3.808919     3.801276     3.793633     3.785990     3.778347
      3.770703     3.763060     3.755417     3.747774     3.740130     3.732487     3.724844     3.717201     3.709558     3.701914
      3.694271     3.686628     3.678985     3.671341     3.663698     3.656055     3.648412     3.640769     3.633125     3.625482
      3.617839     3.610196     3.602552     3.594909     3.587266     3.579623     3.571980     3.564336     3.556693     3.549050
      3.541407     3.533763     3.526120     3.518477     3.510834     3.503191     3.495547     3.487904     3.480261     3.472618
      3.464974     3.457331     3.449688     3.442045     3.434402     3.426758     3.419115     3.411472     3.403829     3.396185
      3.388542     3.380899     3.373256     3.365613     3.357969     3.350326     3.342683     3.335040     3.327396     3.319753
      3.312110     3.304467     3.296824     3.289180     3.281537     3.273894     3.266251     3.258607     3.250964     3.243321
      3.235678     3.228034     3.220391     3.212748     3.205105     3.197462     3.189818     3.182175     3.174532     3.166889
      3.159245     3.151602     3.143959     3.136316     3.128673     3.121029     3.113386     3.105743     3.098100     3.090456
      3.082813     3.075170     3.067527     3.059884     3.052240     3.044597     3.036954     3.029311     3.021667     3.014024
      3.006381     2.998738     2.991095     2.983451     2.975808     2.968165     2.960522     2.952878     2.945235     2.937592
      2.929949     2.922306     2.914662     2.907019     2.899376     2.891733     2.884089     2.876446     2.868803     2.861160
      2.853517     2.845873     2.838230     2.830587     2.822944     2.815300     2.807657     2.800014     2.792371     2.784728
      2.777084     2.769441     2.761798     2.754155     2.746511     2.738868     2.731225     2.723582     2.715939     2.708295
      2.700652     2.693009     2.685366     2.677722     2.670079     2.662436     2.654793     2.647150     2.639506     2.631863
      2.624220     2.616577     2.608933     2.601290     2.593647     2.586004     2.578361     2.570717     2.563074     2.555431
      2.547788     2.540144     2.532501     2.524858     2.517215     2.509572     2.501928     2.494285     2.486642     2.478999
      2.471355     2.463712     2.456069     2.448426     2.440783     2.433139     2.425496     2.417853     2.410210     2.402566
      2.394923     2.387280     2.379637     2.371994     2.364350     2.356707     2.349064     2.341421     2.333777     2.326134
      2.318491     2.310848     2.303205     2.295561     2.287918     2.280275     2.272632     2.264988     2.257345     2.249702
      2.242059     2.234416     2.226772     2.219129     2.211486     2.203843     2.196199     2.188556     2.180913     2.173270
      2.165627     2.157983     2.150340     2.142697     2.135054     2.127410     2.119767     2.112124     2.104481     2.096838
      2.089194     2.081551     2.073908     2.066265     2.058621     2.050978     2.043335     2.035692     2.028049     2.020405
      2.012762     2.005119     1.997476     1.989833     1.982190     1.974546     1.966903     1.959260     1.951617     1.943974
      1.936331     1.928688     1.921045     1.913402     1.905759     1.898115     1.890472     1.882829     1.875186     1.867543
      1.859900     1.852257     1.844614     1.836971     1.829327     1.821684     1.814041     1.806398     1.798755     1.791112
      1.783469     1.775826     1.768183     1.760540     1.752896     1.745253     1.737610     1.729967     1.722324     1.714681
      1.707038     1.699395     1.691752     1.684108     1.676465     1.668822     1.661179     1.653536     1.645893     1.638250
      1.630607     1.622964     1.615321     1.607677     1.600034     1.592391     1.584748     1.577105     1.569462     1.561819
      1.554176     1.546533     1.538890     1.531246     1.523603     1.515960     1.508317     1.500674     1.493031     1.485388
      1.477745     1.470102     1.462458     1.454815     1.447172     1.439529     1.431886     1.424243     1.416600     1.408957
      1.401314     1.393671     1.386027     1.378384     1.370741     1.363098     1.355455     1.347812     1.340169     1.332526
      1.324883     1.317240     1.309596     1.301953     1.294310     1.286667     1.279024     1.271381     1.263738     1.256095
      1.248452     1.240808     1.233165     1.225522     1.217879     1.210236     1.202593     1.194950     1.187307     1.179664
      1.172021     1.164377     1.156734     1.149091     1.141448     1.133805     1.126162     1.118519     1.110876     1.103233
      1.095590     1.087946     1.080303     1.072660     1.065017     1.057374     1.049731     1.042088     1.034445     1.026802
      1.019158     1.011515     1.003872     0.996229     0.988586     0.980943     0.973300     0.965657     0.958014     0.950371
      0.942727     0.935084     0.927441     0.919798     0.912155     0.904512     0.896869     0.889226     0.881583     0.873940
      0.866296     0.858653     0.851010     0.843367     0.835724     0.828081     0.820438     0.812795     0.805152     0.797508
      0.789865     0.782222     0.774579     0.766936     0.759293     0.751650     0.744007     0.736364     0.728721     0.721077
      0.713434     0.705791     0.698148     0.690505     0.682862     0.675219     0.667576     0.659933     0.652290     0.644646
      0.637003     0.629360     0.621717     0.614074     0.606431     0.598788     0.591145     0.583502     0.575858     0.568215
      0.560572     0.552929     0.545286     0.537643     0.530000     0.522357     0.514714     0.507071     0.499427     0.491784
      0.484141     0.476498     0.468855     0.461212     0.453569     0.445925     0.438282     0.430639     0.422996     0.415353
      0.407710     0.400067     0.392424     0.384780     0.377137     0.369494     0.361851     0.354208     0.346565     0.338922
      0.331278     0.323635     0.315992     0.308349     0.300706     0.293063     0.285420     0.277777     0.270133     0.262490
      0.254847     0.247204     0.239561     0.231918     0.224275     0.216631     0.208988     0.201345
 NY phased data points follow
   7.44712E+01  8.93914E+01  8.37408E+01  8.79700E+01  8.30935E+01  9.71564E+01  9.18630E+01  1.01806E+02  1.00112E+02  1.09794E+02
   1.02493E+02  1.14332E+02  1.03742E+02  1.03014E+02  9.14122E+01  8.85502E+01  7.76921E+01  7.85388E+01  6.81205E+01  7.86822E+01
   7.03954E+01  7.36833E+01  6.84667E+01  7.07649E+01  6.88800E+01  7.01452E+01  6.69067E+01  6.99386E+01  6.11638E+01  7.07048E+01
   6.63605E+01  6.96937E+01  6.53658E+01  6.40943E+01  6.30642E+01  7.01053E+01  6.11492E+01  6.33388E+01  5.82425E+01  6.43178E+01
   5.43965E+01  5.83935E+01  5.78319E+01  6.12324E+01  5.90810E+01  6.25383E+01  5.49985E+01  6.60521E+01  6.29383E+01  5.84278E+01
   5.51456E+01  5.88353E+01  4.86675E+01  5.29410E+01  4.80141E+01  5.82561E+01  4.34499E+01  5.21171E+01  4.55138E+01  4.82100E+01
   4.29861E+01  4.99894E+01  3.98737E+01  3.92206E+01  3.27868E+01  4.18357E+01  3.21974E+01  3.66240E+01  3.67841E+01  3.73352E+01
   3.50454E+01  3.97385E+01  3.44169E+01  4.06112E+01  3.29063E+01  3.97908E+01  3.76866E+01  3.76870E+01  3.18492E+01  3.53748E+01
   3.30529E+01  3.47317E+01  3.37453E+01  3.25015E+01  3.25197E+01  3.29613E+01  3.09713E+01  3.67370E+01  3.05515E+01  3.63690E+01
   3.30078E+01  3.70460E+01  3.05781E+01  3.82343E+01  3.44807E+01  3.91696E+01  4.20857E+01  4.15545E+01  4.54880E+01  4.70003E+01
   5.21347E+01  6.54550E+01  6.72583E+01  7.68682E+01  7.34015E+01  6.88331E+01  5.56425E+01  4.99655E+01  4.13783E+01  4.30168E+01
   3.81955E+01  3.60294E+01  3.39804E+01  3.39855E+01  3.24805E+01  3.18422E+01  3.20694E+01  2.98306E+01  2.65944E+01  3.81205E+01
   3.44981E+01  4.02324E+01  3.93007E+01  5.12321E+01  5.63540E+01  6.26698E+01  6.67673E+01  8.41689E+01  7.57955E+01  7.20969E+01
   5.91473E+01  4.97653E+01  4.25340E+01  4.03614E+01  2.99059E+01  3.56272E+01  3.10337E+01  3.19108E+01  3.04334E+01  2.63785E+01
   1.99167E+01  2.61465E+01  2.68462E+01  2.53378E+01  2.58051E+01  2.62112E+01  1.95287E+01  2.09950E+01  2.09975E+01  2.72135E+01
   1.84118E+01  2.06044E+01  1.77734E+01  2.25231E+01  2.09693E+01  1.82553E+01  1.86863E+01  2.40274E+01  2.02229E+01  2.34268E+01
   2.04434E+01  2.31080E+01  1.67850E+01  1.47997E+01  1.48215E+01  1.65820E+01  1.28248E+01  2.20946E+01  1.20299E+01  1.28921E+01
   8.39928E+00  9.55102E+00  8.09599E+00  1.12953E+01  1.18364E+01  9.52371E+00  8.97354E+00  9.80298E+00  6.24857E+00  9.41935E+00
   1.14089E+01  1.25700E+01  8.22906E+00  1.68813E+01  6.28326E+00  1.18642E+01  1.37543E+01  1.59300E+01  1.40524E+01  1.78712E+01
   1.16122E+01  1.93332E+01  1.96378E+01  2.55923E+01  1.77209E+01  1.45949E+01  9.57483E+00  1.46998E+01  1.53323E+01  1.01400E+01
   1.06642E+01  1.47665E+01  1.28517E+01  2.02693E+01  1.56225E+01  1.45863E+01  1.48150E+01  1.20477E+01  8.90285E+00  8.80177E+00
   9.98334E+00  1.19489E+01  1.03889E+01  1.58669E+01  1.54528E+01  1.62055E+01  1.47180E+01  1.95799E+01  1.67700E+01  1.56070E+01
   7.19772E+00  8.49287E+00  3.69431E+00  1.04249E+01  8.18069E+00  1.14311E+01  8.28336E+00  1.51668E+01  1.40834E+01  1.52980E+01
   1.37002E+01  1.22532E+01  9.81972E+00  1.31392E+01  9.75188E+00  1.23008E+01  1.19428E+01  1.57388E+01  1.40618E+01  1.12131E+01
   4.96762E+00  1.35900E+01  1.00391E+01  1.47794E+01  6.46933E+00  1.52790E+01  1.17625E+01  1.64596E+01  1.54457E+01  1.76359E+01
   2.19623E+01  2.24936E+01  2.11401E+01  2.44138E+01  2.77872E+01  3.65354E+01  3.78725E+01  5.24270E+01  5.49788E+01  6.20277E+01
   6.66539E+01  7.77551E+01  6.78343E+01  5.46424E+01  3.60461E+01  2.85496E+01  2.48280E+01  2.32214E+01  1.92279E+01  1.87373E+01
   1.45391E+01  9.79899E+00  7.75345E+00  1.04118E+01  3.55977E+00  8.63725E+00  7.23479E+00  6.56594E+00  4.45819E+00  6.68618E+00
   5.70983E+00  4.44071E+00  3.14987E+00  1.69481E+00  3.10892E+00  5.86208E+00 -6.83383E-02  1.76655E+00  3.22997E-01  7.18366E+00
  -8.07425E-01  5.57390E+00 -7.02672E-01  7.57753E+00  8.54846E-01  5.64107E+00  2.93277E+00  4.98704E+00  6.49359E-01  2.85963E+00
   3.16239E+00  2.32065E+00  5.02464E+00  4.97319E+00  8.76411E+00  6.37691E+00  1.02133E+01  1.11015E+01  4.00731E+00  1.05076E+01
   8.93085E+00  1.53409E+01  7.87298E+00  9.47440E+00  8.70166E+00  1.42319E+01  5.66527E+00  1.25401E+01  1.06728E+01  1.38889E+01
   1.09750E+01  1.37496E+01  1.47358E+01  1.69674E+01  1.45047E+01  2.16621E+01  1.70077E+01  1.69215E+01  2.06130E+01  1.96020E+01
   1.57342E+01  1.86889E+01  2.07415E+01  2.27045E+01  2.02632E+01  2.13586E+01  2.22573E+01  2.73911E+01  2.10980E+01  2.32646E+01
   2.38794E+01  2.16957E+01  2.17421E+01  2.20764E+01  2.62360E+01  2.33504E+01  2.33415E+01  2.33474E+01  2.19077E+01  2.00814E+01
   1.55381E+01  1.74553E+01  2.01310E+01  2.24698E+01  2.31869E+01  2.32614E+01  1.76576E+01  2.35352E+01  1.71763E+01  1.89904E+01
   2.15342E+01  2.42571E+01  1.89707E+01  1.87770E+01  1.43077E+01  1.79838E+01  1.20914E+01  1.40571E+01  1.52612E+01  1.52331E+01
   1.43816E+01  1.59407E+01  1.48172E+01  1.55577E+01  1.27084E+01  1.55244E+01  1.02627E+01  1.43706E+01  1.54041E+01  1.07311E+01
   6.82160E+00  1.15174E+01  9.85944E+00  1.16733E+01  9.63594E+00  1.22820E+01  1.01838E+01  1.77749E+01  8.36725E+00  1.05217E+01
   1.07710E+01  1.41173E+01  1.15978E+01  1.51325E+01  1.43055E+01  1.07515E+01  1.72784E+01  1.68120E+01  1.48773E+01  1.32844E+01
   1.86793E+01  1.40771E+01  1.02640E+01  1.53769E+01  1.61167E+01  1.29813E+01  1.54756E+01  1.04086E+01  1.50071E+01  1.89100E+01
   1.23166E+01  1.30963E+01  1.00707E+01  1.77541E+01  1.24513E+01  7.33608E+00  1.09647E+01  1.20782E+01  1.15687E+01  1.10364E+01
   1.75794E+01  1.01497E+01  1.29260E+01  1.08530E+01  7.51254E+00  5.98611E+00  9.06082E+00  1.11004E+01  9.97522E+00  6.43760E+00
   6.80206E+00  9.94212E+00  8.49120E+00  5.91805E+00  5.88535E+00  8.90426E+00  9.60267E+00  9.28781E+00  3.59037E+00  9.57612E+00
   4.56865E+00  9.29809E+00  1.09924E+01  1.18970E+01  5.70632E+00  1.05752E+01  5.50111E+00  8.25518E+00  3.56310E+00  1.64458E+00
   9.76017E+00  7.36060E+00  4.21925E+00  1.07956E+01  5.87162E+00  7.00972E+00  5.73703E+00  8.11586E+00  5.42016E+00  6.61631E+00
   6.82718E+00  4.77095E+00  5.17819E+00  4.80481E+00  1.15480E+00  6.29568E+00  8.32271E+00  7.72950E+00  5.76816E+00  7.52676E+00
   3.77167E+00  7.27152E+00  1.76548E+00  3.65166E+00  4.85174E+00  4.44737E+00  3.69275E+00  7.13591E+00  8.24488E+00  7.06977E+00
   6.45509E+00  7.67299E+00  3.58460E+00  2.72069E+00  3.87729E+00  6.23780E+00  2.86155E+00  7.35403E+00  6.65108E+00  6.77972E+00
   5.49954E+00  1.03595E+01  2.42705E+00  1.18297E+00  4.42601E+00  4.05559E+00  1.00551E+01  2.30452E+00
 NY points of the fit to the data follow
   7.82047E+01  7.99753E+01  8.09000E+01  8.34177E+01  8.51221E+01  8.79973E+01  9.16898E+01  9.57488E+01  1.00688E+02  1.05852E+02
   1.07781E+02  1.07885E+02  1.03532E+02  9.67332E+01  9.00014E+01  8.42342E+01  8.02626E+01  7.90216E+01  7.57541E+01  7.37690E+01
   7.15759E+01  6.93549E+01  6.89312E+01  6.81062E+01  6.76356E+01  6.71906E+01  6.72937E+01  6.76735E+01  6.73270E+01  6.77491E+01
   6.90804E+01  6.93621E+01  6.87691E+01  6.72292E+01  6.56673E+01  6.44952E+01  6.23135E+01  6.02524E+01  5.97498E+01  5.87657E+01
   5.83158E+01  5.82513E+01  5.82267E+01  5.82716E+01  5.77019E+01  5.70554E+01  5.66063E+01  5.62326E+01  5.58488E+01  5.50066E+01
   5.40900E+01  5.34653E+01  5.27180E+01  5.16405E+01  5.08347E+01  5.01898E+01  4.94283E+01  4.86499E+01  4.81054E+01  4.75103E+01
   4.69160E+01  4.63320E+01  4.56943E+01  4.50592E+01  4.44516E+01  4.38667E+01  4.33560E+01  4.29324E+01  4.25572E+01  4.21651E+01
   4.17620E+01  4.13379E+01  4.09411E+01  4.05183E+01  4.00735E+01  3.96161E+01  3.91703E+01  3.87512E+01  3.83270E+01  3.78856E+01
   3.74771E+01  3.70409E+01  3.66221E+01  3.61927E+01  3.57644E+01  3.53399E+01  3.49208E+01  3.44974E+01  3.41265E+01  3.38117E+01
   3.35998E+01  3.34654E+01  3.34187E+01  3.36085E+01  3.50765E+01  3.95216E+01  4.08789E+01  4.27294E+01  4.49039E+01  5.00404E+01
   5.68568E+01  6.19477E+01  6.74405E+01  7.54824E+01  7.61563E+01  6.94764E+01  5.80727E+01  4.80877E+01  4.31185E+01  3.98217E+01
   3.60286E+01  3.67544E+01  3.39189E+01  2.98566E+01  2.87277E+01  2.83284E+01  2.81883E+01  2.84441E+01  3.05414E+01  3.61144E+01
   3.74148E+01  4.01437E+01  4.29830E+01  5.00032E+01  5.84251E+01  6.48228E+01  7.19940E+01  8.17567E+01  8.15408E+01  7.31842E+01
   5.93669E+01  4.81245E+01  4.26035E+01  3.87163E+01  3.41532E+01  3.47247E+01  2.99675E+01  2.49810E+01  2.38291E+01  2.38097E+01
   2.39951E+01  2.43086E+01  2.44354E+01  2.39634E+01  2.34745E+01  2.30172E+01  2.25561E+01  2.22657E+01  2.19982E+01  2.16889E+01
   2.14180E+01  2.09954E+01  2.05814E+01  2.01082E+01  1.98010E+01  1.95284E+01  1.94206E+01  1.92989E+01  1.88666E+01  1.84907E+01
   1.79953E+01  1.74072E+01  1.70382E+01  1.68577E+01  1.70184E+01  1.71636E+01  1.66443E+01  1.57953E+01  1.48646E+01  1.40792E+01
   1.38661E+01  1.36280E+01  1.32243E+01  1.27182E+01  1.22144E+01  1.17118E+01  1.13093E+01  1.10507E+01  1.11793E+01  1.12793E+01
   1.14495E+01  1.10692E+01  1.08246E+01  1.09266E+01  1.11840E+01  1.15276E+01  1.20019E+01  1.22178E+01  1.29567E+01  1.38943E+01
   1.46875E+01  1.53836E+01  1.53635E+01  1.49276E+01  1.42276E+01  1.35182E+01  1.33554E+01  1.34057E+01  1.32637E+01  1.34298E+01
   1.38303E+01  1.44399E+01  1.45084E+01  1.47620E+01  1.47342E+01  1.42787E+01  1.33444E+01  1.22617E+01  1.14777E+01  1.08004E+01
   9.60617E+00  9.66232E+00  1.03739E+01  1.15424E+01  1.26323E+01  1.34595E+01  1.45713E+01  1.53272E+01  1.34845E+01  1.09531E+01
   8.40114E+00  6.69787E+00  5.87410E+00  5.28643E+00  6.16832E+00  8.67506E+00  1.05186E+01  1.21043E+01  1.26607E+01  1.29795E+01
   1.30579E+01  1.25430E+01  1.23718E+01  1.28706E+01  1.33106E+01  1.34557E+01  1.36003E+01  1.36959E+01  1.36720E+01  1.29799E+01
   1.20568E+01  1.14349E+01  1.12554E+01  1.11119E+01  1.13423E+01  1.24016E+01  1.36694E+01  1.44768E+01  1.53949E+01  1.55335E+01
   1.59986E+01  1.70230E+01  2.28118E+01  2.82303E+01  3.07462E+01  3.51099E+01  4.10239E+01  5.02810E+01  5.60848E+01  6.02203E+01
   6.86742E+01  7.41425E+01  6.76981E+01  5.46411E+01  4.00733E+01  3.15092E+01  2.63979E+01  2.07926E+01  1.94482E+01  1.88326E+01
   1.20975E+01  9.63760E+00  8.78452E+00  8.34498E+00  7.92130E+00  7.73543E+00  7.51057E+00  7.12725E+00  6.70454E+00  6.35363E+00
   6.04468E+00  5.73784E+00  5.51850E+00  5.34444E+00  5.19451E+00  5.04135E+00  4.91040E+00  4.79068E+00  4.70324E+00  4.61529E+00
   4.56794E+00  4.55796E+00  4.59074E+00  4.63472E+00  4.70832E+00  4.78754E+00  4.87951E+00  4.99756E+00  5.14272E+00  5.30030E+00
   5.49878E+00  5.72187E+00  5.96398E+00  6.22321E+00  6.49196E+00  6.76872E+00  7.05357E+00  7.33782E+00  7.63440E+00  7.94190E+00
   8.25701E+00  8.58669E+00  8.93617E+00  9.30903E+00  9.71329E+00  1.01576E+01  1.06527E+01  1.12153E+01  1.18840E+01  1.26784E+01
   1.32845E+01  1.39616E+01  1.47237E+01  1.55908E+01  1.64352E+01  1.70333E+01  1.75605E+01  1.82692E+01  1.84683E+01  1.82571E+01
   1.81189E+01  1.83198E+01  1.91103E+01  1.99066E+01  2.05933E+01  2.17706E+01  2.27868E+01  2.33813E+01  2.38108E+01  2.38709E+01
   2.36517E+01  2.35622E+01  2.33613E+01  2.34222E+01  2.34937E+01  2.30168E+01  2.26208E+01  2.25093E+01  2.17014E+01  2.07200E+01
   1.97754E+01  1.94367E+01  1.96448E+01  1.98584E+01  2.01260E+01  2.09968E+01  2.13529E+01  2.13658E+01  2.10896E+01  2.05895E+01
   2.01472E+01  1.96904E+01  1.90920E+01  1.87869E+01  1.82303E+01  1.75422E+01  1.69233E+01  1.63315E+01  1.57531E+01  1.51872E+01
   1.46368E+01  1.41062E+01  1.35998E+01  1.31221E+01  1.26773E+01  1.22691E+01  1.19008E+01  1.15753E+01  1.12951E+01  1.10621E+01
   1.08777E+01  1.07432E+01  1.06594E+01  1.06268E+01  1.06454E+01  1.07146E+01  1.08334E+01  1.10000E+01  1.12121E+01  1.14664E+01
   1.17588E+01  1.20839E+01  1.24355E+01  1.28068E+01  1.31897E+01  1.35756E+01  1.39554E+01  1.43196E+01  1.46589E+01  1.49644E+01
   1.52278E+01  1.54418E+01  1.56005E+01  1.56993E+01  1.57355E+01  1.57080E+01  1.56175E+01  1.54663E+01  1.52582E+01  1.49981E+01
   1.46923E+01  1.43476E+01  1.39713E+01  1.35706E+01  1.31529E+01  1.27251E+01  1.22937E+01  1.18645E+01  1.14425E+01  1.10319E+01
   1.06362E+01  1.02579E+01  9.89916E+00  9.56125E+00  9.24480E+00  8.94999E+00  8.67664E+00  8.42428E+00  8.19217E+00  7.97934E+00
   7.78462E+00  7.60683E+00  7.44484E+00  7.29748E+00  7.16361E+00  7.04205E+00  6.93164E+00  6.83139E+00  6.74041E+00  6.65788E+00
   6.58298E+00  6.51490E+00  6.45295E+00  6.39655E+00  6.34521E+00  6.29845E+00  6.25579E+00  6.21674E+00  6.18094E+00  6.14812E+00
   6.11801E+00  6.09034E+00  6.06481E+00  6.04116E+00  6.01923E+00  5.99893E+00  5.98014E+00  5.96270E+00  5.94644E+00  5.93122E+00
   5.91701E+00  5.90377E+00  5.89142E+00  5.87986E+00  5.86897E+00  5.85871E+00  5.84909E+00  5.84010E+00  5.83167E+00  5.82372E+00
   5.81617E+00  5.80905E+00  5.80239E+00  5.79617E+00  5.79033E+00  5.78481E+00  5.77958E+00  5.77470E+00  5.77019E+00  5.76603E+00
   5.76214E+00  5.75849E+00  5.75512E+00  5.75207E+00  5.74935E+00  5.74693E+00  5.74476E+00  5.74282E+00  5.74117E+00  5.73987E+00
   5.73889E+00  5.73820E+00  5.73776E+00  5.73759E+00  5.73777E+00  5.73833E+00  5.73923E+00  5.74044E+00
 NY background values follow
     7.538E+01    7.485E+01    7.433E+01    7.380E+01    7.327E+01    7.274E+01    7.221E+01    7.168E+01    7.116E+01    7.063E+01
     7.010E+01    6.957E+01    6.904E+01    6.851E+01    6.799E+01    6.746E+01    6.693E+01    6.641E+01    6.588E+01    6.536E+01
     6.483E+01    6.431E+01    6.379E+01    6.327E+01    6.275E+01    6.223E+01    6.171E+01    6.119E+01    6.068E+01    6.016E+01
     5.965E+01    5.914E+01    5.863E+01    5.812E+01    5.762E+01    5.711E+01    5.661E+01    5.611E+01    5.561E+01    5.511E+01
     5.461E+01    5.412E+01    5.363E+01    5.314E+01    5.265E+01    5.217E+01    5.169E+01    5.121E+01    5.073E+01    5.026E+01
     4.978E+01    4.932E+01    4.885E+01    4.839E+01    4.792E+01    4.747E+01    4.701E+01    4.656E+01    4.611E+01    4.566E+01
     4.522E+01    4.477E+01    4.434E+01    4.390E+01    4.347E+01    4.304E+01    4.262E+01    4.219E+01    4.177E+01    4.136E+01
     4.094E+01    4.054E+01    4.013E+01    3.973E+01    3.933E+01    3.893E+01    3.854E+01    3.815E+01    3.777E+01    3.739E+01
     3.701E+01    3.664E+01    3.627E+01    3.590E+01    3.554E+01    3.518E+01    3.482E+01    3.447E+01    3.413E+01    3.379E+01
     3.345E+01    3.311E+01    3.278E+01    3.246E+01    3.213E+01    3.182E+01    3.150E+01    3.119E+01    3.088E+01    3.058E+01
     3.028E+01    2.998E+01    2.969E+01    2.940E+01    2.912E+01    2.884E+01    2.856E+01    2.828E+01    2.801E+01    2.774E+01
     2.748E+01    2.721E+01    2.695E+01    2.670E+01    2.644E+01    2.619E+01    2.594E+01    2.570E+01    2.545E+01    2.521E+01
     2.498E+01    2.474E+01    2.451E+01    2.428E+01    2.405E+01    2.383E+01    2.360E+01    2.338E+01    2.316E+01    2.295E+01
     2.273E+01    2.252E+01    2.231E+01    2.210E+01    2.189E+01    2.169E+01    2.149E+01    2.128E+01    2.108E+01    2.089E+01
     2.069E+01    2.050E+01    2.030E+01    2.011E+01    1.992E+01    1.973E+01    1.954E+01    1.936E+01    1.917E+01    1.899E+01
     1.881E+01    1.863E+01    1.845E+01    1.827E+01    1.810E+01    1.792E+01    1.775E+01    1.758E+01    1.741E+01    1.724E+01
     1.707E+01    1.690E+01    1.673E+01    1.657E+01    1.641E+01    1.624E+01    1.608E+01    1.592E+01    1.576E+01    1.560E+01
     1.544E+01    1.529E+01    1.513E+01    1.498E+01    1.482E+01    1.467E+01    1.452E+01    1.436E+01    1.421E+01    1.406E+01
     1.391E+01    1.376E+01    1.362E+01    1.347E+01    1.332E+01    1.318E+01    1.303E+01    1.289E+01    1.274E+01    1.260E+01
     1.246E+01    1.232E+01    1.217E+01    1.203E+01    1.189E+01    1.175E+01    1.161E+01    1.147E+01    1.134E+01    1.120E+01
     1.106E+01    1.092E+01    1.079E+01    1.065E+01    1.052E+01    1.038E+01    1.025E+01    1.011E+01    9.977E+00    9.843E+00
     9.710E+00    9.577E+00    9.445E+00    9.312E+00    9.180E+00    9.049E+00    8.917E+00    8.786E+00    8.655E+00    8.524E+00
     8.394E+00    8.264E+00    8.134E+00    8.004E+00    7.874E+00    7.745E+00    7.616E+00    7.486E+00    7.357E+00    7.229E+00
     7.100E+00    6.972E+00    6.844E+00    6.716E+00    6.589E+00    6.463E+00    6.337E+00    6.211E+00    6.086E+00    5.962E+00
     5.838E+00    5.715E+00    5.592E+00    5.471E+00    5.350E+00    5.230E+00    5.111E+00    4.993E+00    4.876E+00    4.759E+00
     4.644E+00    4.530E+00    4.417E+00    4.305E+00    4.195E+00    4.085E+00    3.977E+00    3.870E+00    3.765E+00    3.661E+00
     3.558E+00    3.457E+00    3.357E+00    3.259E+00    3.162E+00    3.067E+00    2.974E+00    2.883E+00    2.793E+00    2.705E+00
     2.618E+00    2.534E+00    2.451E+00    2.371E+00    2.292E+00    2.215E+00    2.140E+00    2.066E+00    1.995E+00    1.925E+00
     1.858E+00    1.792E+00    1.727E+00    1.665E+00    1.604E+00    1.545E+00    1.488E+00    1.433E+00    1.379E+00    1.327E+00
     1.277E+00    1.228E+00    1.181E+00    1.136E+00    1.092E+00    1.050E+00    1.010E+00    9.715E-01    9.345E-01    8.990E-01
     8.652E-01    8.329E-01    8.022E-01    7.731E-01    7.455E-01    7.195E-01    6.950E-01    6.720E-01    6.506E-01    6.306E-01
     6.122E-01    5.952E-01    5.797E-01    5.656E-01    5.530E-01    5.418E-01    5.321E-01    5.237E-01    5.168E-01    5.112E-01
     5.070E-01    5.042E-01    5.026E-01    5.023E-01    5.033E-01    5.056E-01    5.091E-01    5.137E-01    5.196E-01    5.266E-01
     5.348E-01    5.441E-01    5.545E-01    5.659E-01    5.784E-01    5.920E-01    6.065E-01    6.221E-01    6.386E-01    6.561E-01
     6.745E-01    6.938E-01    7.140E-01    7.350E-01    7.569E-01    7.796E-01    8.031E-01    8.274E-01    8.524E-01    8.782E-01
     9.047E-01    9.318E-01    9.597E-01    9.882E-01    1.017E+00    1.047E+00    1.077E+00    1.108E+00    1.140E+00    1.172E+00
     1.204E+00    1.237E+00    1.270E+00    1.304E+00    1.338E+00    1.373E+00    1.408E+00    1.443E+00    1.479E+00    1.515E+00
     1.552E+00    1.589E+00    1.626E+00    1.663E+00    1.701E+00    1.739E+00    1.777E+00    1.815E+00    1.854E+00    1.893E+00
     1.932E+00    1.971E+00    2.011E+00    2.050E+00    2.090E+00    2.130E+00    2.170E+00    2.210E+00    2.250E+00    2.291E+00
     2.331E+00    2.371E+00    2.412E+00    2.452E+00    2.493E+00    2.533E+00    2.574E+00    2.614E+00    2.654E+00    2.694E+00
     2.735E+00    2.775E+00    2.815E+00    2.855E+00    2.894E+00    2.934E+00    2.973E+00    3.012E+00    3.051E+00    3.090E+00
     3.129E+00    3.167E+00    3.205E+00    3.243E+00    3.281E+00    3.318E+00    3.356E+00    3.393E+00    3.429E+00    3.465E+00
     3.501E+00    3.537E+00    3.573E+00    3.608E+00    3.642E+00    3.677E+00    3.711E+00    3.744E+00    3.778E+00    3.811E+00
     3.843E+00    3.875E+00    3.907E+00    3.938E+00    3.969E+00    3.999E+00    4.029E+00    4.059E+00    4.088E+00    4.116E+00
     4.144E+00    4.172E+00    4.199E+00    4.226E+00    4.252E+00    4.277E+00    4.302E+00    4.327E+00    4.350E+00    4.374E+00
     4.396E+00    4.418E+00    4.440E+00    4.461E+00    4.481E+00    4.501E+00    4.520E+00    4.539E+00    4.557E+00    4.575E+00
     4.592E+00    4.609E+00    4.625E+00    4.641E+00    4.656E+00    4.671E+00    4.686E+00    4.700E+00    4.714E+00    4.727E+00
     4.740E+00    4.753E+00    4.766E+00    4.778E+00    4.790E+00    4.802E+00    4.814E+00    4.825E+00    4.836E+00    4.847E+00
     4.858E+00    4.869E+00    4.879E+00    4.890E+00    4.900E+00    4.910E+00    4.921E+00    4.931E+00    4.941E+00    4.951E+00
     4.961E+00    4.971E+00    4.981E+00    4.992E+00    5.002E+00    5.012E+00    5.023E+00    5.033E+00
 Ala      Conc. = 1.81E+02
