 LCModel (Version 6.3-1L) Copyright: S.W. Provencher.          Ref.: Magn. Reson. Med. 30:672-679 (1993).                
 Slice#2 Row#5 Col#6  PD_24_press_1_raw_act
 36 lines in following concentration table = NCONC+1
    Conc.  %SD /Cr+PCr  Metabolite                                         
  184.886  75%   0.104 Ala                                                 
   94.933 310% 5.4E-02 Asp                                                 
  886.547  31%   0.500 Cr                                                  
  885.354  32%   0.500 PCr                                                 
    0.000 999%   0.000 GABA                                                
  156.462 134% 8.8E-02 Glc                                                 
  890.234  32%   0.502 Gln                                                 
 1.67E+03  19%   0.942 Glu                                                 
 1.01E+03   4%   0.572 GPC                                                 
    0.000 999%   0.000 PCh                                                 
  576.905  17%   0.326 GSH                                                 
 2.26E+03  16%   1.275 Ins                                                 
  130.764 116% 7.4E-02 Lac                                                 
 2.85E+03   5%   1.610 NAA                                                 
   29.683 498% 1.7E-02 NAAG                                                
  266.291  15%   0.150 Scyllo                                              
  596.175  48%   0.336 Tau                                                 
  134.761 111% 7.6E-02 -CrCH2                                              
 1.01E+03   4%   0.572 GPC+PCh                                             
 2.88E+03   4%   1.627 NAA+NAAG                                            
 1.77E+03   4%   1.000 Cr+PCr                                              
 2.56E+03  18%   1.444 Glu+Gln                                             
    0.000 999%   0.000 Lip13a                                              
   76.793 169% 4.3E-02 Lip13b                                              
   17.721 248% 1.0E-02 Lip09                                               
 1.65E+03  15%   0.932 MM09                                                
   11.297 240% 6.4E-03 Lip20                                               
 3.11E+03  15%   1.756 MM20                                                
  479.047  33%   0.270 MM12                                                
  846.009  42%   0.477 MM14                                                
  810.443  33%   0.457 MM17                                                
   76.793 169% 4.3E-02 Lip13a+Lip13b                                       
 1.40E+03  32%   0.791 MM14+Lip13a+Lip13b+MM12                             
 1.67E+03  15%   0.942 MM09+Lip09                                          
 3.12E+03  15%   1.762 MM20+Lip20                                          
   6 lines in following misc. output table
  FWHM = 0.046 ppm    S/N =  12                                            
  Data shift =-0.008 ppm                                                   
  Ph: -45 deg     -12.1 deg/ppm                                            
  alphaB,S = 9.4E-01,   5.1E+01                                            
   14 spline knots.   Ns = 7(1)                                            
  (14) 4 infls.   (13) 1 extrs.                                            
  498 points on ppm-axis = NY
      4.000000     3.992357     3.984714     3.977070     3.969427     3.961784     3.954141     3.946497     3.938854     3.931211
      3.923568     3.915925     3.908281     3.900638     3.892995     3.885352     3.877708     3.870065     3.862422     3.854779
      3.847136     3.839492     3.831849     3.824206     3.816563     3.808919     3.801276     3.793633     3.785990     3.778347
      3.770703     3.763060     3.755417     3.747774     3.740130     3.732487     3.724844     3.717201     3.709558     3.701914
      3.694271     3.686628     3.678985     3.671341     3.663698     3.656055     3.648412     3.640769     3.633125     3.625482
      3.617839     3.610196     3.602552     3.594909     3.587266     3.579623     3.571980     3.564336     3.556693     3.549050
      3.541407     3.533763     3.526120     3.518477     3.510834     3.503191     3.495547     3.487904     3.480261     3.472618
      3.464974     3.457331     3.449688     3.442045     3.434402     3.426758     3.419115     3.411472     3.403829     3.396185
      3.388542     3.380899     3.373256     3.365613     3.357969     3.350326     3.342683     3.335040     3.327396     3.319753
      3.312110     3.304467     3.296824     3.289180     3.281537     3.273894     3.266251     3.258607     3.250964     3.243321
      3.235678     3.228034     3.220391     3.212748     3.205105     3.197462     3.189818     3.182175     3.174532     3.166889
      3.159245     3.151602     3.143959     3.136316     3.128673     3.121029     3.113386     3.105743     3.098100     3.090456
      3.082813     3.075170     3.067527     3.059884     3.052240     3.044597     3.036954     3.029311     3.021667     3.014024
      3.006381     2.998738     2.991095     2.983451     2.975808     2.968165     2.960522     2.952878     2.945235     2.937592
      2.929949     2.922306     2.914662     2.907019     2.899376     2.891733     2.884089     2.876446     2.868803     2.861160
      2.853517     2.845873     2.838230     2.830587     2.822944     2.815300     2.807657     2.800014     2.792371     2.784728
      2.777084     2.769441     2.761798     2.754155     2.746511     2.738868     2.731225     2.723582     2.715939     2.708295
      2.700652     2.693009     2.685366     2.677722     2.670079     2.662436     2.654793     2.647150     2.639506     2.631863
      2.624220     2.616577     2.608933     2.601290     2.593647     2.586004     2.578361     2.570717     2.563074     2.555431
      2.547788     2.540144     2.532501     2.524858     2.517215     2.509572     2.501928     2.494285     2.486642     2.478999
      2.471355     2.463712     2.456069     2.448426     2.440783     2.433139     2.425496     2.417853     2.410210     2.402566
      2.394923     2.387280     2.379637     2.371994     2.364350     2.356707     2.349064     2.341421     2.333777     2.326134
      2.318491     2.310848     2.303205     2.295561     2.287918     2.280275     2.272632     2.264988     2.257345     2.249702
      2.242059     2.234416     2.226772     2.219129     2.211486     2.203843     2.196199     2.188556     2.180913     2.173270
      2.165627     2.157983     2.150340     2.142697     2.135054     2.127410     2.119767     2.112124     2.104481     2.096838
      2.089194     2.081551     2.073908     2.066265     2.058621     2.050978     2.043335     2.035692     2.028049     2.020405
      2.012762     2.005119     1.997476     1.989833     1.982190     1.974546     1.966903     1.959260     1.951617     1.943974
      1.936331     1.928688     1.921045     1.913402     1.905759     1.898115     1.890472     1.882829     1.875186     1.867543
      1.859900     1.852257     1.844614     1.836971     1.829327     1.821684     1.814041     1.806398     1.798755     1.791112
      1.783469     1.775826     1.768183     1.760540     1.752896     1.745253     1.737610     1.729967     1.722324     1.714681
      1.707038     1.699395     1.691752     1.684108     1.676465     1.668822     1.661179     1.653536     1.645893     1.638250
      1.630607     1.622964     1.615321     1.607677     1.600034     1.592391     1.584748     1.577105     1.569462     1.561819
      1.554176     1.546533     1.538890     1.531246     1.523603     1.515960     1.508317     1.500674     1.493031     1.485388
      1.477745     1.470102     1.462458     1.454815     1.447172     1.439529     1.431886     1.424243     1.416600     1.408957
      1.401314     1.393671     1.386027     1.378384     1.370741     1.363098     1.355455     1.347812     1.340169     1.332526
      1.324883     1.317240     1.309596     1.301953     1.294310     1.286667     1.279024     1.271381     1.263738     1.256095
      1.248452     1.240808     1.233165     1.225522     1.217879     1.210236     1.202593     1.194950     1.187307     1.179664
      1.172021     1.164377     1.156734     1.149091     1.141448     1.133805     1.126162     1.118519     1.110876     1.103233
      1.095590     1.087946     1.080303     1.072660     1.065017     1.057374     1.049731     1.042088     1.034445     1.026802
      1.019158     1.011515     1.003872     0.996229     0.988586     0.980943     0.973300     0.965657     0.958014     0.950371
      0.942727     0.935084     0.927441     0.919798     0.912155     0.904512     0.896869     0.889226     0.881583     0.873940
      0.866296     0.858653     0.851010     0.843367     0.835724     0.828081     0.820438     0.812795     0.805152     0.797508
      0.789865     0.782222     0.774579     0.766936     0.759293     0.751650     0.744007     0.736364     0.728721     0.721077
      0.713434     0.705791     0.698148     0.690505     0.682862     0.675219     0.667576     0.659933     0.652290     0.644646
      0.637003     0.629360     0.621717     0.614074     0.606431     0.598788     0.591145     0.583502     0.575858     0.568215
      0.560572     0.552929     0.545286     0.537643     0.530000     0.522357     0.514714     0.507071     0.499427     0.491784
      0.484141     0.476498     0.468855     0.461212     0.453569     0.445925     0.438282     0.430639     0.422996     0.415353
      0.407710     0.400067     0.392424     0.384780     0.377137     0.369494     0.361851     0.354208     0.346565     0.338922
      0.331278     0.323635     0.315992     0.308349     0.300706     0.293063     0.285420     0.277777     0.270133     0.262490
      0.254847     0.247204     0.239561     0.231918     0.224275     0.216631     0.208988     0.201345
 NY phased data points follow
  -7.86736E+01 -8.86949E+01 -7.26742E+01 -8.13336E+01 -6.45277E+01 -6.06978E+01 -4.66052E+01 -4.94346E+01 -3.22594E+01 -3.86719E+01
  -2.79642E+01 -2.79448E+01 -3.38765E+01 -3.84927E+01 -4.55376E+01 -5.46090E+01 -5.75748E+01 -6.37622E+01 -6.02933E+01 -6.47309E+01
  -5.57205E+01 -5.94075E+01 -5.73613E+01 -5.83570E+01 -5.89079E+01 -5.98494E+01 -4.39198E+01 -5.22194E+01 -4.60898E+01 -4.75602E+01
  -4.59424E+01 -4.65018E+01 -4.11096E+01 -5.02331E+01 -4.61944E+01 -5.08853E+01 -4.60446E+01 -4.63137E+01 -4.20421E+01 -5.00817E+01
  -3.89167E+01 -4.88929E+01 -4.15061E+01 -3.92233E+01 -3.30017E+01 -3.84144E+01 -2.98475E+01 -2.96484E+01 -3.11024E+01 -3.47759E+01
  -3.89218E+01 -4.38532E+01 -3.80806E+01 -4.29913E+01 -4.04247E+01 -4.00453E+01 -3.81991E+01 -3.85840E+01 -3.70453E+01 -3.82847E+01
  -3.93340E+01 -4.75757E+01 -4.71876E+01 -4.75330E+01 -4.52171E+01 -4.43780E+01 -4.44510E+01 -4.21314E+01 -4.23692E+01 -4.79135E+01
  -3.82617E+01 -3.99448E+01 -3.48009E+01 -3.49095E+01 -3.57749E+01 -3.99149E+01 -3.44838E+01 -3.69982E+01 -3.39950E+01 -3.55398E+01
  -3.79619E+01 -3.27564E+01 -2.75271E+01 -3.24296E+01 -2.65400E+01 -2.96187E+01 -2.37345E+01 -2.79155E+01 -2.32011E+01 -2.82907E+01
  -2.34448E+01 -1.84230E+01 -2.33309E+01 -2.72261E+01 -2.41810E+01 -2.02130E+01 -1.55686E+01 -1.39446E+01 -3.41721E+00  1.14986E+01
   3.29193E+01  4.88664E+01  5.93465E+01  5.20148E+01  4.92347E+01  2.86516E+01  1.65759E+01  7.47232E+00  4.58308E+00 -6.35700E+00
  -5.37333E+00 -1.92657E+01 -1.58245E+01 -2.29770E+01 -1.99650E+01 -2.39100E+01 -1.82370E+01 -2.61203E+01 -1.85382E+01 -2.98186E+01
  -2.45498E+01 -2.53446E+01 -1.45274E+01 -4.65769E+00  1.07882E+01  2.33310E+01  3.95557E+01  3.32191E+01  2.66586E+01  1.96537E+01
   1.35006E+01 -5.10630E+00 -1.03303E+01 -8.09911E+00 -1.55882E+01 -2.52162E+01 -1.90173E+01 -2.22098E+01 -1.78849E+01 -2.40971E+01
  -1.86466E+01 -2.25240E+01 -2.41638E+01 -2.44779E+01 -2.00013E+01 -2.64912E+01 -2.09261E+01 -2.82722E+01 -2.32975E+01 -2.67077E+01
  -2.50252E+01 -2.64463E+01 -2.19054E+01 -2.11384E+01 -2.50205E+01 -1.84503E+01 -2.16093E+01 -2.35525E+01 -1.71164E+01 -2.56813E+01
  -2.90505E+01 -2.73245E+01 -2.30877E+01 -2.26163E+01 -2.04805E+01 -2.29551E+01 -1.75224E+01 -2.36916E+01 -2.52132E+01 -2.64725E+01
  -2.22666E+01 -2.85405E+01 -2.11986E+01 -2.88918E+01 -3.21329E+01 -3.01686E+01 -2.35190E+01 -2.64751E+01 -3.06541E+01 -2.51644E+01
  -2.73802E+01 -2.30921E+01 -2.60660E+01 -2.86843E+01 -2.28369E+01 -2.27970E+01 -2.43724E+01 -1.90347E+01 -1.83501E+01 -1.32871E+01
  -1.40805E+01 -9.98681E+00 -5.13159E+00 -7.26990E+00 -6.29884E+00 -1.06498E+01 -1.12871E+01 -1.33142E+01 -1.52083E+01 -1.56812E+01
  -4.29851E+00 -1.00484E+01 -6.06756E+00 -8.50346E+00 -6.24085E+00 -9.53214E+00 -1.11333E+01 -1.00299E+01 -1.29953E+01 -1.72575E+01
  -1.86373E+01 -1.06647E+01 -5.08478E+00  8.91920E-01  1.19830E+00 -2.28089E-01  5.44444E+00  2.67884E+00 -1.99978E+00 -3.03908E+00
  -8.33819E+00 -1.41050E+01 -5.40625E+00 -6.39823E+00 -9.48433E+00 -2.73772E+00  1.23498E-01  1.77697E-01  8.05879E+00  3.11975E+00
  -2.88804E-01  3.10316E-01 -3.05352E+00  6.70782E-01  2.79860E-01  3.37459E+00  7.40379E+00 -1.27805E+00  7.91630E+00 -3.16555E+00
  -5.46808E+00 -1.94278E+00 -1.61882E-01 -4.36739E+00 -3.49823E-01  2.90044E+00  6.92700E+00  7.19442E+00  8.87840E+00  9.47775E+00
   1.00293E+01  8.78312E+00  1.18763E+01  1.28635E+01  1.52991E+01  2.41208E+01  4.60456E+01  4.87701E+01  7.22470E+01  9.12197E+01
   1.02251E+02  9.92989E+01  8.31642E+01  6.01699E+01  5.45134E+01  3.68872E+01  3.02949E+01  2.11424E+01  1.74025E+01  1.30867E+01
   1.04859E+01  6.22370E+00  1.12354E+01  4.92836E+00  3.63517E+00  5.06930E+00  1.03709E+00  3.89465E+00  3.13961E+00 -5.73234E-02
  -3.73785E+00  7.33145E-01 -1.93133E-01  1.58249E+00  1.80954E+00 -5.00764E+00  2.32863E+00 -3.39884E+00 -1.08355E-01 -1.04428E+00
   4.99337E+00 -9.61535E+00  3.28088E+00 -6.63075E-01  4.55439E+00  2.28633E+00 -2.14592E+00  8.19622E-01  5.56143E+00  8.46783E-01
  -4.64617E+00  2.53416E-01  2.43036E+00  3.37125E+00  7.59696E+00  6.40234E+00  5.62854E+00  9.86421E+00  5.19379E+00  6.22319E+00
   7.25331E+00  6.49997E+00  4.20605E+00  3.08937E+00  7.55038E-01  3.13759E+00  4.59427E+00  3.54888E+00  8.31048E+00  8.17134E+00
   4.12522E+00  6.55644E+00  4.59781E+00  4.50322E+00  9.53830E+00  1.76722E+00  5.29503E+00  5.71028E+00  2.78418E+00  1.22167E+00
   4.21508E+00  1.52911E+00  2.26740E+00 -7.90873E-01  6.75403E+00  2.27467E+00  7.46230E+00  9.04021E+00  6.93906E+00  1.56733E+00
  -5.26259E-02 -7.88042E-01  5.64490E+00  1.41542E+00  5.69440E+00  7.69705E+00  9.27502E+00  4.68695E+00  5.61367E+00 -1.24301E+00
   5.54138E+00 -3.73971E+00  6.36934E+00  3.75234E+00  7.08549E+00  8.71050E+00  2.09365E-01  5.28010E+00  4.82189E+00  8.51395E+00
  -3.58313E-02  5.59521E+00  8.50145E+00  2.49203E+00 -1.21878E+00  6.72370E+00 -2.74485E-01  3.75859E+00  2.66784E+00  7.71982E+00
   3.39396E+00  2.06726E+00  6.45429E+00  7.56878E+00  6.41175E+00  4.60892E+00  8.24878E+00  4.77961E+00  2.87986E+00 -4.10676E+00
   5.30015E-01 -1.38583E-01  5.60098E+00  2.97894E+00 -2.50365E-01  8.89893E-01 -5.04862E-01  7.36663E+00  3.67163E+00  5.52004E+00
  -1.45318E+00 -1.68356E+00  3.23401E+00  6.67947E+00  2.21061E+00  6.00575E+00  8.21298E+00  1.59673E+01  8.33579E+00  8.70936E+00
   1.14394E+01  1.28720E+01  1.52053E+01  2.11225E+01  1.50158E+01  1.66271E+01  2.13298E+01  1.79433E+01  2.21219E+01  1.30337E+01
   2.10033E+01  1.39997E+01  1.20397E+01  1.51110E+01  1.33722E+01  1.11145E+01  1.29060E+01  1.27656E+01  1.28971E+01  1.26380E+01
   9.27454E+00  9.50758E+00  1.03368E+01  1.37729E+01  8.98087E+00  3.69605E+00  5.47183E+00  9.42038E+00  7.40377E+00  8.11215E+00
   3.70266E+00  6.21086E+00  8.29054E+00  4.92662E+00  3.94431E+00  5.39532E+00  2.54159E+00 -9.34904E-01  5.96657E+00  5.53901E+00
   3.55307E+00  1.01971E+01  2.83984E+00  9.09153E+00  8.39734E+00  3.42300E+00  9.62281E+00  1.48706E+01  6.01031E+00  3.88448E+00
   1.02371E+01  1.27434E+01  4.63936E+00  4.93122E+00  7.46256E+00  4.27001E+00  8.92080E+00  6.23322E+00  7.07368E+00  8.02429E+00
   8.83575E+00  2.91758E+00  9.52298E+00  2.79948E+00  5.53480E+00  5.36687E+00  5.00555E+00  1.18775E+01  6.58121E+00  2.97057E+00
   2.86238E+00  8.54474E+00  9.89385E+00  7.95704E+00  6.65630E+00  7.12240E+00  7.56015E+00  5.82096E+00  9.17173E+00  1.02120E+01
   7.78498E+00  6.99825E+00  8.41813E+00  1.83102E+00  4.70954E+00  2.83949E+00  7.12309E+00  1.45280E+01  8.12288E+00  7.26894E+00
   1.05671E+01  4.14750E+00  3.50525E+00 -7.19808E-01  9.69797E-01  8.48205E+00  6.34539E+00  1.97271E+00
 NY points of the fit to the data follow
  -7.21485E+01 -7.17626E+01 -7.03190E+01 -6.81050E+01 -6.45419E+01 -5.94031E+01 -5.28807E+01 -4.53118E+01 -3.78979E+01 -3.23424E+01
  -3.01857E+01 -3.18944E+01 -3.62739E+01 -4.15062E+01 -4.60889E+01 -4.94092E+01 -5.18574E+01 -5.42308E+01 -5.64617E+01 -5.84705E+01
  -5.96669E+01 -5.98895E+01 -5.97737E+01 -5.93970E+01 -5.87766E+01 -5.74700E+01 -5.52491E+01 -5.19576E+01 -4.80961E+01 -4.48375E+01
  -4.29444E+01 -4.24795E+01 -4.31229E+01 -4.44828E+01 -4.62169E+01 -4.77798E+01 -4.89419E+01 -5.03016E+01 -5.15491E+01 -5.14328E+01
  -5.02296E+01 -4.81429E+01 -4.53609E+01 -4.18910E+01 -3.79183E+01 -3.43564E+01 -3.23591E+01 -3.27061E+01 -3.50680E+01 -3.81716E+01
  -4.11400E+01 -4.33502E+01 -4.42702E+01 -4.42893E+01 -4.42890E+01 -4.42909E+01 -4.34679E+01 -4.19111E+01 -4.04913E+01 -3.97302E+01
  -3.97796E+01 -4.04713E+01 -4.13422E+01 -4.20353E+01 -4.20714E+01 -4.14137E+01 -4.04945E+01 -3.96815E+01 -3.88703E+01 -3.80389E+01
  -3.70951E+01 -3.61643E+01 -3.53492E+01 -3.46844E+01 -3.42868E+01 -3.43310E+01 -3.47887E+01 -3.55228E+01 -3.60960E+01 -3.63772E+01
  -3.59070E+01 -3.46610E+01 -3.28571E+01 -3.08520E+01 -2.86675E+01 -2.61966E+01 -2.43279E+01 -2.39359E+01 -2.48677E+01 -2.64215E+01
  -2.79316E+01 -2.90581E+01 -2.96771E+01 -2.97485E+01 -2.94169E+01 -2.82543E+01 -2.37388E+01 -1.54615E+01 -3.14837E+00  1.28520E+01
   3.15949E+01  4.94264E+01  5.98270E+01  5.85338E+01  4.75729E+01  3.23918E+01  1.77931E+01  5.97788E+00 -1.79328E+00 -7.03543E+00
  -1.34565E+01 -2.14832E+01 -2.58054E+01 -2.71345E+01 -2.75920E+01 -2.77387E+01 -2.77857E+01 -2.76664E+01 -2.73167E+01 -2.63441E+01
  -2.34732E+01 -1.87088E+01 -1.14384E+01 -1.43451E+00  1.09432E+01  2.38782E+01  3.29070E+01  3.41337E+01  2.81150E+01  1.84196E+01
   8.81853E+00  8.90878E-01 -4.76160E+00 -8.67346E+00 -1.31530E+01 -1.96202E+01 -2.35187E+01 -2.39549E+01 -2.32705E+01 -2.22455E+01
  -2.14282E+01 -2.11215E+01 -2.10947E+01 -2.11160E+01 -2.11831E+01 -2.12465E+01 -2.13048E+01 -2.14539E+01 -2.16540E+01 -2.19272E+01
  -2.21443E+01 -2.22309E+01 -2.22316E+01 -2.21583E+01 -2.20582E+01 -2.19774E+01 -2.19863E+01 -2.21479E+01 -2.24154E+01 -2.27593E+01
  -2.29989E+01 -2.28724E+01 -2.23364E+01 -2.16124E+01 -2.10952E+01 -2.10165E+01 -2.13291E+01 -2.18290E+01 -2.22504E+01 -2.24424E+01
  -2.25691E+01 -2.27869E+01 -2.31704E+01 -2.37000E+01 -2.41292E+01 -2.42049E+01 -2.38900E+01 -2.33105E+01 -2.27728E+01 -2.25100E+01
  -2.25119E+01 -2.25064E+01 -2.23238E+01 -2.19440E+01 -2.12732E+01 -2.03335E+01 -1.91697E+01 -1.75123E+01 -1.54677E+01 -1.35105E+01
  -1.22243E+01 -1.19815E+01 -1.24433E+01 -1.31864E+01 -1.37721E+01 -1.38660E+01 -1.34968E+01 -1.27526E+01 -1.15187E+01 -9.93512E+00
  -8.21926E+00 -6.61968E+00 -5.44626E+00 -5.09672E+00 -5.66523E+00 -7.29344E+00 -9.65380E+00 -1.22173E+01 -1.42556E+01 -1.50165E+01
  -1.41914E+01 -1.21932E+01 -9.51927E+00 -6.43579E+00 -3.35043E+00 -1.35076E+00 -1.20752E+00 -2.74878E+00 -5.31798E+00 -8.59252E+00
  -1.14722E+01 -1.29822E+01 -1.27186E+01 -1.10051E+01 -8.64636E+00 -6.10971E+00 -3.74836E+00 -2.21679E+00 -1.58448E+00 -1.50493E+00
  -1.26232E+00 -6.70185E-01 -5.19160E-02  5.56524E-01  1.44589E+00  2.49007E+00  3.30991E+00  3.56189E+00  3.21603E+00  2.53073E+00
   1.62412E+00  7.14494E-01  4.27396E-01  1.15894E+00  2.47722E+00  3.69513E+00  4.79412E+00  5.72826E+00  6.34468E+00  6.80652E+00
   7.49048E+00  8.57296E+00  1.00063E+01  1.27771E+01  1.84225E+01  2.67095E+01  3.89581E+01  5.50264E+01  7.42696E+01  9.20701E+01
   1.00904E+02  9.68552E+01  8.32622E+01  6.61661E+01  5.05823E+01  3.83979E+01  3.07498E+01  2.53966E+01  1.78782E+01  8.82787E+00
   4.91915E+00  3.71512E+00  3.13610E+00  2.84483E+00  2.70928E+00  2.50685E+00  2.24724E+00  1.95946E+00  1.65766E+00  1.37543E+00
   1.15343E+00  9.69153E-01  7.98394E-01  6.60923E-01  5.67013E-01  5.05929E-01  4.65016E-01  4.44943E-01  4.59872E-01  5.17816E-01
   6.01619E-01  7.11899E-01  8.52704E-01  1.02348E+00  1.22088E+00  1.44309E+00  1.69007E+00  1.95932E+00  2.24494E+00  2.54331E+00
   2.84928E+00  3.15617E+00  3.45712E+00  3.74446E+00  4.01025E+00  4.24786E+00  4.45290E+00  4.62221E+00  4.75322E+00  4.84514E+00
   4.89872E+00  4.91563E+00  4.90014E+00  4.85872E+00  4.79836E+00  4.72698E+00  4.65387E+00  4.59016E+00  4.55049E+00  4.55855E+00
   4.65113E+00  4.80273E+00  4.99397E+00  5.19476E+00  5.32360E+00  5.26472E+00  4.85522E+00  4.06424E+00  3.13371E+00  2.36153E+00
   1.90883E+00  1.84245E+00  2.16138E+00  2.85042E+00  3.70770E+00  4.45882E+00  5.05825E+00  5.44339E+00  5.54758E+00  5.51315E+00
   5.47647E+00  5.53238E+00  5.65210E+00  5.65538E+00  5.49825E+00  5.30220E+00  4.92071E+00  4.29309E+00  3.58709E+00  3.00622E+00
   2.69266E+00  2.69209E+00  2.99939E+00  3.57282E+00  4.21099E+00  4.68492E+00  4.99188E+00  5.14510E+00  5.10393E+00  4.94833E+00
   4.76763E+00  4.63040E+00  4.50360E+00  4.27706E+00  4.03813E+00  3.87895E+00  3.76552E+00  3.67858E+00  3.60894E+00  3.55059E+00
   3.49972E+00  3.45393E+00  3.41239E+00  3.37519E+00  3.34336E+00  3.31831E+00  3.30198E+00  3.29648E+00  3.30433E+00  3.32808E+00
   3.37055E+00  3.43453E+00  3.52315E+00  3.63969E+00  3.78786E+00  3.97149E+00  4.19474E+00  4.46175E+00  4.77686E+00  5.14420E+00
   5.56766E+00  6.05030E+00  6.59419E+00  7.19980E+00  7.86592E+00  8.58894E+00  9.36281E+00  1.01784E+01  1.10238E+01  1.18841E+01
   1.27419E+01  1.35777E+01  1.43708E+01  1.50997E+01  1.57437E+01  1.62835E+01  1.67028E+01  1.69888E+01  1.71329E+01  1.71317E+01
   1.69868E+01  1.67047E+01  1.62969E+01  1.57784E+01  1.51676E+01  1.44847E+01  1.37510E+01  1.29875E+01  1.22143E+01  1.14493E+01
   1.07084E+01  1.00041E+01  9.34644E+00  8.74204E+00  8.19508E+00  7.70707E+00  7.27754E+00  6.90427E+00  6.58401E+00  6.31255E+00
   6.08534E+00  5.89750E+00  5.74434E+00  5.62126E+00  5.52418E+00  5.44926E+00  5.39322E+00  5.35304E+00  5.32625E+00  5.31064E+00
   5.30450E+00  5.30621E+00  5.31457E+00  5.32840E+00  5.34687E+00  5.36916E+00  5.39475E+00  5.42299E+00  5.45351E+00  5.48581E+00
   5.51965E+00  5.55467E+00  5.59072E+00  5.62749E+00  5.66491E+00  5.70274E+00  5.74099E+00  5.77949E+00  5.81826E+00  5.85711E+00
   5.89607E+00  5.93500E+00  5.97397E+00  6.01287E+00  6.05175E+00  6.09048E+00  6.12910E+00  6.16753E+00  6.20586E+00  6.24400E+00
   6.28201E+00  6.31978E+00  6.35741E+00  6.39482E+00  6.43211E+00  6.46919E+00  6.50613E+00  6.54284E+00  6.57942E+00  6.61581E+00
   6.65211E+00  6.68824E+00  6.72427E+00  6.76012E+00  6.79592E+00  6.83159E+00  6.86725E+00  6.90280E+00  6.93834E+00  6.97379E+00
   7.00929E+00  7.04477E+00  7.08034E+00  7.11592E+00  7.15160E+00  7.18734E+00  7.22328E+00  7.25936E+00
 NY background values follow
    -7.878E+01   -7.828E+01   -7.777E+01   -7.727E+01   -7.677E+01   -7.626E+01   -7.576E+01   -7.526E+01   -7.476E+01   -7.425E+01
    -7.375E+01   -7.325E+01   -7.275E+01   -7.225E+01   -7.175E+01   -7.125E+01   -7.076E+01   -7.026E+01   -6.976E+01   -6.927E+01
    -6.877E+01   -6.828E+01   -6.779E+01   -6.730E+01   -6.681E+01   -6.632E+01   -6.583E+01   -6.534E+01   -6.486E+01   -6.437E+01
    -6.389E+01   -6.341E+01   -6.293E+01   -6.246E+01   -6.198E+01   -6.151E+01   -6.103E+01   -6.056E+01   -6.009E+01   -5.963E+01
    -5.916E+01   -5.870E+01   -5.824E+01   -5.778E+01   -5.732E+01   -5.687E+01   -5.642E+01   -5.597E+01   -5.552E+01   -5.508E+01
    -5.463E+01   -5.419E+01   -5.375E+01   -5.332E+01   -5.289E+01   -5.245E+01   -5.203E+01   -5.160E+01   -5.118E+01   -5.076E+01
    -5.034E+01   -4.992E+01   -4.951E+01   -4.910E+01   -4.869E+01   -4.829E+01   -4.789E+01   -4.749E+01   -4.709E+01   -4.670E+01
    -4.631E+01   -4.592E+01   -4.554E+01   -4.515E+01   -4.478E+01   -4.440E+01   -4.403E+01   -4.366E+01   -4.329E+01   -4.292E+01
    -4.256E+01   -4.221E+01   -4.185E+01   -4.150E+01   -4.115E+01   -4.081E+01   -4.046E+01   -4.013E+01   -3.979E+01   -3.946E+01
    -3.913E+01   -3.880E+01   -3.848E+01   -3.816E+01   -3.785E+01   -3.753E+01   -3.722E+01   -3.692E+01   -3.661E+01   -3.631E+01
    -3.602E+01   -3.572E+01   -3.543E+01   -3.514E+01   -3.486E+01   -3.457E+01   -3.429E+01   -3.401E+01   -3.374E+01   -3.346E+01
    -3.319E+01   -3.293E+01   -3.266E+01   -3.240E+01   -3.213E+01   -3.188E+01   -3.162E+01   -3.136E+01   -3.111E+01   -3.086E+01
    -3.061E+01   -3.036E+01   -3.012E+01   -2.988E+01   -2.964E+01   -2.940E+01   -2.916E+01   -2.892E+01   -2.869E+01   -2.845E+01
    -2.822E+01   -2.799E+01   -2.776E+01   -2.754E+01   -2.731E+01   -2.709E+01   -2.686E+01   -2.664E+01   -2.642E+01   -2.620E+01
    -2.598E+01   -2.576E+01   -2.554E+01   -2.533E+01   -2.511E+01   -2.490E+01   -2.469E+01   -2.447E+01   -2.426E+01   -2.405E+01
    -2.384E+01   -2.363E+01   -2.342E+01   -2.321E+01   -2.301E+01   -2.280E+01   -2.259E+01   -2.239E+01   -2.218E+01   -2.198E+01
    -2.177E+01   -2.157E+01   -2.136E+01   -2.116E+01   -2.096E+01   -2.075E+01   -2.055E+01   -2.035E+01   -2.014E+01   -1.994E+01
    -1.974E+01   -1.954E+01   -1.933E+01   -1.913E+01   -1.893E+01   -1.873E+01   -1.852E+01   -1.832E+01   -1.812E+01   -1.791E+01
    -1.771E+01   -1.751E+01   -1.730E+01   -1.710E+01   -1.689E+01   -1.669E+01   -1.648E+01   -1.628E+01   -1.607E+01   -1.587E+01
    -1.566E+01   -1.546E+01   -1.525E+01   -1.505E+01   -1.485E+01   -1.464E+01   -1.444E+01   -1.424E+01   -1.404E+01   -1.384E+01
    -1.364E+01   -1.344E+01   -1.324E+01   -1.304E+01   -1.285E+01   -1.265E+01   -1.246E+01   -1.227E+01   -1.208E+01   -1.189E+01
    -1.170E+01   -1.151E+01   -1.133E+01   -1.114E+01   -1.096E+01   -1.078E+01   -1.060E+01   -1.043E+01   -1.025E+01   -1.008E+01
    -9.908E+00   -9.740E+00   -9.573E+00   -9.409E+00   -9.248E+00   -9.088E+00   -8.931E+00   -8.777E+00   -8.625E+00   -8.475E+00
    -8.328E+00   -8.183E+00   -8.040E+00   -7.900E+00   -7.762E+00   -7.627E+00   -7.493E+00   -7.362E+00   -7.233E+00   -7.106E+00
    -6.981E+00   -6.858E+00   -6.738E+00   -6.619E+00   -6.502E+00   -6.388E+00   -6.275E+00   -6.164E+00   -6.055E+00   -5.948E+00
    -5.843E+00   -5.740E+00   -5.638E+00   -5.538E+00   -5.440E+00   -5.344E+00   -5.249E+00   -5.156E+00   -5.064E+00   -4.974E+00
    -4.886E+00   -4.799E+00   -4.714E+00   -4.630E+00   -4.548E+00   -4.467E+00   -4.387E+00   -4.309E+00   -4.232E+00   -4.157E+00
    -4.083E+00   -4.010E+00   -3.938E+00   -3.868E+00   -3.798E+00   -3.730E+00   -3.663E+00   -3.597E+00   -3.533E+00   -3.469E+00
    -3.407E+00   -3.345E+00   -3.285E+00   -3.225E+00   -3.167E+00   -3.110E+00   -3.053E+00   -2.998E+00   -2.944E+00   -2.890E+00
    -2.838E+00   -2.786E+00   -2.735E+00   -2.685E+00   -2.636E+00   -2.588E+00   -2.540E+00   -2.494E+00   -2.448E+00   -2.403E+00
    -2.358E+00   -2.314E+00   -2.271E+00   -2.229E+00   -2.187E+00   -2.146E+00   -2.106E+00   -2.066E+00   -2.027E+00   -1.988E+00
    -1.950E+00   -1.913E+00   -1.876E+00   -1.839E+00   -1.803E+00   -1.768E+00   -1.733E+00   -1.698E+00   -1.664E+00   -1.630E+00
    -1.597E+00   -1.564E+00   -1.531E+00   -1.498E+00   -1.466E+00   -1.434E+00   -1.402E+00   -1.371E+00   -1.340E+00   -1.309E+00
    -1.278E+00   -1.247E+00   -1.216E+00   -1.186E+00   -1.155E+00   -1.125E+00   -1.094E+00   -1.064E+00   -1.033E+00   -1.003E+00
    -9.720E-01   -9.413E-01   -9.105E-01   -8.796E-01   -8.486E-01   -8.173E-01   -7.859E-01   -7.542E-01   -7.224E-01   -6.902E-01
    -6.578E-01   -6.251E-01   -5.920E-01   -5.587E-01   -5.249E-01   -4.908E-01   -4.562E-01   -4.212E-01   -3.858E-01   -3.499E-01
    -3.135E-01   -2.765E-01   -2.391E-01   -2.010E-01   -1.625E-01   -1.233E-01   -8.365E-02   -4.341E-02   -2.605E-03    3.876E-02
     8.069E-02    1.232E-01    1.663E-01    2.099E-01    2.541E-01    2.989E-01    3.442E-01    3.902E-01    4.367E-01    4.838E-01
     5.314E-01    5.797E-01    6.286E-01    6.780E-01    7.280E-01    7.786E-01    8.299E-01    8.817E-01    9.341E-01    9.871E-01
     1.041E+00    1.095E+00    1.150E+00    1.205E+00    1.261E+00    1.318E+00    1.375E+00    1.433E+00    1.491E+00    1.551E+00
     1.610E+00    1.671E+00    1.732E+00    1.793E+00    1.855E+00    1.918E+00    1.982E+00    2.046E+00    2.111E+00    2.176E+00
     2.242E+00    2.308E+00    2.375E+00    2.443E+00    2.510E+00    2.579E+00    2.647E+00    2.716E+00    2.785E+00    2.855E+00
     2.924E+00    2.994E+00    3.064E+00    3.134E+00    3.204E+00    3.274E+00    3.344E+00    3.415E+00    3.485E+00    3.555E+00
     3.625E+00    3.695E+00    3.764E+00    3.834E+00    3.903E+00    3.972E+00    4.040E+00    4.108E+00    4.176E+00    4.244E+00
     4.311E+00    4.377E+00    4.443E+00    4.508E+00    4.573E+00    4.637E+00    4.701E+00    4.764E+00    4.826E+00    4.887E+00
     4.948E+00    5.008E+00    5.066E+00    5.124E+00    5.182E+00    5.238E+00    5.293E+00    5.348E+00    5.402E+00    5.455E+00
     5.508E+00    5.559E+00    5.610E+00    5.661E+00    5.710E+00    5.759E+00    5.807E+00    5.855E+00    5.902E+00    5.949E+00
     5.995E+00    6.040E+00    6.085E+00    6.129E+00    6.173E+00    6.217E+00    6.260E+00    6.302E+00    6.345E+00    6.386E+00
     6.428E+00    6.469E+00    6.510E+00    6.550E+00    6.590E+00    6.630E+00    6.670E+00    6.709E+00    6.748E+00    6.787E+00
     6.826E+00    6.864E+00    6.903E+00    6.941E+00    6.980E+00    7.018E+00    7.056E+00    7.094E+00
 Ala      Conc. = 1.85E+02
