 LCModel (Version 6.3-1L) Copyright: S.W. Provencher.          Ref.: Magn. Reson. Med. 30:672-679 (1993).                
 Slice#3 Row#11 Col#8  PD_24_press_1_raw_act
 36 lines in following concentration table = NCONC+1
    Conc.  %SD /Cr+PCr  Metabolite                                         
  195.886  54%   0.119 Ala                                                 
    0.000 999%   0.000 Asp                                                 
  483.717  45%   0.293 Cr                                                  
 1.17E+03  19%   0.707 PCr                                                 
    0.000 999%   0.000 GABA                                                
    2.698 999% 1.6E-03 Glc                                                 
  488.687  45%   0.296 Gln                                                 
 1.38E+03  18%   0.832 Glu                                                 
  535.044   4%   0.324 GPC                                                 
    0.000 999%   0.000 PCh                                                 
  536.549  13%   0.325 GSH                                                 
  913.343  26%   0.553 Ins                                                 
   93.141 140% 5.6E-02 Lac                                                 
 1.87E+03   6%   1.131 NAA                                                 
  175.420  70%   0.106 NAAG                                                
   26.705  91% 1.6E-02 Scyllo                                              
    0.000 999%   0.000 Tau                                                 
    0.000 999%   0.000 -CrCH2                                              
  535.044   4%   0.324 GPC+PCh                                             
 2.04E+03   4%   1.237 NAA+NAAG                                            
 1.65E+03   3%   1.000 Cr+PCr                                              
 1.86E+03  19%   1.128 Glu+Gln                                             
  151.425 384% 9.2E-02 Lip13a                                              
  234.513  73%   0.142 Lip13b                                              
   67.138 254% 4.1E-02 Lip09                                               
 1.14E+03  20%   0.690 MM09                                                
   53.635 199% 3.2E-02 Lip20                                               
 2.17E+03  16%   1.315 MM20                                                
  349.443  50%   0.211 MM12                                                
 1.31E+03  26%   0.795 MM14                                                
  550.914  35%   0.333 MM17                                                
  385.938 122%   0.234 Lip13a+Lip13b                                       
 2.05E+03  17%   1.240 MM14+Lip13a+Lip13b+MM12                             
 1.21E+03  14%   0.731 MM09+Lip09                                          
 2.23E+03  16%   1.347 MM20+Lip20                                          
   6 lines in following misc. output table
  FWHM = 0.054 ppm    S/N =  11                                            
  Data shift = 0.023 ppm                                                   
  Ph:   8 deg       3.3 deg/ppm                                            
  alphaB,S = 1.1E+00,   1.7E+02                                            
   14 spline knots.   Ns = 7(1)                                            
  (13) 2 infls.   ( 7) 1 extrs.                                            
  498 points on ppm-axis = NY
      4.000000     3.992357     3.984714     3.977070     3.969427     3.961784     3.954141     3.946497     3.938854     3.931211
      3.923568     3.915925     3.908281     3.900638     3.892995     3.885352     3.877708     3.870065     3.862422     3.854779
      3.847136     3.839492     3.831849     3.824206     3.816563     3.808919     3.801276     3.793633     3.785990     3.778347
      3.770703     3.763060     3.755417     3.747774     3.740130     3.732487     3.724844     3.717201     3.709558     3.701914
      3.694271     3.686628     3.678985     3.671341     3.663698     3.656055     3.648412     3.640769     3.633125     3.625482
      3.617839     3.610196     3.602552     3.594909     3.587266     3.579623     3.571980     3.564336     3.556693     3.549050
      3.541407     3.533763     3.526120     3.518477     3.510834     3.503191     3.495547     3.487904     3.480261     3.472618
      3.464974     3.457331     3.449688     3.442045     3.434402     3.426758     3.419115     3.411472     3.403829     3.396185
      3.388542     3.380899     3.373256     3.365613     3.357969     3.350326     3.342683     3.335040     3.327396     3.319753
      3.312110     3.304467     3.296824     3.289180     3.281537     3.273894     3.266251     3.258607     3.250964     3.243321
      3.235678     3.228034     3.220391     3.212748     3.205105     3.197462     3.189818     3.182175     3.174532     3.166889
      3.159245     3.151602     3.143959     3.136316     3.128673     3.121029     3.113386     3.105743     3.098100     3.090456
      3.082813     3.075170     3.067527     3.059884     3.052240     3.044597     3.036954     3.029311     3.021667     3.014024
      3.006381     2.998738     2.991095     2.983451     2.975808     2.968165     2.960522     2.952878     2.945235     2.937592
      2.929949     2.922306     2.914662     2.907019     2.899376     2.891733     2.884089     2.876446     2.868803     2.861160
      2.853517     2.845873     2.838230     2.830587     2.822944     2.815300     2.807657     2.800014     2.792371     2.784728
      2.777084     2.769441     2.761798     2.754155     2.746511     2.738868     2.731225     2.723582     2.715939     2.708295
      2.700652     2.693009     2.685366     2.677722     2.670079     2.662436     2.654793     2.647150     2.639506     2.631863
      2.624220     2.616577     2.608933     2.601290     2.593647     2.586004     2.578361     2.570717     2.563074     2.555431
      2.547788     2.540144     2.532501     2.524858     2.517215     2.509572     2.501928     2.494285     2.486642     2.478999
      2.471355     2.463712     2.456069     2.448426     2.440783     2.433139     2.425496     2.417853     2.410210     2.402566
      2.394923     2.387280     2.379637     2.371994     2.364350     2.356707     2.349064     2.341421     2.333777     2.326134
      2.318491     2.310848     2.303205     2.295561     2.287918     2.280275     2.272632     2.264988     2.257345     2.249702
      2.242059     2.234416     2.226772     2.219129     2.211486     2.203843     2.196199     2.188556     2.180913     2.173270
      2.165627     2.157983     2.150340     2.142697     2.135054     2.127410     2.119767     2.112124     2.104481     2.096838
      2.089194     2.081551     2.073908     2.066265     2.058621     2.050978     2.043335     2.035692     2.028049     2.020405
      2.012762     2.005119     1.997476     1.989833     1.982190     1.974546     1.966903     1.959260     1.951617     1.943974
      1.936331     1.928688     1.921045     1.913402     1.905759     1.898115     1.890472     1.882829     1.875186     1.867543
      1.859900     1.852257     1.844614     1.836971     1.829327     1.821684     1.814041     1.806398     1.798755     1.791112
      1.783469     1.775826     1.768183     1.760540     1.752896     1.745253     1.737610     1.729967     1.722324     1.714681
      1.707038     1.699395     1.691752     1.684108     1.676465     1.668822     1.661179     1.653536     1.645893     1.638250
      1.630607     1.622964     1.615321     1.607677     1.600034     1.592391     1.584748     1.577105     1.569462     1.561819
      1.554176     1.546533     1.538890     1.531246     1.523603     1.515960     1.508317     1.500674     1.493031     1.485388
      1.477745     1.470102     1.462458     1.454815     1.447172     1.439529     1.431886     1.424243     1.416600     1.408957
      1.401314     1.393671     1.386027     1.378384     1.370741     1.363098     1.355455     1.347812     1.340169     1.332526
      1.324883     1.317240     1.309596     1.301953     1.294310     1.286667     1.279024     1.271381     1.263738     1.256095
      1.248452     1.240808     1.233165     1.225522     1.217879     1.210236     1.202593     1.194950     1.187307     1.179664
      1.172021     1.164377     1.156734     1.149091     1.141448     1.133805     1.126162     1.118519     1.110876     1.103233
      1.095590     1.087946     1.080303     1.072660     1.065017     1.057374     1.049731     1.042088     1.034445     1.026802
      1.019158     1.011515     1.003872     0.996229     0.988586     0.980943     0.973300     0.965657     0.958014     0.950371
      0.942727     0.935084     0.927441     0.919798     0.912155     0.904512     0.896869     0.889226     0.881583     0.873940
      0.866296     0.858653     0.851010     0.843367     0.835724     0.828081     0.820438     0.812795     0.805152     0.797508
      0.789865     0.782222     0.774579     0.766936     0.759293     0.751650     0.744007     0.736364     0.728721     0.721077
      0.713434     0.705791     0.698148     0.690505     0.682862     0.675219     0.667576     0.659933     0.652290     0.644646
      0.637003     0.629360     0.621717     0.614074     0.606431     0.598788     0.591145     0.583502     0.575858     0.568215
      0.560572     0.552929     0.545286     0.537643     0.530000     0.522357     0.514714     0.507071     0.499427     0.491784
      0.484141     0.476498     0.468855     0.461212     0.453569     0.445925     0.438282     0.430639     0.422996     0.415353
      0.407710     0.400067     0.392424     0.384780     0.377137     0.369494     0.361851     0.354208     0.346565     0.338922
      0.331278     0.323635     0.315992     0.308349     0.300706     0.293063     0.285420     0.277777     0.270133     0.262490
      0.254847     0.247204     0.239561     0.231918     0.224275     0.216631     0.208988     0.201345
 NY phased data points follow
   1.83175E+01  2.02097E+01  2.10552E+01  2.35571E+01  2.61638E+01  2.94841E+01  3.62075E+01  3.74423E+01  4.65249E+01  5.55767E+01
   5.85345E+01  6.21602E+01  5.72515E+01  4.96175E+01  4.83078E+01  3.78168E+01  3.66173E+01  2.90154E+01  2.68675E+01  2.28193E+01
   2.38047E+01  2.08750E+01  2.14849E+01  1.81045E+01  2.30730E+01  2.44192E+01  2.70443E+01  2.51084E+01  2.68140E+01  2.40623E+01
   2.83055E+01  2.52859E+01  3.05717E+01  2.24210E+01  2.34865E+01  2.12520E+01  2.27731E+01  2.43101E+01  2.46148E+01  1.59908E+01
   2.12003E+01  1.69672E+01  1.47011E+01  2.04725E+01  1.77186E+01  1.87299E+01  2.35216E+01  2.38571E+01  2.46204E+01  2.21546E+01
   2.46171E+01  1.67950E+01  1.60968E+01  1.59756E+01  2.14330E+01  1.65846E+01  1.65763E+01  1.67418E+01  2.07287E+01  1.54574E+01
   1.55967E+01  1.56055E+01  1.40152E+01  3.42010E+00  8.61387E+00  8.83063E+00  3.95323E+00  5.72655E+00  7.93369E+00  6.21346E+00
   4.71357E+00  3.60692E+00  9.83126E+00  8.11049E+00  1.30466E+01  1.02020E+01  7.06740E+00  4.29877E+00  1.15708E+01  7.99801E+00
   1.07746E+01  3.62448E+00  7.55411E+00  8.93955E+00  9.76736E+00  4.27988E+00  1.09285E+01  4.23564E+00  8.84550E+00  1.03090E+01
   5.56735E+00  5.63169E+00  7.67583E+00  3.48698E+00  1.22418E+01  5.46191E+00  5.88740E+00  5.34171E+00  1.30101E+01  1.70783E+01
   2.79416E+01  3.79539E+01  5.13961E+01  5.41537E+01  5.48536E+01  4.81394E+01  4.66270E+01  3.23310E+01  2.96019E+01  2.26179E+01
   1.95166E+01  1.00250E+01  8.82651E+00  6.73073E+00  1.13487E+01  7.46353E+00  3.89457E+00  4.38609E+00  7.43538E+00  6.16286E+00
   8.62293E+00  4.81372E+00  8.62859E+00  1.83274E+01  2.40660E+01  3.36206E+01  4.95825E+01  5.65692E+01  5.43070E+01  5.05112E+01
   4.48923E+01  4.04018E+01  3.31557E+01  2.13553E+01  1.80001E+01  1.38209E+01  1.26816E+01  2.04817E+00  5.79070E+00  8.43626E+00
   7.43991E+00  5.06009E+00  6.00419E+00  7.27952E+00  5.72323E+00  1.84927E+00  5.92632E+00  3.51827E+00  2.30531E+00  7.28087E+00
  -2.16320E+00  2.38999E+00  1.75730E+00 -1.15727E+00 -9.84975E-01 -4.11030E+00  2.40274E+00 -2.46258E+00  7.11005E-01 -6.64968E-01
   2.56935E-01 -2.27298E+00 -6.29747E-02 -1.61694E+00  2.44750E-02  1.32336E+00 -1.81369E+00 -1.48483E+00 -1.83506E+00 -1.36421E+00
  -1.71484E+00 -7.74538E+00 -5.38262E+00 -4.77849E+00 -5.67686E+00 -7.06641E+00 -7.22089E+00 -1.04640E+01 -3.45249E+00 -9.80551E+00
  -9.35340E+00 -1.16792E+01 -6.10276E+00 -9.90376E+00 -1.20325E+01 -9.96665E+00 -1.24007E+01 -8.05399E+00 -3.91420E+00 -1.72838E+00
  -4.37650E-01  1.73003E+00  8.10039E+00  6.36678E+00  1.28457E+01  6.58298E+00  9.28847E+00  1.38003E+00 -5.02324E-01 -1.14803E+00
  -1.54260E+00  2.73519E+00 -1.64654E+00  2.74980E+00  7.77996E+00 -5.32148E-01 -8.38027E-02 -1.47888E+00 -1.21553E+00 -3.84727E+00
  -8.23013E-01 -5.18458E+00 -4.53645E+00  1.10589E+00  9.42183E+00  9.80295E+00  1.04835E+01  5.60341E+00  7.20896E+00  1.95085E+00
   2.95739E+00 -2.20996E+00 -3.50769E+00 -2.97556E+00  1.65426E+00  2.40226E+00  6.36277E+00  3.69988E+00  4.75203E+00  5.46163E+00
   8.86459E+00  5.75250E+00  7.97172E+00  4.39424E+00  6.57695E+00  5.43509E+00  8.66820E+00  5.83112E+00  3.70412E+00  1.87978E+00
   4.94309E+00 -1.97831E+00  5.20627E+00  1.46220E+00  4.51915E+00  3.53183E+00  5.73662E-02  5.82744E+00  8.96307E+00  7.04360E+00
   5.64179E+00  1.14460E+01  5.77707E+00  1.26176E+01  2.51159E+01  2.66954E+01  2.45146E+01  3.53897E+01  5.10965E+01  6.66103E+01
   7.38991E+01  6.85852E+01  6.43283E+01  4.54397E+01  3.61693E+01  2.52654E+01  1.78610E+01  1.06740E+01  1.01112E+01  8.26467E+00
   1.00136E+01  5.23116E+00  7.50384E+00  3.32335E+00  5.59493E+00  7.84281E-01  7.16707E-01  4.78090E+00  5.03553E+00 -2.71574E-01
   2.37374E+00  3.46162E+00  2.91316E+00 -3.22568E+00 -1.75937E+00 -1.83167E+00  1.26972E-01 -4.32398E+00 -9.34363E-01 -5.99224E-01
   3.78760E+00  1.82623E+00 -2.70399E+00 -1.67985E+00  9.89893E-01 -1.00565E+00 -7.92287E-01 -2.70372E-02  4.33922E+00 -2.27074E+00
   1.75188E+00  4.65812E-01  1.61224E+00  2.78420E+00  1.92721E+00  2.59187E+00  6.85514E+00  4.81207E+00  3.26484E+00  3.21101E+00
   2.02894E+00  4.66637E+00  1.30312E+00  2.10024E+00  6.07436E+00  2.61310E+00  1.11519E+00  1.80036E+00  1.55013E+00  7.87493E+00
   3.02610E+00  4.65593E+00  2.28131E+00  1.16690E+00  3.54997E+00  2.46778E+00  4.88672E+00  6.02878E-01 -1.50178E+00  3.85766E+00
   8.14116E+00  8.28995E-01  2.21653E+00  8.65260E-01  5.62376E+00  3.15804E+00  5.53274E+00  5.94317E+00  1.05002E+01  8.31111E+00
   8.36951E+00  5.80335E+00  8.31950E+00  5.15005E+00  1.31745E+01  5.59978E+00  7.56441E+00  8.89275E+00  5.04997E+00  7.82582E+00
   2.38725E+00  4.16275E+00  8.53041E+00  9.48473E+00  7.73808E+00  5.85021E+00  8.72032E+00  4.97942E+00  8.13682E+00  5.38087E+00
   2.54893E+00  5.79176E+00  2.70034E+00  3.80900E+00  1.33612E+00  1.97728E+00  1.13874E+00  7.63419E-01  4.24366E+00  6.10033E-01
   4.42649E+00  3.94810E+00  4.52752E+00  2.76274E+00  3.07930E+00  1.05951E+00  6.37036E+00  1.59263E+00  2.34524E+00  6.21312E-01
  -1.60878E+00 -2.22944E-02  3.49486E+00 -3.00512E+00  3.81007E-01  2.99977E+00  2.40206E+00  2.39889E+00  1.45357E+00  3.31813E+00
   3.84536E+00  4.98617E+00  5.33044E+00  6.77854E+00  1.51857E-01  5.23770E+00  7.51203E+00  6.27485E+00  4.61442E+00  7.19092E+00
   6.22058E+00  3.43965E+00  6.49880E+00  1.01640E+01 -3.96817E-01  7.90044E+00  1.06160E+01  8.34174E+00  8.83220E+00  1.05109E+01
   1.01268E+01  4.35841E+00  8.34871E+00  5.11057E+00  6.36070E+00  5.92968E+00  5.18831E+00  4.11451E+00  6.13082E+00  4.77047E+00
   3.68824E+00  3.98755E+00  2.45073E+00  1.82060E+00  6.94388E+00  4.09673E+00  3.88179E+00  1.85750E+00  3.70951E+00  4.13555E+00
   3.42821E+00  3.79308E+00  3.19523E+00 -2.26854E-01  2.64454E+00  2.24319E+00  6.97387E+00  3.80732E+00 -2.80933E-01 -1.31938E+00
   8.39305E-01  7.00096E-01  1.31231E+00  2.57139E+00  3.47903E+00 -5.51115E-01  4.20181E-01  2.17484E+00  2.77044E+00  1.96741E+00
  -2.73644E-01 -3.35830E+00  3.35099E+00 -1.09520E+00 -1.83537E-01  1.14095E+00  5.32494E+00  4.58130E+00  9.81328E-01 -8.13850E-01
   5.47582E+00 -2.52855E+00  2.39289E+00  2.72098E+00  4.19023E+00  3.27404E+00  2.62827E+00  2.91164E+00  5.17977E+00  4.01431E+00
   2.35111E+00  1.13825E+00 -1.42448E+00 -3.16269E+00 -8.82768E-01  1.19061E+00  2.19018E+00  1.01640E-01 -9.38471E-01  3.03391E+00
   6.45247E-01  2.59436E-01  6.40845E-01  3.87663E+00  1.49032E+00 -4.97414E-01  1.38727E+00 -5.19791E-02  7.53355E-01  1.94039E+00
   3.08168E+00  1.04114E+00  1.42994E+00  8.09004E-01 -4.03292E-01 -8.87838E-01 -2.16012E+00  4.07594E+00
 NY points of the fit to the data follow
   2.09017E+01  2.05569E+01  2.06557E+01  2.15427E+01  2.35530E+01  2.67783E+01  3.13915E+01  3.76029E+01  4.48442E+01  5.14158E+01
   5.53659E+01  5.57150E+01  5.28234E+01  4.78917E+01  4.22790E+01  3.69654E+01  3.23005E+01  2.81941E+01  2.46968E+01  2.23544E+01
   2.12014E+01  2.05358E+01  2.00035E+01  1.97007E+01  1.96051E+01  1.97738E+01  2.05665E+01  2.22702E+01  2.46486E+01  2.70059E+01
   2.86938E+01  2.93643E+01  2.89011E+01  2.74358E+01  2.53531E+01  2.30377E+01  2.07928E+01  1.88107E+01  1.73491E+01  1.66802E+01
   1.65781E+01  1.68755E+01  1.74960E+01  1.83762E+01  1.95219E+01  2.07747E+01  2.18036E+01  2.22042E+01  2.18194E+01  2.08326E+01
   1.94565E+01  1.79226E+01  1.65280E+01  1.54309E+01  1.45583E+01  1.39215E+01  1.36661E+01  1.37791E+01  1.40322E+01  1.42008E+01
   1.41637E+01  1.38446E+01  1.32697E+01  1.25535E+01  1.18642E+01  1.13541E+01  1.10585E+01  1.09309E+01  1.09469E+01  1.10830E+01
   1.12656E+01  1.14102E+01  1.14306E+01  1.13045E+01  1.10587E+01  1.07403E+01  1.04079E+01  1.00991E+01  9.82812E+00  9.60428E+00
   9.41810E+00  9.27132E+00  9.14732E+00  9.02147E+00  8.82472E+00  8.46808E+00  7.93572E+00  7.32649E+00  6.79150E+00  6.45155E+00
   6.35476E+00  6.46170E+00  6.68546E+00  6.94112E+00  7.19028E+00  7.51321E+00  8.41772E+00  1.07054E+01  1.44219E+01  1.99754E+01
   2.81639E+01  3.85663E+01  4.86179E+01  5.50066E+01  5.59519E+01  5.19436E+01  4.47879E+01  3.65162E+01  2.87063E+01  2.19535E+01
   1.60957E+01  1.10249E+01  7.61176E+00  6.44298E+00  6.07930E+00  5.90440E+00  5.80258E+00  5.75038E+00  5.77496E+00  6.00154E+00
   6.89696E+00  9.22311E+00  1.32207E+01  1.90621E+01  2.73111E+01  3.77737E+01  4.84084E+01  5.60820E+01  5.85974E+01  5.58978E+01
   4.95261E+01  4.14198E+01  3.31129E+01  2.53312E+01  1.81633E+01  1.17503E+01  6.97701E+00  4.74238E+00  4.26244E+00  4.47588E+00
   4.91270E+00  5.29451E+00  5.52225E+00  5.57289E+00  5.40980E+00  5.08236E+00  4.66520E+00  4.18713E+00  3.68833E+00  3.20754E+00
   2.77698E+00  2.42520E+00  2.13233E+00  1.89942E+00  1.70713E+00  1.54280E+00  1.37629E+00  1.14920E+00  8.34164E-01  4.49344E-01
   1.12186E-01 -3.66635E-02  1.83224E-02  1.32622E-01  1.23887E-01 -9.01252E-02 -4.73682E-01 -9.22919E-01 -1.34161E+00 -1.72455E+00
  -2.13107E+00 -2.55112E+00 -3.00259E+00 -3.46934E+00 -3.85565E+00 -4.08291E+00 -4.10645E+00 -4.00479E+00 -3.93852E+00 -3.98884E+00
  -4.12189E+00 -4.23347E+00 -4.25891E+00 -4.20583E+00 -4.07195E+00 -3.77477E+00 -3.13139E+00 -2.03453E+00 -6.21542E-01  8.05721E-01
   1.87685E+00  2.36182E+00  2.27565E+00  1.76630E+00  9.81072E-01  8.89921E-02 -6.84139E-01 -1.03321E+00 -8.11579E-01 -5.97826E-02
   1.07607E+00  2.37077E+00  3.52589E+00  4.19703E+00  4.20972E+00  3.54483E+00  2.21431E+00  3.79301E-01 -1.48646E+00 -2.84063E+00
  -3.34809E+00 -2.90773E+00 -1.49756E+00  6.96869E-01  3.08759E+00  4.87388E+00  5.44164E+00  4.69523E+00  2.89399E+00  3.31294E-01
  -2.36132E+00 -4.43011E+00 -5.39373E+00 -5.08690E+00 -3.74265E+00 -1.74382E+00  3.51861E-01  2.03357E+00  3.11112E+00  3.63237E+00
   3.81937E+00  3.86083E+00  3.88258E+00  4.07192E+00  4.52805E+00  5.10285E+00  5.52136E+00  5.58058E+00  5.26106E+00  4.65306E+00
   3.84029E+00  3.05604E+00  2.65997E+00  2.82220E+00  3.43332E+00  4.24201E+00  5.09078E+00  5.83303E+00  6.36116E+00  6.81235E+00
   7.38948E+00  8.24769E+00  9.61228E+00  1.24642E+01  1.72304E+01  2.34083E+01  3.13882E+01  4.19757E+01  5.41046E+01  6.43199E+01
   6.91488E+01  6.74321E+01  6.04055E+01  5.03849E+01  3.97969E+01  3.03188E+01  2.21967E+01  1.49827E+01  8.83885E+00  5.23547E+00
   3.94236E+00  3.31138E+00  2.94078E+00  2.72741E+00  2.57078E+00  2.38908E+00  2.18187E+00  1.94814E+00  1.69530E+00  1.44226E+00
   1.20739E+00  9.95615E-01  8.15726E-01  6.77375E-01  5.74945E-01  4.94276E-01  4.26887E-01  3.75796E-01  3.48212E-01  3.47101E-01
   3.71428E-01  4.24321E-01  5.05265E-01  6.09804E-01  7.31700E-01  8.66933E-01  1.01290E+00  1.16832E+00  1.33262E+00  1.50458E+00
   1.68139E+00  1.86010E+00  2.03514E+00  2.19989E+00  2.34848E+00  2.47669E+00  2.58178E+00  2.66186E+00  2.71588E+00  2.74578E+00
   2.75455E+00  2.74574E+00  2.72427E+00  2.69608E+00  2.66774E+00  2.64673E+00  2.64124E+00  2.66062E+00  2.71672E+00  2.82864E+00
   3.02930E+00  3.31515E+00  3.64931E+00  4.02438E+00  4.40010E+00  4.64366E+00  4.59318E+00  4.19009E+00  3.55890E+00  2.92591E+00
   2.44956E+00  2.24176E+00  2.40621E+00  2.98133E+00  3.87556E+00  4.90631E+00  5.90170E+00  6.68304E+00  7.14782E+00  7.36341E+00
   7.44149E+00  7.44670E+00  7.38458E+00  7.25756E+00  7.12262E+00  7.01066E+00  6.82449E+00  6.52818E+00  6.19403E+00  5.91806E+00
   5.76213E+00  5.77011E+00  5.96145E+00  6.29425E+00  6.66116E+00  6.94523E+00  7.07198E+00  6.97885E+00  6.65605E+00  6.17291E+00
   5.60701E+00  5.01446E+00  4.42453E+00  3.86482E+00  3.39386E+00  3.02449E+00  2.73305E+00  2.50239E+00  2.31863E+00  2.17015E+00
   2.04780E+00  1.94496E+00  1.85725E+00  1.78217E+00  1.71868E+00  1.66679E+00  1.62721E+00  1.60107E+00  1.58973E+00  1.59466E+00
   1.61747E+00  1.65984E+00  1.72349E+00  1.81008E+00  1.92118E+00  2.05830E+00  2.22280E+00  2.41585E+00  2.63825E+00  2.89033E+00
   3.17184E+00  3.48182E+00  3.81855E+00  4.17938E+00  4.56059E+00  4.95739E+00  5.36393E+00  5.77341E+00  6.17819E+00  6.57001E+00
   6.94018E+00  7.27992E+00  7.58076E+00  7.83493E+00  8.03569E+00  8.17764E+00  8.25693E+00  8.27153E+00  8.22135E+00  8.10820E+00
   7.93571E+00  7.70907E+00  7.43479E+00  7.12039E+00  6.77404E+00  6.40425E+00  6.01939E+00  5.62743E+00  5.23567E+00  4.85056E+00
   4.47762E+00  4.12130E+00  3.78496E+00  3.47092E+00  3.18058E+00  2.91455E+00  2.67276E+00  2.45460E+00  2.25900E+00  2.08456E+00
   1.92976E+00  1.79296E+00  1.67255E+00  1.56690E+00  1.47444E+00  1.39370E+00  1.32335E+00  1.26222E+00  1.20925E+00  1.16347E+00
   1.12401E+00  1.09011E+00  1.06114E+00  1.03656E+00  1.01589E+00  9.98677E-01  9.84513E-01  9.73074E-01  9.64096E-01  9.57351E-01
   9.52612E-01  9.49659E-01  9.48306E-01  9.48415E-01  9.49885E-01  9.52610E-01  9.56467E-01  9.61335E-01  9.67125E-01  9.73781E-01
   9.81260E-01  9.89498E-01  9.98416E-01  1.00795E+00  1.01805E+00  1.02872E+00  1.03992E+00  1.05160E+00  1.06371E+00  1.07622E+00
   1.08911E+00  1.10238E+00  1.11603E+00  1.12999E+00  1.14424E+00  1.15876E+00  1.17356E+00  1.18865E+00  1.20399E+00  1.21954E+00
   1.23529E+00  1.25124E+00  1.26741E+00  1.28378E+00  1.30034E+00  1.31704E+00  1.33389E+00  1.35091E+00  1.36810E+00  1.38545E+00
   1.40293E+00  1.42052E+00  1.43823E+00  1.45609E+00  1.47411E+00  1.49225E+00  1.51049E+00  1.52883E+00
 NY background values follow
     1.757E+01    1.743E+01    1.730E+01    1.717E+01    1.704E+01    1.691E+01    1.678E+01    1.665E+01    1.652E+01    1.638E+01
     1.625E+01    1.612E+01    1.599E+01    1.586E+01    1.573E+01    1.560E+01    1.547E+01    1.533E+01    1.520E+01    1.507E+01
     1.494E+01    1.481E+01    1.468E+01    1.455E+01    1.442E+01    1.429E+01    1.416E+01    1.403E+01    1.390E+01    1.377E+01
     1.364E+01    1.351E+01    1.338E+01    1.325E+01    1.312E+01    1.299E+01    1.286E+01    1.273E+01    1.260E+01    1.247E+01
     1.234E+01    1.222E+01    1.209E+01    1.196E+01    1.183E+01    1.171E+01    1.158E+01    1.145E+01    1.133E+01    1.120E+01
     1.107E+01    1.095E+01    1.082E+01    1.070E+01    1.057E+01    1.045E+01    1.032E+01    1.020E+01    1.007E+01    9.951E+00
     9.828E+00    9.706E+00    9.583E+00    9.461E+00    9.340E+00    9.219E+00    9.098E+00    8.978E+00    8.858E+00    8.738E+00
     8.619E+00    8.501E+00    8.383E+00    8.265E+00    8.148E+00    8.031E+00    7.915E+00    7.799E+00    7.684E+00    7.569E+00
     7.455E+00    7.341E+00    7.228E+00    7.116E+00    7.003E+00    6.892E+00    6.781E+00    6.671E+00    6.561E+00    6.452E+00
     6.344E+00    6.236E+00    6.128E+00    6.022E+00    5.916E+00    5.810E+00    5.706E+00    5.602E+00    5.498E+00    5.395E+00
     5.293E+00    5.192E+00    5.091E+00    4.991E+00    4.891E+00    4.792E+00    4.694E+00    4.596E+00    4.499E+00    4.403E+00
     4.308E+00    4.213E+00    4.119E+00    4.025E+00    3.932E+00    3.840E+00    3.749E+00    3.658E+00    3.568E+00    3.478E+00
     3.390E+00    3.302E+00    3.215E+00    3.128E+00    3.042E+00    2.957E+00    2.873E+00    2.789E+00    2.706E+00    2.624E+00
     2.542E+00    2.461E+00    2.381E+00    2.302E+00    2.224E+00    2.146E+00    2.069E+00    1.992E+00    1.917E+00    1.842E+00
     1.768E+00    1.694E+00    1.622E+00    1.550E+00    1.479E+00    1.409E+00    1.339E+00    1.270E+00    1.202E+00    1.134E+00
     1.068E+00    1.002E+00    9.366E-01    8.722E-01    8.085E-01    7.455E-01    6.832E-01    6.217E-01    5.609E-01    5.009E-01
     4.416E-01    3.830E-01    3.251E-01    2.680E-01    2.116E-01    1.560E-01    1.011E-01    4.686E-02   -6.606E-03   -5.934E-02
    -1.114E-01   -1.626E-01   -2.132E-01   -2.630E-01   -3.121E-01   -3.605E-01   -4.082E-01   -4.551E-01   -5.013E-01   -5.468E-01
    -5.916E-01   -6.356E-01   -6.790E-01   -7.216E-01   -7.635E-01   -8.047E-01   -8.453E-01   -8.851E-01   -9.243E-01   -9.628E-01
    -1.001E+00   -1.038E+00   -1.075E+00   -1.110E+00   -1.146E+00   -1.181E+00   -1.215E+00   -1.248E+00   -1.281E+00   -1.314E+00
    -1.345E+00   -1.377E+00   -1.407E+00   -1.437E+00   -1.467E+00   -1.496E+00   -1.524E+00   -1.552E+00   -1.580E+00   -1.607E+00
    -1.633E+00   -1.660E+00   -1.685E+00   -1.710E+00   -1.735E+00   -1.759E+00   -1.783E+00   -1.806E+00   -1.829E+00   -1.851E+00
    -1.873E+00   -1.895E+00   -1.916E+00   -1.937E+00   -1.958E+00   -1.978E+00   -1.998E+00   -2.017E+00   -2.036E+00   -2.055E+00
    -2.073E+00   -2.091E+00   -2.109E+00   -2.126E+00   -2.143E+00   -2.160E+00   -2.176E+00   -2.192E+00   -2.208E+00   -2.223E+00
    -2.238E+00   -2.252E+00   -2.266E+00   -2.280E+00   -2.294E+00   -2.307E+00   -2.320E+00   -2.332E+00   -2.344E+00   -2.356E+00
    -2.368E+00   -2.379E+00   -2.390E+00   -2.400E+00   -2.410E+00   -2.420E+00   -2.429E+00   -2.438E+00   -2.447E+00   -2.456E+00
    -2.464E+00   -2.472E+00   -2.479E+00   -2.486E+00   -2.493E+00   -2.499E+00   -2.506E+00   -2.511E+00   -2.517E+00   -2.522E+00
    -2.527E+00   -2.531E+00   -2.535E+00   -2.539E+00   -2.543E+00   -2.546E+00   -2.549E+00   -2.551E+00   -2.554E+00   -2.556E+00
    -2.557E+00   -2.559E+00   -2.560E+00   -2.560E+00   -2.561E+00   -2.561E+00   -2.561E+00   -2.560E+00   -2.559E+00   -2.558E+00
    -2.557E+00   -2.555E+00   -2.553E+00   -2.551E+00   -2.548E+00   -2.546E+00   -2.543E+00   -2.539E+00   -2.535E+00   -2.532E+00
    -2.527E+00   -2.523E+00   -2.518E+00   -2.513E+00   -2.508E+00   -2.502E+00   -2.496E+00   -2.490E+00   -2.484E+00   -2.477E+00
    -2.470E+00   -2.463E+00   -2.456E+00   -2.448E+00   -2.440E+00   -2.432E+00   -2.424E+00   -2.415E+00   -2.406E+00   -2.397E+00
    -2.388E+00   -2.378E+00   -2.369E+00   -2.359E+00   -2.348E+00   -2.338E+00   -2.327E+00   -2.316E+00   -2.305E+00   -2.294E+00
    -2.282E+00   -2.270E+00   -2.258E+00   -2.246E+00   -2.233E+00   -2.221E+00   -2.208E+00   -2.195E+00   -2.182E+00   -2.168E+00
    -2.154E+00   -2.140E+00   -2.126E+00   -2.112E+00   -2.098E+00   -2.083E+00   -2.068E+00   -2.053E+00   -2.038E+00   -2.023E+00
    -2.007E+00   -1.991E+00   -1.975E+00   -1.959E+00   -1.943E+00   -1.927E+00   -1.910E+00   -1.893E+00   -1.877E+00   -1.859E+00
    -1.842E+00   -1.825E+00   -1.807E+00   -1.790E+00   -1.772E+00   -1.754E+00   -1.736E+00   -1.717E+00   -1.699E+00   -1.680E+00
    -1.662E+00   -1.643E+00   -1.624E+00   -1.605E+00   -1.586E+00   -1.566E+00   -1.547E+00   -1.527E+00   -1.507E+00   -1.488E+00
    -1.468E+00   -1.447E+00   -1.427E+00   -1.407E+00   -1.386E+00   -1.366E+00   -1.345E+00   -1.324E+00   -1.304E+00   -1.283E+00
    -1.262E+00   -1.240E+00   -1.219E+00   -1.198E+00   -1.176E+00   -1.155E+00   -1.133E+00   -1.111E+00   -1.089E+00   -1.067E+00
    -1.045E+00   -1.023E+00   -1.001E+00   -9.789E-01   -9.566E-01   -9.342E-01   -9.117E-01   -8.892E-01   -8.666E-01   -8.439E-01
    -8.212E-01   -7.984E-01   -7.755E-01   -7.526E-01   -7.296E-01   -7.066E-01   -6.835E-01   -6.604E-01   -6.372E-01   -6.140E-01
    -5.907E-01   -5.675E-01   -5.441E-01   -5.208E-01   -4.974E-01   -4.739E-01   -4.505E-01   -4.270E-01   -4.035E-01   -3.800E-01
    -3.564E-01   -3.329E-01   -3.093E-01   -2.857E-01   -2.621E-01   -2.385E-01   -2.149E-01   -1.913E-01   -1.677E-01   -1.441E-01
    -1.205E-01   -9.688E-02   -7.329E-02   -4.971E-02   -2.615E-02   -2.601E-03    2.093E-02    4.444E-02    6.793E-02    9.139E-02
     1.148E-01    1.382E-01    1.616E-01    1.849E-01    2.083E-01    2.315E-01    2.548E-01    2.780E-01    3.012E-01    3.243E-01
     3.475E-01    3.706E-01    3.937E-01    4.167E-01    4.397E-01    4.627E-01    4.857E-01    5.087E-01    5.316E-01    5.545E-01
     5.774E-01    6.003E-01    6.232E-01    6.460E-01    6.688E-01    6.916E-01    7.144E-01    7.372E-01    7.600E-01    7.827E-01
     8.054E-01    8.282E-01    8.509E-01    8.736E-01    8.963E-01    9.190E-01    9.417E-01    9.643E-01    9.870E-01    1.010E+00
     1.032E+00    1.055E+00    1.078E+00    1.100E+00    1.123E+00    1.146E+00    1.168E+00    1.191E+00
 Ala      Conc. = 1.96E+02
