 LCModel (Version 6.3-1L) Copyright: S.W. Provencher.          Ref.: Magn. Reson. Med. 30:672-679 (1993).                
 Slice#3 Row#12 Col#4  PD_24_press_1_raw_act
 36 lines in following concentration table = NCONC+1
    Conc.  %SD /Cr+PCr  Metabolite                                         
  162.031 167%   0.313 Ala                                                 
   59.323 182%   0.114 Asp                                                 
  518.260  11%   1.000 Cr                                                  
    0.000 999%   0.000 PCr                                                 
   46.806 145% 9.0E-02 GABA                                                
   41.348 162% 8.0E-02 Glc                                                 
 7.49E+03  10%  14.457 Gln                                                 
 9.81E+03   9%  18.935 Glu                                                 
  168.549  14%   0.325 GPC                                                 
    0.000 999%   0.000 PCh                                                 
    0.000 999%   0.000 GSH                                                 
 1.16E+03  29%   2.246 Ins                                                 
 1.01E+03  34%   1.956 Lac                                                 
   44.330 282% 8.6E-02 NAA                                                 
  663.324  21%   1.280 NAAG                                                
   41.507  49% 8.0E-02 Scyllo                                              
  129.653  85%   0.250 Tau                                                 
    0.000 999%   0.000 -CrCH2                                              
  168.549  14%   0.325 GPC+PCh                                             
  707.654   9%   1.365 NAA+NAAG                                            
  518.260  11%   1.000 Cr+PCr                                              
 1.73E+04   9%  33.392 Glu+Gln                                             
 3.16E+03  14%   6.094 Lip13a                                              
    0.000 999%   0.000 Lip13b                                              
  748.671  24%   1.445 Lip09                                               
    0.000 999%   0.000 MM09                                                
  431.910  36%   0.833 Lip20                                               
    0.000 999%   0.000 MM20                                                
    0.000 999%   0.000 MM12                                                
  314.275  67%   0.606 MM14                                                
    0.000 999%   0.000 MM17                                                
 3.16E+03  14%   6.094 Lip13a+Lip13b                                       
 3.47E+03  13%   6.700 MM14+Lip13a+Lip13b+MM12                             
  748.671  24%   1.445 MM09+Lip09                                          
  431.910  36%   0.833 MM20+Lip20                                          
   6 lines in following misc. output table
  FWHM = 0.138 ppm    S/N =   4                                            
  Data shift = 0.046 ppm                                                   
  Ph: -24 deg     -12.1 deg/ppm                                            
  alphaB,S = 5.6E-01,   1.9E+02                                            
   14 spline knots.   Ns = 7(2)                                            
  (14) 2 infls.   ( 1) 1 extrs.                                            
  498 points on ppm-axis = NY
      4.000000     3.992357     3.984714     3.977070     3.969427     3.961784     3.954141     3.946497     3.938854     3.931211
      3.923568     3.915925     3.908281     3.900638     3.892995     3.885352     3.877708     3.870065     3.862422     3.854779
      3.847136     3.839492     3.831849     3.824206     3.816563     3.808919     3.801276     3.793633     3.785990     3.778347
      3.770703     3.763060     3.755417     3.747774     3.740130     3.732487     3.724844     3.717201     3.709558     3.701914
      3.694271     3.686628     3.678985     3.671341     3.663698     3.656055     3.648412     3.640769     3.633125     3.625482
      3.617839     3.610196     3.602552     3.594909     3.587266     3.579623     3.571980     3.564336     3.556693     3.549050
      3.541407     3.533763     3.526120     3.518477     3.510834     3.503191     3.495547     3.487904     3.480261     3.472618
      3.464974     3.457331     3.449688     3.442045     3.434402     3.426758     3.419115     3.411472     3.403829     3.396185
      3.388542     3.380899     3.373256     3.365613     3.357969     3.350326     3.342683     3.335040     3.327396     3.319753
      3.312110     3.304467     3.296824     3.289180     3.281537     3.273894     3.266251     3.258607     3.250964     3.243321
      3.235678     3.228034     3.220391     3.212748     3.205105     3.197462     3.189818     3.182175     3.174532     3.166889
      3.159245     3.151602     3.143959     3.136316     3.128673     3.121029     3.113386     3.105743     3.098100     3.090456
      3.082813     3.075170     3.067527     3.059884     3.052240     3.044597     3.036954     3.029311     3.021667     3.014024
      3.006381     2.998738     2.991095     2.983451     2.975808     2.968165     2.960522     2.952878     2.945235     2.937592
      2.929949     2.922306     2.914662     2.907019     2.899376     2.891733     2.884089     2.876446     2.868803     2.861160
      2.853517     2.845873     2.838230     2.830587     2.822944     2.815300     2.807657     2.800014     2.792371     2.784728
      2.777084     2.769441     2.761798     2.754155     2.746511     2.738868     2.731225     2.723582     2.715939     2.708295
      2.700652     2.693009     2.685366     2.677722     2.670079     2.662436     2.654793     2.647150     2.639506     2.631863
      2.624220     2.616577     2.608933     2.601290     2.593647     2.586004     2.578361     2.570717     2.563074     2.555431
      2.547788     2.540144     2.532501     2.524858     2.517215     2.509572     2.501928     2.494285     2.486642     2.478999
      2.471355     2.463712     2.456069     2.448426     2.440783     2.433139     2.425496     2.417853     2.410210     2.402566
      2.394923     2.387280     2.379637     2.371994     2.364350     2.356707     2.349064     2.341421     2.333777     2.326134
      2.318491     2.310848     2.303205     2.295561     2.287918     2.280275     2.272632     2.264988     2.257345     2.249702
      2.242059     2.234416     2.226772     2.219129     2.211486     2.203843     2.196199     2.188556     2.180913     2.173270
      2.165627     2.157983     2.150340     2.142697     2.135054     2.127410     2.119767     2.112124     2.104481     2.096838
      2.089194     2.081551     2.073908     2.066265     2.058621     2.050978     2.043335     2.035692     2.028049     2.020405
      2.012762     2.005119     1.997476     1.989833     1.982190     1.974546     1.966903     1.959260     1.951617     1.943974
      1.936331     1.928688     1.921045     1.913402     1.905759     1.898115     1.890472     1.882829     1.875186     1.867543
      1.859900     1.852257     1.844614     1.836971     1.829327     1.821684     1.814041     1.806398     1.798755     1.791112
      1.783469     1.775826     1.768183     1.760540     1.752896     1.745253     1.737610     1.729967     1.722324     1.714681
      1.707038     1.699395     1.691752     1.684108     1.676465     1.668822     1.661179     1.653536     1.645893     1.638250
      1.630607     1.622964     1.615321     1.607677     1.600034     1.592391     1.584748     1.577105     1.569462     1.561819
      1.554176     1.546533     1.538890     1.531246     1.523603     1.515960     1.508317     1.500674     1.493031     1.485388
      1.477745     1.470102     1.462458     1.454815     1.447172     1.439529     1.431886     1.424243     1.416600     1.408957
      1.401314     1.393671     1.386027     1.378384     1.370741     1.363098     1.355455     1.347812     1.340169     1.332526
      1.324883     1.317240     1.309596     1.301953     1.294310     1.286667     1.279024     1.271381     1.263738     1.256095
      1.248452     1.240808     1.233165     1.225522     1.217879     1.210236     1.202593     1.194950     1.187307     1.179664
      1.172021     1.164377     1.156734     1.149091     1.141448     1.133805     1.126162     1.118519     1.110876     1.103233
      1.095590     1.087946     1.080303     1.072660     1.065017     1.057374     1.049731     1.042088     1.034445     1.026802
      1.019158     1.011515     1.003872     0.996229     0.988586     0.980943     0.973300     0.965657     0.958014     0.950371
      0.942727     0.935084     0.927441     0.919798     0.912155     0.904512     0.896869     0.889226     0.881583     0.873940
      0.866296     0.858653     0.851010     0.843367     0.835724     0.828081     0.820438     0.812795     0.805152     0.797508
      0.789865     0.782222     0.774579     0.766936     0.759293     0.751650     0.744007     0.736364     0.728721     0.721077
      0.713434     0.705791     0.698148     0.690505     0.682862     0.675219     0.667576     0.659933     0.652290     0.644646
      0.637003     0.629360     0.621717     0.614074     0.606431     0.598788     0.591145     0.583502     0.575858     0.568215
      0.560572     0.552929     0.545286     0.537643     0.530000     0.522357     0.514714     0.507071     0.499427     0.491784
      0.484141     0.476498     0.468855     0.461212     0.453569     0.445925     0.438282     0.430639     0.422996     0.415353
      0.407710     0.400067     0.392424     0.384780     0.377137     0.369494     0.361851     0.354208     0.346565     0.338922
      0.331278     0.323635     0.315992     0.308349     0.300706     0.293063     0.285420     0.277777     0.270133     0.262490
      0.254847     0.247204     0.239561     0.231918     0.224275     0.216631     0.208988     0.201345
 NY phased data points follow
  -2.60149E+02 -2.54561E+02 -2.50418E+02 -2.44549E+02 -2.46530E+02 -2.37014E+02 -2.38545E+02 -2.32152E+02 -2.26807E+02 -2.21282E+02
  -2.20077E+02 -2.15963E+02 -2.14368E+02 -2.11509E+02 -2.07700E+02 -2.09789E+02 -2.07565E+02 -2.05645E+02 -2.05492E+02 -2.02556E+02
  -2.01502E+02 -1.96664E+02 -1.95932E+02 -1.93261E+02 -1.92326E+02 -1.87944E+02 -1.88238E+02 -1.84574E+02 -1.84785E+02 -1.76546E+02
  -1.80292E+02 -1.75710E+02 -1.73268E+02 -1.69968E+02 -1.67939E+02 -1.63968E+02 -1.65695E+02 -1.60200E+02 -1.59779E+02 -1.56739E+02
  -1.57291E+02 -1.55327E+02 -1.53431E+02 -1.50701E+02 -1.50366E+02 -1.50499E+02 -1.50598E+02 -1.44793E+02 -1.47385E+02 -1.44105E+02
  -1.42892E+02 -1.44249E+02 -1.39363E+02 -1.39278E+02 -1.38444E+02 -1.39860E+02 -1.39100E+02 -1.36273E+02 -1.37433E+02 -1.35522E+02
  -1.36389E+02 -1.32116E+02 -1.31457E+02 -1.27223E+02 -1.30106E+02 -1.27107E+02 -1.28307E+02 -1.26041E+02 -1.27028E+02 -1.25097E+02
  -1.24413E+02 -1.22689E+02 -1.21097E+02 -1.16069E+02 -1.17178E+02 -1.17258E+02 -1.17879E+02 -1.19456E+02 -1.14208E+02 -1.14947E+02
  -1.13603E+02 -1.10824E+02 -1.12259E+02 -1.14112E+02 -1.10636E+02 -1.06519E+02 -1.09064E+02 -1.05665E+02 -1.05999E+02 -1.02176E+02
  -1.04151E+02 -1.00321E+02 -1.00845E+02 -1.02922E+02 -1.02515E+02 -9.96096E+01 -1.00735E+02 -9.64777E+01 -9.60253E+01 -9.00095E+01
  -9.46831E+01 -8.97774E+01 -9.33883E+01 -8.88765E+01 -8.87656E+01 -8.74334E+01 -9.21605E+01 -9.00443E+01 -8.66197E+01 -8.87790E+01
  -8.70503E+01 -8.84256E+01 -8.84142E+01 -8.53632E+01 -8.90976E+01 -8.54353E+01 -8.47330E+01 -8.71775E+01 -8.65669E+01 -8.37514E+01
  -8.44550E+01 -8.18272E+01 -7.93126E+01 -7.90616E+01 -7.59897E+01 -7.52544E+01 -7.85041E+01 -7.27105E+01 -7.66481E+01 -7.24937E+01
  -7.48753E+01 -7.73679E+01 -7.61166E+01 -7.73649E+01 -7.43329E+01 -7.86471E+01 -7.71113E+01 -7.56433E+01 -7.79383E+01 -7.59474E+01
  -7.62873E+01 -7.37888E+01 -7.14703E+01 -7.57832E+01 -7.71268E+01 -7.43695E+01 -7.35572E+01 -7.44039E+01 -7.17188E+01 -7.36752E+01
  -7.32358E+01 -7.06386E+01 -7.10422E+01 -6.80627E+01 -6.86420E+01 -6.56671E+01 -6.96587E+01 -6.61073E+01 -6.92053E+01 -6.77352E+01
  -6.64394E+01 -6.42039E+01 -6.78084E+01 -6.27883E+01 -6.50648E+01 -6.45606E+01 -6.31476E+01 -6.04616E+01 -6.12912E+01 -6.15688E+01
  -6.13747E+01 -6.01480E+01 -6.19057E+01 -5.94628E+01 -5.94947E+01 -5.85272E+01 -6.14187E+01 -6.26376E+01 -6.01193E+01 -5.99809E+01
  -5.93877E+01 -6.01393E+01 -5.71543E+01 -6.12636E+01 -5.81877E+01 -5.64305E+01 -6.09538E+01 -5.40161E+01 -5.80911E+01 -5.66950E+01
  -5.43786E+01 -5.47256E+01 -5.49332E+01 -5.39839E+01 -5.48001E+01 -5.26598E+01 -5.50763E+01 -5.47532E+01 -5.20155E+01 -5.19376E+01
  -5.05934E+01 -5.20359E+01 -5.34988E+01 -4.91699E+01 -5.14001E+01 -5.05266E+01 -4.99420E+01 -5.16591E+01 -4.92532E+01 -4.83420E+01
  -4.98500E+01 -4.80145E+01 -4.56700E+01 -4.38661E+01 -4.77256E+01 -4.79772E+01 -4.89438E+01 -4.71912E+01 -4.46010E+01 -4.81061E+01
  -5.13383E+01 -4.70767E+01 -4.86752E+01 -4.62329E+01 -4.88755E+01 -4.67448E+01 -4.65540E+01 -4.90178E+01 -4.77437E+01 -4.55794E+01
  -4.53766E+01 -4.23270E+01 -4.72365E+01 -4.67463E+01 -4.42576E+01 -4.62605E+01 -4.57689E+01 -4.31738E+01 -4.56436E+01 -4.23326E+01
  -4.57807E+01 -4.25185E+01 -4.39132E+01 -4.48797E+01 -4.44574E+01 -4.09828E+01 -4.64753E+01 -4.30711E+01 -3.95561E+01 -4.10569E+01
  -4.16026E+01 -4.28303E+01 -4.30048E+01 -4.05117E+01 -3.54253E+01 -3.21323E+01 -3.34978E+01 -2.83849E+01 -3.05402E+01 -3.33835E+01
  -2.99863E+01 -3.14674E+01 -3.25281E+01 -3.25655E+01 -3.67211E+01 -3.66790E+01 -3.58229E+01 -3.81534E+01 -4.02797E+01 -3.98406E+01
  -4.06433E+01 -4.27434E+01 -4.21146E+01 -3.84360E+01 -3.87808E+01 -3.65335E+01 -3.92978E+01 -4.28143E+01 -4.15561E+01 -3.86335E+01
  -4.23719E+01 -4.14362E+01 -4.34253E+01 -3.94810E+01 -4.41991E+01 -3.87865E+01 -4.13214E+01 -3.89255E+01 -4.22805E+01 -4.08134E+01
  -3.91377E+01 -3.77403E+01 -4.17617E+01 -4.06163E+01 -4.13373E+01 -4.00629E+01 -4.13885E+01 -4.10962E+01 -3.98827E+01 -3.74152E+01
  -3.81996E+01 -3.97018E+01 -3.79440E+01 -3.52611E+01 -3.85366E+01 -3.69212E+01 -4.06174E+01 -3.56815E+01 -3.60080E+01 -3.68449E+01
  -3.69030E+01 -3.25090E+01 -3.67417E+01 -3.60224E+01 -3.68890E+01 -3.41857E+01 -3.68953E+01 -3.36516E+01 -3.55995E+01 -3.22829E+01
  -3.40869E+01 -3.24438E+01 -3.34979E+01 -3.22647E+01 -3.34518E+01 -2.92478E+01 -2.74159E+01 -2.98077E+01 -2.78681E+01 -2.59190E+01
  -2.76421E+01 -2.41499E+01 -2.75170E+01 -2.46877E+01 -2.08080E+01 -1.93239E+01 -1.88889E+01 -2.04685E+01 -1.74992E+01 -1.84417E+01
  -1.66813E+01 -1.42982E+01 -1.68583E+01 -1.54409E+01 -1.49860E+01 -1.58825E+01 -1.71611E+01 -1.40285E+01 -1.34537E+01 -1.48740E+01
  -1.55300E+01 -1.54641E+01 -1.58832E+01 -1.71814E+01 -1.89600E+01 -1.61811E+01 -1.65130E+01 -1.59695E+01 -1.78797E+01 -1.65250E+01
  -2.00922E+01 -1.47239E+01 -2.03656E+01 -1.99681E+01 -2.35855E+01 -1.75856E+01 -2.25309E+01 -2.02659E+01 -1.95991E+01 -2.13628E+01
  -2.23415E+01 -2.08843E+01 -2.13320E+01 -2.23139E+01 -2.33197E+01 -2.34809E+01 -2.53172E+01 -1.99067E+01 -2.35103E+01 -2.05317E+01
  -2.39775E+01 -2.25216E+01 -2.39787E+01 -1.87388E+01 -2.04490E+01 -2.02933E+01 -2.26179E+01 -2.28091E+01 -2.39708E+01 -2.31532E+01
  -2.57855E+01 -2.33712E+01 -2.28868E+01 -2.41441E+01 -1.94836E+01 -1.86983E+01 -2.13073E+01 -2.02832E+01 -2.34566E+01 -1.95272E+01
  -2.45765E+01 -2.08146E+01 -2.04491E+01 -1.75836E+01 -2.13939E+01 -2.04381E+01 -2.25975E+01 -2.37027E+01 -1.94742E+01 -1.76275E+01
  -1.97736E+01 -1.71770E+01 -2.18302E+01 -2.35120E+01 -2.33980E+01 -2.10940E+01 -2.26677E+01 -2.26261E+01 -2.19740E+01 -2.02047E+01
  -2.30826E+01 -1.90349E+01 -2.08164E+01 -2.28526E+01 -2.43836E+01 -1.99027E+01 -2.17909E+01 -2.29619E+01 -2.09136E+01 -2.01031E+01
  -2.23265E+01 -1.95702E+01 -2.45705E+01 -2.28019E+01 -2.14014E+01 -2.31190E+01 -2.43026E+01 -1.83285E+01 -2.14919E+01 -2.27088E+01
  -2.17797E+01 -2.04398E+01 -2.51855E+01 -2.30709E+01 -2.22993E+01 -2.25474E+01 -2.19688E+01 -2.30942E+01 -1.90955E+01 -2.07987E+01
  -2.05211E+01 -2.03261E+01 -1.72983E+01 -2.10776E+01 -1.80100E+01 -1.87553E+01 -1.99333E+01 -1.79740E+01 -2.04410E+01 -1.88004E+01
  -1.83134E+01 -1.84121E+01 -2.07308E+01 -1.95360E+01 -1.97659E+01 -1.87693E+01 -1.89111E+01 -2.00441E+01 -1.91001E+01 -2.10243E+01
  -1.92834E+01 -2.00372E+01 -2.21846E+01 -2.13528E+01 -1.96420E+01 -1.74995E+01 -1.96069E+01 -1.84802E+01 -1.56762E+01 -1.93743E+01
  -1.94642E+01 -1.50261E+01 -1.69777E+01 -1.53125E+01 -1.70165E+01 -1.76061E+01 -1.71836E+01 -1.91240E+01 -1.77252E+01 -1.62478E+01
  -1.93043E+01 -1.62659E+01 -1.92430E+01 -1.63010E+01 -1.62026E+01 -1.65033E+01 -1.63401E+01 -1.50393E+01
 NY points of the fit to the data follow
  -2.50984E+02 -2.47978E+02 -2.45849E+02 -2.42723E+02 -2.40545E+02 -2.37372E+02 -2.35143E+02 -2.31913E+02 -2.29574E+02 -2.26139E+02
  -2.23499E+02 -2.20232E+02 -2.17770E+02 -2.14637E+02 -2.12904E+02 -2.10131E+02 -2.08852E+02 -2.05554E+02 -2.04389E+02 -2.00605E+02
  -1.99769E+02 -1.95656E+02 -1.95595E+02 -1.91186E+02 -1.91536E+02 -1.86986E+02 -1.87334E+02 -1.82615E+02 -1.82999E+02 -1.78197E+02
  -1.78363E+02 -1.74065E+02 -1.73703E+02 -1.69874E+02 -1.69101E+02 -1.66187E+02 -1.65143E+02 -1.62946E+02 -1.61587E+02 -1.59877E+02
  -1.58079E+02 -1.56490E+02 -1.54304E+02 -1.53094E+02 -1.51068E+02 -1.50067E+02 -1.48783E+02 -1.48062E+02 -1.47014E+02 -1.45722E+02
  -1.44434E+02 -1.42975E+02 -1.41669E+02 -1.40300E+02 -1.39641E+02 -1.38653E+02 -1.38213E+02 -1.37280E+02 -1.36614E+02 -1.35445E+02
  -1.34686E+02 -1.33376E+02 -1.32585E+02 -1.31189E+02 -1.30285E+02 -1.28740E+02 -1.27811E+02 -1.26321E+02 -1.25428E+02 -1.24021E+02
  -1.23150E+02 -1.21842E+02 -1.20966E+02 -1.19778E+02 -1.18934E+02 -1.17880E+02 -1.17042E+02 -1.16032E+02 -1.15183E+02 -1.14228E+02
  -1.13449E+02 -1.12558E+02 -1.11826E+02 -1.11000E+02 -1.10287E+02 -1.09474E+02 -1.08777E+02 -1.07931E+02 -1.07062E+02 -1.05806E+02
  -1.04967E+02 -1.03472E+02 -1.02745E+02 -1.01013E+02 -1.00354E+02 -9.82764E+01 -9.78571E+01 -9.55787E+01 -9.54852E+01 -9.30962E+01
  -9.33324E+01 -9.09233E+01 -9.14965E+01 -8.92302E+01 -9.00795E+01 -8.81244E+01 -8.92125E+01 -8.76765E+01 -8.87654E+01 -8.75800E+01
  -8.85304E+01 -8.76514E+01 -8.81618E+01 -8.70496E+01 -8.72692E+01 -8.61262E+01 -8.61460E+01 -8.49188E+01 -8.47168E+01 -8.31582E+01
  -8.27573E+01 -8.07263E+01 -8.05472E+01 -7.84432E+01 -7.85542E+01 -7.64950E+01 -7.69104E+01 -7.50683E+01 -7.57584E+01 -7.42657E+01
  -7.51475E+01 -7.40874E+01 -7.49893E+01 -7.42706E+01 -7.50871E+01 -7.46767E+01 -7.52714E+01 -7.49907E+01 -7.53427E+01 -7.51666E+01
  -7.52901E+01 -7.51731E+01 -7.50448E+01 -7.48798E+01 -7.43973E+01 -7.38464E+01 -7.33265E+01 -7.27692E+01 -7.22683E+01 -7.17121E+01
  -7.12343E+01 -7.06830E+01 -7.02420E+01 -6.96980E+01 -6.92878E+01 -6.87605E+01 -6.83877E+01 -6.78505E+01 -6.74972E+01 -6.69559E+01
  -6.66289E+01 -6.61061E+01 -6.58020E+01 -6.52777E+01 -6.49775E+01 -6.44541E+01 -6.41590E+01 -6.36516E+01 -6.33598E+01 -6.28554E+01
  -6.25303E+01 -6.20364E+01 -6.16856E+01 -6.12064E+01 -6.08211E+01 -6.03537E+01 -5.99128E+01 -5.94538E+01 -5.90117E+01 -5.87466E+01
  -5.83479E+01 -5.83905E+01 -5.81479E+01 -5.83514E+01 -5.82076E+01 -5.84937E+01 -5.81288E+01 -5.81218E+01 -5.75644E+01 -5.73068E+01
  -5.63289E+01 -5.57945E+01 -5.45334E+01 -5.39761E+01 -5.31331E+01 -5.34551E+01 -5.28611E+01 -5.29810E+01 -5.26471E+01 -5.26519E+01
  -5.26021E+01 -5.24716E+01 -5.18626E+01 -5.12776E+01 -5.10415E+01 -5.02466E+01 -5.04906E+01 -4.94571E+01 -5.03688E+01 -4.92876E+01
  -5.03274E+01 -4.85146E+01 -4.96580E+01 -4.74529E+01 -4.91375E+01 -4.70423E+01 -4.90197E+01 -4.68776E+01 -4.91186E+01 -4.69205E+01
  -4.95035E+01 -4.77210E+01 -4.95950E+01 -4.75820E+01 -4.87560E+01 -4.65758E+01 -4.71734E+01 -4.60975E+01 -4.67204E+01 -4.55601E+01
  -4.59308E+01 -4.46823E+01 -4.46305E+01 -4.34601E+01 -4.27608E+01 -4.19304E+01 -4.18544E+01 -4.16714E+01 -4.23396E+01 -4.27337E+01
  -4.43550E+01 -4.50352E+01 -4.59336E+01 -4.59943E+01 -4.65210E+01 -4.60410E+01 -4.55872E+01 -4.44382E+01 -4.31357E+01 -4.18528E+01
  -4.01531E+01 -3.90045E+01 -3.74757E+01 -3.69133E+01 -3.53560E+01 -3.47609E+01 -3.33339E+01 -3.28240E+01 -3.18665E+01 -3.18136E+01
  -3.20983E+01 -3.23732E+01 -3.33873E+01 -3.36875E+01 -3.52235E+01 -3.53623E+01 -3.70217E+01 -3.69498E+01 -3.86756E+01 -3.85286E+01
  -4.01074E+01 -3.96527E+01 -4.08387E+01 -4.00723E+01 -4.06846E+01 -4.01895E+01 -4.08550E+01 -4.05918E+01 -4.09360E+01 -4.07322E+01
  -4.08238E+01 -4.07357E+01 -4.06017E+01 -4.06597E+01 -4.05231E+01 -4.05790E+01 -4.04486E+01 -4.05374E+01 -4.04319E+01 -4.05265E+01
  -4.04542E+01 -4.04857E+01 -4.03309E+01 -4.02762E+01 -4.00930E+01 -3.99927E+01 -3.97933E+01 -3.96561E+01 -3.94586E+01 -3.93132E+01
  -3.90943E+01 -3.89143E+01 -3.86712E+01 -3.84589E+01 -3.81929E+01 -3.79506E+01 -3.76667E+01 -3.73967E+01 -3.70930E+01 -3.67895E+01
  -3.64529E+01 -3.61061E+01 -3.57180E+01 -3.53160E+01 -3.49464E+01 -3.45103E+01 -3.41583E+01 -3.36833E+01 -3.33413E+01 -3.28250E+01
  -3.25212E+01 -3.19013E+01 -3.16059E+01 -3.08969E+01 -3.06050E+01 -2.98101E+01 -2.95032E+01 -2.85887E+01 -2.82213E+01 -2.71905E+01
  -2.67114E+01 -2.55323E+01 -2.48073E+01 -2.33618E+01 -2.27607E+01 -2.13772E+01 -2.08972E+01 -1.96098E+01 -1.92814E+01 -1.81448E+01
  -1.81247E+01 -1.68776E+01 -1.71291E+01 -1.59132E+01 -1.64862E+01 -1.53370E+01 -1.62840E+01 -1.50697E+01 -1.62744E+01 -1.50693E+01
  -1.64420E+01 -1.52645E+01 -1.66296E+01 -1.53677E+01 -1.66835E+01 -1.55151E+01 -1.67264E+01 -1.57419E+01 -1.69223E+01 -1.63242E+01
  -1.74307E+01 -1.71660E+01 -1.81187E+01 -1.81460E+01 -1.88504E+01 -1.89410E+01 -1.97479E+01 -2.01714E+01 -2.09145E+01 -2.15179E+01
  -2.21387E+01 -2.28097E+01 -2.32068E+01 -2.34725E+01 -2.36603E+01 -2.37896E+01 -2.38712E+01 -2.39119E+01 -2.39171E+01 -2.38910E+01
  -2.38370E+01 -2.37581E+01 -2.36572E+01 -2.35364E+01 -2.33981E+01 -2.32443E+01 -2.30769E+01 -2.28979E+01 -2.27092E+01 -2.25129E+01
  -2.23111E+01 -2.21062E+01 -2.19006E+01 -2.16967E+01 -2.14974E+01 -2.13053E+01 -2.11233E+01 -2.09540E+01 -2.08000E+01 -2.06638E+01
  -2.05475E+01 -2.04528E+01 -2.03810E+01 -2.03327E+01 -2.03083E+01 -2.03074E+01 -2.03290E+01 -2.03716E+01 -2.04334E+01 -2.05119E+01
  -2.06046E+01 -2.07087E+01 -2.08211E+01 -2.09388E+01 -2.10590E+01 -2.11789E+01 -2.12959E+01 -2.14078E+01 -2.15129E+01 -2.16095E+01
  -2.16964E+01 -2.17729E+01 -2.18384E+01 -2.18927E+01 -2.19359E+01 -2.19681E+01 -2.19898E+01 -2.20014E+01 -2.20035E+01 -2.19970E+01
  -2.19823E+01 -2.19602E+01 -2.19315E+01 -2.18966E+01 -2.18563E+01 -2.18110E+01 -2.17614E+01 -2.17079E+01 -2.16508E+01 -2.15906E+01
  -2.15276E+01 -2.14621E+01 -2.13943E+01 -2.13245E+01 -2.12529E+01 -2.11796E+01 -2.11048E+01 -2.10286E+01 -2.09511E+01 -2.08724E+01
  -2.07926E+01 -2.07118E+01 -2.06300E+01 -2.05473E+01 -2.04637E+01 -2.03793E+01 -2.02941E+01 -2.02082E+01 -2.01217E+01 -2.00345E+01
  -1.99467E+01 -1.98583E+01 -1.97694E+01 -1.96799E+01 -1.95899E+01 -1.94994E+01 -1.94085E+01 -1.93170E+01 -1.92251E+01 -1.91327E+01
  -1.90399E+01 -1.89467E+01 -1.88530E+01 -1.87588E+01 -1.86643E+01 -1.85692E+01 -1.84737E+01 -1.83778E+01 -1.82814E+01 -1.81845E+01
  -1.80871E+01 -1.79891E+01 -1.78906E+01 -1.77916E+01 -1.76919E+01 -1.75915E+01 -1.74905E+01 -1.73887E+01 -1.72861E+01 -1.71826E+01
  -1.70781E+01 -1.69725E+01 -1.68658E+01 -1.67576E+01 -1.66480E+01 -1.65366E+01 -1.64233E+01 -1.63077E+01
 NY background values follow
    -2.565E+02   -2.542E+02   -2.519E+02   -2.496E+02   -2.473E+02   -2.450E+02   -2.428E+02   -2.405E+02   -2.382E+02   -2.359E+02
    -2.337E+02   -2.314E+02   -2.292E+02   -2.269E+02   -2.247E+02   -2.224E+02   -2.202E+02   -2.180E+02   -2.158E+02   -2.136E+02
    -2.115E+02   -2.093E+02   -2.071E+02   -2.050E+02   -2.029E+02   -2.007E+02   -1.986E+02   -1.966E+02   -1.945E+02   -1.924E+02
    -1.904E+02   -1.884E+02   -1.864E+02   -1.844E+02   -1.824E+02   -1.805E+02   -1.785E+02   -1.766E+02   -1.747E+02   -1.729E+02
    -1.710E+02   -1.692E+02   -1.674E+02   -1.656E+02   -1.638E+02   -1.621E+02   -1.604E+02   -1.587E+02   -1.570E+02   -1.554E+02
    -1.538E+02   -1.522E+02   -1.506E+02   -1.491E+02   -1.476E+02   -1.461E+02   -1.446E+02   -1.431E+02   -1.417E+02   -1.403E+02
    -1.389E+02   -1.375E+02   -1.362E+02   -1.349E+02   -1.336E+02   -1.323E+02   -1.310E+02   -1.298E+02   -1.285E+02   -1.273E+02
    -1.261E+02   -1.250E+02   -1.238E+02   -1.227E+02   -1.216E+02   -1.205E+02   -1.194E+02   -1.183E+02   -1.173E+02   -1.163E+02
    -1.152E+02   -1.143E+02   -1.133E+02   -1.123E+02   -1.114E+02   -1.104E+02   -1.095E+02   -1.086E+02   -1.077E+02   -1.069E+02
    -1.060E+02   -1.052E+02   -1.044E+02   -1.035E+02   -1.027E+02   -1.020E+02   -1.012E+02   -1.004E+02   -9.968E+01   -9.894E+01
    -9.822E+01   -9.750E+01   -9.680E+01   -9.610E+01   -9.542E+01   -9.475E+01   -9.408E+01   -9.343E+01   -9.278E+01   -9.214E+01
    -9.151E+01   -9.088E+01   -9.027E+01   -8.966E+01   -8.906E+01   -8.846E+01   -8.787E+01   -8.728E+01   -8.670E+01   -8.613E+01
    -8.556E+01   -8.499E+01   -8.443E+01   -8.387E+01   -8.332E+01   -8.276E+01   -8.221E+01   -8.167E+01   -8.112E+01   -8.057E+01
    -8.003E+01   -7.949E+01   -7.895E+01   -7.841E+01   -7.786E+01   -7.732E+01   -7.678E+01   -7.624E+01   -7.569E+01   -7.515E+01
    -7.460E+01   -7.406E+01   -7.351E+01   -7.297E+01   -7.243E+01   -7.188E+01   -7.134E+01   -7.081E+01   -7.027E+01   -6.974E+01
    -6.920E+01   -6.868E+01   -6.815E+01   -6.763E+01   -6.711E+01   -6.659E+01   -6.608E+01   -6.557E+01   -6.507E+01   -6.457E+01
    -6.408E+01   -6.359E+01   -6.311E+01   -6.264E+01   -6.217E+01   -6.170E+01   -6.125E+01   -6.080E+01   -6.036E+01   -5.992E+01
    -5.949E+01   -5.907E+01   -5.866E+01   -5.826E+01   -5.786E+01   -5.748E+01   -5.710E+01   -5.673E+01   -5.638E+01   -5.603E+01
    -5.569E+01   -5.536E+01   -5.505E+01   -5.474E+01   -5.445E+01   -5.416E+01   -5.388E+01   -5.362E+01   -5.336E+01   -5.311E+01
    -5.287E+01   -5.264E+01   -5.242E+01   -5.221E+01   -5.201E+01   -5.181E+01   -5.162E+01   -5.144E+01   -5.127E+01   -5.110E+01
    -5.094E+01   -5.079E+01   -5.065E+01   -5.051E+01   -5.038E+01   -5.026E+01   -5.014E+01   -5.002E+01   -4.992E+01   -4.982E+01
    -4.972E+01   -4.963E+01   -4.954E+01   -4.946E+01   -4.939E+01   -4.932E+01   -4.925E+01   -4.919E+01   -4.913E+01   -4.907E+01
    -4.902E+01   -4.897E+01   -4.893E+01   -4.888E+01   -4.884E+01   -4.881E+01   -4.877E+01   -4.874E+01   -4.871E+01   -4.869E+01
    -4.866E+01   -4.864E+01   -4.861E+01   -4.859E+01   -4.857E+01   -4.856E+01   -4.854E+01   -4.852E+01   -4.851E+01   -4.849E+01
    -4.848E+01   -4.846E+01   -4.845E+01   -4.843E+01   -4.842E+01   -4.840E+01   -4.839E+01   -4.837E+01   -4.835E+01   -4.834E+01
    -4.832E+01   -4.830E+01   -4.827E+01   -4.825E+01   -4.823E+01   -4.820E+01   -4.817E+01   -4.814E+01   -4.811E+01   -4.807E+01
    -4.804E+01   -4.800E+01   -4.795E+01   -4.791E+01   -4.786E+01   -4.781E+01   -4.775E+01   -4.769E+01   -4.763E+01   -4.756E+01
    -4.749E+01   -4.742E+01   -4.734E+01   -4.726E+01   -4.717E+01   -4.708E+01   -4.699E+01   -4.689E+01   -4.678E+01   -4.667E+01
    -4.656E+01   -4.645E+01   -4.633E+01   -4.621E+01   -4.608E+01   -4.595E+01   -4.581E+01   -4.567E+01   -4.553E+01   -4.538E+01
    -4.523E+01   -4.508E+01   -4.492E+01   -4.476E+01   -4.460E+01   -4.443E+01   -4.426E+01   -4.408E+01   -4.390E+01   -4.372E+01
    -4.354E+01   -4.335E+01   -4.316E+01   -4.296E+01   -4.276E+01   -4.256E+01   -4.235E+01   -4.214E+01   -4.193E+01   -4.172E+01
    -4.150E+01   -4.128E+01   -4.105E+01   -4.082E+01   -4.059E+01   -4.036E+01   -4.012E+01   -3.988E+01   -3.964E+01   -3.940E+01
    -3.915E+01   -3.890E+01   -3.865E+01   -3.839E+01   -3.814E+01   -3.788E+01   -3.762E+01   -3.736E+01   -3.710E+01   -3.684E+01
    -3.657E+01   -3.631E+01   -3.605E+01   -3.578E+01   -3.552E+01   -3.525E+01   -3.499E+01   -3.473E+01   -3.447E+01   -3.420E+01
    -3.394E+01   -3.368E+01   -3.343E+01   -3.317E+01   -3.291E+01   -3.266E+01   -3.241E+01   -3.216E+01   -3.191E+01   -3.167E+01
    -3.143E+01   -3.119E+01   -3.095E+01   -3.072E+01   -3.049E+01   -3.027E+01   -3.004E+01   -2.982E+01   -2.961E+01   -2.940E+01
    -2.919E+01   -2.899E+01   -2.880E+01   -2.861E+01   -2.842E+01   -2.824E+01   -2.806E+01   -2.788E+01   -2.771E+01   -2.755E+01
    -2.738E+01   -2.723E+01   -2.707E+01   -2.692E+01   -2.678E+01   -2.663E+01   -2.649E+01   -2.635E+01   -2.622E+01   -2.609E+01
    -2.596E+01   -2.584E+01   -2.572E+01   -2.560E+01   -2.548E+01   -2.537E+01   -2.526E+01   -2.515E+01   -2.504E+01   -2.494E+01
    -2.483E+01   -2.473E+01   -2.463E+01   -2.454E+01   -2.444E+01   -2.435E+01   -2.425E+01   -2.416E+01   -2.407E+01   -2.398E+01
    -2.390E+01   -2.381E+01   -2.372E+01   -2.364E+01   -2.355E+01   -2.347E+01   -2.339E+01   -2.330E+01   -2.322E+01   -2.314E+01
    -2.306E+01   -2.298E+01   -2.290E+01   -2.281E+01   -2.273E+01   -2.265E+01   -2.257E+01   -2.249E+01   -2.241E+01   -2.233E+01
    -2.226E+01   -2.218E+01   -2.210E+01   -2.202E+01   -2.194E+01   -2.186E+01   -2.178E+01   -2.170E+01   -2.162E+01   -2.155E+01
    -2.147E+01   -2.139E+01   -2.131E+01   -2.123E+01   -2.115E+01   -2.108E+01   -2.100E+01   -2.092E+01   -2.084E+01   -2.076E+01
    -2.068E+01   -2.060E+01   -2.052E+01   -2.044E+01   -2.036E+01   -2.028E+01   -2.020E+01   -2.012E+01   -2.004E+01   -1.996E+01
    -1.988E+01   -1.980E+01   -1.972E+01   -1.964E+01   -1.956E+01   -1.947E+01   -1.939E+01   -1.931E+01   -1.923E+01   -1.914E+01
    -1.906E+01   -1.897E+01   -1.889E+01   -1.881E+01   -1.872E+01   -1.864E+01   -1.855E+01   -1.847E+01   -1.838E+01   -1.830E+01
    -1.821E+01   -1.813E+01   -1.804E+01   -1.796E+01   -1.787E+01   -1.778E+01   -1.770E+01   -1.761E+01   -1.752E+01   -1.744E+01
    -1.735E+01   -1.726E+01   -1.718E+01   -1.709E+01   -1.700E+01   -1.692E+01   -1.683E+01   -1.674E+01   -1.666E+01   -1.657E+01
    -1.648E+01   -1.640E+01   -1.631E+01   -1.622E+01   -1.614E+01   -1.605E+01   -1.596E+01   -1.588E+01
 Ala      Conc. = 1.62E+02
