 LCModel (Version 6.3-1L) Copyright: S.W. Provencher.          Ref.: Magn. Reson. Med. 30:672-679 (1993).                
 Slice#1 Row#12 Col#10  PD_24_press_1_raw_act
 36 lines in following concentration table = NCONC+1
    Conc.  %SD /Cr+PCr  Metabolite                                         
  127.717  70%   0.209 Ala                                                 
    0.917 999% 1.5E-03 Asp                                                 
  234.039  81%   0.382 Cr                                                  
  378.375  51%   0.618 PCr                                                 
    6.364 999% 1.0E-02 GABA                                                
   38.825 227% 6.3E-02 Glc                                                 
  641.796  32%   1.048 Gln                                                 
  632.437  37%   1.033 Glu                                                 
  174.659  81%   0.285 GPC                                                 
   98.103 148%   0.160 PCh                                                 
  128.789  41%   0.210 GSH                                                 
  808.815  24%   1.321 Ins                                                 
    0.000 999%   0.000 Lac                                                 
 1.37E+03   6%   2.241 NAA                                                 
   46.353 195% 7.6E-02 NAAG                                                
   99.910  17%   0.163 Scyllo                                              
  186.526  71%   0.305 Tau                                                 
  182.708  44%   0.298 -CrCH2                                              
  272.762   5%   0.445 GPC+PCh                                             
 1.42E+03   4%   2.316 NAA+NAAG                                            
  612.414   6%   1.000 Cr+PCr                                              
 1.27E+03  28%   2.081 Glu+Gln                                             
  465.171  44%   0.760 Lip13a                                              
    0.000 999%   0.000 Lip13b                                              
   95.263 108%   0.156 Lip09                                               
  739.333  17%   1.207 MM09                                                
   81.399  86%   0.133 Lip20                                               
 1.39E+03  14%   2.275 MM20                                                
  220.775  44%   0.360 MM12                                                
  109.075 133%   0.178 MM14                                                
  190.305  51%   0.311 MM17                                                
  465.171  44%   0.760 Lip13a+Lip13b                                       
  795.020  19%   1.298 MM14+Lip13a+Lip13b+MM12                             
  834.596  11%   1.363 MM09+Lip09                                          
 1.47E+03  13%   2.408 MM20+Lip20                                          
   6 lines in following misc. output table
  FWHM = 0.076 ppm    S/N =  10                                            
  Data shift =-0.031 ppm                                                   
  Ph: -89 deg     -24.5 deg/ppm                                            
  alphaB,S = 8.5E+01,   8.2E+02                                            
   14 spline knots.   Ns = 8(1)                                            
   2 inflections.     1 extrema                                            
  498 points on ppm-axis = NY
      4.000000     3.992357     3.984714     3.977070     3.969427     3.961784     3.954141     3.946497     3.938854     3.931211
      3.923568     3.915925     3.908281     3.900638     3.892995     3.885352     3.877708     3.870065     3.862422     3.854779
      3.847136     3.839492     3.831849     3.824206     3.816563     3.808919     3.801276     3.793633     3.785990     3.778347
      3.770703     3.763060     3.755417     3.747774     3.740130     3.732487     3.724844     3.717201     3.709558     3.701914
      3.694271     3.686628     3.678985     3.671341     3.663698     3.656055     3.648412     3.640769     3.633125     3.625482
      3.617839     3.610196     3.602552     3.594909     3.587266     3.579623     3.571980     3.564336     3.556693     3.549050
      3.541407     3.533763     3.526120     3.518477     3.510834     3.503191     3.495547     3.487904     3.480261     3.472618
      3.464974     3.457331     3.449688     3.442045     3.434402     3.426758     3.419115     3.411472     3.403829     3.396185
      3.388542     3.380899     3.373256     3.365613     3.357969     3.350326     3.342683     3.335040     3.327396     3.319753
      3.312110     3.304467     3.296824     3.289180     3.281537     3.273894     3.266251     3.258607     3.250964     3.243321
      3.235678     3.228034     3.220391     3.212748     3.205105     3.197462     3.189818     3.182175     3.174532     3.166889
      3.159245     3.151602     3.143959     3.136316     3.128673     3.121029     3.113386     3.105743     3.098100     3.090456
      3.082813     3.075170     3.067527     3.059884     3.052240     3.044597     3.036954     3.029311     3.021667     3.014024
      3.006381     2.998738     2.991095     2.983451     2.975808     2.968165     2.960522     2.952878     2.945235     2.937592
      2.929949     2.922306     2.914662     2.907019     2.899376     2.891733     2.884089     2.876446     2.868803     2.861160
      2.853517     2.845873     2.838230     2.830587     2.822944     2.815300     2.807657     2.800014     2.792371     2.784728
      2.777084     2.769441     2.761798     2.754155     2.746511     2.738868     2.731225     2.723582     2.715939     2.708295
      2.700652     2.693009     2.685366     2.677722     2.670079     2.662436     2.654793     2.647150     2.639506     2.631863
      2.624220     2.616577     2.608933     2.601290     2.593647     2.586004     2.578361     2.570717     2.563074     2.555431
      2.547788     2.540144     2.532501     2.524858     2.517215     2.509572     2.501928     2.494285     2.486642     2.478999
      2.471355     2.463712     2.456069     2.448426     2.440783     2.433139     2.425496     2.417853     2.410210     2.402566
      2.394923     2.387280     2.379637     2.371994     2.364350     2.356707     2.349064     2.341421     2.333777     2.326134
      2.318491     2.310848     2.303205     2.295561     2.287918     2.280275     2.272632     2.264988     2.257345     2.249702
      2.242059     2.234416     2.226772     2.219129     2.211486     2.203843     2.196199     2.188556     2.180913     2.173270
      2.165627     2.157983     2.150340     2.142697     2.135054     2.127410     2.119767     2.112124     2.104481     2.096838
      2.089194     2.081551     2.073908     2.066265     2.058621     2.050978     2.043335     2.035692     2.028049     2.020405
      2.012762     2.005119     1.997476     1.989833     1.982190     1.974546     1.966903     1.959260     1.951617     1.943974
      1.936331     1.928688     1.921045     1.913402     1.905759     1.898115     1.890472     1.882829     1.875186     1.867543
      1.859900     1.852257     1.844614     1.836971     1.829327     1.821684     1.814041     1.806398     1.798755     1.791112
      1.783469     1.775826     1.768183     1.760540     1.752896     1.745253     1.737610     1.729967     1.722324     1.714681
      1.707038     1.699395     1.691752     1.684108     1.676465     1.668822     1.661179     1.653536     1.645893     1.638250
      1.630607     1.622964     1.615321     1.607677     1.600034     1.592391     1.584748     1.577105     1.569462     1.561819
      1.554176     1.546533     1.538890     1.531246     1.523603     1.515960     1.508317     1.500674     1.493031     1.485388
      1.477745     1.470102     1.462458     1.454815     1.447172     1.439529     1.431886     1.424243     1.416600     1.408957
      1.401314     1.393671     1.386027     1.378384     1.370741     1.363098     1.355455     1.347812     1.340169     1.332526
      1.324883     1.317240     1.309596     1.301953     1.294310     1.286667     1.279024     1.271381     1.263738     1.256095
      1.248452     1.240808     1.233165     1.225522     1.217879     1.210236     1.202593     1.194950     1.187307     1.179664
      1.172021     1.164377     1.156734     1.149091     1.141448     1.133805     1.126162     1.118519     1.110876     1.103233
      1.095590     1.087946     1.080303     1.072660     1.065017     1.057374     1.049731     1.042088     1.034445     1.026802
      1.019158     1.011515     1.003872     0.996229     0.988586     0.980943     0.973300     0.965657     0.958014     0.950371
      0.942727     0.935084     0.927441     0.919798     0.912155     0.904512     0.896869     0.889226     0.881583     0.873940
      0.866296     0.858653     0.851010     0.843367     0.835724     0.828081     0.820438     0.812795     0.805152     0.797508
      0.789865     0.782222     0.774579     0.766936     0.759293     0.751650     0.744007     0.736364     0.728721     0.721077
      0.713434     0.705791     0.698148     0.690505     0.682862     0.675219     0.667576     0.659933     0.652290     0.644646
      0.637003     0.629360     0.621717     0.614074     0.606431     0.598788     0.591145     0.583502     0.575858     0.568215
      0.560572     0.552929     0.545286     0.537643     0.530000     0.522357     0.514714     0.507071     0.499427     0.491784
      0.484141     0.476498     0.468855     0.461212     0.453569     0.445925     0.438282     0.430639     0.422996     0.415353
      0.407710     0.400067     0.392424     0.384780     0.377137     0.369494     0.361851     0.354208     0.346565     0.338922
      0.331278     0.323635     0.315992     0.308349     0.300706     0.293063     0.285420     0.277777     0.270133     0.262490
      0.254847     0.247204     0.239561     0.231918     0.224275     0.216631     0.208988     0.201345
 NY phased data points follow
  -4.96990E+00 -4.43394E+00  1.81812E+00 -8.03810E+00 -1.49271E+00 -2.84830E+00 -1.70606E+00 -2.08654E+00  1.23654E+00  5.50310E-01
   3.90427E+00  4.31001E+00  2.29329E+00  2.27401E+00 -6.06826E-01  3.30379E+00 -1.94945E-01 -1.30388E+00 -2.86135E+00 -4.89317E+00
  -4.84580E+00 -5.50623E+00 -3.25674E+00 -5.33373E+00 -3.43636E+00 -2.37596E+00 -4.19257E+00 -8.25115E-01 -1.06813E+00 -4.02631E+00
  -3.38807E+00 -1.95223E+00 -9.50383E-01 -3.74948E+00 -1.74347E+00 -3.37895E+00  3.71665E-01 -4.38143E+00 -3.82880E+00 -2.19180E+00
  -1.16691E+00 -1.51791E+00 -1.84244E+00 -2.75897E+00 -2.81957E+00  2.36371E+00  1.16680E+00  1.29749E+00  8.26903E-01  9.61954E-02
  -2.76502E-01 -3.03684E+00 -8.84076E-01 -1.91533E+00 -4.49702E-01 -1.60752E+00 -4.44204E+00 -3.79116E+00 -7.06329E-01 -8.54581E-01
  -8.18101E-01 -3.31253E+00 -2.51140E+00 -3.36177E+00 -2.76949E+00 -5.05668E+00 -3.85707E+00 -3.10964E+00 -4.33552E+00 -4.02211E+00
  -6.02823E+00 -1.24720E+00 -1.04797E+00 -3.55233E+00  3.17263E-02 -2.40734E+00 -2.75844E+00 -3.80573E+00 -4.66704E-02 -5.18662E+00
   3.40077E-01 -3.99086E+00  1.37369E+00 -4.65456E+00  8.25424E-02  1.81922E+00 -1.05874E+00  1.21987E-01 -6.74444E-01  1.25945E+00
   1.63338E+00  1.16065E+00 -4.14973E+00 -1.19045E+00  6.49079E-01  9.16669E-01 -5.27264E-01  1.60383E+00  2.55282E+00  7.50743E+00
   1.01259E+01  1.41936E+01  1.62095E+01  1.87289E+01  1.51155E+01  1.44492E+01  1.13481E+01  9.22193E+00  4.48502E+00  7.93018E+00
   4.12146E+00  2.25549E+00 -1.18712E+00 -4.04487E+00 -4.09755E+00 -1.30089E+00 -2.36252E+00 -3.90989E+00 -2.37871E+00 -3.57243E+00
  -2.50149E+00  2.30323E-02  1.77670E-01  4.25277E+00  8.61342E+00  1.15366E+01  1.10535E+01  1.54328E+01  1.34000E+01  1.16487E+01
   7.88493E+00  6.70064E+00  8.97681E+00  4.12972E+00  4.70482E+00  4.43331E+00 -1.55588E+00 -1.25417E+00 -2.10456E+00 -3.32676E+00
  -4.50525E+00 -4.46861E+00 -2.17255E+00 -2.99873E+00 -2.75287E+00 -1.44111E+00 -4.25674E-02 -3.96183E+00 -1.81305E+00 -2.32409E+00
  -6.98544E-01 -4.30231E+00 -4.53553E+00 -1.13654E+00 -1.95953E+00 -3.03722E+00 -4.98097E+00  1.40994E+00 -7.73196E-01 -5.58949E+00
  -2.75553E+00 -4.07099E-01 -3.60406E+00 -5.99428E+00 -5.23085E+00 -4.48416E+00 -2.49013E+00 -5.84133E+00 -3.41138E+00 -6.55539E+00
  -6.44004E+00 -7.01718E+00 -6.56502E+00 -7.74320E+00 -9.58294E+00 -9.32583E+00 -1.09017E+01 -8.45961E+00 -9.89391E+00 -8.39174E+00
  -8.98450E+00 -7.14534E+00 -7.27646E+00 -3.70672E+00 -4.79597E+00 -2.75289E+00 -5.84522E+00 -3.52037E+00 -3.75328E+00 -7.32334E+00
  -5.11265E+00 -4.16625E+00 -4.27369E+00 -8.32593E+00 -5.55386E+00 -2.57583E+00 -4.66905E+00 -2.90020E+00 -3.80666E+00 -3.31112E+00
  -4.93843E+00 -2.91127E+00  1.18277E+00 -2.21761E+00 -3.20782E+00 -8.50310E-01 -1.58852E+00 -1.65271E+00 -1.63718E+00 -2.33646E+00
  -6.23038E-01 -2.35115E-01 -7.65332E-01  6.53437E-01  9.29790E-01  2.98272E+00  2.63614E+00  3.62654E+00  6.01663E-01  8.89474E-01
   3.03619E-01 -1.05005E+00 -1.64257E+00 -8.31793E-01 -5.19072E-01  1.65643E+00 -5.06690E-01  7.36645E-01 -6.37788E-01  1.37343E+00
   1.24451E+00  4.80338E+00 -5.23788E-01  8.22064E-01  2.72911E+00  2.25907E+00  3.58962E+00  3.54446E+00  2.96565E+00 -5.75991E-01
   2.24550E+00 -4.32340E-01 -3.35973E-01 -1.41930E+00 -1.31135E+00  1.80273E+00  2.14308E+00  1.19371E+00  4.22430E+00  5.44149E+00
   6.38546E+00  4.37357E+00  7.42475E+00  8.47334E+00  1.11361E+01  1.70735E+01  1.94860E+01  2.87024E+01  3.48494E+01  3.83551E+01
   4.17104E+01  4.08824E+01  3.86036E+01  2.95859E+01  2.66738E+01  2.03154E+01  1.80452E+01  1.56410E+01  1.28687E+01  6.99333E+00
   3.44788E+00  4.85700E+00  1.16060E+00  1.42960E+00 -1.19710E-01  3.23712E+00  2.46033E+00 -2.06321E+00  8.18262E-01  1.44213E+00
   2.56150E+00 -2.13330E+00  1.81909E+00 -1.56775E+00  1.67140E+00 -3.15526E-01  7.01261E-02  3.55982E+00 -3.53144E-01  2.92115E+00
  -7.92289E-01  1.11209E+00  6.45767E-01  2.26343E+00 -8.43681E-03  1.33769E+00  1.49442E-01 -8.31706E-01 -1.89235E+00 -3.65003E-01
  -2.34015E+00 -5.62301E-01 -1.52953E+00 -2.22926E+00  1.81320E+00 -1.04027E+00  2.09182E+00  2.31488E+00  2.36852E+00  2.96886E+00
   4.03638E+00  2.87758E+00  3.18838E+00  1.02550E+00 -5.69070E-02 -1.02422E+00 -2.39025E-01  7.98172E-01  3.07021E+00  5.02875E+00
   4.35843E-01  2.68971E+00 -7.29399E-01 -2.13212E+00 -8.80737E-01 -4.36155E+00  7.06970E-01 -9.50647E-01  1.60392E+00 -1.71644E+00
  -2.41238E+00  8.35365E-01  4.38335E-01 -1.49641E+00 -9.25603E-01  1.76024E+00  1.66257E+00  4.12017E+00  9.55789E-01  2.51277E+00
   2.74650E+00  4.77508E+00  2.23608E+00  7.27824E-01  2.42214E+00  3.38200E+00  3.16904E+00  5.45641E+00  6.27557E+00  3.84756E+00
   3.29925E+00  2.64872E+00  5.13758E+00  4.69591E-01  3.77674E-01  4.46320E+00  3.96669E+00 -2.46550E-01  3.60439E+00  2.04366E-02
   2.51286E+00  2.27263E+00  5.98832E+00  3.36043E+00  2.85127E+00  1.77531E+00  1.78795E+00  6.41837E+00  4.14023E+00  2.48526E+00
   5.73432E+00  4.59503E+00  1.85282E+00  1.20429E+00  1.83863E+00  1.17513E+00  3.79655E+00  2.97941E+00  1.05324E+00  3.82610E-01
   2.45547E+00  5.46040E+00  2.04640E+00  2.23452E+00  1.58665E+00 -9.26487E-01  1.14306E+00  2.64604E+00  1.21928E-02 -5.54989E-02
   2.85146E+00  1.27253E+00  2.93249E+00  1.96091E-01  2.11859E+00  2.08173E+00  5.15883E+00  4.54120E+00  4.81853E+00  7.17826E+00
   5.63498E+00  5.71108E+00  4.20365E+00  7.92539E+00  5.71762E+00  7.64689E+00  8.41870E+00  8.96131E+00  7.99886E+00  8.54236E+00
   7.54573E+00  8.36662E+00  7.60457E+00  8.15257E+00  7.16147E+00  7.55704E+00  7.31687E+00  8.69232E+00  6.32868E+00  7.43559E+00
   4.65845E+00  3.26608E+00  3.02956E+00  5.47995E+00  6.55956E+00  1.23671E+00  4.83002E+00  1.33834E+00  4.58292E+00  3.73726E+00
   3.05931E+00  1.64285E+00  2.03237E+00  2.83699E+00  2.77366E+00  1.57974E+00  2.43182E+00  1.63251E+00  3.23790E+00  1.50158E+00
   1.60723E+00  4.60818E-01  2.69230E+00  3.03404E+00  4.45385E+00  3.74176E+00  2.18528E+00  2.11393E+00  1.82452E+00  2.50630E+00
   3.01352E+00  3.74537E+00  3.62658E-01  2.28896E+00  1.20548E+00  3.93197E+00  2.94617E+00  4.13921E+00  2.97167E+00  2.16692E+00
   1.72876E+00  3.15752E+00  4.19051E+00  4.02676E+00  3.98998E+00  4.98293E+00  5.18113E-01  3.83574E+00  4.22139E+00  3.52577E+00
   4.23647E+00 -1.97588E-02 -1.84521E+00  1.03865E+00  2.35911E+00  1.10364E+00  2.25548E+00  3.94036E+00 -2.08324E+00  1.20441E+00
   2.27425E+00  1.79536E+00  1.16136E+00  1.98121E+00  3.72420E+00  1.71304E+00  2.84060E-01  2.63222E+00  2.07999E+00  9.47207E-01
   4.36021E+00  1.89862E+00  2.02111E+00  2.04311E+00  1.72895E+00  2.62430E+00  5.13731E-03  1.73568E+00
 NY points of the fit to the data follow
  -3.98267E+00 -4.29577E+00 -4.35086E+00 -4.05013E+00 -3.37967E+00 -2.40868E+00 -1.24638E+00 -4.00417E-02  1.07099E+00  1.96970E+00
   2.56067E+00  2.79127E+00  2.66162E+00  2.21872E+00  1.53956E+00  7.11009E-01 -1.87241E-01 -1.09933E+00 -1.98824E+00 -2.76088E+00
  -3.32421E+00 -3.72135E+00 -3.93132E+00 -3.98835E+00 -3.89118E+00 -3.63106E+00 -3.21320E+00 -2.67901E+00 -2.11950E+00 -1.61957E+00
  -1.22611E+00 -9.82666E-01 -9.09150E-01 -1.00088E+00 -1.23658E+00 -1.59197E+00 -2.04455E+00 -2.55027E+00 -3.03583E+00 -3.32599E+00
  -3.25685E+00 -2.84234E+00 -2.19655E+00 -1.45248E+00 -7.30227E-01 -1.48234E-01  1.98931E-01  2.85922E-01  1.34998E-01 -2.32548E-01
  -7.64647E-01 -1.37204E+00 -1.95791E+00 -2.45831E+00 -2.84284E+00 -3.09641E+00 -3.18315E+00 -3.08504E+00 -2.87172E+00 -2.66435E+00
  -2.54184E+00 -2.51320E+00 -2.56258E+00 -2.66406E+00 -2.77215E+00 -2.85491E+00 -2.90289E+00 -2.90437E+00 -2.83801E+00 -2.69327E+00
  -2.49262E+00 -2.28434E+00 -2.11944E+00 -2.04076E+00 -2.05303E+00 -2.14030E+00 -2.27589E+00 -2.42217E+00 -2.50683E+00 -2.40263E+00
  -2.12089E+00 -1.72926E+00 -1.28054E+00 -8.42555E-01 -4.70442E-01 -2.00411E-01 -7.27123E-02 -1.25825E-01 -3.51350E-01 -7.13370E-01
  -1.16364E+00 -1.63886E+00 -2.09612E+00 -2.49341E+00 -2.67427E+00 -2.14538E+00 -5.56375E-01  1.92942E+00  4.90529E+00  8.01151E+00
   1.09463E+01  1.34077E+01  1.51300E+01  1.59297E+01  1.57485E+01  1.46638E+01  1.28564E+01  1.05384E+01  7.91237E+00  5.15876E+00
   2.44880E+00  2.43966E-02 -1.78656E+00 -2.72131E+00 -3.03543E+00 -3.15590E+00 -3.20426E+00 -3.19275E+00 -3.06869E+00 -2.56000E+00
  -1.32151E+00  5.64259E-01  2.87950E+00  5.38834E+00  7.84397E+00  1.00005E+01  1.16351E+01  1.25709E+01  1.27192E+01  1.20985E+01
   1.08181E+01  9.04539E+00  6.95525E+00  4.70879E+00  2.46733E+00  4.16326E-01 -1.20179E+00 -2.13039E+00 -2.43640E+00 -2.53239E+00
  -2.56813E+00 -2.57680E+00 -2.57044E+00 -2.55627E+00 -2.55038E+00 -2.57436E+00 -2.63357E+00 -2.72265E+00 -2.82907E+00 -2.93308E+00
  -3.01929E+00 -3.07870E+00 -3.11414E+00 -3.16083E+00 -3.24403E+00 -3.36012E+00 -3.49121E+00 -3.60247E+00 -3.67938E+00 -3.73273E+00
  -3.77112E+00 -3.80125E+00 -3.83244E+00 -3.87581E+00 -3.94126E+00 -4.03336E+00 -4.15025E+00 -4.29173E+00 -4.46919E+00 -4.69463E+00
  -4.94785E+00 -5.21233E+00 -5.45431E+00 -5.64845E+00 -5.78320E+00 -5.84061E+00 -5.83952E+00 -5.80825E+00 -5.75983E+00 -5.71822E+00
  -5.68562E+00 -5.62402E+00 -5.50123E+00 -5.29960E+00 -5.01913E+00 -4.68521E+00 -4.32756E+00 -3.95780E+00 -3.57827E+00 -3.21780E+00
  -2.93154E+00 -2.75485E+00 -2.65707E+00 -2.56966E+00 -2.45522E+00 -2.30363E+00 -2.07791E+00 -1.76147E+00 -1.35362E+00 -8.85250E-01
  -4.54772E-01 -1.99600E-01 -2.23242E-01 -5.18927E-01 -1.04161E+00 -1.74464E+00 -2.53282E+00 -3.25880E+00 -3.77140E+00 -3.96168E+00
  -3.80834E+00 -3.35106E+00 -2.68215E+00 -1.91347E+00 -1.16831E+00 -6.04916E-01 -3.12919E-01 -2.96276E-01 -5.31367E-01 -9.47128E-01
  -1.39522E+00 -1.72001E+00 -1.87769E+00 -1.87696E+00 -1.70828E+00 -1.36041E+00 -8.70295E-01 -3.70566E-01  3.64922E-02  3.56635E-01
   6.10123E-01  8.06832E-01  9.65890E-01  1.13008E+00  1.32685E+00  1.54499E+00  1.74002E+00  1.88231E+00  1.95884E+00  1.96221E+00
   1.90129E+00  1.79824E+00  1.69848E+00  1.64489E+00  1.64244E+00  1.69510E+00  1.85107E+00  2.15747E+00  2.62416E+00  3.23059E+00
   3.92844E+00  4.73616E+00  6.17547E+00  9.05261E+00  1.32404E+01  1.82834E+01  2.36860E+01  2.89138E+01  3.34142E+01  3.66936E+01
   3.83932E+01  3.83480E+01  3.66280E+01  3.35139E+01  2.93856E+01  2.46246E+01  1.95664E+01  1.45023E+01  9.78773E+00  5.95841E+00
   3.61801E+00  2.68696E+00  2.24971E+00  1.95887E+00  1.74033E+00  1.55936E+00  1.39495E+00  1.24485E+00  1.10453E+00  9.70722E-01
   8.42355E-01  7.19814E-01  6.04656E-01  5.02629E-01  4.19308E-01  3.54944E-01  3.06799E-01  2.72619E-01  2.51060E-01  2.40785E-01
   2.39744E-01  2.46275E-01  2.61050E-01  2.84364E-01  3.15450E-01  3.53275E-01  3.96950E-01  4.45279E-01  4.96677E-01  5.49555E-01
   6.02388E-01  6.53778E-01  7.02560E-01  7.47420E-01  7.86973E-01  8.20145E-01  8.46169E-01  8.64726E-01  8.75822E-01  8.79904E-01
   8.77994E-01  8.71528E-01  8.62248E-01  8.52431E-01  8.44713E-01  8.42310E-01  8.49514E-01  8.73390E-01  9.28885E-01  1.03664E+00
   1.17224E+00  1.29373E+00  1.37186E+00  1.38544E+00  1.31830E+00  1.15899E+00  9.06461E-01  6.08675E-01  3.32799E-01  1.23060E-01
   8.09176E-03  2.29528E-03  1.05519E-01  3.05694E-01  5.84094E-01  9.20153E-01  1.29086E+00  1.65932E+00  1.96582E+00  2.19080E+00
   2.34452E+00  2.43556E+00  2.47134E+00  2.46452E+00  2.44353E+00  2.45543E+00  2.51017E+00  2.58697E+00  2.67470E+00  2.76743E+00
   2.86106E+00  2.95244E+00  3.03889E+00  3.11814E+00  3.18816E+00  3.24721E+00  3.29387E+00  3.32711E+00  3.34622E+00  3.35093E+00
   3.34120E+00  3.31742E+00  3.28025E+00  3.23072E+00  3.17007E+00  3.09977E+00  3.02138E+00  2.93660E+00  2.84716E+00  2.75488E+00
   2.66151E+00  2.56873E+00  2.47810E+00  2.39113E+00  2.30920E+00  2.23362E+00  2.16556E+00  2.10608E+00  2.05617E+00  2.01680E+00
   1.98894E+00  1.97359E+00  1.97175E+00  1.98456E+00  2.01321E+00  2.05910E+00  2.12374E+00  2.20883E+00  2.31606E+00  2.44724E+00
   2.60410E+00  2.78829E+00  3.00112E+00  3.24346E+00  3.51548E+00  3.81658E+00  4.14508E+00  4.49821E+00  4.87187E+00  5.26060E+00
   5.65762E+00  6.05499E+00  6.44377E+00  6.81442E+00  7.15706E+00  7.46201E+00  7.72023E+00  7.92385E+00  8.06660E+00  8.14415E+00
   8.15432E+00  8.09730E+00  7.97550E+00  7.79359E+00  7.55803E+00  7.27680E+00  6.95887E+00  6.61376E+00  6.25107E+00  5.88008E+00
   5.50927E+00  5.14614E+00  4.79690E+00  4.46649E+00  4.15851E+00  3.87533E+00  3.61813E+00  3.38715E+00  3.18177E+00  3.00082E+00
   2.84266E+00  2.70545E+00  2.58713E+00  2.48565E+00  2.39899E+00  2.32531E+00  2.26288E+00  2.21018E+00  2.16583E+00  2.12863E+00
   2.09754E+00  2.07171E+00  2.05040E+00  2.03299E+00  2.01892E+00  2.00775E+00  1.99909E+00  1.99265E+00  1.98816E+00  1.98540E+00
   1.98415E+00  1.98425E+00  1.98554E+00  1.98794E+00  1.99132E+00  1.99560E+00  2.00066E+00  2.00645E+00  2.01291E+00  2.01999E+00
   2.02764E+00  2.03581E+00  2.04443E+00  2.05350E+00  2.06296E+00  2.07283E+00  2.08304E+00  2.09358E+00  2.10439E+00  2.11550E+00
   2.12687E+00  2.13851E+00  2.15037E+00  2.16244E+00  2.17470E+00  2.18717E+00  2.19982E+00  2.21265E+00  2.22563E+00  2.23875E+00
   2.25201E+00  2.26542E+00  2.27895E+00  2.29262E+00  2.30638E+00  2.32025E+00  2.33421E+00  2.34830E+00  2.36247E+00  2.37673E+00
   2.39106E+00  2.40547E+00  2.41995E+00  2.43453E+00  2.44917E+00  2.46388E+00  2.47863E+00  2.49345E+00
 NY background values follow
    -6.578E+00   -6.560E+00   -6.542E+00   -6.525E+00   -6.507E+00   -6.489E+00   -6.471E+00   -6.453E+00   -6.436E+00   -6.418E+00
    -6.400E+00   -6.382E+00   -6.364E+00   -6.347E+00   -6.329E+00   -6.311E+00   -6.293E+00   -6.275E+00   -6.258E+00   -6.240E+00
    -6.222E+00   -6.204E+00   -6.186E+00   -6.169E+00   -6.151E+00   -6.133E+00   -6.115E+00   -6.097E+00   -6.080E+00   -6.062E+00
    -6.044E+00   -6.026E+00   -6.009E+00   -5.991E+00   -5.973E+00   -5.955E+00   -5.937E+00   -5.920E+00   -5.902E+00   -5.884E+00
    -5.866E+00   -5.848E+00   -5.831E+00   -5.813E+00   -5.795E+00   -5.777E+00   -5.759E+00   -5.742E+00   -5.724E+00   -5.706E+00
    -5.688E+00   -5.670E+00   -5.653E+00   -5.635E+00   -5.617E+00   -5.599E+00   -5.581E+00   -5.564E+00   -5.546E+00   -5.528E+00
    -5.510E+00   -5.492E+00   -5.475E+00   -5.457E+00   -5.439E+00   -5.421E+00   -5.403E+00   -5.386E+00   -5.368E+00   -5.350E+00
    -5.332E+00   -5.314E+00   -5.297E+00   -5.279E+00   -5.261E+00   -5.243E+00   -5.226E+00   -5.208E+00   -5.190E+00   -5.172E+00
    -5.154E+00   -5.137E+00   -5.119E+00   -5.101E+00   -5.083E+00   -5.065E+00   -5.048E+00   -5.030E+00   -5.012E+00   -4.994E+00
    -4.976E+00   -4.959E+00   -4.941E+00   -4.923E+00   -4.905E+00   -4.887E+00   -4.870E+00   -4.852E+00   -4.834E+00   -4.816E+00
    -4.798E+00   -4.781E+00   -4.763E+00   -4.745E+00   -4.727E+00   -4.709E+00   -4.692E+00   -4.674E+00   -4.656E+00   -4.638E+00
    -4.620E+00   -4.603E+00   -4.585E+00   -4.567E+00   -4.549E+00   -4.532E+00   -4.514E+00   -4.496E+00   -4.478E+00   -4.460E+00
    -4.443E+00   -4.425E+00   -4.407E+00   -4.389E+00   -4.371E+00   -4.354E+00   -4.336E+00   -4.318E+00   -4.300E+00   -4.282E+00
    -4.265E+00   -4.247E+00   -4.229E+00   -4.211E+00   -4.193E+00   -4.176E+00   -4.158E+00   -4.140E+00   -4.122E+00   -4.104E+00
    -4.087E+00   -4.069E+00   -4.051E+00   -4.033E+00   -4.015E+00   -3.998E+00   -3.980E+00   -3.962E+00   -3.944E+00   -3.927E+00
    -3.909E+00   -3.891E+00   -3.873E+00   -3.855E+00   -3.838E+00   -3.820E+00   -3.802E+00   -3.784E+00   -3.766E+00   -3.749E+00
    -3.731E+00   -3.713E+00   -3.695E+00   -3.677E+00   -3.660E+00   -3.642E+00   -3.624E+00   -3.606E+00   -3.588E+00   -3.571E+00
    -3.553E+00   -3.535E+00   -3.517E+00   -3.500E+00   -3.482E+00   -3.464E+00   -3.446E+00   -3.428E+00   -3.411E+00   -3.393E+00
    -3.375E+00   -3.357E+00   -3.339E+00   -3.322E+00   -3.304E+00   -3.286E+00   -3.268E+00   -3.250E+00   -3.233E+00   -3.215E+00
    -3.197E+00   -3.179E+00   -3.161E+00   -3.144E+00   -3.126E+00   -3.108E+00   -3.090E+00   -3.072E+00   -3.055E+00   -3.037E+00
    -3.019E+00   -3.001E+00   -2.984E+00   -2.966E+00   -2.948E+00   -2.930E+00   -2.912E+00   -2.895E+00   -2.877E+00   -2.859E+00
    -2.841E+00   -2.823E+00   -2.806E+00   -2.788E+00   -2.770E+00   -2.752E+00   -2.734E+00   -2.717E+00   -2.699E+00   -2.681E+00
    -2.663E+00   -2.646E+00   -2.628E+00   -2.610E+00   -2.592E+00   -2.574E+00   -2.557E+00   -2.539E+00   -2.521E+00   -2.503E+00
    -2.485E+00   -2.468E+00   -2.450E+00   -2.432E+00   -2.414E+00   -2.396E+00   -2.379E+00   -2.361E+00   -2.343E+00   -2.325E+00
    -2.308E+00   -2.290E+00   -2.272E+00   -2.254E+00   -2.236E+00   -2.219E+00   -2.201E+00   -2.183E+00   -2.165E+00   -2.147E+00
    -2.130E+00   -2.112E+00   -2.094E+00   -2.076E+00   -2.058E+00   -2.041E+00   -2.023E+00   -2.005E+00   -1.987E+00   -1.970E+00
    -1.952E+00   -1.934E+00   -1.916E+00   -1.898E+00   -1.881E+00   -1.863E+00   -1.845E+00   -1.827E+00   -1.809E+00   -1.792E+00
    -1.774E+00   -1.756E+00   -1.738E+00   -1.721E+00   -1.703E+00   -1.685E+00   -1.667E+00   -1.649E+00   -1.632E+00   -1.614E+00
    -1.596E+00   -1.578E+00   -1.560E+00   -1.543E+00   -1.525E+00   -1.507E+00   -1.489E+00   -1.471E+00   -1.454E+00   -1.436E+00
    -1.418E+00   -1.400E+00   -1.383E+00   -1.365E+00   -1.347E+00   -1.329E+00   -1.311E+00   -1.294E+00   -1.276E+00   -1.258E+00
    -1.240E+00   -1.223E+00   -1.205E+00   -1.187E+00   -1.169E+00   -1.151E+00   -1.134E+00   -1.116E+00   -1.098E+00   -1.080E+00
    -1.062E+00   -1.045E+00   -1.027E+00   -1.009E+00   -9.913E-01   -9.735E-01   -9.557E-01   -9.380E-01   -9.202E-01   -9.024E-01
    -8.846E-01   -8.668E-01   -8.490E-01   -8.313E-01   -8.135E-01   -7.957E-01   -7.779E-01   -7.601E-01   -7.423E-01   -7.246E-01
    -7.068E-01   -6.890E-01   -6.712E-01   -6.534E-01   -6.357E-01   -6.179E-01   -6.001E-01   -5.823E-01   -5.645E-01   -5.467E-01
    -5.290E-01   -5.112E-01   -4.934E-01   -4.756E-01   -4.578E-01   -4.401E-01   -4.223E-01   -4.045E-01   -3.867E-01   -3.689E-01
    -3.511E-01   -3.334E-01   -3.156E-01   -2.978E-01   -2.800E-01   -2.622E-01   -2.445E-01   -2.267E-01   -2.089E-01   -1.911E-01
    -1.733E-01   -1.556E-01   -1.378E-01   -1.200E-01   -1.022E-01   -8.445E-02   -6.667E-02   -4.889E-02   -3.111E-02   -1.333E-02
     4.446E-03    2.222E-02    4.000E-02    5.778E-02    7.556E-02    9.334E-02    1.111E-01    1.289E-01    1.467E-01    1.645E-01
     1.822E-01    2.000E-01    2.178E-01    2.356E-01    2.533E-01    2.711E-01    2.889E-01    3.067E-01    3.244E-01    3.422E-01
     3.600E-01    3.778E-01    3.956E-01    4.133E-01    4.311E-01    4.489E-01    4.667E-01    4.844E-01    5.022E-01    5.200E-01
     5.378E-01    5.555E-01    5.733E-01    5.911E-01    6.089E-01    6.266E-01    6.444E-01    6.622E-01    6.800E-01    6.977E-01
     7.155E-01    7.333E-01    7.511E-01    7.688E-01    7.866E-01    8.044E-01    8.222E-01    8.399E-01    8.577E-01    8.755E-01
     8.933E-01    9.110E-01    9.288E-01    9.466E-01    9.644E-01    9.821E-01    9.999E-01    1.018E+00    1.035E+00    1.053E+00
     1.071E+00    1.089E+00    1.107E+00    1.124E+00    1.142E+00    1.160E+00    1.178E+00    1.195E+00    1.213E+00    1.231E+00
     1.249E+00    1.266E+00    1.284E+00    1.302E+00    1.320E+00    1.338E+00    1.355E+00    1.373E+00    1.391E+00    1.409E+00
     1.426E+00    1.444E+00    1.462E+00    1.480E+00    1.497E+00    1.515E+00    1.533E+00    1.551E+00    1.569E+00    1.586E+00
     1.604E+00    1.622E+00    1.640E+00    1.657E+00    1.675E+00    1.693E+00    1.711E+00    1.728E+00    1.746E+00    1.764E+00
     1.782E+00    1.800E+00    1.817E+00    1.835E+00    1.853E+00    1.871E+00    1.888E+00    1.906E+00    1.924E+00    1.942E+00
     1.959E+00    1.977E+00    1.995E+00    2.013E+00    2.031E+00    2.048E+00    2.066E+00    2.084E+00    2.102E+00    2.119E+00
     2.137E+00    2.155E+00    2.173E+00    2.190E+00    2.208E+00    2.226E+00    2.244E+00    2.261E+00
 Ala      Conc. = 1.28E+02
