 LCModel (Version 6.3-1L) Copyright: S.W. Provencher.          Ref.: Magn. Reson. Med. 30:672-679 (1993).                
 Slice#1 Row#13 Col#7  PD_24_press_1_raw_act
 36 lines in following concentration table = NCONC+1
    Conc.  %SD /Cr+PCr  Metabolite                                         
  253.990  95%   0.569 Ala                                                 
   17.022 533% 3.8E-02 Asp                                                 
  446.554  13%   1.000 Cr                                                  
    0.000 999%   0.000 PCr                                                 
   49.515 113%   0.111 GABA                                                
   34.914 158% 7.8E-02 Glc                                                 
    0.000 999%   0.000 Gln                                                 
    0.000 999%   0.000 Glu                                                 
    0.000 999%   0.000 GPC                                                 
  141.932  14%   0.318 PCh                                                 
    0.000 999%   0.000 GSH                                                 
    0.000 999%   0.000 Ins                                                 
  139.569 188%   0.313 Lac                                                 
  746.080   9%   1.671 NAA                                                 
    0.000 999%   0.000 NAAG                                                
   24.711  65% 5.5E-02 Scyllo                                              
   99.112  88%   0.222 Tau                                                 
  676.376  13%   1.515+-CrCH2                                              
  141.932  14%   0.318 GPC+PCh                                             
  746.080   9%   1.671 NAA+NAAG                                            
  446.554  13%   1.000 Cr+PCr                                              
    0.000 999%   0.000 Glu+Gln                                             
    0.000 999%   0.000 Lip13a                                              
  148.594  55%   0.333 Lip13b                                              
   29.739 115% 6.7E-02 Lip09                                               
  404.020  26%   0.905 MM09                                                
   25.750  86% 5.8E-02 Lip20                                               
  745.659  27%   1.670 MM20                                                
  101.511  54%   0.227 MM12                                                
  539.920  29%   1.209 MM14                                                
  373.463  28%   0.836 MM17                                                
  148.594  55%   0.333 Lip13a+Lip13b                                       
  790.026  24%   1.769 MM14+Lip13a+Lip13b+MM12                             
  433.759  24%   0.971 MM09+Lip09                                          
  771.409  26%   1.727 MM20+Lip20                                          
   6 lines in following misc. output table
  FWHM = 0.107 ppm    S/N =   3                                            
  Data shift =-0.015 ppm                                                   
  Ph: -45 deg      -8.7 deg/ppm                                            
  alphaB,S = 1.8E+00,   9.3E+01                                            
   14 spline knots.   Ns = 6(2)                                            
  ( 8) 4 infls.   ( 5) 1 extrs.                                            
  498 points on ppm-axis = NY
      4.000000     3.992357     3.984714     3.977070     3.969427     3.961784     3.954141     3.946497     3.938854     3.931211
      3.923568     3.915925     3.908281     3.900638     3.892995     3.885352     3.877708     3.870065     3.862422     3.854779
      3.847136     3.839492     3.831849     3.824206     3.816563     3.808919     3.801276     3.793633     3.785990     3.778347
      3.770703     3.763060     3.755417     3.747774     3.740130     3.732487     3.724844     3.717201     3.709558     3.701914
      3.694271     3.686628     3.678985     3.671341     3.663698     3.656055     3.648412     3.640769     3.633125     3.625482
      3.617839     3.610196     3.602552     3.594909     3.587266     3.579623     3.571980     3.564336     3.556693     3.549050
      3.541407     3.533763     3.526120     3.518477     3.510834     3.503191     3.495547     3.487904     3.480261     3.472618
      3.464974     3.457331     3.449688     3.442045     3.434402     3.426758     3.419115     3.411472     3.403829     3.396185
      3.388542     3.380899     3.373256     3.365613     3.357969     3.350326     3.342683     3.335040     3.327396     3.319753
      3.312110     3.304467     3.296824     3.289180     3.281537     3.273894     3.266251     3.258607     3.250964     3.243321
      3.235678     3.228034     3.220391     3.212748     3.205105     3.197462     3.189818     3.182175     3.174532     3.166889
      3.159245     3.151602     3.143959     3.136316     3.128673     3.121029     3.113386     3.105743     3.098100     3.090456
      3.082813     3.075170     3.067527     3.059884     3.052240     3.044597     3.036954     3.029311     3.021667     3.014024
      3.006381     2.998738     2.991095     2.983451     2.975808     2.968165     2.960522     2.952878     2.945235     2.937592
      2.929949     2.922306     2.914662     2.907019     2.899376     2.891733     2.884089     2.876446     2.868803     2.861160
      2.853517     2.845873     2.838230     2.830587     2.822944     2.815300     2.807657     2.800014     2.792371     2.784728
      2.777084     2.769441     2.761798     2.754155     2.746511     2.738868     2.731225     2.723582     2.715939     2.708295
      2.700652     2.693009     2.685366     2.677722     2.670079     2.662436     2.654793     2.647150     2.639506     2.631863
      2.624220     2.616577     2.608933     2.601290     2.593647     2.586004     2.578361     2.570717     2.563074     2.555431
      2.547788     2.540144     2.532501     2.524858     2.517215     2.509572     2.501928     2.494285     2.486642     2.478999
      2.471355     2.463712     2.456069     2.448426     2.440783     2.433139     2.425496     2.417853     2.410210     2.402566
      2.394923     2.387280     2.379637     2.371994     2.364350     2.356707     2.349064     2.341421     2.333777     2.326134
      2.318491     2.310848     2.303205     2.295561     2.287918     2.280275     2.272632     2.264988     2.257345     2.249702
      2.242059     2.234416     2.226772     2.219129     2.211486     2.203843     2.196199     2.188556     2.180913     2.173270
      2.165627     2.157983     2.150340     2.142697     2.135054     2.127410     2.119767     2.112124     2.104481     2.096838
      2.089194     2.081551     2.073908     2.066265     2.058621     2.050978     2.043335     2.035692     2.028049     2.020405
      2.012762     2.005119     1.997476     1.989833     1.982190     1.974546     1.966903     1.959260     1.951617     1.943974
      1.936331     1.928688     1.921045     1.913402     1.905759     1.898115     1.890472     1.882829     1.875186     1.867543
      1.859900     1.852257     1.844614     1.836971     1.829327     1.821684     1.814041     1.806398     1.798755     1.791112
      1.783469     1.775826     1.768183     1.760540     1.752896     1.745253     1.737610     1.729967     1.722324     1.714681
      1.707038     1.699395     1.691752     1.684108     1.676465     1.668822     1.661179     1.653536     1.645893     1.638250
      1.630607     1.622964     1.615321     1.607677     1.600034     1.592391     1.584748     1.577105     1.569462     1.561819
      1.554176     1.546533     1.538890     1.531246     1.523603     1.515960     1.508317     1.500674     1.493031     1.485388
      1.477745     1.470102     1.462458     1.454815     1.447172     1.439529     1.431886     1.424243     1.416600     1.408957
      1.401314     1.393671     1.386027     1.378384     1.370741     1.363098     1.355455     1.347812     1.340169     1.332526
      1.324883     1.317240     1.309596     1.301953     1.294310     1.286667     1.279024     1.271381     1.263738     1.256095
      1.248452     1.240808     1.233165     1.225522     1.217879     1.210236     1.202593     1.194950     1.187307     1.179664
      1.172021     1.164377     1.156734     1.149091     1.141448     1.133805     1.126162     1.118519     1.110876     1.103233
      1.095590     1.087946     1.080303     1.072660     1.065017     1.057374     1.049731     1.042088     1.034445     1.026802
      1.019158     1.011515     1.003872     0.996229     0.988586     0.980943     0.973300     0.965657     0.958014     0.950371
      0.942727     0.935084     0.927441     0.919798     0.912155     0.904512     0.896869     0.889226     0.881583     0.873940
      0.866296     0.858653     0.851010     0.843367     0.835724     0.828081     0.820438     0.812795     0.805152     0.797508
      0.789865     0.782222     0.774579     0.766936     0.759293     0.751650     0.744007     0.736364     0.728721     0.721077
      0.713434     0.705791     0.698148     0.690505     0.682862     0.675219     0.667576     0.659933     0.652290     0.644646
      0.637003     0.629360     0.621717     0.614074     0.606431     0.598788     0.591145     0.583502     0.575858     0.568215
      0.560572     0.552929     0.545286     0.537643     0.530000     0.522357     0.514714     0.507071     0.499427     0.491784
      0.484141     0.476498     0.468855     0.461212     0.453569     0.445925     0.438282     0.430639     0.422996     0.415353
      0.407710     0.400067     0.392424     0.384780     0.377137     0.369494     0.361851     0.354208     0.346565     0.338922
      0.331278     0.323635     0.315992     0.308349     0.300706     0.293063     0.285420     0.277777     0.270133     0.262490
      0.254847     0.247204     0.239561     0.231918     0.224275     0.216631     0.208988     0.201345
 NY phased data points follow
  -2.54380E+01 -2.06564E+01 -2.53138E+01 -1.99008E+01 -2.43726E+01 -2.02569E+01 -1.94092E+01 -2.19240E+01 -2.12027E+01 -2.23169E+01
  -1.58415E+01 -1.04846E+01 -1.00498E+01 -1.18161E+01 -1.84087E+01 -1.52634E+01 -1.43182E+01 -1.60712E+01 -1.26626E+01 -1.27194E+01
  -2.22699E+01 -1.80058E+01 -1.36750E+01 -1.47091E+01 -1.63231E+01 -1.23695E+01 -1.68230E+01 -1.27880E+01 -1.61606E+01 -1.41855E+01
  -1.87043E+01 -1.55704E+01 -1.74571E+01 -8.06977E+00 -1.15007E+01 -1.38766E+01 -1.05626E+01 -1.05376E+01 -1.20273E+01 -1.25873E+01
  -1.35442E+01 -1.49683E+01 -1.19892E+01 -8.98667E+00 -8.15489E+00 -9.97676E+00 -1.17077E+01 -1.45722E+01 -1.04380E+01 -1.10591E+01
  -1.23572E+01 -9.83784E+00 -1.03614E+01 -1.61701E+01 -8.06807E+00 -8.19777E+00 -1.13249E+01 -1.42289E+01 -8.85007E+00 -1.10894E+01
  -1.40273E+01 -1.50105E+01 -1.46960E+01 -1.47189E+01 -1.09430E+01 -1.01083E+01 -1.36196E+01 -1.03857E+01 -8.37084E+00 -1.40607E+01
  -1.15746E+01 -1.23253E+01 -6.53827E+00 -8.46110E+00 -1.31632E+01 -7.37290E+00 -1.32244E+01 -8.24588E+00 -1.23564E+01 -6.87708E+00
  -9.42389E+00 -1.01754E+01 -8.25672E+00 -1.03760E+01 -5.91543E+00 -7.52308E+00 -1.04956E+01 -6.68820E+00 -1.39649E+01 -7.93601E+00
  -8.15760E+00 -1.12709E+01 -8.90821E+00 -2.63583E+00 -5.74636E+00 -1.18222E+01 -1.03367E+01 -4.01449E+00 -5.97957E+00 -2.71166E+00
  -3.35246E+00 -1.53205E+00  2.96636E-01 -6.91921E-01 -4.76138E+00  3.34529E+00 -2.56481E+00 -7.01737E+00 -8.80526E+00 -4.70568E+00
  -4.22001E+00 -6.19579E+00 -2.85698E+00 -2.83560E+00 -6.89517E+00 -1.12758E+00 -6.03691E+00 -7.25497E+00 -4.72518E+00 -9.70860E+00
  -8.93028E+00 -6.44190E+00 -4.29838E+00 -2.18291E+00  2.79953E+00  3.82822E+00  1.83491E+00 -2.26813E-01 -6.04646E-01 -6.30058E-01
  -1.48874E+00  3.54386E+00  3.28379E-01 -1.36770E+00 -1.40259E+00 -7.61574E-01 -5.85030E+00 -3.51882E+00 -6.58183E+00 -6.75564E+00
  -1.35578E+01 -9.83927E+00 -7.31886E+00 -2.83539E+00 -6.97438E+00 -7.48789E+00 -9.22313E+00 -6.67096E+00 -7.52061E+00 -6.62032E+00
  -3.62665E+00 -3.63302E+00 -7.26896E+00 -5.84002E+00 -3.96720E+00 -6.54194E+00 -2.34948E+00 -6.35775E+00 -7.06852E+00 -8.15819E-01
  -2.68292E+00 -4.56215E+00 -3.45067E+00 -5.91359E+00 -5.82406E+00 -9.44261E+00 -8.72155E+00 -6.18540E+00 -9.70685E+00 -1.67322E+00
  -5.06608E+00 -9.12617E+00 -9.92549E+00 -8.47205E+00 -6.61058E+00 -7.66911E+00 -8.43596E+00 -5.63020E+00 -1.07373E+01 -6.81772E+00
  -9.38484E+00 -8.65643E+00 -2.39376E+00 -4.57600E+00 -7.70707E+00 -8.63351E+00 -8.13908E+00 -4.42316E+00 -7.14978E+00 -4.06293E+00
  -3.18689E+00 -1.34707E+01 -5.12649E+00 -3.58198E+00 -1.08119E+01 -7.09939E+00 -3.78305E+00 -1.05039E+01 -7.41880E+00 -5.49887E+00
  -5.34620E+00 -5.42124E+00 -4.81319E+00 -2.84536E+00 -4.05005E+00 -3.34666E+00 -8.61711E+00 -4.45203E+00 -3.79976E+00 -5.45493E+00
   3.06761E+00 -1.82473E+00 -6.53558E+00 -4.33586E+00 -5.31850E+00 -6.65339E+00 -4.95962E+00 -5.92249E+00 -3.06394E+00 -4.27163E+00
  -6.59985E+00 -3.68423E+00 -4.15738E+00 -7.65376E+00 -2.87641E+00 -9.93795E-01 -1.57910E+00 -7.89233E+00 -3.47339E+00 -1.57274E+00
  -1.75443E+00 -4.34320E+00 -6.18936E+00 -4.98255E+00 -6.46733E+00 -3.48985E+00 -5.65009E+00  6.44216E-01 -1.39715E+00 -3.77222E+00
  -2.48467E+00 -6.39864E-01 -5.28479E+00  9.92451E-01  1.75825E+00 -5.98182E+00 -2.75921E+00  1.29912E+00  6.53072E-02  1.64466E+00
   4.08095E-01  2.59801E-01 -1.30457E+00  6.20789E+00  5.38369E+00  9.03241E+00  8.23929E+00  1.32800E+01  1.94454E+01  1.59769E+01
   5.97505E+00  1.32302E+01  5.85101E+00  7.04598E+00  6.09875E+00  4.88114E+00  3.51643E+00  8.36578E+00  6.32453E+00  4.65380E+00
  -2.97831E-01 -1.06834E+00 -2.48916E+00  3.16229E+00 -1.56021E+00 -2.50201E+00 -4.56718E+00 -4.44354E+00  1.33057E+00 -1.71449E+00
  -3.26939E+00 -2.22222E+00  9.93834E-01 -1.44732E+00  2.90447E+00 -6.95171E-01 -3.91752E+00 -5.54456E+00  1.74264E+00 -2.14720E+00
  -2.50663E+00  6.41593E-01  3.81351E-02 -2.85346E+00 -5.31821E+00 -1.51157E+00  2.40348E+00  6.92844E-01  9.80630E-02 -5.55078E+00
  -1.31858E+00 -6.34697E-01 -2.50264E+00  9.61127E-01  8.35462E-01  2.94305E+00  1.21070E+00  5.31253E-01 -1.15741E+00 -2.27127E+00
   2.17010E+00  3.34519E+00  3.34479E-01 -1.71747E+00  1.36972E+00 -2.20133E-01  2.82841E+00 -2.98266E-01 -3.41761E+00 -1.11543E-01
   6.18175E-02  6.37424E-01 -1.31669E+00  1.56121E+00  5.81631E-01  3.39124E+00 -1.62356E+00  1.46081E+00  1.80876E-01  1.51003E+00
   1.07535E+00  1.16536E+00  3.46537E+00 -8.42686E-01  6.11973E-01 -1.64453E+00 -2.42292E+00  2.45924E+00  1.11701E+00 -9.78056E-01
   2.47839E-02 -2.24401E+00 -4.22284E-01  4.47957E+00  1.71939E+00  3.78288E+00 -1.92142E+00  1.27623E+00 -7.50274E-01 -4.59624E-01
   4.94991E-02  1.13356E+00  2.16323E+00 -5.00471E-01 -2.63135E+00  6.36947E+00  1.06039E+00  1.31533E+00  2.79745E-01  1.52161E+00
   1.32319E+00 -6.43981E+00 -2.46738E+00 -2.63408E+00  1.24813E+00  2.46015E+00  9.58521E-01 -1.60084E-01 -2.04962E+00 -5.11424E+00
  -8.02928E+00 -4.04575E+00 -1.31121E+00 -3.12312E+00 -1.87613E+00 -2.62910E+00 -5.86700E+00  2.83740E-01 -4.57865E+00 -4.21121E+00
  -5.58333E+00  7.15419E-01 -5.97944E+00 -2.40502E+00 -4.21727E+00 -6.32611E+00 -5.38685E-01 -4.50936E+00 -3.71594E+00 -1.81855E+00
  -1.58559E+00 -6.27298E+00 -9.55474E-01 -5.62378E+00 -5.18969E+00  1.90821E+00 -2.55228E+00  9.52178E-01 -6.11743E+00 -2.46524E+00
   6.34897E+00  2.05165E+00  4.10275E-01 -4.61946E+00  3.04557E+00 -3.88641E+00  2.54494E+00  4.59009E+00  2.23794E+00  1.95935E+00
   2.25757E+00  2.83304E+00 -3.96738E+00 -4.84332E-02  6.68467E-01  2.55128E+00 -3.83061E+00  1.35067E+00  6.22016E-01 -8.63341E-01
  -1.11994E+00  2.76870E-01  1.71236E+00  2.51643E+00  3.44839E+00  1.34324E+00 -1.23916E+00  2.01028E+00  1.37581E+00 -5.26704E+00
   1.20568E+00 -1.94134E+00 -9.85115E-01 -8.19025E-01 -1.65391E+00  3.37891E+00 -3.63395E+00 -6.74053E-02  1.01576E+00 -2.43161E+00
   1.54210E+00 -1.46199E+00  6.82981E-01 -3.00995E+00 -4.30698E+00  1.67843E+00 -4.44080E+00 -4.76507E+00 -4.82413E+00 -1.35917E+00
  -1.46313E+00  1.15141E+00 -1.79307E+00 -4.08066E+00 -3.33119E+00  1.02992E+00 -3.23416E+00  1.72526E+00 -4.36399E+00 -2.33138E+00
  -3.90269E-01  5.68313E-01  1.13585E+00 -1.12578E+00 -8.04734E-04 -2.28598E+00 -1.98380E+00 -7.07492E+00  3.73581E+00 -5.36731E+00
  -1.69807E+00 -5.19009E+00 -5.09940E+00  5.53399E-01 -1.86074E+00 -7.34385E-01 -7.98096E-01 -3.04602E+00 -3.66202E+00  3.13155E-01
  -5.38896E+00 -2.23279E+00 -1.09365E+00  5.24293E-01 -2.47910E+00  2.31840E+00 -5.09065E+00  4.45487E+00 -4.15317E+00 -1.13406E+00
   5.65891E+00  4.20936E+00  6.66949E-03 -1.40535E+00 -1.56368E+00  1.28621E-01  8.82011E-02 -9.80956E-01
 NY points of the fit to the data follow
  -1.73889E+01 -1.66876E+01 -1.86512E+01 -1.76470E+01 -1.94521E+01 -1.81131E+01 -1.92130E+01 -1.77466E+01 -1.78866E+01 -1.67063E+01
  -1.62053E+01 -1.56335E+01 -1.50082E+01 -1.49514E+01 -1.43992E+01 -1.45129E+01 -1.38022E+01 -1.39236E+01 -1.30584E+01 -1.33219E+01
  -1.25368E+01 -1.29470E+01 -1.23736E+01 -1.29102E+01 -1.28907E+01 -1.33560E+01 -1.33454E+01 -1.34287E+01 -1.32774E+01 -1.32880E+01
  -1.30992E+01 -1.30965E+01 -1.29035E+01 -1.29458E+01 -1.27717E+01 -1.28635E+01 -1.26987E+01 -1.28206E+01 -1.26460E+01 -1.27768E+01
  -1.25659E+01 -1.26900E+01 -1.24780E+01 -1.26067E+01 -1.23972E+01 -1.25216E+01 -1.23191E+01 -1.24401E+01 -1.22429E+01 -1.23320E+01
  -1.21255E+01 -1.21943E+01 -1.19986E+01 -1.20484E+01 -1.18687E+01 -1.19038E+01 -1.17463E+01 -1.17670E+01 -1.16287E+01 -1.16363E+01
  -1.15151E+01 -1.15108E+01 -1.14131E+01 -1.13812E+01 -1.13066E+01 -1.12555E+01 -1.11955E+01 -1.11376E+01 -1.10731E+01 -1.10128E+01
  -1.09322E+01 -1.08868E+01 -1.07949E+01 -1.07732E+01 -1.06469E+01 -1.06426E+01 -1.04813E+01 -1.04769E+01 -1.02658E+01 -1.02395E+01
  -9.98128E+00 -9.94362E+00 -9.69204E+00 -9.68022E+00 -9.50295E+00 -9.53381E+00 -9.45038E+00 -9.51089E+00 -9.48416E+00 -9.52926E+00
  -9.41963E+00 -9.09037E+00 -8.83709E+00 -8.11310E+00 -7.76432E+00 -6.58603E+00 -6.19920E+00 -4.64323E+00 -4.35480E+00 -2.79142E+00
  -2.78050E+00 -1.65374E+00 -1.97182E+00 -1.55830E+00 -2.15646E+00 -2.30328E+00 -2.97867E+00 -3.32087E+00 -3.93176E+00 -4.29471E+00
  -4.85686E+00 -5.35979E+00 -5.87258E+00 -6.47587E+00 -6.79738E+00 -7.04260E+00 -7.05215E+00 -6.86215E+00 -6.44625E+00 -5.45590E+00
  -4.73598E+00 -3.44583E+00 -2.63743E+00 -1.46422E+00 -7.89287E-01 -1.84408E-01  1.56368E-01 -3.43814E-02 -5.40663E-02 -7.91510E-01
  -1.01634E+00 -1.86684E+00 -2.13321E+00 -2.90010E+00 -3.18078E+00 -3.99994E+00 -4.32886E+00 -5.17821E+00 -5.51724E+00 -6.27215E+00
  -6.56044E+00 -7.13550E+00 -7.26642E+00 -7.34502E+00 -7.33194E+00 -7.36864E+00 -7.33571E+00 -7.35701E+00 -7.32021E+00 -7.35295E+00
  -7.31894E+00 -7.36679E+00 -7.32631E+00 -7.38167E+00 -7.34412E+00 -7.40716E+00 -7.37302E+00 -7.42783E+00 -7.39805E+00 -7.42868E+00
  -7.40767E+00 -7.41700E+00 -7.41282E+00 -7.43093E+00 -7.46043E+00 -7.51675E+00 -7.55215E+00 -7.64061E+00 -7.65990E+00 -7.76854E+00
  -7.75094E+00 -7.86628E+00 -7.79436E+00 -7.92404E+00 -7.79750E+00 -7.94391E+00 -7.77261E+00 -7.91632E+00 -7.72967E+00 -7.82414E+00
  -7.63019E+00 -7.64189E+00 -7.44714E+00 -7.38856E+00 -7.17491E+00 -7.04005E+00 -6.83238E+00 -6.64448E+00 -6.47348E+00 -6.26187E+00
  -6.14845E+00 -5.94468E+00 -5.88701E+00 -5.71649E+00 -5.66404E+00 -5.52938E+00 -5.47426E+00 -5.40755E+00 -5.32617E+00 -5.31079E+00
  -5.20077E+00 -5.25276E+00 -5.14554E+00 -5.27230E+00 -5.18553E+00 -5.34831E+00 -5.28474E+00 -5.46159E+00 -5.39657E+00 -5.55000E+00
  -5.45989E+00 -5.55737E+00 -5.43689E+00 -5.45155E+00 -5.32859E+00 -5.28816E+00 -5.16837E+00 -5.09623E+00 -4.98619E+00 -4.89436E+00
  -4.77327E+00 -4.67654E+00 -4.56718E+00 -4.47750E+00 -4.38345E+00 -4.30293E+00 -4.21299E+00 -4.13213E+00 -4.03731E+00 -3.96381E+00
  -3.85163E+00 -3.76176E+00 -3.63710E+00 -3.53973E+00 -3.40816E+00 -3.30480E+00 -3.16323E+00 -3.05007E+00 -2.89214E+00 -2.76216E+00
  -2.58749E+00 -2.44762E+00 -2.26867E+00 -2.12834E+00 -1.94960E+00 -1.80879E+00 -1.61839E+00 -1.39511E+00 -7.56518E-01 -9.68258E-02
   8.32957E-01  2.04708E+00  3.17614E+00  5.07709E+00  6.11049E+00  8.63214E+00  8.92620E+00  1.16473E+01  1.06492E+01  1.30035E+01
   1.06413E+01  1.22387E+01  9.18546E+00  1.01025E+01  7.17446E+00  7.72168E+00  5.22547E+00  5.54423E+00  3.25693E+00  3.24134E+00
   1.21881E+00  9.01339E-01 -6.57705E-01 -1.13126E+00 -2.14740E+00 -2.58275E+00 -2.69415E+00 -2.78869E+00 -2.82241E+00 -2.87760E+00
  -2.87978E+00 -2.90734E+00 -2.88375E+00 -2.88612E+00 -2.83917E+00 -2.81993E+00 -2.75319E+00 -2.71070E+00 -2.62263E+00 -2.55565E+00
  -2.44481E+00 -2.35346E+00 -2.21954E+00 -2.10699E+00 -1.95696E+00 -1.83220E+00 -1.67375E+00 -1.54705E+00 -1.39097E+00 -1.27285E+00
  -1.13020E+00 -1.02999E+00 -9.08673E-01 -8.34534E-01 -7.41300E-01 -6.97030E-01 -6.33156E-01 -6.17551E-01 -5.78602E-01 -5.83273E-01
  -5.58181E-01 -5.67823E-01 -5.36387E-01 -5.22766E-01 -4.37167E-01 -3.46604E-01 -2.69972E-01 -1.14943E-01 -9.07679E-02  1.20514E-01
   1.20523E-02  2.24723E-01 -1.12259E-01  1.16891E-01 -4.16382E-01 -1.86730E-01 -8.07729E-01 -5.23651E-01 -1.04067E+00 -6.07681E-01
  -8.96718E-01 -3.23387E-01 -4.19479E-01  1.60863E-01  1.50200E-01  5.86678E-01  5.64005E-01  8.16415E-01  7.60271E-01  9.10832E-01
   8.13167E-01  9.16025E-01  7.84867E-01  8.65614E-01  5.69923E-01  5.69522E-01  2.11709E-01  2.52053E-01 -3.79173E-02  1.56342E-01
  -6.24511E-03  4.51348E-01  4.04233E-01  8.95070E-01  7.90814E-01  1.09465E+00  8.57692E-01  9.04328E-01  5.58491E-01  4.28501E-01
   5.94612E-02 -1.19070E-01 -4.15205E-01 -5.65568E-01 -8.09418E-01 -9.60553E-01 -1.12695E+00 -1.26132E+00 -1.36321E+00 -1.48891E+00
  -1.53735E+00 -1.59225E+00 -1.60273E+00 -1.63481E+00 -1.62995E+00 -1.65040E+00 -1.63585E+00 -1.64720E+00 -1.62363E+00 -1.62539E+00
  -1.59160E+00 -1.58210E+00 -1.53611E+00 -1.51314E+00 -1.45253E+00 -1.41350E+00 -1.33552E+00 -1.27760E+00 -1.17945E+00 -1.09998E+00
  -9.79306E-01 -8.76417E-01 -7.32052E-01 -6.05573E-01 -4.38623E-01 -2.91205E-01 -1.06093E-01  5.58953E-02  2.50748E-01  4.16819E-01
   6.08978E-01  7.65020E-01  9.39126E-01  1.06908E+00  1.20903E+00  1.29745E+00  1.38920E+00  1.42420E+00  1.45866E+00  1.43447E+00
   1.40953E+00  1.32780E+00  1.24882E+00  1.11835E+00  9.97084E-01  8.31945E-01  6.84056E-01  5.00724E-01  3.42740E-01  1.57109E-01
   3.69940E-03 -1.71269E-01 -3.09183E-01 -4.64785E-01 -5.80735E-01 -7.12640E-01 -8.04251E-01 -9.11800E-01 -9.79848E-01 -1.06494E+00
  -1.11215E+00 -1.17804E+00 -1.20795E+00 -1.25831E+00 -1.27455E+00 -1.31286E+00 -1.31868E+00 -1.34786E+00 -1.34587E+00 -1.36827E+00
  -1.36053E+00 -1.37791E+00 -1.36592E+00 -1.37957E+00 -1.36442E+00 -1.37527E+00 -1.35777E+00 -1.36649E+00 -1.34719E+00 -1.35425E+00
  -1.33357E+00 -1.33934E+00 -1.31758E+00 -1.32231E+00 -1.29969E+00 -1.30358E+00 -1.28026E+00 -1.28347E+00 -1.25960E+00 -1.26222E+00
  -1.23789E+00 -1.24003E+00 -1.21532E+00 -1.21704E+00 -1.19202E+00 -1.19339E+00 -1.16810E+00 -1.16915E+00 -1.14364E+00 -1.14443E+00
  -1.11873E+00 -1.11926E+00 -1.09340E+00 -1.09372E+00 -1.06772E+00 -1.06784E+00 -1.04171E+00 -1.04165E+00 -1.01542E+00 -1.01519E+00
  -9.88861E-01 -9.88479E-01 -9.62057E-01 -9.61520E-01 -9.35016E-01 -9.34340E-01 -9.07760E-01 -9.06940E-01 -8.80275E-01 -8.79309E-01
  -8.52564E-01 -8.51456E-01 -8.24625E-01 -8.23357E-01 -7.96418E-01 -7.94978E-01 -7.67923E-01 -7.66292E-01
 NY background values follow
    -1.445E+01   -1.440E+01   -1.436E+01   -1.431E+01   -1.426E+01   -1.421E+01   -1.417E+01   -1.412E+01   -1.407E+01   -1.403E+01
    -1.398E+01   -1.393E+01   -1.389E+01   -1.384E+01   -1.379E+01   -1.375E+01   -1.370E+01   -1.365E+01   -1.360E+01   -1.356E+01
    -1.351E+01   -1.346E+01   -1.342E+01   -1.337E+01   -1.332E+01   -1.328E+01   -1.323E+01   -1.318E+01   -1.314E+01   -1.309E+01
    -1.304E+01   -1.300E+01   -1.295E+01   -1.290E+01   -1.286E+01   -1.281E+01   -1.276E+01   -1.271E+01   -1.267E+01   -1.262E+01
    -1.258E+01   -1.253E+01   -1.248E+01   -1.244E+01   -1.239E+01   -1.234E+01   -1.230E+01   -1.225E+01   -1.220E+01   -1.216E+01
    -1.211E+01   -1.206E+01   -1.202E+01   -1.197E+01   -1.193E+01   -1.188E+01   -1.183E+01   -1.179E+01   -1.174E+01   -1.170E+01
    -1.165E+01   -1.160E+01   -1.156E+01   -1.151E+01   -1.147E+01   -1.142E+01   -1.138E+01   -1.133E+01   -1.128E+01   -1.124E+01
    -1.119E+01   -1.115E+01   -1.110E+01   -1.106E+01   -1.101E+01   -1.097E+01   -1.092E+01   -1.088E+01   -1.083E+01   -1.079E+01
    -1.074E+01   -1.070E+01   -1.065E+01   -1.061E+01   -1.057E+01   -1.052E+01   -1.048E+01   -1.043E+01   -1.039E+01   -1.034E+01
    -1.030E+01   -1.026E+01   -1.021E+01   -1.017E+01   -1.012E+01   -1.008E+01   -1.004E+01   -9.994E+00   -9.950E+00   -9.907E+00
    -9.864E+00   -9.821E+00   -9.778E+00   -9.735E+00   -9.692E+00   -9.649E+00   -9.607E+00   -9.564E+00   -9.521E+00   -9.479E+00
    -9.437E+00   -9.395E+00   -9.353E+00   -9.311E+00   -9.269E+00   -9.227E+00   -9.185E+00   -9.144E+00   -9.102E+00   -9.061E+00
    -9.019E+00   -8.978E+00   -8.937E+00   -8.896E+00   -8.855E+00   -8.815E+00   -8.774E+00   -8.734E+00   -8.693E+00   -8.653E+00
    -8.613E+00   -8.573E+00   -8.533E+00   -8.493E+00   -8.453E+00   -8.414E+00   -8.374E+00   -8.335E+00   -8.296E+00   -8.257E+00
    -8.218E+00   -8.179E+00   -8.140E+00   -8.101E+00   -8.063E+00   -8.025E+00   -7.986E+00   -7.948E+00   -7.910E+00   -7.872E+00
    -7.835E+00   -7.797E+00   -7.760E+00   -7.722E+00   -7.685E+00   -7.648E+00   -7.611E+00   -7.574E+00   -7.538E+00   -7.501E+00
    -7.464E+00   -7.428E+00   -7.392E+00   -7.356E+00   -7.320E+00   -7.284E+00   -7.248E+00   -7.213E+00   -7.178E+00   -7.142E+00
    -7.107E+00   -7.072E+00   -7.037E+00   -7.002E+00   -6.968E+00   -6.933E+00   -6.899E+00   -6.865E+00   -6.831E+00   -6.797E+00
    -6.763E+00   -6.729E+00   -6.696E+00   -6.662E+00   -6.629E+00   -6.596E+00   -6.563E+00   -6.530E+00   -6.497E+00   -6.465E+00
    -6.432E+00   -6.400E+00   -6.368E+00   -6.336E+00   -6.304E+00   -6.272E+00   -6.240E+00   -6.209E+00   -6.177E+00   -6.146E+00
    -6.115E+00   -6.084E+00   -6.053E+00   -6.022E+00   -5.992E+00   -5.961E+00   -5.931E+00   -5.901E+00   -5.870E+00   -5.840E+00
    -5.811E+00   -5.781E+00   -5.751E+00   -5.722E+00   -5.693E+00   -5.663E+00   -5.634E+00   -5.605E+00   -5.577E+00   -5.548E+00
    -5.519E+00   -5.491E+00   -5.463E+00   -5.435E+00   -5.407E+00   -5.379E+00   -5.351E+00   -5.323E+00   -5.296E+00   -5.268E+00
    -5.241E+00   -5.214E+00   -5.187E+00   -5.160E+00   -5.133E+00   -5.107E+00   -5.080E+00   -5.054E+00   -5.027E+00   -5.001E+00
    -4.975E+00   -4.949E+00   -4.923E+00   -4.898E+00   -4.872E+00   -4.847E+00   -4.822E+00   -4.796E+00   -4.771E+00   -4.746E+00
    -4.722E+00   -4.697E+00   -4.672E+00   -4.648E+00   -4.624E+00   -4.599E+00   -4.575E+00   -4.551E+00   -4.528E+00   -4.504E+00
    -4.480E+00   -4.457E+00   -4.433E+00   -4.410E+00   -4.387E+00   -4.364E+00   -4.341E+00   -4.318E+00   -4.296E+00   -4.273E+00
    -4.251E+00   -4.228E+00   -4.206E+00   -4.184E+00   -4.162E+00   -4.140E+00   -4.119E+00   -4.097E+00   -4.075E+00   -4.054E+00
    -4.033E+00   -4.011E+00   -3.990E+00   -3.969E+00   -3.949E+00   -3.928E+00   -3.907E+00   -3.887E+00   -3.866E+00   -3.846E+00
    -3.826E+00   -3.806E+00   -3.786E+00   -3.766E+00   -3.746E+00   -3.726E+00   -3.707E+00   -3.687E+00   -3.668E+00   -3.648E+00
    -3.629E+00   -3.610E+00   -3.591E+00   -3.572E+00   -3.553E+00   -3.535E+00   -3.516E+00   -3.498E+00   -3.479E+00   -3.461E+00
    -3.443E+00   -3.424E+00   -3.406E+00   -3.388E+00   -3.371E+00   -3.353E+00   -3.335E+00   -3.317E+00   -3.300E+00   -3.283E+00
    -3.265E+00   -3.248E+00   -3.231E+00   -3.214E+00   -3.197E+00   -3.180E+00   -3.163E+00   -3.146E+00   -3.129E+00   -3.113E+00
    -3.096E+00   -3.080E+00   -3.063E+00   -3.047E+00   -3.031E+00   -3.014E+00   -2.998E+00   -2.982E+00   -2.966E+00   -2.950E+00
    -2.934E+00   -2.918E+00   -2.903E+00   -2.887E+00   -2.871E+00   -2.856E+00   -2.840E+00   -2.825E+00   -2.809E+00   -2.794E+00
    -2.778E+00   -2.763E+00   -2.748E+00   -2.732E+00   -2.717E+00   -2.702E+00   -2.687E+00   -2.672E+00   -2.657E+00   -2.642E+00
    -2.627E+00   -2.612E+00   -2.597E+00   -2.582E+00   -2.567E+00   -2.552E+00   -2.537E+00   -2.522E+00   -2.508E+00   -2.493E+00
    -2.478E+00   -2.464E+00   -2.449E+00   -2.434E+00   -2.420E+00   -2.405E+00   -2.390E+00   -2.376E+00   -2.361E+00   -2.347E+00
    -2.332E+00   -2.318E+00   -2.303E+00   -2.289E+00   -2.275E+00   -2.260E+00   -2.246E+00   -2.231E+00   -2.217E+00   -2.203E+00
    -2.188E+00   -2.174E+00   -2.160E+00   -2.145E+00   -2.131E+00   -2.117E+00   -2.103E+00   -2.088E+00   -2.074E+00   -2.060E+00
    -2.046E+00   -2.031E+00   -2.017E+00   -2.003E+00   -1.989E+00   -1.974E+00   -1.960E+00   -1.946E+00   -1.932E+00   -1.918E+00
    -1.903E+00   -1.889E+00   -1.875E+00   -1.861E+00   -1.847E+00   -1.832E+00   -1.818E+00   -1.804E+00   -1.790E+00   -1.776E+00
    -1.762E+00   -1.747E+00   -1.733E+00   -1.719E+00   -1.705E+00   -1.691E+00   -1.677E+00   -1.662E+00   -1.648E+00   -1.634E+00
    -1.620E+00   -1.606E+00   -1.592E+00   -1.577E+00   -1.563E+00   -1.549E+00   -1.535E+00   -1.521E+00   -1.507E+00   -1.493E+00
    -1.478E+00   -1.464E+00   -1.450E+00   -1.436E+00   -1.422E+00   -1.408E+00   -1.394E+00   -1.379E+00   -1.365E+00   -1.351E+00
    -1.337E+00   -1.323E+00   -1.309E+00   -1.295E+00   -1.281E+00   -1.266E+00   -1.252E+00   -1.238E+00   -1.224E+00   -1.210E+00
    -1.196E+00   -1.182E+00   -1.168E+00   -1.153E+00   -1.139E+00   -1.125E+00   -1.111E+00   -1.097E+00   -1.083E+00   -1.069E+00
    -1.055E+00   -1.041E+00   -1.026E+00   -1.012E+00   -9.982E-01   -9.841E-01   -9.700E-01   -9.558E-01   -9.417E-01   -9.276E-01
    -9.135E-01   -8.994E-01   -8.853E-01   -8.711E-01   -8.570E-01   -8.429E-01   -8.288E-01   -8.147E-01   -8.006E-01   -7.864E-01
    -7.723E-01   -7.582E-01   -7.441E-01   -7.300E-01   -7.158E-01   -7.017E-01   -6.876E-01   -6.735E-01
 Ala      Conc. = 2.54E+02
