 LCModel (Version 6.3-1L) Copyright: S.W. Provencher.          Ref.: Magn. Reson. Med. 30:672-679 (1993).                
 Slice#3 Row#3 Col#13  PD_24_press_1_raw_act
 36 lines in following concentration table = NCONC+1
    Conc.  %SD /Cr+PCr  Metabolite                                         
    0.000 999%   0.000 Ala                                                 
   25.317 999%   0.000 Asp                                                 
    0.000 999%   0.000 Cr                                                  
    0.000 999%   0.000 PCr                                                 
    0.000 999%   0.000 GABA                                                
   75.671 263%   0.000 Glc                                                 
    0.000 999%   0.000 Gln                                                 
  335.992 209%   0.000 Glu                                                 
    0.000 999%   0.000 GPC                                                 
    0.000 999%   0.000 PCh                                                 
   19.554 746%   0.000 GSH                                                 
  487.049  96%   0.000 Ins                                                 
 1.16E+04  17%   0.000 Lac                                                 
  383.598  43%   0.000 NAA                                                 
  140.298 100%   0.000 NAAG                                                
   20.104 207%   0.000 Scyllo                                              
    0.000 999%   0.000 Tau                                                 
    0.000 999%   0.000 -CrCH2                                              
    0.000 999%   0.000 GPC+PCh                                             
  523.896  27%   0.000 NAA+NAAG                                            
    0.000 999%   0.000 Cr+PCr                                              
  335.992 209%   0.000 Glu+Gln                                             
    0.000 999%   0.000 Lip13a                                              
 3.87E+04   5%   0.000 Lip13b                                              
 6.36E+04   9%   0.000+Lip09                                               
 6.30E+04   9%   0.000 MM09                                                
    0.000 999%   0.000 Lip20                                               
 2.88E+04   9%   0.000 MM20                                                
 6.73E+04  12%   0.000 MM12                                                
    0.000 999%   0.000 MM14                                                
 2.43E+04  10%   0.000 MM17                                                
 3.87E+04   5%   0.000 Lip13a+Lip13b                                       
 1.06E+05   6%   0.000 MM14+Lip13a+Lip13b+MM12                             
 1.27E+05   5%   0.000 MM09+Lip09                                          
 2.88E+04   9%   0.000 MM20+Lip20                                          
   6 lines in following misc. output table
  FWHM = 0.076 ppm    S/N =  13                                            
  Data shift =-0.031 ppm                                                   
  Ph:  91 deg      89.3 deg/ppm                                            
  alphaB,S = 5.6E+00,   3.4E+01                                            
    6 spline knots.   Ns = 9(2)                                            
  ( 3) 2 infls.   ( 2) 1 extrs.                                            
  498 points on ppm-axis = NY
      4.000000     3.992357     3.984714     3.977070     3.969427     3.961784     3.954141     3.946497     3.938854     3.931211
      3.923568     3.915925     3.908281     3.900638     3.892995     3.885352     3.877708     3.870065     3.862422     3.854779
      3.847136     3.839492     3.831849     3.824206     3.816563     3.808919     3.801276     3.793633     3.785990     3.778347
      3.770703     3.763060     3.755417     3.747774     3.740130     3.732487     3.724844     3.717201     3.709558     3.701914
      3.694271     3.686628     3.678985     3.671341     3.663698     3.656055     3.648412     3.640769     3.633125     3.625482
      3.617839     3.610196     3.602552     3.594909     3.587266     3.579623     3.571980     3.564336     3.556693     3.549050
      3.541407     3.533763     3.526120     3.518477     3.510834     3.503191     3.495547     3.487904     3.480261     3.472618
      3.464974     3.457331     3.449688     3.442045     3.434402     3.426758     3.419115     3.411472     3.403829     3.396185
      3.388542     3.380899     3.373256     3.365613     3.357969     3.350326     3.342683     3.335040     3.327396     3.319753
      3.312110     3.304467     3.296824     3.289180     3.281537     3.273894     3.266251     3.258607     3.250964     3.243321
      3.235678     3.228034     3.220391     3.212748     3.205105     3.197462     3.189818     3.182175     3.174532     3.166889
      3.159245     3.151602     3.143959     3.136316     3.128673     3.121029     3.113386     3.105743     3.098100     3.090456
      3.082813     3.075170     3.067527     3.059884     3.052240     3.044597     3.036954     3.029311     3.021667     3.014024
      3.006381     2.998738     2.991095     2.983451     2.975808     2.968165     2.960522     2.952878     2.945235     2.937592
      2.929949     2.922306     2.914662     2.907019     2.899376     2.891733     2.884089     2.876446     2.868803     2.861160
      2.853517     2.845873     2.838230     2.830587     2.822944     2.815300     2.807657     2.800014     2.792371     2.784728
      2.777084     2.769441     2.761798     2.754155     2.746511     2.738868     2.731225     2.723582     2.715939     2.708295
      2.700652     2.693009     2.685366     2.677722     2.670079     2.662436     2.654793     2.647150     2.639506     2.631863
      2.624220     2.616577     2.608933     2.601290     2.593647     2.586004     2.578361     2.570717     2.563074     2.555431
      2.547788     2.540144     2.532501     2.524858     2.517215     2.509572     2.501928     2.494285     2.486642     2.478999
      2.471355     2.463712     2.456069     2.448426     2.440783     2.433139     2.425496     2.417853     2.410210     2.402566
      2.394923     2.387280     2.379637     2.371994     2.364350     2.356707     2.349064     2.341421     2.333777     2.326134
      2.318491     2.310848     2.303205     2.295561     2.287918     2.280275     2.272632     2.264988     2.257345     2.249702
      2.242059     2.234416     2.226772     2.219129     2.211486     2.203843     2.196199     2.188556     2.180913     2.173270
      2.165627     2.157983     2.150340     2.142697     2.135054     2.127410     2.119767     2.112124     2.104481     2.096838
      2.089194     2.081551     2.073908     2.066265     2.058621     2.050978     2.043335     2.035692     2.028049     2.020405
      2.012762     2.005119     1.997476     1.989833     1.982190     1.974546     1.966903     1.959260     1.951617     1.943974
      1.936331     1.928688     1.921045     1.913402     1.905759     1.898115     1.890472     1.882829     1.875186     1.867543
      1.859900     1.852257     1.844614     1.836971     1.829327     1.821684     1.814041     1.806398     1.798755     1.791112
      1.783469     1.775826     1.768183     1.760540     1.752896     1.745253     1.737610     1.729967     1.722324     1.714681
      1.707038     1.699395     1.691752     1.684108     1.676465     1.668822     1.661179     1.653536     1.645893     1.638250
      1.630607     1.622964     1.615321     1.607677     1.600034     1.592391     1.584748     1.577105     1.569462     1.561819
      1.554176     1.546533     1.538890     1.531246     1.523603     1.515960     1.508317     1.500674     1.493031     1.485388
      1.477745     1.470102     1.462458     1.454815     1.447172     1.439529     1.431886     1.424243     1.416600     1.408957
      1.401314     1.393671     1.386027     1.378384     1.370741     1.363098     1.355455     1.347812     1.340169     1.332526
      1.324883     1.317240     1.309596     1.301953     1.294310     1.286667     1.279024     1.271381     1.263738     1.256095
      1.248452     1.240808     1.233165     1.225522     1.217879     1.210236     1.202593     1.194950     1.187307     1.179664
      1.172021     1.164377     1.156734     1.149091     1.141448     1.133805     1.126162     1.118519     1.110876     1.103233
      1.095590     1.087946     1.080303     1.072660     1.065017     1.057374     1.049731     1.042088     1.034445     1.026802
      1.019158     1.011515     1.003872     0.996229     0.988586     0.980943     0.973300     0.965657     0.958014     0.950371
      0.942727     0.935084     0.927441     0.919798     0.912155     0.904512     0.896869     0.889226     0.881583     0.873940
      0.866296     0.858653     0.851010     0.843367     0.835724     0.828081     0.820438     0.812795     0.805152     0.797508
      0.789865     0.782222     0.774579     0.766936     0.759293     0.751650     0.744007     0.736364     0.728721     0.721077
      0.713434     0.705791     0.698148     0.690505     0.682862     0.675219     0.667576     0.659933     0.652290     0.644646
      0.637003     0.629360     0.621717     0.614074     0.606431     0.598788     0.591145     0.583502     0.575858     0.568215
      0.560572     0.552929     0.545286     0.537643     0.530000     0.522357     0.514714     0.507071     0.499427     0.491784
      0.484141     0.476498     0.468855     0.461212     0.453569     0.445925     0.438282     0.430639     0.422996     0.415353
      0.407710     0.400067     0.392424     0.384780     0.377137     0.369494     0.361851     0.354208     0.346565     0.338922
      0.331278     0.323635     0.315992     0.308349     0.300706     0.293063     0.285420     0.277777     0.270133     0.262490
      0.254847     0.247204     0.239561     0.231918     0.224275     0.216631     0.208988     0.201345
 NY phased data points follow
   3.83702E+01  3.75214E+01  3.46843E+01  3.53320E+01  3.43092E+01  3.79912E+01  3.79916E+01  3.85716E+01  3.80564E+01  3.31787E+01
   3.67459E+01  3.72985E+01  3.55916E+01  3.54266E+01  3.98976E+01  4.05150E+01  4.02460E+01  4.01460E+01  4.01636E+01  3.51572E+01
   4.16379E+01  3.99289E+01  3.83225E+01  3.70377E+01  3.70428E+01  3.82605E+01  3.79096E+01  3.57072E+01  3.49624E+01  3.48851E+01
   4.10461E+01  3.39976E+01  3.61214E+01  3.80290E+01  3.94632E+01  3.92837E+01  3.85625E+01  3.51614E+01  3.48499E+01  3.48620E+01
   3.43997E+01  3.93129E+01  4.00717E+01  3.52320E+01  3.78102E+01  3.69624E+01  3.95156E+01  3.27822E+01  3.72969E+01  3.68117E+01
   3.91590E+01  3.80408E+01  3.96161E+01  3.91071E+01  3.81939E+01  3.70970E+01  3.65053E+01  3.83390E+01  3.46352E+01  3.68166E+01
   3.80696E+01  3.75856E+01  4.00562E+01  3.67641E+01  3.65232E+01  3.81043E+01  3.80367E+01  3.53967E+01  3.78438E+01  3.63088E+01
   4.00674E+01  3.60771E+01  3.90796E+01  3.77290E+01  3.97267E+01  4.01792E+01  3.77741E+01  3.81556E+01  3.85039E+01  4.00894E+01
   3.57774E+01  3.87404E+01  3.71351E+01  3.81629E+01  3.65878E+01  3.81608E+01  4.01427E+01  3.69261E+01  3.93211E+01  3.78798E+01
   3.92542E+01  3.85665E+01  4.18556E+01  3.89723E+01  3.82094E+01  3.93746E+01  4.04989E+01  3.87590E+01  3.81721E+01  3.91617E+01
   3.55529E+01  4.12774E+01  3.54041E+01  3.76888E+01  3.85320E+01  3.83072E+01  4.03733E+01  4.41148E+01  3.85291E+01  3.46745E+01
   3.41392E+01  3.69281E+01  3.35631E+01  3.74479E+01  3.46433E+01  3.49504E+01  3.46393E+01  3.54890E+01  3.94926E+01  3.36903E+01
   3.87179E+01  3.63977E+01  3.77475E+01  3.46286E+01  3.44808E+01  3.63756E+01  3.44959E+01  3.40295E+01  3.61585E+01  4.00516E+01
   3.93234E+01  4.18455E+01  3.71059E+01  3.22450E+01  3.46323E+01  3.28032E+01  3.36980E+01  3.18028E+01  3.26213E+01  3.29911E+01
   3.27630E+01  3.23396E+01  3.67157E+01  3.57647E+01  3.44665E+01  3.52374E+01  3.32024E+01  3.33856E+01  3.16233E+01  3.21703E+01
   3.51540E+01  3.49867E+01  3.39198E+01  3.49662E+01  3.30759E+01  3.33663E+01  3.17030E+01  3.23922E+01  3.31883E+01  3.59390E+01
   3.29713E+01  3.30110E+01  2.85148E+01  3.09658E+01  3.37715E+01  3.37252E+01  3.26401E+01  3.31086E+01  3.02252E+01  3.11926E+01
   2.96655E+01  3.21965E+01  3.49883E+01  3.16064E+01  2.83422E+01  2.88600E+01  2.99567E+01  3.03982E+01  2.74961E+01  2.94750E+01
   3.01895E+01  3.02648E+01  3.13036E+01  3.10818E+01  2.67066E+01  3.06730E+01  2.63999E+01  2.94841E+01  2.63499E+01  2.82031E+01
   2.66744E+01  2.56839E+01  2.70000E+01  2.48046E+01  2.50454E+01  2.74657E+01  2.75880E+01  2.55922E+01  2.31635E+01  2.56719E+01
   2.33958E+01  2.49087E+01  2.23124E+01  2.40400E+01  2.44088E+01  2.10379E+01  2.16688E+01  1.93975E+01  1.87050E+01  2.11477E+01
   1.67090E+01  1.61066E+01  1.38456E+01  1.14856E+01  1.28976E+01  1.33256E+01  1.20739E+01  6.45684E+00  1.01617E+01  6.91237E+00
   4.01135E+00  4.69374E+00  1.97516E+00  2.21580E-01 -8.87993E-01 -3.98506E+00 -3.66647E+00 -2.76129E+00 -2.43304E+00 -2.92461E+00
  -6.44385E+00 -7.37599E+00 -4.44781E+00 -1.13409E+01 -1.19849E+01 -1.13555E+01 -1.76477E+01 -1.64060E+01 -1.68991E+01 -1.78344E+01
  -1.89655E+01 -2.47261E+01 -2.41051E+01 -2.33943E+01 -3.07911E+01 -3.07372E+01 -3.68700E+01 -3.75516E+01 -3.98209E+01 -3.94117E+01
  -4.35311E+01 -4.80973E+01 -5.08681E+01 -5.40472E+01 -5.69567E+01 -5.93527E+01 -6.29115E+01 -5.81427E+01 -5.99616E+01 -6.26570E+01
  -6.30516E+01 -6.21577E+01 -6.65764E+01 -7.04190E+01 -7.10464E+01 -7.55506E+01 -7.77995E+01 -7.99715E+01 -7.86079E+01 -8.06906E+01
  -8.14457E+01 -7.86509E+01 -8.29827E+01 -8.53884E+01 -8.54715E+01 -8.68990E+01 -8.85706E+01 -9.01489E+01 -9.01800E+01 -9.39984E+01
  -9.71522E+01 -9.59638E+01 -1.02814E+02 -1.03209E+02 -1.06976E+02 -1.08212E+02 -1.07863E+02 -1.13542E+02 -1.15189E+02 -1.19056E+02
  -1.20068E+02 -1.23856E+02 -1.29523E+02 -1.32472E+02 -1.34900E+02 -1.40830E+02 -1.42092E+02 -1.47078E+02 -1.50857E+02 -1.57668E+02
  -1.64378E+02 -1.65024E+02 -1.71346E+02 -1.74735E+02 -1.84746E+02 -1.90053E+02 -1.95800E+02 -1.99469E+02 -2.07957E+02 -2.16269E+02
  -2.22931E+02 -2.31488E+02 -2.34296E+02 -2.47888E+02 -2.55494E+02 -2.62201E+02 -2.73855E+02 -2.80360E+02 -2.91359E+02 -3.02901E+02
  -3.10522E+02 -3.21696E+02 -3.31456E+02 -3.39523E+02 -3.54232E+02 -3.63082E+02 -3.76069E+02 -3.86682E+02 -3.95882E+02 -4.08572E+02
  -4.20518E+02 -4.28522E+02 -4.42126E+02 -4.53948E+02 -4.62138E+02 -4.70467E+02 -4.84214E+02 -4.94569E+02 -5.02727E+02 -5.09932E+02
  -5.19944E+02 -5.30304E+02 -5.40630E+02 -5.41102E+02 -5.45715E+02 -5.44257E+02 -5.44087E+02 -5.33735E+02 -5.27513E+02 -5.07898E+02
  -4.87484E+02 -4.59663E+02 -4.33608E+02 -4.02751E+02 -3.71819E+02 -3.38090E+02 -3.04940E+02 -2.74041E+02 -2.43399E+02 -2.16654E+02
  -1.90194E+02 -1.66245E+02 -1.41065E+02 -1.22012E+02 -1.01607E+02 -8.24584E+01 -6.26694E+01 -4.34544E+01 -2.68944E+01 -8.96224E+00
   8.03447E+00  2.18757E+01  3.19002E+01  4.72497E+01  5.37346E+01  6.09708E+01  6.81662E+01  7.84091E+01  8.13994E+01  8.27240E+01
   8.89005E+01  9.31199E+01  9.33268E+01  9.62572E+01  9.38748E+01  9.71480E+01  1.01797E+02  9.85076E+01  1.00547E+02  1.02481E+02
   1.00198E+02  1.02301E+02  9.94336E+01  1.00568E+02  1.01216E+02  1.03758E+02  1.01553E+02  1.03280E+02  9.68587E+01  1.01985E+02
   1.00919E+02  1.02565E+02  1.02815E+02  1.03351E+02  1.05367E+02  1.04204E+02  1.06249E+02  1.04384E+02  1.02703E+02  1.03430E+02
   1.03110E+02  1.04099E+02  1.03714E+02  1.05639E+02  1.03090E+02  1.04494E+02  1.05382E+02  1.06445E+02  1.03481E+02  1.06345E+02
   1.06152E+02  1.10452E+02  1.08635E+02  1.07906E+02  1.08431E+02  1.07927E+02  1.09432E+02  1.11297E+02  1.07098E+02  1.11137E+02
   1.08373E+02  1.10076E+02  1.09766E+02  1.10038E+02  1.05615E+02  1.08533E+02  1.08344E+02  1.07760E+02  1.05380E+02  1.10978E+02
   1.09226E+02  1.04417E+02  1.07288E+02  1.02879E+02  1.03741E+02  1.05383E+02  1.03396E+02  1.04618E+02  1.02323E+02  1.03603E+02
   1.02231E+02  1.03440E+02  9.94140E+01  1.00986E+02  1.03956E+02  1.00559E+02  9.98612E+01  9.86277E+01  9.69354E+01  1.00358E+02
   9.84511E+01  9.75826E+01  9.64513E+01  9.82826E+01  9.69940E+01  9.69121E+01  9.40523E+01  9.40415E+01  9.41309E+01  9.41942E+01
   9.23981E+01  9.15695E+01  8.99996E+01  9.14522E+01  9.01068E+01  8.60014E+01  8.95963E+01  9.00839E+01  8.79160E+01  8.45278E+01
   8.50358E+01  8.56530E+01  8.33824E+01  8.50702E+01  8.39001E+01  8.51800E+01  8.61942E+01  8.35824E+01  7.96818E+01  8.16464E+01
   7.84044E+01  7.95440E+01  8.09185E+01  8.06412E+01  7.95863E+01  7.86661E+01  7.69118E+01  7.96072E+01
 NY points of the fit to the data follow
   6.21601E+01  7.12620E+01  6.18925E+01  6.59002E+01  5.62372E+01  5.22060E+01  4.10198E+01  3.76618E+01  2.97665E+01  2.87503E+01
   2.40792E+01  2.59875E+01  2.96922E+01  3.38140E+01  3.62373E+01  3.91412E+01  3.97980E+01  4.12940E+01  3.95891E+01  3.81247E+01
   3.70015E+01  3.62485E+01  3.55241E+01  3.51232E+01  3.46069E+01  3.44249E+01  3.40135E+01  3.39402E+01  3.34863E+01  3.34185E+01
   3.30924E+01  3.31814E+01  3.29659E+01  3.30400E+01  3.28725E+01  3.28497E+01  3.27480E+01  3.25881E+01  3.25602E+01  3.22366E+01
   3.22054E+01  3.16371E+01  3.16917E+01  3.10366E+01  3.12920E+01  3.07498E+01  3.12963E+01  3.10248E+01  3.18615E+01  3.17377E+01
   3.26759E+01  3.27656E+01  3.35455E+01  3.35225E+01  3.38972E+01  3.36399E+01  3.34635E+01  3.28194E+01  3.22754E+01  3.15545E+01
   3.09666E+01  3.04684E+01  3.03111E+01  3.02200E+01  3.03869E+01  3.05642E+01  3.08633E+01  3.12541E+01  3.17584E+01  3.25730E+01
   3.28327E+01  3.34142E+01  3.33699E+01  3.39958E+01  3.39245E+01  3.47532E+01  3.47392E+01  3.57538E+01  3.57742E+01  3.67805E+01
   3.68849E+01  3.78681E+01  3.79731E+01  3.87506E+01  3.87648E+01  3.92898E+01  3.92841E+01  3.96329E+01  3.97294E+01  3.99745E+01
   4.01917E+01  4.03223E+01  4.06475E+01  4.07451E+01  4.12002E+01  4.12092E+01  4.17963E+01  4.18316E+01  4.25636E+01  4.26999E+01
   4.35432E+01  4.37673E+01  4.46528E+01  4.48555E+01  4.57085E+01  4.59233E+01  4.67491E+01  4.71345E+01  4.79827E+01  4.83467E+01
   4.90964E+01  4.96165E+01  5.03684E+01  5.10408E+01  5.17692E+01  5.25219E+01  5.31922E+01  5.39152E+01  5.44937E+01  5.50089E+01
   5.54046E+01  5.57112E+01  5.59441E+01  5.60640E+01  5.61250E+01  5.60689E+01  5.59728E+01  5.57958E+01  5.55561E+01  5.52657E+01
   5.48990E+01  5.45062E+01  5.40415E+01  5.35694E+01  5.30241E+01  5.24833E+01  5.18792E+01  5.12696E+01  5.06094E+01  4.99404E+01
   4.92414E+01  4.85403E+01  4.78549E+01  4.71706E+01  4.64921E+01  4.58191E+01  4.51612E+01  4.45158E+01  4.39324E+01  4.33326E+01
   4.28047E+01  4.22278E+01  4.17328E+01  4.11426E+01  4.06675E+01  4.00897E+01  3.96277E+01  3.90516E+01  3.85900E+01  3.79814E+01
   3.74792E+01  3.68674E+01  3.63668E+01  3.57704E+01  3.52441E+01  3.46083E+01  3.40222E+01  3.33727E+01  3.27249E+01  3.20929E+01
   3.13078E+01  3.06839E+01  2.97583E+01  2.91537E+01  2.80809E+01  2.74802E+01  2.62610E+01  2.56059E+01  2.43286E+01  2.36088E+01
   2.24017E+01  2.16083E+01  2.04428E+01  1.94951E+01  1.84789E+01  1.74290E+01  1.66141E+01  1.55546E+01  1.48948E+01  1.38293E+01
   1.33024E+01  1.22737E+01  1.18544E+01  1.09466E+01  1.06044E+01  9.82300E+00  9.38864E+00  8.59488E+00  7.87103E+00  7.25208E+00
   6.41971E+00  5.91280E+00  4.87576E+00  4.40584E+00  3.27210E+00  2.87102E+00  1.63267E+00  1.19863E+00 -5.00198E-02 -6.38192E-01
  -1.77523E+00 -2.47063E+00 -3.50878E+00 -4.32411E+00 -5.28919E+00 -6.26803E+00 -7.12641E+00 -8.20466E+00 -8.82621E+00 -9.93175E+00
  -1.02895E+01 -1.15035E+01 -1.16141E+01 -1.30612E+01 -1.31546E+01 -1.47943E+01 -1.50674E+01 -1.67646E+01 -1.72461E+01 -1.86587E+01
  -1.91523E+01 -1.99139E+01 -2.01969E+01 -2.01799E+01 -2.02365E+01 -1.96940E+01 -1.95885E+01 -1.88078E+01 -1.88555E+01 -1.81704E+01
  -1.84886E+01 -1.82693E+01 -1.98408E+01 -2.07272E+01 -2.28058E+01 -2.44625E+01 -2.68668E+01 -2.91854E+01 -3.19349E+01 -3.50533E+01
  -3.80390E+01 -4.19081E+01 -4.48028E+01 -4.92840E+01 -5.20206E+01 -5.69099E+01 -5.91439E+01 -6.40672E+01 -6.53218E+01 -6.98360E+01
  -6.97390E+01 -7.33613E+01 -7.19995E+01 -7.43339E+01 -7.23973E+01 -7.33035E+01 -7.21443E+01 -7.18058E+01 -7.28910E+01 -7.19574E+01
  -7.60413E+01 -7.53929E+01 -8.21424E+01 -8.25858E+01 -9.05679E+01 -9.19626E+01 -9.93391E+01 -1.00790E+02 -1.05976E+02 -1.07511E+02
  -1.11078E+02 -1.12548E+02 -1.13013E+02 -1.12922E+02 -1.12828E+02 -1.12630E+02 -1.12578E+02 -1.12761E+02 -1.13213E+02 -1.14102E+02
  -1.15400E+02 -1.17300E+02 -1.19701E+02 -1.22808E+02 -1.26456E+02 -1.30822E+02 -1.35698E+02 -1.41247E+02 -1.47250E+02 -1.53835E+02
  -1.60758E+02 -1.68121E+02 -1.75704E+02 -1.83578E+02 -1.91547E+02 -1.99654E+02 -2.07753E+02 -2.15876E+02 -2.23911E+02 -2.31886E+02
  -2.39729E+02 -2.47456E+02 -2.55042E+02 -2.62490E+02 -2.69797E+02 -2.76976E+02 -2.84039E+02 -2.91002E+02 -2.97890E+02 -3.04724E+02
  -3.11541E+02 -3.18375E+02 -3.25272E+02 -3.32290E+02 -3.39517E+02 -3.47094E+02 -3.55287E+02 -3.64728E+02 -3.77659E+02 -3.98353E+02
  -4.10302E+02 -4.24949E+02 -4.34791E+02 -4.46648E+02 -4.54450E+02 -4.61747E+02 -4.63904E+02 -4.79005E+02 -4.85052E+02 -4.98619E+02
  -5.03790E+02 -5.15346E+02 -5.18266E+02 -5.26385E+02 -5.26815E+02 -5.29415E+02 -5.27124E+02 -5.19091E+02 -5.11324E+02 -4.91237E+02
  -4.77666E+02 -4.46872E+02 -4.27566E+02 -3.92184E+02 -3.67053E+02 -3.32420E+02 -3.02344E+02 -2.72969E+02 -2.40918E+02 -2.17103E+02
  -1.85770E+02 -1.63557E+02 -1.35640E+02 -1.12745E+02 -8.96051E+01 -7.59366E+01 -5.67969E+01 -5.46803E+01 -3.19602E+01 -1.17095E+01
   1.27567E+01  2.27046E+01  4.57259E+01  5.06443E+01  6.93970E+01  6.22476E+01  6.13897E+01  6.69712E+01  7.54762E+01  8.47535E+01
   9.34414E+01  1.00692E+02  1.06038E+02  1.09306E+02  1.10551E+02  1.09996E+02  1.07985E+02  1.04936E+02  1.01296E+02  9.75110E+01
   9.39822E+01  9.10473E+01  8.89596E+01  8.78811E+01  8.78806E+01  8.89388E+01  9.09578E+01  9.37752E+01  9.71821E+01  1.00943E+02
   1.04815E+02  1.08562E+02  1.11973E+02  1.14867E+02  1.17110E+02  1.18611E+02  1.19330E+02  1.19274E+02  1.18491E+02  1.17063E+02
   1.15101E+02  1.12737E+02  1.10115E+02  1.07380E+02  1.04674E+02  1.02127E+02  9.98559E+01  9.79555E+01  9.65007E+01  9.55418E+01
   9.51052E+01  9.51949E+01  9.57943E+01  9.68684E+01  9.83661E+01  1.00223E+02  1.02365E+02  1.04712E+02  1.07182E+02  1.09694E+02
   1.12166E+02  1.14524E+02  1.16701E+02  1.18639E+02  1.20289E+02  1.21613E+02  1.22583E+02  1.23184E+02  1.23408E+02  1.23258E+02
   1.22746E+02  1.21891E+02  1.20718E+02  1.19255E+02  1.17535E+02  1.15594E+02  1.13469E+02  1.11197E+02  1.08812E+02  1.06350E+02
   1.03844E+02  1.01325E+02  9.88200E+01  9.63550E+01  9.39519E+01  9.16304E+01  8.94078E+01  8.72987E+01  8.53150E+01  8.34664E+01
   8.17605E+01  8.02035E+01  7.88003E+01  7.75541E+01  7.64667E+01  7.55388E+01  7.47706E+01  7.41617E+01  7.37111E+01  7.34172E+01
   7.32778E+01  7.32903E+01  7.34525E+01  7.37619E+01  7.42156E+01  7.48108E+01  7.55443E+01  7.64132E+01  7.74147E+01  7.85461E+01
   7.98047E+01  8.11874E+01  8.26914E+01  8.43140E+01  8.60532E+01  8.79064E+01  8.98711E+01  9.19450E+01  9.41259E+01  9.64119E+01
   9.88013E+01  1.01292E+02  1.03883E+02  1.06572E+02  1.09359E+02  1.12241E+02  1.15220E+02  1.18295E+02
 NY background values follow
    -3.128E+01   -3.199E+01   -3.270E+01   -3.339E+01   -3.406E+01   -3.473E+01   -3.538E+01   -3.602E+01   -3.665E+01   -3.726E+01
    -3.786E+01   -3.845E+01   -3.903E+01   -3.959E+01   -4.013E+01   -4.066E+01   -4.118E+01   -4.169E+01   -4.218E+01   -4.266E+01
    -4.312E+01   -4.357E+01   -4.400E+01   -4.442E+01   -4.483E+01   -4.522E+01   -4.559E+01   -4.595E+01   -4.630E+01   -4.663E+01
    -4.695E+01   -4.725E+01   -4.754E+01   -4.781E+01   -4.807E+01   -4.832E+01   -4.855E+01   -4.876E+01   -4.896E+01   -4.915E+01
    -4.932E+01   -4.948E+01   -4.962E+01   -4.975E+01   -4.987E+01   -4.997E+01   -5.006E+01   -5.013E+01   -5.019E+01   -5.023E+01
    -5.026E+01   -5.028E+01   -5.029E+01   -5.028E+01   -5.025E+01   -5.022E+01   -5.017E+01   -5.011E+01   -5.004E+01   -4.995E+01
    -4.985E+01   -4.974E+01   -4.962E+01   -4.949E+01   -4.934E+01   -4.918E+01   -4.901E+01   -4.883E+01   -4.864E+01   -4.844E+01
    -4.823E+01   -4.800E+01   -4.777E+01   -4.753E+01   -4.728E+01   -4.701E+01   -4.674E+01   -4.646E+01   -4.617E+01   -4.588E+01
    -4.557E+01   -4.526E+01   -4.494E+01   -4.461E+01   -4.427E+01   -4.393E+01   -4.358E+01   -4.322E+01   -4.286E+01   -4.249E+01
    -4.212E+01   -4.174E+01   -4.135E+01   -4.096E+01   -4.057E+01   -4.017E+01   -3.977E+01   -3.937E+01   -3.896E+01   -3.855E+01
    -3.814E+01   -3.772E+01   -3.730E+01   -3.688E+01   -3.646E+01   -3.604E+01   -3.562E+01   -3.520E+01   -3.478E+01   -3.436E+01
    -3.393E+01   -3.351E+01   -3.310E+01   -3.268E+01   -3.227E+01   -3.185E+01   -3.145E+01   -3.104E+01   -3.064E+01   -3.024E+01
    -2.985E+01   -2.946E+01   -2.907E+01   -2.869E+01   -2.832E+01   -2.795E+01   -2.759E+01   -2.724E+01   -2.689E+01   -2.656E+01
    -2.622E+01   -2.590E+01   -2.559E+01   -2.528E+01   -2.499E+01   -2.470E+01   -2.443E+01   -2.417E+01   -2.391E+01   -2.367E+01
    -2.344E+01   -2.322E+01   -2.302E+01   -2.282E+01   -2.264E+01   -2.248E+01   -2.233E+01   -2.219E+01   -2.207E+01   -2.196E+01
    -2.187E+01   -2.179E+01   -2.173E+01   -2.169E+01   -2.166E+01   -2.165E+01   -2.166E+01   -2.169E+01   -2.173E+01   -2.179E+01
    -2.188E+01   -2.198E+01   -2.210E+01   -2.224E+01   -2.240E+01   -2.259E+01   -2.279E+01   -2.302E+01   -2.327E+01   -2.353E+01
    -2.383E+01   -2.414E+01   -2.447E+01   -2.483E+01   -2.521E+01   -2.561E+01   -2.603E+01   -2.647E+01   -2.694E+01   -2.743E+01
    -2.794E+01   -2.847E+01   -2.902E+01   -2.960E+01   -3.020E+01   -3.082E+01   -3.146E+01   -3.213E+01   -3.282E+01   -3.353E+01
    -3.426E+01   -3.501E+01   -3.579E+01   -3.658E+01   -3.740E+01   -3.824E+01   -3.911E+01   -3.999E+01   -4.090E+01   -4.182E+01
    -4.277E+01   -4.374E+01   -4.474E+01   -4.575E+01   -4.678E+01   -4.784E+01   -4.892E+01   -5.001E+01   -5.113E+01   -5.227E+01
    -5.343E+01   -5.461E+01   -5.581E+01   -5.703E+01   -5.827E+01   -5.953E+01   -6.081E+01   -6.211E+01   -6.343E+01   -6.477E+01
    -6.612E+01   -6.750E+01   -6.889E+01   -7.031E+01   -7.174E+01   -7.319E+01   -7.466E+01   -7.614E+01   -7.764E+01   -7.917E+01
    -8.070E+01   -8.226E+01   -8.383E+01   -8.542E+01   -8.702E+01   -8.865E+01   -9.028E+01   -9.193E+01   -9.360E+01   -9.529E+01
    -9.698E+01   -9.870E+01   -1.004E+02   -1.022E+02   -1.039E+02   -1.057E+02   -1.075E+02   -1.093E+02   -1.111E+02   -1.129E+02
    -1.147E+02   -1.166E+02   -1.184E+02   -1.203E+02   -1.222E+02   -1.241E+02   -1.260E+02   -1.279E+02   -1.298E+02   -1.318E+02
    -1.337E+02   -1.357E+02   -1.376E+02   -1.396E+02   -1.416E+02   -1.435E+02   -1.455E+02   -1.475E+02   -1.495E+02   -1.516E+02
    -1.536E+02   -1.556E+02   -1.576E+02   -1.597E+02   -1.617E+02   -1.638E+02   -1.658E+02   -1.679E+02   -1.699E+02   -1.720E+02
    -1.741E+02   -1.761E+02   -1.782E+02   -1.803E+02   -1.823E+02   -1.844E+02   -1.865E+02   -1.886E+02   -1.906E+02   -1.927E+02
    -1.948E+02   -1.968E+02   -1.989E+02   -2.010E+02   -2.030E+02   -2.051E+02   -2.072E+02   -2.092E+02   -2.113E+02   -2.133E+02
    -2.154E+02   -2.174E+02   -2.194E+02   -2.215E+02   -2.235E+02   -2.255E+02   -2.275E+02   -2.295E+02   -2.315E+02   -2.335E+02
    -2.354E+02   -2.374E+02   -2.394E+02   -2.413E+02   -2.432E+02   -2.452E+02   -2.471E+02   -2.490E+02   -2.509E+02   -2.527E+02
    -2.546E+02   -2.565E+02   -2.583E+02   -2.601E+02   -2.619E+02   -2.637E+02   -2.655E+02   -2.673E+02   -2.690E+02   -2.708E+02
    -2.725E+02   -2.742E+02   -2.759E+02   -2.775E+02   -2.792E+02   -2.808E+02   -2.824E+02   -2.840E+02   -2.855E+02   -2.871E+02
    -2.886E+02   -2.901E+02   -2.916E+02   -2.930E+02   -2.945E+02   -2.959E+02   -2.973E+02   -2.986E+02   -3.000E+02   -3.013E+02
    -3.026E+02   -3.038E+02   -3.051E+02   -3.063E+02   -3.075E+02   -3.086E+02   -3.097E+02   -3.108E+02   -3.119E+02   -3.129E+02
    -3.139E+02   -3.149E+02   -3.159E+02   -3.168E+02   -3.177E+02   -3.185E+02   -3.193E+02   -3.201E+02   -3.209E+02   -3.216E+02
    -3.223E+02   -3.229E+02   -3.236E+02   -3.242E+02   -3.247E+02   -3.252E+02   -3.257E+02   -3.261E+02   -3.265E+02   -3.269E+02
    -3.272E+02   -3.275E+02   -3.278E+02   -3.280E+02   -3.282E+02   -3.283E+02   -3.284E+02   -3.285E+02   -3.285E+02   -3.285E+02
    -3.284E+02   -3.283E+02   -3.281E+02   -3.280E+02   -3.277E+02   -3.275E+02   -3.271E+02   -3.268E+02   -3.264E+02   -3.259E+02
    -3.255E+02   -3.249E+02   -3.243E+02   -3.237E+02   -3.231E+02   -3.224E+02   -3.216E+02   -3.208E+02   -3.200E+02   -3.191E+02
    -3.181E+02   -3.172E+02   -3.161E+02   -3.151E+02   -3.139E+02   -3.128E+02   -3.115E+02   -3.103E+02   -3.090E+02   -3.076E+02
    -3.062E+02   -3.048E+02   -3.032E+02   -3.017E+02   -3.001E+02   -2.984E+02   -2.968E+02   -2.950E+02   -2.932E+02   -2.914E+02
    -2.895E+02   -2.875E+02   -2.855E+02   -2.835E+02   -2.814E+02   -2.793E+02   -2.771E+02   -2.748E+02   -2.725E+02   -2.702E+02
    -2.678E+02   -2.654E+02   -2.629E+02   -2.603E+02   -2.577E+02   -2.551E+02   -2.524E+02   -2.496E+02   -2.468E+02   -2.440E+02
    -2.411E+02   -2.382E+02   -2.352E+02   -2.321E+02   -2.290E+02   -2.259E+02   -2.227E+02   -2.194E+02   -2.161E+02   -2.128E+02
    -2.094E+02   -2.059E+02   -2.024E+02   -1.989E+02   -1.953E+02   -1.916E+02   -1.879E+02   -1.842E+02   -1.804E+02   -1.765E+02
    -1.726E+02   -1.687E+02   -1.647E+02   -1.607E+02   -1.566E+02   -1.524E+02   -1.482E+02   -1.440E+02   -1.397E+02   -1.354E+02
    -1.310E+02   -1.266E+02   -1.221E+02   -1.176E+02   -1.130E+02   -1.084E+02   -1.037E+02   -9.899E+01   -9.424E+01   -8.943E+01
    -8.458E+01   -7.969E+01   -7.475E+01   -6.977E+01   -6.474E+01   -5.966E+01   -5.455E+01   -4.938E+01
 Asp      Conc. = 2.53E+01
