 LCModel (Version 6.3-1L) Copyright: S.W. Provencher.          Ref.: Magn. Reson. Med. 30:672-679 (1993).                
 Slice#1 Row#2 Col#7  PD_24_press_1_raw_act
 36 lines in following concentration table = NCONC+1
    Conc.  %SD /Cr+PCr  Metabolite                                         
  393.514  29%   1.296 Ala                                                 
   59.292 119%   0.195 Asp                                                 
  303.648  13%   1.000 Cr                                                  
    0.000 999%   0.000 PCr                                                 
   38.102 114%   0.125 GABA                                                
   50.161  86%   0.165 Glc                                                 
  684.332  36%   2.254 Gln                                                 
  510.375  55%   1.681 Glu                                                 
   51.672 206%   0.170 GPC                                                 
   60.816 175%   0.200 PCh                                                 
    0.000 999%   0.000 GSH                                                 
  321.524  60%   1.059 Ins                                                 
    0.000 999%   0.000 Lac                                                 
  689.993  11%   2.272 NAA                                                 
    9.705 921% 3.2E-02 NAAG                                                
   27.270  45% 9.0E-02 Scyllo                                              
  110.180  63%   0.363 Tau                                                 
    0.000 999%   0.000 -CrCH2                                              
  112.488  13%   0.370 GPC+PCh                                             
  699.697   9%   2.304 NAA+NAAG                                            
  303.648  13%   1.000 Cr+PCr                                              
 1.19E+03  37%   3.935 Glu+Gln                                             
 2.81E+03  21%   9.268 Lip13a                                              
    0.000 999%   0.000 Lip13b                                              
  565.715  56%   1.863 Lip09                                               
  636.179  45%   2.095 MM09                                                
  355.230  60%   1.170 Lip20                                               
 1.20E+03  27%   3.950 MM20                                                
  162.557 102%   0.535 MM12                                                
 1.11E+03  39%   3.666 MM14                                                
  670.042  27%   2.207 MM17                                                
 2.81E+03  21%   9.268 Lip13a+Lip13b                                       
 4.09E+03   7%  13.469 MM14+Lip13a+Lip13b+MM12                             
 1.20E+03  12%   3.958 MM09+Lip09                                          
 1.55E+03  18%   5.120 MM20+Lip20                                          
   6 lines in following misc. output table
  FWHM = 0.076 ppm    S/N =   4                                            
  Data shift = 0.023 ppm                                                   
  Ph: -66 deg     -23.0 deg/ppm                                            
  alphaB,S = 8.5E+01,   2.0E+02                                            
   14 spline knots.   Ns = 8(1)                                            
   2 inflections.     1 extrema                                            
  498 points on ppm-axis = NY
      4.000000     3.992357     3.984714     3.977070     3.969427     3.961784     3.954141     3.946497     3.938854     3.931211
      3.923568     3.915925     3.908281     3.900638     3.892995     3.885352     3.877708     3.870065     3.862422     3.854779
      3.847136     3.839492     3.831849     3.824206     3.816563     3.808919     3.801276     3.793633     3.785990     3.778347
      3.770703     3.763060     3.755417     3.747774     3.740130     3.732487     3.724844     3.717201     3.709558     3.701914
      3.694271     3.686628     3.678985     3.671341     3.663698     3.656055     3.648412     3.640769     3.633125     3.625482
      3.617839     3.610196     3.602552     3.594909     3.587266     3.579623     3.571980     3.564336     3.556693     3.549050
      3.541407     3.533763     3.526120     3.518477     3.510834     3.503191     3.495547     3.487904     3.480261     3.472618
      3.464974     3.457331     3.449688     3.442045     3.434402     3.426758     3.419115     3.411472     3.403829     3.396185
      3.388542     3.380899     3.373256     3.365613     3.357969     3.350326     3.342683     3.335040     3.327396     3.319753
      3.312110     3.304467     3.296824     3.289180     3.281537     3.273894     3.266251     3.258607     3.250964     3.243321
      3.235678     3.228034     3.220391     3.212748     3.205105     3.197462     3.189818     3.182175     3.174532     3.166889
      3.159245     3.151602     3.143959     3.136316     3.128673     3.121029     3.113386     3.105743     3.098100     3.090456
      3.082813     3.075170     3.067527     3.059884     3.052240     3.044597     3.036954     3.029311     3.021667     3.014024
      3.006381     2.998738     2.991095     2.983451     2.975808     2.968165     2.960522     2.952878     2.945235     2.937592
      2.929949     2.922306     2.914662     2.907019     2.899376     2.891733     2.884089     2.876446     2.868803     2.861160
      2.853517     2.845873     2.838230     2.830587     2.822944     2.815300     2.807657     2.800014     2.792371     2.784728
      2.777084     2.769441     2.761798     2.754155     2.746511     2.738868     2.731225     2.723582     2.715939     2.708295
      2.700652     2.693009     2.685366     2.677722     2.670079     2.662436     2.654793     2.647150     2.639506     2.631863
      2.624220     2.616577     2.608933     2.601290     2.593647     2.586004     2.578361     2.570717     2.563074     2.555431
      2.547788     2.540144     2.532501     2.524858     2.517215     2.509572     2.501928     2.494285     2.486642     2.478999
      2.471355     2.463712     2.456069     2.448426     2.440783     2.433139     2.425496     2.417853     2.410210     2.402566
      2.394923     2.387280     2.379637     2.371994     2.364350     2.356707     2.349064     2.341421     2.333777     2.326134
      2.318491     2.310848     2.303205     2.295561     2.287918     2.280275     2.272632     2.264988     2.257345     2.249702
      2.242059     2.234416     2.226772     2.219129     2.211486     2.203843     2.196199     2.188556     2.180913     2.173270
      2.165627     2.157983     2.150340     2.142697     2.135054     2.127410     2.119767     2.112124     2.104481     2.096838
      2.089194     2.081551     2.073908     2.066265     2.058621     2.050978     2.043335     2.035692     2.028049     2.020405
      2.012762     2.005119     1.997476     1.989833     1.982190     1.974546     1.966903     1.959260     1.951617     1.943974
      1.936331     1.928688     1.921045     1.913402     1.905759     1.898115     1.890472     1.882829     1.875186     1.867543
      1.859900     1.852257     1.844614     1.836971     1.829327     1.821684     1.814041     1.806398     1.798755     1.791112
      1.783469     1.775826     1.768183     1.760540     1.752896     1.745253     1.737610     1.729967     1.722324     1.714681
      1.707038     1.699395     1.691752     1.684108     1.676465     1.668822     1.661179     1.653536     1.645893     1.638250
      1.630607     1.622964     1.615321     1.607677     1.600034     1.592391     1.584748     1.577105     1.569462     1.561819
      1.554176     1.546533     1.538890     1.531246     1.523603     1.515960     1.508317     1.500674     1.493031     1.485388
      1.477745     1.470102     1.462458     1.454815     1.447172     1.439529     1.431886     1.424243     1.416600     1.408957
      1.401314     1.393671     1.386027     1.378384     1.370741     1.363098     1.355455     1.347812     1.340169     1.332526
      1.324883     1.317240     1.309596     1.301953     1.294310     1.286667     1.279024     1.271381     1.263738     1.256095
      1.248452     1.240808     1.233165     1.225522     1.217879     1.210236     1.202593     1.194950     1.187307     1.179664
      1.172021     1.164377     1.156734     1.149091     1.141448     1.133805     1.126162     1.118519     1.110876     1.103233
      1.095590     1.087946     1.080303     1.072660     1.065017     1.057374     1.049731     1.042088     1.034445     1.026802
      1.019158     1.011515     1.003872     0.996229     0.988586     0.980943     0.973300     0.965657     0.958014     0.950371
      0.942727     0.935084     0.927441     0.919798     0.912155     0.904512     0.896869     0.889226     0.881583     0.873940
      0.866296     0.858653     0.851010     0.843367     0.835724     0.828081     0.820438     0.812795     0.805152     0.797508
      0.789865     0.782222     0.774579     0.766936     0.759293     0.751650     0.744007     0.736364     0.728721     0.721077
      0.713434     0.705791     0.698148     0.690505     0.682862     0.675219     0.667576     0.659933     0.652290     0.644646
      0.637003     0.629360     0.621717     0.614074     0.606431     0.598788     0.591145     0.583502     0.575858     0.568215
      0.560572     0.552929     0.545286     0.537643     0.530000     0.522357     0.514714     0.507071     0.499427     0.491784
      0.484141     0.476498     0.468855     0.461212     0.453569     0.445925     0.438282     0.430639     0.422996     0.415353
      0.407710     0.400067     0.392424     0.384780     0.377137     0.369494     0.361851     0.354208     0.346565     0.338922
      0.331278     0.323635     0.315992     0.308349     0.300706     0.293063     0.285420     0.277777     0.270133     0.262490
      0.254847     0.247204     0.239561     0.231918     0.224275     0.216631     0.208988     0.201345
 NY phased data points follow
   1.30866E+00  3.00654E+00  1.14577E+00  4.76113E+00  2.38241E+00  7.31808E-01  6.09218E+00  4.65000E+00  6.28256E+00  9.33517E+00
   8.61449E+00  7.30359E+00  1.09543E+01  4.59739E+00  6.11667E+00  2.37580E+00  8.21940E+00  6.21616E-01  3.40011E+00  1.33392E+00
   9.58328E+00 -1.35928E+00  7.88342E+00 -8.93726E-01  3.41894E+00  5.65747E+00 -1.16901E+00 -3.78531E+00  5.42971E+00  6.40199E-01
   3.23576E+00  4.32063E-01  4.55497E+00  3.48714E+00  4.09940E+00  5.82329E+00  3.01077E+00  4.75785E+00  4.31519E+00  4.34158E+00
   2.12420E-01  3.42176E+00  3.63839E+00  3.90901E+00  2.12205E+00  3.72929E+00  6.43978E+00 -8.76683E-01  4.08134E+00  5.01082E+00
   3.54849E+00  2.45507E+00  7.92567E-01  2.50546E-01  2.74904E+00  4.82409E+00  3.14066E+00  2.24922E+00  4.07124E+00 -3.17753E+00
  -6.13159E-01  2.85433E+00  2.16498E+00  7.25785E-01  3.06323E+00  2.46107E+00  2.38433E+00 -3.02613E-02  2.54867E+00  3.85248E+00
   1.47123E+00  4.04966E+00  4.43782E+00  2.14841E+00  2.84980E+00  4.18633E+00  5.02671E+00  4.60910E+00  3.89713E+00  3.98773E+00
   2.06541E+00  2.97163E+00  3.42518E+00  1.49835E+00 -1.91341E-01  1.53026E-01  5.28351E+00  6.74540E+00  2.88926E+00  5.65717E+00
   1.96617E+00  4.71447E+00  1.88211E+00  4.20186E+00  3.59654E+00  6.26303E+00 -2.78785E+00  3.70138E+00  4.97376E-01  5.51165E+00
   7.96616E+00  5.71683E+00  1.26238E+01  7.83376E+00  1.57753E+01  6.85323E+00  8.45565E+00  6.49922E+00  6.45838E+00  4.26570E+00
   2.61232E+00  1.69023E+00  5.45776E+00  2.08122E-01  7.70839E+00  2.27794E+00  5.84977E+00  1.47911E+00  3.29483E+00  2.66197E+00
   4.60521E+00 -6.88553E-02  4.69511E+00  5.78176E+00  7.82770E+00  8.77994E+00  1.24289E+01  1.07132E+01  1.17761E+01  4.05349E+00
   6.73475E+00  5.31000E+00  4.66642E+00  2.88510E+00  3.00405E+00 -3.53842E+00  2.60000E+00  2.64355E+00  3.99157E+00  1.00592E+00
  -3.52157E-01  3.15746E+00 -1.03070E+00 -1.60721E+00 -2.48317E+00 -2.85951E+00  7.34942E-01 -8.91249E-02  2.77008E+00  2.02415E+00
   2.01571E+00 -4.08087E-01 -2.66369E+00 -1.24695E+00 -1.53322E+00  3.37876E+00  6.42987E+00  2.38343E+00  2.30290E+00  1.22226E+00
   2.47052E+00 -1.27886E+00 -5.38960E-01 -8.02537E-01  9.30862E-01  1.13639E+00  1.60733E+00  4.03426E+00  3.79266E+00  6.00722E-01
  -5.09311E-01 -3.36197E+00 -6.81523E-01 -1.41063E+00  2.48926E-01 -2.79982E+00 -4.80335E-02  3.58822E-01 -4.96365E+00 -1.68545E+00
  -9.04642E-01  1.40569E+00 -1.61370E+00  9.93166E-02 -2.25552E+00 -1.07972E+00  1.45921E+00 -3.93128E+00  2.28713E-01  1.42395E+00
   1.38392E+00  1.50685E+00  2.95704E+00 -1.21168E+00 -6.05935E+00 -1.00025E+00 -4.59872E+00 -5.41350E-01 -1.57265E+00  2.61229E+00
   2.18895E+00  6.81086E-01  2.09922E+00  1.56332E+00  3.80132E+00  1.09495E+00 -7.25050E-01 -5.80668E-02  5.11537E-01 -3.29305E-01
   2.28427E+00  7.81965E-01  2.67521E-01  8.09355E-01  2.41390E-02 -6.11024E-01  6.01330E+00  1.71837E+00  1.10117E+00  1.86995E+00
   3.80887E+00  3.82373E+00  2.49464E+00  1.39817E+00  8.89917E-01  2.13115E+00  3.51822E+00  3.93940E+00  1.24771E+00  3.09369E+00
  -2.39429E-01  3.28037E+00  4.15648E+00  5.63816E+00  3.58987E+00  4.86910E+00  6.19364E+00  2.97224E+00  1.88940E+00  2.99050E+00
   7.91943E+00  2.79190E+00  3.48643E+00  5.75461E+00  5.25628E+00  1.55168E+00  1.46321E+00  9.42482E+00  2.87082E+00  8.49971E+00
   4.39470E+00  6.30908E+00  8.01868E+00  9.33667E+00  1.01934E+01  1.11874E+01  1.29518E+01  1.48078E+01  2.02297E+01  2.48072E+01
   2.65149E+01  2.27501E+01  2.05877E+01  1.82310E+01  1.65612E+01  1.61751E+01  1.31539E+01  1.51089E+01  1.24062E+01  5.59567E+00
   5.29494E+00  5.27745E+00  5.71763E+00  1.56982E+00  4.57488E+00  3.76055E+00  5.80688E+00  7.00474E-01  4.24446E+00  2.90735E+00
   1.73493E-01  3.36121E+00  6.82109E+00  3.02405E+00  3.63615E+00  5.86473E+00  7.97912E-01  1.20359E+00  4.39692E+00  4.12309E+00
   4.26509E+00 -8.99839E-01  2.14598E+00  2.51761E+00  3.35494E+00  2.92362E+00  1.99756E+00  3.24484E+00  3.68106E+00  7.21202E+00
   4.22656E+00  4.62114E+00  6.27444E+00  8.53255E+00  4.26312E+00  2.31030E+00  6.18815E+00  2.90389E+00  7.09145E+00  3.39133E+00
   2.55032E+00  7.36575E+00  8.64093E+00  1.75395E+00  6.24595E+00  4.79716E+00  8.34592E+00  1.11671E+00  3.96622E+00  8.74707E+00
   7.32642E+00  6.12960E+00  1.13050E+01  6.19576E+00  7.96711E+00  5.11593E+00  3.47818E+00  3.05816E+00  8.23585E+00  6.73073E+00
   5.05436E+00  1.52807E+00  4.92610E+00  8.90575E+00  7.74514E+00  8.36690E+00  9.86307E+00  1.15134E+01  9.88318E+00  1.20448E+01
   1.50518E+01  1.20637E+01  1.50452E+01  1.81916E+01  1.39450E+01  1.86109E+01  1.75528E+01  2.11695E+01  1.91697E+01  1.73322E+01
   2.18853E+01  2.03410E+01  1.89354E+01  1.46900E+01  1.37961E+01  2.15596E+01  9.87229E+00  1.43497E+01  1.59678E+01  1.46659E+01
   1.22261E+01  9.19637E+00  1.18160E+01  1.13909E+01  1.35716E+01  8.62364E+00  1.19287E+01  7.96587E+00  9.33566E+00  8.50699E+00
   8.85605E+00  6.51957E+00  2.66168E+00  4.88431E+00  5.38516E+00  2.02961E+00  7.27254E+00  1.23027E+01  7.18872E+00  6.55856E+00
   7.41812E+00  5.76677E+00  9.85541E+00  4.94402E+00  8.93338E+00  2.76538E+00  4.21099E+00  1.03170E+01  5.00604E+00  2.07572E+00
   8.29385E+00  6.27032E+00  2.94150E+00  1.02578E+01  4.21989E+00  4.95492E+00  6.16522E+00  7.40001E+00  2.73429E+00  7.97704E+00
   7.91664E+00  1.22785E+01  5.70494E+00  6.20987E+00  8.27367E+00  6.43931E+00  7.87172E+00  1.22318E+01  9.45792E+00  7.90474E+00
   1.00596E+01  1.02807E+01  7.49787E+00  6.86211E+00  5.83819E+00  1.12812E+01  2.89140E+00  8.64522E+00  7.51108E+00  5.88471E+00
   3.02291E+00  8.07997E+00  4.53007E+00  2.60238E+00  4.77419E+00  7.27882E+00  2.67444E+00  4.83036E+00  3.49880E+00  1.37363E+00
   4.15692E+00  1.97538E+00  3.95869E+00  2.64242E+00 -2.02647E+00 -1.49655E+00  1.99054E+00  3.72928E+00  9.38578E-01 -1.89777E+00
  -9.50802E-01 -2.16829E-01  1.38898E+00 -1.68405E+00  4.35542E+00  6.75104E-01 -2.28124E+00  4.30334E+00  9.99763E-01  5.81825E-01
  -2.86505E+00  3.39735E-01  4.60248E+00  3.00828E+00  2.02333E+00 -4.89664E+00  2.40619E+00  4.25926E+00 -2.08600E+00  8.83460E-01
   2.81671E+00  2.18818E+00 -5.43487E-01  6.17824E-01  3.82377E+00 -4.39434E-01 -3.57910E-01  1.97236E-01 -9.91360E-01  2.62923E+00
  -1.52711E+00  5.69971E-01  8.36493E-01 -3.27333E+00  2.71193E+00  2.58351E-01  3.58529E+00 -1.77305E+00 -2.81926E+00 -2.20489E+00
  -3.98115E+00 -9.48528E-01 -3.55669E+00  9.36451E-01  6.51348E+00  1.84218E+00 -2.81332E-01  7.07925E-01  2.30435E+00  8.38698E-02
   2.78983E+00  1.13157E+00 -6.25559E-01 -9.21017E-01  2.35037E+00 -3.94710E-03  1.02795E+00  4.56434E-01
 NY points of the fit to the data follow
   2.81689E+00  2.74255E+00  2.77695E+00  3.02898E+00  3.48671E+00  4.11411E+00  4.87359E+00  5.68191E+00  6.43184E+00  7.00540E+00
   7.29891E+00  7.27229E+00  6.95634E+00  6.43625E+00  5.81697E+00  5.18184E+00  4.58337E+00  4.05204E+00  3.58252E+00  3.19280E+00
   2.94789E+00  2.86213E+00  2.74185E+00  2.48100E+00  2.13762E+00  1.82612E+00  1.64050E+00  1.63807E+00  1.82769E+00  2.17105E+00
   2.57012E+00  2.92364E+00  3.16271E+00  3.26793E+00  3.28197E+00  3.24939E+00  3.15172E+00  2.98461E+00  2.77225E+00  2.55953E+00
   2.39512E+00  2.34183E+00  2.47974E+00  2.79757E+00  3.18567E+00  3.53109E+00  3.74406E+00  3.78044E+00  3.65146E+00  3.42254E+00
   3.15253E+00  2.87976E+00  2.63886E+00  2.43925E+00  2.27854E+00  2.15879E+00  2.10513E+00  2.14043E+00  2.23691E+00  2.33190E+00
   2.38295E+00  2.38654E+00  2.35536E+00  2.30764E+00  2.26360E+00  2.23358E+00  2.21728E+00  2.21621E+00  2.23987E+00  2.29865E+00
   2.38922E+00  2.49262E+00  2.58286E+00  2.63391E+00  2.63673E+00  2.59406E+00  2.51959E+00  2.43677E+00  2.38036E+00  2.37325E+00
   2.40076E+00  2.45141E+00  2.51597E+00  2.56912E+00  2.59360E+00  2.58835E+00  2.54834E+00  2.46427E+00  2.34821E+00  2.21836E+00
   2.08994E+00  1.97981E+00  1.89580E+00  1.84747E+00  1.88364E+00  2.16111E+00  2.80887E+00  3.76242E+00  4.92716E+00  6.21910E+00
   7.51754E+00  8.65758E+00  9.46490E+00  9.81073E+00  9.66687E+00  9.11065E+00  8.28133E+00  7.30729E+00  6.26548E+00  5.18219E+00
   4.06697E+00  2.99684E+00  2.14422E+00  1.70142E+00  1.60134E+00  1.60420E+00  1.64032E+00  1.71507E+00  1.91061E+00  2.38385E+00
   3.14585E+00  4.15473E+00  5.35675E+00  6.64614E+00  7.86654E+00  8.83900E+00  9.41155E+00  9.51517E+00  9.18305E+00  8.52215E+00
   7.66143E+00  6.69552E+00  5.66467E+00  4.58386E+00  3.49897E+00  2.53329E+00  1.88597E+00  1.64583E+00  1.57502E+00  1.54070E+00
   1.52136E+00  1.51096E+00  1.50430E+00  1.49694E+00  1.48538E+00  1.46816E+00  1.44611E+00  1.41888E+00  1.38915E+00  1.36155E+00
   1.33713E+00  1.31369E+00  1.28527E+00  1.24216E+00  1.18016E+00  1.10256E+00  1.01448E+00  9.25526E-01  8.42036E-01  7.69962E-01
   7.17711E-01  6.87998E-01  6.74382E-01  6.63386E-01  6.40161E-01  5.96119E-01  5.32394E-01  4.55694E-01  3.67687E-01  2.63429E-01
   1.42326E-01 -3.61589E-04 -1.50579E-01 -2.86611E-01 -3.90929E-01 -4.47429E-01 -4.67424E-01 -4.66645E-01 -4.53772E-01 -4.39958E-01
  -4.23578E-01 -3.89387E-01 -3.29165E-01 -2.41902E-01 -1.33053E-01 -1.45891E-02  9.73746E-02  2.05407E-01  3.17569E-01  4.11669E-01
   4.59041E-01  4.39139E-01  3.68503E-01  2.96639E-01  2.72721E-01  3.28755E-01  4.78506E-01  7.38125E-01  1.12320E+00  1.60789E+00
   2.11655E+00  2.54449E+00  2.74297E+00  2.63086E+00  2.22198E+00  1.56491E+00  7.55729E-01 -5.32094E-02 -6.86312E-01 -1.02774E+00
  -1.02489E+00 -6.78077E-01 -6.17115E-02  6.81854E-01  1.39885E+00  1.98582E+00  2.39155E+00  2.59667E+00  2.60476E+00  2.42947E+00
   2.10572E+00  1.80109E+00  1.65413E+00  1.65870E+00  1.80246E+00  2.08512E+00  2.48360E+00  2.89937E+00  3.23521E+00  3.46823E+00
   3.60110E+00  3.62629E+00  3.55358E+00  3.47064E+00  3.49630E+00  3.65339E+00  3.92004E+00  4.25739E+00  4.58813E+00  4.83212E+00
   4.94519E+00  4.92328E+00  4.80796E+00  4.67073E+00  4.56167E+00  4.48386E+00  4.42425E+00  4.43951E+00  4.58825E+00  4.87994E+00
   5.30494E+00  5.86310E+00  6.70073E+00  8.04674E+00  9.89987E+00  1.21979E+01  1.48312E+01  1.75833E+01  2.01305E+01  2.20843E+01
   2.31224E+01  2.31272E+01  2.21955E+01  2.05770E+01  1.85483E+01  1.62897E+01  1.38653E+01  1.12935E+01  8.68759E+00  6.37037E+00
   4.83594E+00  4.17262E+00  3.83853E+00  3.60969E+00  3.43588E+00  3.28773E+00  3.14847E+00  3.01953E+00  2.89949E+00  2.78673E+00
   2.68119E+00  2.58525E+00  2.50248E+00  2.44084E+00  2.40719E+00  2.40260E+00  2.42628E+00  2.47688E+00  2.55165E+00  2.64787E+00
   2.76269E+00  2.89318E+00  3.03839E+00  3.19678E+00  3.36621E+00  3.54481E+00  3.73015E+00  3.91822E+00  4.10441E+00  4.28448E+00
   4.45434E+00  4.60957E+00  4.74645E+00  4.86203E+00  4.95381E+00  5.02062E+00  5.06261E+00  5.08112E+00  5.07867E+00  5.05887E+00
   5.02647E+00  4.98725E+00  4.94795E+00  4.91634E+00  4.90114E+00  4.91256E+00  4.96368E+00  5.07407E+00  5.28243E+00  5.64802E+00
   6.13113E+00  6.64659E+00  7.12599E+00  7.48636E+00  7.63584E+00  7.49390E+00  7.02176E+00  6.33096E+00  5.62344E+00  5.06869E+00
   4.80940E+00  4.92916E+00  5.43593E+00  6.27929E+00  7.37890E+00  8.65898E+00  1.00638E+01  1.15037E+01  1.27777E+01  1.38095E+01
   1.46390E+01  1.52761E+01  1.57015E+01  1.59053E+01  1.59536E+01  1.60306E+01  1.62117E+01  1.64238E+01  1.66235E+01  1.67878E+01
   1.69020E+01  1.69560E+01  1.69426E+01  1.68570E+01  1.66969E+01  1.64621E+01  1.61545E+01  1.57779E+01  1.53380E+01  1.48418E+01
   1.42976E+01  1.37144E+01  1.31017E+01  1.24693E+01  1.18267E+01  1.11829E+01  1.05462E+01  9.92406E+00  9.32286E+00  8.74799E+00
   8.20376E+00  7.69346E+00  7.21946E+00  6.78332E+00  6.38597E+00  6.02776E+00  5.70867E+00  5.42838E+00  5.18642E+00  4.98231E+00
   4.81559E+00  4.68587E+00  4.59287E+00  4.53640E+00  4.51642E+00  4.53291E+00  4.58585E+00  4.67509E+00  4.80023E+00  4.96051E+00
   5.15471E+00  5.38098E+00  5.63672E+00  5.91849E+00  6.22194E+00  6.54179E+00  6.87192E+00  7.20540E+00  7.53468E+00  7.85177E+00
   8.14853E+00  8.41699E+00  8.64962E+00  8.83968E+00  8.98149E+00  9.07068E+00  9.10437E+00  9.08134E+00  9.00200E+00  8.86837E+00
   8.68389E+00  8.45329E+00  8.18233E+00  7.87749E+00  7.54567E+00  7.19389E+00  6.82905E+00  6.45764E+00  6.08561E+00  5.71820E+00
   5.35984E+00  5.01413E+00  4.68383E+00  4.37093E+00  4.07670E+00  3.80179E+00  3.54631E+00  3.30991E+00  3.09195E+00  2.89152E+00
   2.70758E+00  2.53897E+00  2.38448E+00  2.24291E+00  2.11309E+00  1.99393E+00  1.88439E+00  1.78352E+00  1.69045E+00  1.60437E+00
   1.52457E+00  1.45044E+00  1.38141E+00  1.31697E+00  1.25666E+00  1.20008E+00  1.14689E+00  1.09679E+00  1.04948E+00  1.00473E+00
   9.62304E-01  9.22006E-01  8.83670E-01  8.47142E-01  8.12279E-01  7.78944E-01  7.47020E-01  7.16409E-01  6.87024E-01  6.58780E-01
   6.31593E-01  6.05386E-01  5.80096E-01  5.55671E-01  5.32060E-01  5.09210E-01  4.87069E-01  4.65589E-01  4.44736E-01  4.24479E-01
   4.04787E-01  3.85623E-01  3.66950E-01  3.48741E-01  3.30977E-01  3.13639E-01  2.96704E-01  2.80143E-01  2.63932E-01  2.48054E-01
   2.32499E-01  2.17252E-01  2.02293E-01  1.87599E-01  1.73154E-01  1.58949E-01  1.44977E-01  1.31223E-01  1.17669E-01  1.04296E-01
   9.10924E-02  7.80524E-02  6.51667E-02  5.24199E-02  3.97909E-02  2.72634E-02  1.48272E-02  2.47350E-03
 NY background values follow
     8.666E-01    8.632E-01    8.597E-01    8.563E-01    8.529E-01    8.494E-01    8.460E-01    8.426E-01    8.391E-01    8.357E-01
     8.322E-01    8.288E-01    8.253E-01    8.219E-01    8.184E-01    8.150E-01    8.115E-01    8.081E-01    8.046E-01    8.012E-01
     7.977E-01    7.943E-01    7.908E-01    7.873E-01    7.839E-01    7.804E-01    7.770E-01    7.735E-01    7.700E-01    7.666E-01
     7.631E-01    7.596E-01    7.562E-01    7.527E-01    7.492E-01    7.457E-01    7.423E-01    7.388E-01    7.353E-01    7.318E-01
     7.284E-01    7.249E-01    7.214E-01    7.179E-01    7.144E-01    7.109E-01    7.075E-01    7.040E-01    7.005E-01    6.970E-01
     6.935E-01    6.900E-01    6.865E-01    6.830E-01    6.795E-01    6.760E-01    6.725E-01    6.690E-01    6.656E-01    6.621E-01
     6.586E-01    6.551E-01    6.516E-01    6.480E-01    6.445E-01    6.410E-01    6.375E-01    6.340E-01    6.305E-01    6.270E-01
     6.235E-01    6.200E-01    6.165E-01    6.130E-01    6.095E-01    6.059E-01    6.024E-01    5.989E-01    5.954E-01    5.919E-01
     5.884E-01    5.848E-01    5.813E-01    5.778E-01    5.743E-01    5.708E-01    5.672E-01    5.637E-01    5.602E-01    5.567E-01
     5.531E-01    5.496E-01    5.461E-01    5.426E-01    5.390E-01    5.355E-01    5.320E-01    5.284E-01    5.249E-01    5.214E-01
     5.178E-01    5.143E-01    5.108E-01    5.072E-01    5.037E-01    5.001E-01    4.966E-01    4.931E-01    4.895E-01    4.860E-01
     4.825E-01    4.789E-01    4.754E-01    4.718E-01    4.683E-01    4.647E-01    4.612E-01    4.576E-01    4.541E-01    4.506E-01
     4.470E-01    4.435E-01    4.399E-01    4.364E-01    4.328E-01    4.293E-01    4.257E-01    4.222E-01    4.186E-01    4.150E-01
     4.115E-01    4.079E-01    4.044E-01    4.008E-01    3.973E-01    3.937E-01    3.902E-01    3.866E-01    3.830E-01    3.795E-01
     3.759E-01    3.724E-01    3.688E-01    3.653E-01    3.617E-01    3.581E-01    3.546E-01    3.510E-01    3.474E-01    3.439E-01
     3.403E-01    3.368E-01    3.332E-01    3.296E-01    3.261E-01    3.225E-01    3.189E-01    3.154E-01    3.118E-01    3.082E-01
     3.047E-01    3.011E-01    2.975E-01    2.940E-01    2.904E-01    2.868E-01    2.832E-01    2.797E-01    2.761E-01    2.725E-01
     2.690E-01    2.654E-01    2.618E-01    2.583E-01    2.547E-01    2.511E-01    2.475E-01    2.440E-01    2.404E-01    2.368E-01
     2.332E-01    2.297E-01    2.261E-01    2.225E-01    2.189E-01    2.154E-01    2.118E-01    2.082E-01    2.046E-01    2.011E-01
     1.975E-01    1.939E-01    1.903E-01    1.868E-01    1.832E-01    1.796E-01    1.760E-01    1.725E-01    1.689E-01    1.653E-01
     1.617E-01    1.581E-01    1.546E-01    1.510E-01    1.474E-01    1.438E-01    1.403E-01    1.367E-01    1.331E-01    1.295E-01
     1.259E-01    1.224E-01    1.188E-01    1.152E-01    1.116E-01    1.080E-01    1.045E-01    1.009E-01    9.730E-02    9.372E-02
     9.014E-02    8.656E-02    8.298E-02    7.940E-02    7.583E-02    7.225E-02    6.867E-02    6.509E-02    6.151E-02    5.793E-02
     5.435E-02    5.077E-02    4.719E-02    4.361E-02    4.003E-02    3.645E-02    3.287E-02    2.929E-02    2.572E-02    2.214E-02
     1.856E-02    1.498E-02    1.140E-02    7.823E-03    4.244E-03    6.663E-04   -2.912E-03   -6.490E-03   -1.007E-02   -1.365E-02
    -1.722E-02   -2.080E-02   -2.438E-02   -2.795E-02   -3.153E-02   -3.511E-02   -3.868E-02   -4.226E-02   -4.584E-02   -4.941E-02
    -5.299E-02   -5.656E-02   -6.014E-02   -6.371E-02   -6.729E-02   -7.086E-02   -7.444E-02   -7.801E-02   -8.158E-02   -8.516E-02
    -8.873E-02   -9.230E-02   -9.588E-02   -9.945E-02   -1.030E-01   -1.066E-01   -1.102E-01   -1.137E-01   -1.173E-01   -1.209E-01
    -1.244E-01   -1.280E-01   -1.316E-01   -1.352E-01   -1.387E-01   -1.423E-01   -1.459E-01   -1.494E-01   -1.530E-01   -1.566E-01
    -1.601E-01   -1.637E-01   -1.673E-01   -1.708E-01   -1.744E-01   -1.780E-01   -1.815E-01   -1.851E-01   -1.887E-01   -1.922E-01
    -1.958E-01   -1.993E-01   -2.029E-01   -2.065E-01   -2.100E-01   -2.136E-01   -2.171E-01   -2.207E-01   -2.243E-01   -2.278E-01
    -2.314E-01   -2.349E-01   -2.385E-01   -2.420E-01   -2.456E-01   -2.492E-01   -2.527E-01   -2.563E-01   -2.598E-01   -2.634E-01
    -2.669E-01   -2.705E-01   -2.740E-01   -2.776E-01   -2.811E-01   -2.847E-01   -2.882E-01   -2.918E-01   -2.953E-01   -2.989E-01
    -3.024E-01   -3.060E-01   -3.095E-01   -3.131E-01   -3.166E-01   -3.201E-01   -3.237E-01   -3.272E-01   -3.308E-01   -3.343E-01
    -3.378E-01   -3.414E-01   -3.449E-01   -3.485E-01   -3.520E-01   -3.555E-01   -3.591E-01   -3.626E-01   -3.661E-01   -3.697E-01
    -3.732E-01   -3.767E-01   -3.803E-01   -3.838E-01   -3.873E-01   -3.909E-01   -3.944E-01   -3.979E-01   -4.014E-01   -4.050E-01
    -4.085E-01   -4.120E-01   -4.155E-01   -4.191E-01   -4.226E-01   -4.261E-01   -4.296E-01   -4.331E-01   -4.367E-01   -4.402E-01
    -4.437E-01   -4.472E-01   -4.507E-01   -4.542E-01   -4.578E-01   -4.613E-01   -4.648E-01   -4.683E-01   -4.718E-01   -4.753E-01
    -4.788E-01   -4.823E-01   -4.858E-01   -4.893E-01   -4.928E-01   -4.963E-01   -4.998E-01   -5.033E-01   -5.068E-01   -5.103E-01
    -5.138E-01   -5.173E-01   -5.208E-01   -5.243E-01   -5.278E-01   -5.313E-01   -5.348E-01   -5.383E-01   -5.418E-01   -5.453E-01
    -5.488E-01   -5.523E-01   -5.557E-01   -5.592E-01   -5.627E-01   -5.662E-01   -5.697E-01   -5.732E-01   -5.766E-01   -5.801E-01
    -5.836E-01   -5.871E-01   -5.905E-01   -5.940E-01   -5.975E-01   -6.010E-01   -6.044E-01   -6.079E-01   -6.114E-01   -6.148E-01
    -6.183E-01   -6.218E-01   -6.252E-01   -6.287E-01   -6.322E-01   -6.356E-01   -6.391E-01   -6.425E-01   -6.460E-01   -6.495E-01
    -6.529E-01   -6.564E-01   -6.598E-01   -6.633E-01   -6.667E-01   -6.702E-01   -6.736E-01   -6.771E-01   -6.805E-01   -6.839E-01
    -6.874E-01   -6.908E-01   -6.943E-01   -6.977E-01   -7.011E-01   -7.046E-01   -7.080E-01   -7.115E-01   -7.149E-01   -7.183E-01
    -7.217E-01   -7.252E-01   -7.286E-01   -7.320E-01   -7.354E-01   -7.389E-01   -7.423E-01   -7.457E-01   -7.491E-01   -7.525E-01
    -7.560E-01   -7.594E-01   -7.628E-01   -7.662E-01   -7.696E-01   -7.730E-01   -7.764E-01   -7.798E-01   -7.832E-01   -7.866E-01
    -7.900E-01   -7.934E-01   -7.968E-01   -8.002E-01   -8.036E-01   -8.070E-01   -8.104E-01   -8.138E-01   -8.172E-01   -8.206E-01
    -8.240E-01   -8.274E-01   -8.307E-01   -8.341E-01   -8.375E-01   -8.409E-01   -8.443E-01   -8.476E-01   -8.510E-01   -8.544E-01
    -8.578E-01   -8.611E-01   -8.645E-01   -8.679E-01   -8.712E-01   -8.746E-01   -8.780E-01   -8.813E-01
 Ala      Conc. = 3.94E+02
