 LCModel (Version 6.3-1L) Copyright: S.W. Provencher.          Ref.: Magn. Reson. Med. 30:672-679 (1993).                
 Slice#1 Row#4 Col#1  PD_24_press_1_raw_act
 36 lines in following concentration table = NCONC+1
    Conc.  %SD /Cr+PCr  Metabolite                                         
   10.062 272%   0.000 Ala                                                 
    5.289  94%   0.000 Asp                                                 
    0.000 999%   0.000 Cr                                                  
    0.000 999%   0.000 PCr                                                 
    3.180  93%   0.000 GABA                                                
    3.195  93%   0.000 Glc                                                 
    0.000 999%   0.000 Gln                                                 
   72.764  85%   0.000 Glu                                                 
    0.000 999%   0.000 GPC                                                 
   10.365  61%   0.000 PCh                                                 
    0.000 999%   0.000 GSH                                                 
  101.264  68%   0.000 Ins                                                 
   20.699 143%   0.000 Lac                                                 
   66.584  36%   0.000 NAA                                                 
    8.661 262%   0.000 NAAG                                                
    0.859 115%   0.000 Scyllo                                              
    5.291  93%   0.000 Tau                                                 
    0.168 999%   0.000 -CrCH2                                              
   10.365  61%   0.000 GPC+PCh                                             
   75.244  36%   0.000 NAA+NAAG                                            
    0.000 999%   0.000 Cr+PCr                                              
   72.764  85%   0.000 Glu+Gln                                             
    0.000 999%   0.000 Lip13a                                              
   26.042 195%   0.000 Lip13b                                              
    7.270 246%   0.000 Lip09                                               
  241.997  23%   0.000 MM09                                                
    4.514 247%   0.000 Lip20                                               
  329.028  31%   0.000 MM20                                                
   71.074  47%   0.000 MM12                                                
  151.173  55%   0.000 MM14                                                
  141.588  45%   0.000 MM17                                                
   26.042 195%   0.000 Lip13a+Lip13b                                       
  248.290  38%   0.000 MM14+Lip13a+Lip13b+MM12                             
  249.267  22%   0.000 MM09+Lip09                                          
  333.542  31%   0.000 MM20+Lip20                                          
   6 lines in following misc. output table
  FWHM = 0.031 ppm    S/N =   2                                            
  Data shift = 0.061 ppm                                                   
  Ph:-118 deg      20.3 deg/ppm                                            
  alphaB,S = 8.5E+01,   6.4E+00                                            
   14 spline knots.   Ns = 5(1)                                            
   1 inflections.     1 extrema                                            
  498 points on ppm-axis = NY
      4.000000     3.992357     3.984714     3.977070     3.969427     3.961784     3.954141     3.946497     3.938854     3.931211
      3.923568     3.915925     3.908281     3.900638     3.892995     3.885352     3.877708     3.870065     3.862422     3.854779
      3.847136     3.839492     3.831849     3.824206     3.816563     3.808919     3.801276     3.793633     3.785990     3.778347
      3.770703     3.763060     3.755417     3.747774     3.740130     3.732487     3.724844     3.717201     3.709558     3.701914
      3.694271     3.686628     3.678985     3.671341     3.663698     3.656055     3.648412     3.640769     3.633125     3.625482
      3.617839     3.610196     3.602552     3.594909     3.587266     3.579623     3.571980     3.564336     3.556693     3.549050
      3.541407     3.533763     3.526120     3.518477     3.510834     3.503191     3.495547     3.487904     3.480261     3.472618
      3.464974     3.457331     3.449688     3.442045     3.434402     3.426758     3.419115     3.411472     3.403829     3.396185
      3.388542     3.380899     3.373256     3.365613     3.357969     3.350326     3.342683     3.335040     3.327396     3.319753
      3.312110     3.304467     3.296824     3.289180     3.281537     3.273894     3.266251     3.258607     3.250964     3.243321
      3.235678     3.228034     3.220391     3.212748     3.205105     3.197462     3.189818     3.182175     3.174532     3.166889
      3.159245     3.151602     3.143959     3.136316     3.128673     3.121029     3.113386     3.105743     3.098100     3.090456
      3.082813     3.075170     3.067527     3.059884     3.052240     3.044597     3.036954     3.029311     3.021667     3.014024
      3.006381     2.998738     2.991095     2.983451     2.975808     2.968165     2.960522     2.952878     2.945235     2.937592
      2.929949     2.922306     2.914662     2.907019     2.899376     2.891733     2.884089     2.876446     2.868803     2.861160
      2.853517     2.845873     2.838230     2.830587     2.822944     2.815300     2.807657     2.800014     2.792371     2.784728
      2.777084     2.769441     2.761798     2.754155     2.746511     2.738868     2.731225     2.723582     2.715939     2.708295
      2.700652     2.693009     2.685366     2.677722     2.670079     2.662436     2.654793     2.647150     2.639506     2.631863
      2.624220     2.616577     2.608933     2.601290     2.593647     2.586004     2.578361     2.570717     2.563074     2.555431
      2.547788     2.540144     2.532501     2.524858     2.517215     2.509572     2.501928     2.494285     2.486642     2.478999
      2.471355     2.463712     2.456069     2.448426     2.440783     2.433139     2.425496     2.417853     2.410210     2.402566
      2.394923     2.387280     2.379637     2.371994     2.364350     2.356707     2.349064     2.341421     2.333777     2.326134
      2.318491     2.310848     2.303205     2.295561     2.287918     2.280275     2.272632     2.264988     2.257345     2.249702
      2.242059     2.234416     2.226772     2.219129     2.211486     2.203843     2.196199     2.188556     2.180913     2.173270
      2.165627     2.157983     2.150340     2.142697     2.135054     2.127410     2.119767     2.112124     2.104481     2.096838
      2.089194     2.081551     2.073908     2.066265     2.058621     2.050978     2.043335     2.035692     2.028049     2.020405
      2.012762     2.005119     1.997476     1.989833     1.982190     1.974546     1.966903     1.959260     1.951617     1.943974
      1.936331     1.928688     1.921045     1.913402     1.905759     1.898115     1.890472     1.882829     1.875186     1.867543
      1.859900     1.852257     1.844614     1.836971     1.829327     1.821684     1.814041     1.806398     1.798755     1.791112
      1.783469     1.775826     1.768183     1.760540     1.752896     1.745253     1.737610     1.729967     1.722324     1.714681
      1.707038     1.699395     1.691752     1.684108     1.676465     1.668822     1.661179     1.653536     1.645893     1.638250
      1.630607     1.622964     1.615321     1.607677     1.600034     1.592391     1.584748     1.577105     1.569462     1.561819
      1.554176     1.546533     1.538890     1.531246     1.523603     1.515960     1.508317     1.500674     1.493031     1.485388
      1.477745     1.470102     1.462458     1.454815     1.447172     1.439529     1.431886     1.424243     1.416600     1.408957
      1.401314     1.393671     1.386027     1.378384     1.370741     1.363098     1.355455     1.347812     1.340169     1.332526
      1.324883     1.317240     1.309596     1.301953     1.294310     1.286667     1.279024     1.271381     1.263738     1.256095
      1.248452     1.240808     1.233165     1.225522     1.217879     1.210236     1.202593     1.194950     1.187307     1.179664
      1.172021     1.164377     1.156734     1.149091     1.141448     1.133805     1.126162     1.118519     1.110876     1.103233
      1.095590     1.087946     1.080303     1.072660     1.065017     1.057374     1.049731     1.042088     1.034445     1.026802
      1.019158     1.011515     1.003872     0.996229     0.988586     0.980943     0.973300     0.965657     0.958014     0.950371
      0.942727     0.935084     0.927441     0.919798     0.912155     0.904512     0.896869     0.889226     0.881583     0.873940
      0.866296     0.858653     0.851010     0.843367     0.835724     0.828081     0.820438     0.812795     0.805152     0.797508
      0.789865     0.782222     0.774579     0.766936     0.759293     0.751650     0.744007     0.736364     0.728721     0.721077
      0.713434     0.705791     0.698148     0.690505     0.682862     0.675219     0.667576     0.659933     0.652290     0.644646
      0.637003     0.629360     0.621717     0.614074     0.606431     0.598788     0.591145     0.583502     0.575858     0.568215
      0.560572     0.552929     0.545286     0.537643     0.530000     0.522357     0.514714     0.507071     0.499427     0.491784
      0.484141     0.476498     0.468855     0.461212     0.453569     0.445925     0.438282     0.430639     0.422996     0.415353
      0.407710     0.400067     0.392424     0.384780     0.377137     0.369494     0.361851     0.354208     0.346565     0.338922
      0.331278     0.323635     0.315992     0.308349     0.300706     0.293063     0.285420     0.277777     0.270133     0.262490
      0.254847     0.247204     0.239561     0.231918     0.224275     0.216631     0.208988     0.201345
 NY phased data points follow
  -4.02681E-01  2.67181E+00  3.50589E+00  1.65539E+00  5.19384E+00 -4.77419E-01  8.61195E-02 -1.40424E+00  2.13600E+00 -9.53130E-01
   5.27758E-01  1.45792E+00  3.30057E-01 -1.01931E-01 -2.46731E-01  1.89886E+00  1.36927E+00  4.85769E-01  1.13823E+00 -7.39144E-01
   1.18062E+00  9.03238E-01  1.92709E+00  4.38337E-01  1.06396E+00 -4.82663E-01 -8.76371E-01  2.89471E+00 -2.63185E-01 -5.65395E-01
   1.53976E+00  1.47017E+00 -2.71902E+00  2.04772E+00  3.18156E+00  2.01357E-01 -8.29216E-01  9.57414E-01  1.57092E-01 -6.37768E-02
   1.80707E-01  3.88248E+00  2.63370E+00 -4.03868E-01 -5.88990E-01  4.51821E+00  3.79718E-01  7.22441E-01  1.92570E+00  2.38293E+00
   2.28191E+00 -3.28895E-01 -8.25786E-01  4.62919E-01  5.58628E-01  2.18281E+00  1.67920E+00  1.28632E+00  1.27507E+00  4.36504E+00
   3.07483E+00  6.07949E-01  7.13338E-01 -2.53702E+00  2.36301E+00  1.14701E-01  3.32341E+00  4.94597E-01 -3.28649E-01  3.01823E+00
  -3.97345E+00  8.57474E-01 -2.72780E-01  2.20932E-01  1.91022E+00  1.04072E+00  2.27785E+00  2.90039E+00 -8.24155E-01  1.06509E+00
   1.13218E+00  6.26233E-01  1.14001E+00 -2.05629E-01 -1.41842E+00  2.72723E-02 -3.64910E+00 -1.89963E-01  1.61810E+00  7.56817E-01
   2.68593E-01  1.04058E+00  1.49870E+00  2.25542E+00  1.27048E+00  1.98240E+00  3.68038E+00  2.25288E+00  1.39121E+00  6.47601E-01
  -1.55754E+00 -1.09428E-03  1.95528E+00  3.08674E+00  3.24304E+00  2.92574E-01 -3.14902E-01  4.51503E-01  2.55240E+00 -9.80171E-02
  -1.57993E+00  1.15345E+00 -2.50059E-02  1.43237E+00  2.57405E+00 -7.28798E-01 -9.23768E-01  6.30405E-01  2.50048E+00 -1.76578E+00
   1.19368E+00  2.05921E+00  4.19640E-01  2.65655E+00 -4.53936E-01 -3.40520E-01 -2.48809E-01  3.34185E+00 -1.27193E+00  8.21108E-01
  -9.45511E-01  2.05330E+00  2.10806E+00  2.36235E+00 -2.16010E+00 -1.09186E+00  1.40473E+00  1.81526E+00  3.42702E-01  6.97062E-01
  -1.67053E+00  1.21688E+00  2.03016E+00 -7.66480E-02  3.67062E+00  1.96136E-01  1.80945E+00 -1.28329E-01  1.16070E+00  1.08661E+00
   7.59927E-01  2.05037E+00  9.22853E-01 -1.58080E+00  1.88532E+00 -8.61044E-02  2.80440E+00  2.12502E+00  3.62132E+00  2.99854E+00
   1.22616E+00  1.33005E-01 -5.04192E-01  1.29683E+00  1.18945E+00  1.37324E+00  1.61176E+00  2.99478E-01  3.43784E+00  1.64404E+00
   2.19904E+00  7.72800E-01  2.12015E+00 -3.92849E-01 -1.76729E-01  2.46939E+00  1.87033E+00  8.54786E-01  4.20800E+00  1.07029E+00
  -1.21447E+00  9.95248E-01 -5.32995E-02  6.35527E-01 -4.37038E-01 -1.11646E+00  1.01457E+00  1.55744E+00  7.08966E-01 -2.79567E-01
  -2.85290E+00 -2.95897E-01 -2.63622E-01  2.03072E-02  2.38642E+00  1.63458E+00  1.87365E+00  1.60642E+00  2.04491E+00  7.56337E-02
  -6.31360E-01 -2.32215E+00 -9.24316E-01 -3.79652E-01 -1.22576E+00 -1.29070E+00 -7.93349E-01  1.33643E+00  1.13625E+00  3.44197E+00
   3.30416E+00 -4.46070E-01 -4.55142E-01  1.10900E+00  2.25281E+00  2.93485E+00  2.43463E+00 -2.11182E+00  1.21346E+00  1.20230E+00
   1.57783E-01 -1.16174E+00  2.24208E-01  3.66424E+00  1.03207E+00  3.08553E+00 -1.48577E+00  2.85307E+00  1.76402E+00  7.81435E-01
   1.70831E+00  4.66276E+00 -7.85507E-01  3.87803E+00 -3.17958E+00  7.71005E-01 -7.53316E-01 -1.86454E-01  1.02326E+00  1.31279E+00
   1.82677E+00  2.13165E+00 -1.71822E+00  4.00621E+00  2.36741E+00  4.20277E-01  1.37180E+00  1.72373E+00  4.70873E-02 -1.19730E+00
  -5.41873E-01  7.29716E-01  2.66908E+00  6.63500E+00  3.06338E+00  5.35877E+00  1.56695E+00 -3.99057E-01  2.59319E+00  4.83186E+00
   7.19567E+00  4.48958E+00  2.96808E+00  3.07864E+00  2.37358E+00  1.20519E+00  6.04498E-02  2.67345E+00  2.57877E+00  6.78559E-01
  -2.11961E+00  9.25159E-01 -8.26151E-01  1.94987E+00 -1.44963E+00  1.47895E+00  2.77736E+00  2.53181E+00  1.45381E+00  2.65817E-01
   2.33465E+00  2.63578E+00  1.14172E+00  1.22835E+00  3.13873E+00  2.48557E+00 -6.61229E-02  5.56825E-01  3.83552E+00  1.25274E+00
   9.40323E-01  1.46478E+00 -9.77087E-01  2.84631E+00 -1.39815E+00 -5.52917E-01  2.67496E+00  1.88745E-01  1.93329E+00  1.74154E+00
   1.92945E+00 -1.07139E-01 -4.87772E-01  3.83801E+00  2.65207E+00 -8.17496E-02 -2.07586E+00  6.91161E-02  2.05472E+00  1.70093E+00
   3.74762E+00 -2.80348E+00  1.30598E+00  3.12895E+00  8.24651E-01  8.16831E-02  5.63847E+00  5.11867E+00  6.07636E-01 -2.23647E+00
   3.04591E+00  5.34795E-03  1.03077E+00  1.14607E+00  1.21200E+00  1.56080E+00 -3.20998E-03  2.88112E-01  2.60466E+00 -3.65030E-01
   2.80584E-01  3.07026E+00 -2.73782E-01  2.83453E-01  2.45410E+00  1.91754E-01  1.89735E+00  3.40621E+00  6.93141E-02  1.75264E+00
   2.98081E+00  1.88617E-01 -2.38367E+00 -3.04911E-01  4.18095E-01  6.41928E-01  1.94490E+00  7.61587E-01  7.81623E-01 -1.28000E+00
   2.76828E+00 -1.60526E+00  2.04788E+00 -1.98059E+00  2.76287E+00 -7.31574E-02  1.87965E+00  1.94155E-01  1.31620E+00  3.40290E-01
   3.38863E+00  1.61514E+00  5.56227E+00 -7.44591E-01  1.09556E+00 -1.53973E+00  1.49561E+00 -8.59690E-03 -3.32159E-01  2.56020E+00
  -2.22640E+00  4.40428E-02  9.57604E-01  4.04633E-01 -1.52632E+00 -6.27267E-01  7.17969E-01  1.62379E+00  1.34066E+00  1.20789E+00
   2.62147E+00 -5.45359E-01  2.42785E+00  3.43108E+00  3.47035E+00  8.23114E-01  5.04201E-02  3.24501E+00  5.19387E-01 -4.98768E-01
   9.28835E-01  1.38731E-01 -6.02189E-01  1.01659E+00  2.29159E-01  2.07740E+00 -1.29486E+00  1.31115E+00  2.60011E+00  2.40388E+00
  -1.37095E+00  3.87770E-01  1.75068E+00  1.18191E+00  1.72522E+00  4.05872E+00  2.14608E+00  2.95107E+00  4.59992E+00  2.60546E+00
   2.45473E+00  3.62275E+00  2.97472E+00  4.61964E+00  8.93853E-01  3.14283E-01  2.64552E+00  2.64881E+00 -3.56640E-01  1.42064E+00
   9.80955E-01 -1.69670E-01 -6.31692E-01  3.95537E-01 -2.91248E+00  1.25142E+00  2.65368E+00 -2.26576E+00  1.22992E+00  8.72698E-01
   1.18726E-01 -5.52023E-01 -6.03787E-01  1.71187E+00  3.78095E-01  2.36628E-01  6.21439E-01  2.13102E-02 -1.82428E+00  5.03939E-01
  -1.56502E+00  1.10189E+00 -2.75402E+00 -1.57328E+00  5.16021E-01  1.77030E+00 -1.12993E+00  1.20563E+00 -9.07217E-01  1.37513E+00
   2.73990E+00 -3.92631E-02  6.17451E-01  1.90039E+00  1.58006E+00 -5.21050E-01 -1.37440E+00  1.51823E+00 -1.84178E+00  1.74312E+00
  -1.51298E+00  3.16653E-01  2.78592E+00  2.15201E+00  1.16322E-01 -1.62187E+00  2.14515E+00 -2.35889E+00 -1.64911E+00  1.36679E+00
   2.75089E+00 -5.55602E-01  2.04926E+00  2.25788E+00  9.46655E-01 -3.19497E+00  2.15543E+00 -1.26621E-01  8.80029E-01 -2.45125E-01
  -1.82638E-01 -2.11811E+00  1.21730E+00 -1.76019E-01  1.93571E+00  5.77453E-01 -1.07687E+00 -1.03491E+00  3.85952E-01 -2.84121E+00
  -1.81097E-01  1.65649E+00 -1.54461E+00  1.51704E+00 -8.55972E-01 -1.55797E-01 -6.71841E-01 -1.56362E+00
 NY points of the fit to the data follow
   8.34599E-01  8.10757E-01  7.96109E-01  7.93020E-01  7.96636E-01  7.97591E-01  7.88717E-01  7.73559E-01  7.63832E-01  7.69180E-01
   7.83912E-01  7.94748E-01  7.95234E-01  7.93362E-01  7.97628E-01  8.00228E-01  7.93052E-01  7.80123E-01  7.78173E-01  7.98616E-01
   8.34517E-01  8.71436E-01  9.10482E-01  9.72530E-01  1.02627E+00  9.76289E-01  8.12537E-01  6.41007E-01  5.66464E-01  6.21976E-01
   7.81037E-01  1.01801E+00  1.23863E+00  1.31409E+00  1.22495E+00  1.08137E+00  9.47024E-01  8.29354E-01  7.39214E-01  7.07849E-01
   7.31304E-01  7.68046E-01  7.87490E-01  7.91898E-01  9.30540E-01  1.37045E+00  1.94391E+00  2.19682E+00  1.89637E+00  1.29019E+00
   7.97555E-01  5.81397E-01  5.34667E-01  5.56702E-01  6.23662E-01  6.90107E-01  7.56701E-01  8.81070E-01  1.06902E+00  1.24345E+00
   1.28798E+00  1.17367E+00  9.76701E-01  7.88589E-01  6.79714E-01  6.67085E-01  7.33335E-01  8.22064E-01  8.80747E-01  9.35667E-01
   1.01137E+00  1.06990E+00  1.06354E+00  1.00993E+00  9.58451E-01  9.25407E-01  8.91334E-01  8.48053E-01  8.11471E-01  7.92154E-01
   7.88079E-01  7.89907E-01  7.91154E-01  8.00631E-01  7.87171E-01  6.96408E-01  5.27196E-01  3.70751E-01  3.24944E-01  3.99197E-01
   5.25621E-01  6.48361E-01  7.39005E-01  8.06455E-01  8.57167E-01  8.65474E-01  8.19408E-01  7.42242E-01  6.82105E-01  6.20347E-01
   6.99639E-01  1.24998E+00  2.03242E+00  2.43304E+00  2.16347E+00  1.55242E+00  1.07805E+00  8.60833E-01  7.55185E-01  6.85618E-01
   6.70034E-01  6.80522E-01  6.95519E-01  7.07302E-01  7.15894E-01  7.22199E-01  7.27276E-01  7.29718E-01  7.30515E-01  7.35205E-01
   7.44965E-01  7.55667E-01  7.64279E-01  7.73136E-01  7.86294E-01  8.03372E-01  8.17920E-01  8.26625E-01  8.32081E-01  8.35650E-01
   8.35049E-01  8.27287E-01  8.12271E-01  7.97601E-01  7.88444E-01  7.81523E-01  7.74175E-01  7.67507E-01  7.63697E-01  7.58120E-01
   7.44534E-01  7.25866E-01  7.10625E-01  7.04891E-01  7.04972E-01  7.00617E-01  6.86782E-01  6.67616E-01  6.50130E-01  6.37395E-01
   6.28421E-01  6.19205E-01  6.06633E-01  5.93115E-01  5.83623E-01  5.80990E-01  5.86040E-01  5.94369E-01  5.75641E-01  5.15986E-01
   4.50584E-01  4.25466E-01  4.69556E-01  5.46844E-01  5.90145E-01  5.74271E-01  5.26659E-01  4.82958E-01  4.58166E-01  4.49374E-01
   4.49557E-01  4.54914E-01  4.57847E-01  4.37883E-01  3.84190E-01  3.45056E-01  3.68452E-01  4.44575E-01  4.97352E-01  4.76812E-01
   4.22669E-01  4.04652E-01  4.41751E-01  4.96498E-01  5.09706E-01  4.75592E-01  4.60143E-01  5.05765E-01  5.85814E-01  6.46874E-01
   6.65215E-01  6.58012E-01  6.47596E-01  6.42155E-01  6.63135E-01  7.02902E-01  7.20976E-01  6.99091E-01  6.58984E-01  6.28055E-01
   6.15700E-01  6.43473E-01  7.14269E-01  8.03079E-01  8.36679E-01  7.99059E-01  7.29289E-01  6.44364E-01  5.54371E-01  4.86208E-01
   4.55142E-01  4.73212E-01  5.73227E-01  8.64572E-01  1.24247E+00  1.43583E+00  1.31099E+00  1.00663E+00  7.26569E-01  4.59446E-01
   1.37079E-01 -7.95438E-02  3.39305E-02  4.16292E-01  8.18825E-01  1.06945E+00  1.18376E+00  1.23990E+00  1.24209E+00  1.18663E+00
   1.12485E+00  1.10545E+00  1.13545E+00  1.19696E+00  1.26481E+00  1.32052E+00  1.36455E+00  1.38284E+00  1.37523E+00  1.35540E+00
   1.32649E+00  1.32539E+00  1.40301E+00  1.54936E+00  1.69018E+00  1.78129E+00  1.83175E+00  1.84795E+00  1.80662E+00  1.72027E+00
   1.67230E+00  1.70988E+00  1.79359E+00  1.95961E+00  2.21501E+00  2.40290E+00  2.26616E+00  2.24977E+00  3.29701E+00  4.92517E+00
   5.69684E+00  4.98049E+00  3.54228E+00  2.41716E+00  1.83600E+00  1.49143E+00  1.24568E+00  1.12314E+00  1.04680E+00  9.78029E-01
   9.25834E-01  9.02743E-01  9.06701E-01  9.18892E-01  9.17168E-01  8.95583E-01  8.64472E-01  8.32169E-01  7.98918E-01  7.67222E-01
   7.44081E-01  7.33356E-01  7.31563E-01  7.33977E-01  7.39359E-01  7.47507E-01  7.57514E-01  7.69458E-01  7.84090E-01  8.02999E-01
   8.27548E-01  8.57161E-01  8.89894E-01  9.23687E-01  9.57887E-01  9.92976E-01  1.02793E+00  1.06129E+00  1.09305E+00  1.12351E+00
   1.15211E+00  1.17749E+00  1.19821E+00  1.21340E+00  1.22270E+00  1.22599E+00  1.22359E+00  1.21598E+00  1.20370E+00  1.18748E+00
   1.16810E+00  1.14637E+00  1.12326E+00  1.09983E+00  1.07714E+00  1.05617E+00  1.03770E+00  1.02246E+00  1.01114E+00  1.00440E+00
   1.00283E+00  1.00710E+00  1.01699E+00  1.03241E+00  1.08974E+00  1.17694E+00  1.20209E+00  1.11715E+00  9.80125E-01  8.86278E-01
   8.64513E-01  8.52938E-01  8.32610E-01  8.86360E-01  1.03481E+00  1.19152E+00  1.26485E+00  1.24965E+00  1.20536E+00  1.17193E+00
   1.14712E+00  1.12729E+00  1.11812E+00  1.11611E+00  1.19140E+00  1.35090E+00  1.40946E+00  1.23676E+00  9.27140E-01  6.89060E-01
   6.08120E-01  5.63962E-01  5.51772E-01  7.17415E-01  1.04685E+00  1.33488E+00  1.42588E+00  1.35487E+00  1.24600E+00  1.15663E+00
   1.07228E+00  9.92141E-01  9.25257E-01  8.69515E-01  8.22528E-01  7.83318E-01  7.51058E-01  7.24739E-01  7.03235E-01  6.85441E-01
   6.70416E-01  6.57463E-01  6.46148E-01  6.36272E-01  6.27828E-01  6.20951E-01  6.15879E-01  6.12937E-01  6.12511E-01  6.15034E-01
   6.20965E-01  6.30777E-01  6.44963E-01  6.64037E-01  6.88536E-01  7.19002E-01  7.55947E-01  7.99833E-01  8.51047E-01  9.09871E-01
   9.76453E-01  1.05074E+00  1.13242E+00  1.22089E+00  1.31523E+00  1.41416E+00  1.51610E+00  1.61909E+00  1.72090E+00  1.81903E+00
   1.91088E+00  1.99379E+00  2.06523E+00  2.12286E+00  2.16467E+00  2.18909E+00  2.19511E+00  2.18235E+00  2.15103E+00  2.10199E+00
   2.03661E+00  1.95679E+00  1.86480E+00  1.76319E+00  1.65462E+00  1.54175E+00  1.42712E+00  1.31306E+00  1.20163E+00  1.09455E+00
   9.93152E-01  8.98412E-01  8.10941E-01  7.31055E-01  6.58808E-01  5.94027E-01  5.36357E-01  4.85314E-01  4.40344E-01  4.00869E-01
   3.66308E-01  3.36089E-01  3.09658E-01  2.86500E-01  2.66164E-01  2.48260E-01  2.32450E-01  2.18427E-01  2.05921E-01  1.94702E-01
   1.84589E-01  1.75439E-01  1.67125E-01  1.59526E-01  1.52535E-01  1.46072E-01  1.40078E-01  1.34508E-01  1.29313E-01  1.24441E-01
   1.19846E-01  1.15500E-01  1.11388E-01  1.07495E-01  1.03796E-01  1.00259E-01  9.68653E-02  9.36066E-02  9.04830E-02  8.74858E-02
   8.45957E-02  8.17926E-02  7.90695E-02  7.64306E-02  7.38787E-02  7.14049E-02  6.89916E-02  6.66265E-02  6.43111E-02  6.20541E-02
   5.98568E-02  5.77076E-02  5.55921E-02  5.35055E-02  5.14555E-02  4.94498E-02  4.74854E-02  4.55491E-02  4.36303E-02  4.17304E-02
   3.98599E-02  3.80242E-02  3.62166E-02  3.44236E-02  3.26396E-02  3.08711E-02  2.91290E-02  2.74145E-02  2.57174E-02  2.40260E-02
   2.23400E-02  2.06692E-02  1.90230E-02  1.73984E-02  1.57833E-02  1.41692E-02  1.25605E-02  1.09691E-02
 NY background values follow
     6.660E-01    6.647E-01    6.634E-01    6.621E-01    6.608E-01    6.595E-01    6.582E-01    6.569E-01    6.556E-01    6.543E-01
     6.530E-01    6.517E-01    6.504E-01    6.491E-01    6.478E-01    6.464E-01    6.451E-01    6.438E-01    6.425E-01    6.412E-01
     6.399E-01    6.386E-01    6.373E-01    6.360E-01    6.347E-01    6.334E-01    6.321E-01    6.308E-01    6.295E-01    6.282E-01
     6.268E-01    6.255E-01    6.242E-01    6.229E-01    6.216E-01    6.203E-01    6.190E-01    6.177E-01    6.164E-01    6.150E-01
     6.137E-01    6.124E-01    6.111E-01    6.098E-01    6.085E-01    6.072E-01    6.059E-01    6.045E-01    6.032E-01    6.019E-01
     6.006E-01    5.993E-01    5.980E-01    5.967E-01    5.953E-01    5.940E-01    5.927E-01    5.914E-01    5.901E-01    5.888E-01
     5.874E-01    5.861E-01    5.848E-01    5.835E-01    5.822E-01    5.808E-01    5.795E-01    5.782E-01    5.769E-01    5.756E-01
     5.742E-01    5.729E-01    5.716E-01    5.703E-01    5.690E-01    5.676E-01    5.663E-01    5.650E-01    5.637E-01    5.623E-01
     5.610E-01    5.597E-01    5.584E-01    5.571E-01    5.557E-01    5.544E-01    5.531E-01    5.518E-01    5.504E-01    5.491E-01
     5.478E-01    5.465E-01    5.451E-01    5.438E-01    5.425E-01    5.411E-01    5.398E-01    5.385E-01    5.372E-01    5.358E-01
     5.345E-01    5.332E-01    5.318E-01    5.305E-01    5.292E-01    5.279E-01    5.265E-01    5.252E-01    5.239E-01    5.225E-01
     5.212E-01    5.199E-01    5.185E-01    5.172E-01    5.159E-01    5.145E-01    5.132E-01    5.119E-01    5.105E-01    5.092E-01
     5.079E-01    5.065E-01    5.052E-01    5.039E-01    5.025E-01    5.012E-01    4.999E-01    4.985E-01    4.972E-01    4.959E-01
     4.945E-01    4.932E-01    4.919E-01    4.905E-01    4.892E-01    4.878E-01    4.865E-01    4.852E-01    4.838E-01    4.825E-01
     4.812E-01    4.798E-01    4.785E-01    4.771E-01    4.758E-01    4.745E-01    4.731E-01    4.718E-01    4.704E-01    4.691E-01
     4.678E-01    4.664E-01    4.651E-01    4.637E-01    4.624E-01    4.611E-01    4.597E-01    4.584E-01    4.570E-01    4.557E-01
     4.543E-01    4.530E-01    4.517E-01    4.503E-01    4.490E-01    4.476E-01    4.463E-01    4.449E-01    4.436E-01    4.422E-01
     4.409E-01    4.396E-01    4.382E-01    4.369E-01    4.355E-01    4.342E-01    4.328E-01    4.315E-01    4.301E-01    4.288E-01
     4.274E-01    4.261E-01    4.247E-01    4.234E-01    4.220E-01    4.207E-01    4.193E-01    4.180E-01    4.166E-01    4.153E-01
     4.139E-01    4.126E-01    4.112E-01    4.099E-01    4.085E-01    4.072E-01    4.058E-01    4.045E-01    4.031E-01    4.018E-01
     4.004E-01    3.991E-01    3.977E-01    3.964E-01    3.950E-01    3.937E-01    3.923E-01    3.910E-01    3.896E-01    3.883E-01
     3.869E-01    3.856E-01    3.842E-01    3.829E-01    3.815E-01    3.801E-01    3.788E-01    3.774E-01    3.761E-01    3.747E-01
     3.734E-01    3.720E-01    3.707E-01    3.693E-01    3.679E-01    3.666E-01    3.652E-01    3.639E-01    3.625E-01    3.612E-01
     3.598E-01    3.585E-01    3.571E-01    3.557E-01    3.544E-01    3.530E-01    3.517E-01    3.503E-01    3.489E-01    3.476E-01
     3.462E-01    3.449E-01    3.435E-01    3.421E-01    3.408E-01    3.394E-01    3.381E-01    3.367E-01    3.353E-01    3.340E-01
     3.326E-01    3.313E-01    3.299E-01    3.285E-01    3.272E-01    3.258E-01    3.245E-01    3.231E-01    3.217E-01    3.204E-01
     3.190E-01    3.176E-01    3.163E-01    3.149E-01    3.136E-01    3.122E-01    3.108E-01    3.095E-01    3.081E-01    3.067E-01
     3.054E-01    3.040E-01    3.026E-01    3.013E-01    2.999E-01    2.986E-01    2.972E-01    2.958E-01    2.945E-01    2.931E-01
     2.917E-01    2.904E-01    2.890E-01    2.876E-01    2.863E-01    2.849E-01    2.835E-01    2.822E-01    2.808E-01    2.794E-01
     2.781E-01    2.767E-01    2.753E-01    2.740E-01    2.726E-01    2.712E-01    2.699E-01    2.685E-01    2.671E-01    2.658E-01
     2.644E-01    2.630E-01    2.616E-01    2.603E-01    2.589E-01    2.575E-01    2.562E-01    2.548E-01    2.534E-01    2.521E-01
     2.507E-01    2.493E-01    2.480E-01    2.466E-01    2.452E-01    2.438E-01    2.425E-01    2.411E-01    2.397E-01    2.384E-01
     2.370E-01    2.356E-01    2.342E-01    2.329E-01    2.315E-01    2.301E-01    2.288E-01    2.274E-01    2.260E-01    2.246E-01
     2.233E-01    2.219E-01    2.205E-01    2.192E-01    2.178E-01    2.164E-01    2.150E-01    2.137E-01    2.123E-01    2.109E-01
     2.095E-01    2.082E-01    2.068E-01    2.054E-01    2.040E-01    2.027E-01    2.013E-01    1.999E-01    1.985E-01    1.972E-01
     1.958E-01    1.944E-01    1.930E-01    1.917E-01    1.903E-01    1.889E-01    1.875E-01    1.862E-01    1.848E-01    1.834E-01
     1.820E-01    1.807E-01    1.793E-01    1.779E-01    1.765E-01    1.752E-01    1.738E-01    1.724E-01    1.710E-01    1.697E-01
     1.683E-01    1.669E-01    1.655E-01    1.641E-01    1.628E-01    1.614E-01    1.600E-01    1.586E-01    1.573E-01    1.559E-01
     1.545E-01    1.531E-01    1.518E-01    1.504E-01    1.490E-01    1.476E-01    1.462E-01    1.449E-01    1.435E-01    1.421E-01
     1.407E-01    1.393E-01    1.380E-01    1.366E-01    1.352E-01    1.338E-01    1.324E-01    1.311E-01    1.297E-01    1.283E-01
     1.269E-01    1.256E-01    1.242E-01    1.228E-01    1.214E-01    1.200E-01    1.187E-01    1.173E-01    1.159E-01    1.145E-01
     1.131E-01    1.118E-01    1.104E-01    1.090E-01    1.076E-01    1.062E-01    1.049E-01    1.035E-01    1.021E-01    1.007E-01
     9.933E-02    9.795E-02    9.657E-02    9.518E-02    9.380E-02    9.242E-02    9.104E-02    8.966E-02    8.828E-02    8.690E-02
     8.551E-02    8.413E-02    8.275E-02    8.137E-02    7.999E-02    7.861E-02    7.722E-02    7.584E-02    7.446E-02    7.308E-02
     7.169E-02    7.031E-02    6.893E-02    6.755E-02    6.617E-02    6.478E-02    6.340E-02    6.202E-02    6.064E-02    5.925E-02
     5.787E-02    5.649E-02    5.510E-02    5.372E-02    5.234E-02    5.096E-02    4.957E-02    4.819E-02    4.681E-02    4.542E-02
     4.404E-02    4.266E-02    4.127E-02    3.989E-02    3.851E-02    3.712E-02    3.574E-02    3.436E-02    3.297E-02    3.159E-02
     3.021E-02    2.882E-02    2.744E-02    2.606E-02    2.467E-02    2.329E-02    2.190E-02    2.052E-02    1.914E-02    1.775E-02
     1.637E-02    1.498E-02    1.360E-02    1.222E-02    1.083E-02    9.449E-03    8.065E-03    6.680E-03    5.296E-03    3.912E-03
     2.528E-03    1.144E-03   -2.406E-04   -1.625E-03   -3.009E-03   -4.394E-03   -5.778E-03   -7.162E-03
 Ala      Conc. = 1.01E+01
