 LCModel (Version 6.3-1L) Copyright: S.W. Provencher.          Ref.: Magn. Reson. Med. 30:672-679 (1993).                
 Slice#1 Row#1 Col#9  PD_24_press_1_raw_act
 36 lines in following concentration table = NCONC+1
    Conc.  %SD /Cr+PCr  Metabolite                                         
    0.000 999%   0.000 Ala                                                 
   17.816 106%   0.182 Asp                                                 
   98.063  24%   1.000 Cr                                                  
    0.000 999%   0.000 PCr                                                 
    9.108 124% 9.3E-02 GABA                                                
   10.050 113%   0.102 Glc                                                 
   58.625 161%   0.598 Gln                                                 
    0.000 999%   0.000 Glu                                                 
   38.421  23%   0.392 GPC                                                 
    0.000 999%   0.000 PCh                                                 
   15.185 208%   0.155 GSH                                                 
  189.650  52%   1.934 Ins                                                 
   45.605 116%   0.465 Lac                                                 
  144.647  19%   1.475 NAA                                                 
    0.000 999%   0.000 NAAG                                                
    4.585  80% 4.7E-02 Scyllo                                              
   16.399 114%   0.167 Tau                                                 
    0.000 999%   0.000 -CrCH2                                              
   38.421  23%   0.392 GPC+PCh                                             
  144.647  19%   1.475 NAA+NAAG                                            
   98.063  24%   1.000 Cr+PCr                                              
   58.625 161%   0.598 Glu+Gln                                             
  137.377 123%   1.401 Lip13a                                              
    0.000 999%   0.000 Lip13b                                              
   39.225 139%   0.400 Lip09                                               
  265.473  32%   2.707 MM09                                                
   17.411 186%   0.178 Lip20                                               
  122.983 112%   1.254 MM20                                                
  103.232  57%   1.053 MM12                                                
  631.225  21%   6.437 MM14                                                
  227.432  43%   2.319 MM17                                                
  137.377 123%   1.401 Lip13a+Lip13b                                       
  871.834  16%   8.891 MM14+Lip13a+Lip13b+MM12                             
  304.698  23%   3.107 MM09+Lip09                                          
  140.394  94%   1.432 MM20+Lip20                                          
   6 lines in following misc. output table
  FWHM = 0.061 ppm    S/N =   1                                            
  Data shift = 0.031 ppm                                                   
  Ph:-117 deg      -6.9 deg/ppm                                            
  alphaB,S = 8.5E+01,   2.6E+01                                            
   14 spline knots.   Ns = 6(1)                                            
   2 inflections.     1 extrema                                            
  498 points on ppm-axis = NY
      4.000000     3.992357     3.984714     3.977070     3.969427     3.961784     3.954141     3.946497     3.938854     3.931211
      3.923568     3.915925     3.908281     3.900638     3.892995     3.885352     3.877708     3.870065     3.862422     3.854779
      3.847136     3.839492     3.831849     3.824206     3.816563     3.808919     3.801276     3.793633     3.785990     3.778347
      3.770703     3.763060     3.755417     3.747774     3.740130     3.732487     3.724844     3.717201     3.709558     3.701914
      3.694271     3.686628     3.678985     3.671341     3.663698     3.656055     3.648412     3.640769     3.633125     3.625482
      3.617839     3.610196     3.602552     3.594909     3.587266     3.579623     3.571980     3.564336     3.556693     3.549050
      3.541407     3.533763     3.526120     3.518477     3.510834     3.503191     3.495547     3.487904     3.480261     3.472618
      3.464974     3.457331     3.449688     3.442045     3.434402     3.426758     3.419115     3.411472     3.403829     3.396185
      3.388542     3.380899     3.373256     3.365613     3.357969     3.350326     3.342683     3.335040     3.327396     3.319753
      3.312110     3.304467     3.296824     3.289180     3.281537     3.273894     3.266251     3.258607     3.250964     3.243321
      3.235678     3.228034     3.220391     3.212748     3.205105     3.197462     3.189818     3.182175     3.174532     3.166889
      3.159245     3.151602     3.143959     3.136316     3.128673     3.121029     3.113386     3.105743     3.098100     3.090456
      3.082813     3.075170     3.067527     3.059884     3.052240     3.044597     3.036954     3.029311     3.021667     3.014024
      3.006381     2.998738     2.991095     2.983451     2.975808     2.968165     2.960522     2.952878     2.945235     2.937592
      2.929949     2.922306     2.914662     2.907019     2.899376     2.891733     2.884089     2.876446     2.868803     2.861160
      2.853517     2.845873     2.838230     2.830587     2.822944     2.815300     2.807657     2.800014     2.792371     2.784728
      2.777084     2.769441     2.761798     2.754155     2.746511     2.738868     2.731225     2.723582     2.715939     2.708295
      2.700652     2.693009     2.685366     2.677722     2.670079     2.662436     2.654793     2.647150     2.639506     2.631863
      2.624220     2.616577     2.608933     2.601290     2.593647     2.586004     2.578361     2.570717     2.563074     2.555431
      2.547788     2.540144     2.532501     2.524858     2.517215     2.509572     2.501928     2.494285     2.486642     2.478999
      2.471355     2.463712     2.456069     2.448426     2.440783     2.433139     2.425496     2.417853     2.410210     2.402566
      2.394923     2.387280     2.379637     2.371994     2.364350     2.356707     2.349064     2.341421     2.333777     2.326134
      2.318491     2.310848     2.303205     2.295561     2.287918     2.280275     2.272632     2.264988     2.257345     2.249702
      2.242059     2.234416     2.226772     2.219129     2.211486     2.203843     2.196199     2.188556     2.180913     2.173270
      2.165627     2.157983     2.150340     2.142697     2.135054     2.127410     2.119767     2.112124     2.104481     2.096838
      2.089194     2.081551     2.073908     2.066265     2.058621     2.050978     2.043335     2.035692     2.028049     2.020405
      2.012762     2.005119     1.997476     1.989833     1.982190     1.974546     1.966903     1.959260     1.951617     1.943974
      1.936331     1.928688     1.921045     1.913402     1.905759     1.898115     1.890472     1.882829     1.875186     1.867543
      1.859900     1.852257     1.844614     1.836971     1.829327     1.821684     1.814041     1.806398     1.798755     1.791112
      1.783469     1.775826     1.768183     1.760540     1.752896     1.745253     1.737610     1.729967     1.722324     1.714681
      1.707038     1.699395     1.691752     1.684108     1.676465     1.668822     1.661179     1.653536     1.645893     1.638250
      1.630607     1.622964     1.615321     1.607677     1.600034     1.592391     1.584748     1.577105     1.569462     1.561819
      1.554176     1.546533     1.538890     1.531246     1.523603     1.515960     1.508317     1.500674     1.493031     1.485388
      1.477745     1.470102     1.462458     1.454815     1.447172     1.439529     1.431886     1.424243     1.416600     1.408957
      1.401314     1.393671     1.386027     1.378384     1.370741     1.363098     1.355455     1.347812     1.340169     1.332526
      1.324883     1.317240     1.309596     1.301953     1.294310     1.286667     1.279024     1.271381     1.263738     1.256095
      1.248452     1.240808     1.233165     1.225522     1.217879     1.210236     1.202593     1.194950     1.187307     1.179664
      1.172021     1.164377     1.156734     1.149091     1.141448     1.133805     1.126162     1.118519     1.110876     1.103233
      1.095590     1.087946     1.080303     1.072660     1.065017     1.057374     1.049731     1.042088     1.034445     1.026802
      1.019158     1.011515     1.003872     0.996229     0.988586     0.980943     0.973300     0.965657     0.958014     0.950371
      0.942727     0.935084     0.927441     0.919798     0.912155     0.904512     0.896869     0.889226     0.881583     0.873940
      0.866296     0.858653     0.851010     0.843367     0.835724     0.828081     0.820438     0.812795     0.805152     0.797508
      0.789865     0.782222     0.774579     0.766936     0.759293     0.751650     0.744007     0.736364     0.728721     0.721077
      0.713434     0.705791     0.698148     0.690505     0.682862     0.675219     0.667576     0.659933     0.652290     0.644646
      0.637003     0.629360     0.621717     0.614074     0.606431     0.598788     0.591145     0.583502     0.575858     0.568215
      0.560572     0.552929     0.545286     0.537643     0.530000     0.522357     0.514714     0.507071     0.499427     0.491784
      0.484141     0.476498     0.468855     0.461212     0.453569     0.445925     0.438282     0.430639     0.422996     0.415353
      0.407710     0.400067     0.392424     0.384780     0.377137     0.369494     0.361851     0.354208     0.346565     0.338922
      0.331278     0.323635     0.315992     0.308349     0.300706     0.293063     0.285420     0.277777     0.270133     0.262490
      0.254847     0.247204     0.239561     0.231918     0.224275     0.216631     0.208988     0.201345
 NY phased data points follow
   3.81104E+00  2.47261E+00  3.08141E+00  7.37930E-01  3.08149E+00  1.05438E+00  3.26797E+00  2.20842E+00  5.38628E+00  1.66491E+00
   2.65906E+00  5.78471E-01  5.81555E+00  2.41011E+00  5.37908E+00  6.36964E+00  3.83060E+00  2.17683E+00  4.38051E+00  1.37575E+00
   3.84471E+00  5.58633E+00  1.07057E+00 -6.50097E-01  1.99295E+00  1.46578E-02 -4.88432E-01  1.93770E+00  3.97758E+00  1.63396E+00
  -7.84797E-01  2.60706E-01  2.55592E+00  1.31840E+00  3.51409E+00  3.28340E+00  1.20351E+00  2.93352E+00  2.15812E+00 -2.06646E-01
   2.76978E+00  5.58018E+00  3.41022E+00  7.68769E-01  2.68826E+00  1.97243E+00  2.89464E+00  2.72836E+00  3.52083E+00 -4.35969E-01
   9.40854E-01  2.43712E+00  3.60531E+00 -3.17949E+00  2.96928E+00  2.40687E+00  1.59335E-01  1.55501E+00  2.39788E+00  1.03364E-01
   1.17547E+00  2.89621E+00  3.53088E+00  3.15937E+00 -8.88401E-01  1.22284E+00  2.95569E+00  1.31427E+00  2.04298E+00  4.65348E-01
   1.13750E+00 -1.14670E+00  1.33695E+00 -3.31601E-02  4.34403E+00 -2.31356E+00  2.40951E+00  1.59485E+00  6.71589E-01 -2.14205E-01
   1.37873E+00  1.90957E+00  1.43735E+00 -7.85205E-01  1.62233E+00  2.21097E+00  1.17147E+00  1.43579E+00  1.99521E+00  1.54606E+00
   2.90766E+00 -1.54018E+00  2.72772E+00  2.84342E+00  3.24667E-01 -1.95068E+00 -9.23526E-01 -2.41440E+00  4.97955E-01  9.82741E-01
   6.52134E+00  3.53476E+00  2.23421E+00  4.78650E+00  4.90790E+00  3.66030E+00  2.57932E+00  1.83892E+00  1.64064E+00  2.61622E+00
   2.12257E+00  1.65530E+00  1.33036E+00 -3.01545E+00  2.85419E+00 -1.03269E+00  4.79314E-01  1.44652E+00 -1.17022E+00  2.16383E+00
   1.66653E+00 -3.53919E-01  1.24097E-01 -4.86715E-01  5.71050E+00  1.69078E+00  3.30843E+00  5.63043E+00  1.94104E+00  1.93064E+00
   4.37405E+00  2.75558E+00  4.79678E+00  2.46576E-01  1.30925E+00  1.47263E-01  3.53401E+00  1.65270E+00  1.70167E+00 -3.90390E-01
  -4.48697E-02 -1.39356E+00 -2.32822E+00 -9.94571E-01  2.30981E+00 -1.41841E-02  7.19875E-01 -1.72632E+00  1.41254E+00  1.12136E+00
  -8.01446E-02  3.57773E+00  2.26816E+00 -2.48038E+00  2.99092E+00 -3.03192E+00 -9.75204E-01  2.06741E-01  1.16895E+00  1.09612E+00
   3.34381E+00  8.00009E-01  2.56493E+00 -6.57686E-01 -2.61550E+00  3.68432E+00 -2.03419E+00 -1.04731E+00  3.74353E+00 -1.44665E+00
   3.12778E-01  5.21401E-02  3.95664E-01  5.20143E-01 -1.42481E+00  8.50766E-01 -9.82198E-01 -8.91572E-01  6.88300E-01  2.96517E-01
   2.56835E+00  1.78255E+00  2.93170E+00  1.17908E+00  9.06931E-01  1.10084E+00 -9.58657E-01 -8.68990E-01  1.13215E+00 -7.97385E-01
  -4.18742E+00  1.72235E+00 -1.65470E+00  2.09059E+00  6.34107E-01  2.05720E+00 -3.41347E-01  2.11646E+00  2.05429E+00 -2.78577E+00
   9.89790E-01 -9.42317E-01 -4.42994E-01  9.85381E-01  2.70688E+00 -1.45176E+00  1.82147E+00  4.73563E-01  3.16635E+00  7.68758E-01
  -7.69494E-01  7.31035E-01  1.37034E+00  6.98335E-02  1.72440E+00  3.57676E-01  1.16976E+00 -1.01885E+00  1.11945E+00  4.24181E+00
   5.02121E+00 -4.85825E-01  2.59566E+00  2.28368E+00  8.56016E-01 -1.18100E-01 -1.55150E+00  3.67204E+00  1.02501E+00  2.43754E+00
   1.63872E+00 -1.23578E-01  2.11944E+00  3.30654E-01 -1.59669E+00  9.03477E-01  8.39715E-02  1.95042E+00  3.96119E-01  3.17038E+00
   8.73722E-01  8.86741E-01 -6.86036E-01  3.69905E-01  1.01869E+00  2.41323E+00  1.47407E-01  1.05840E+00  6.45062E-01  1.90715E+00
   1.42168E+00  1.43767E+00  2.67421E+00  2.06608E+00 -7.06664E-01  9.68714E-02 -6.67359E-02 -4.27233E-01  4.61336E+00  7.04607E+00
   6.94408E+00  7.07282E+00  5.71316E+00  5.15689E+00  3.30712E+00  3.31575E+00 -9.94689E-01  3.88896E+00 -9.71183E-01  1.56376E+00
   2.71495E+00  2.42623E+00 -6.55988E-01  1.23175E+00 -7.25865E-01 -6.38461E-01 -3.87317E-01  3.92704E+00 -3.81947E-01  1.09705E+00
  -6.74697E-01  3.12072E-03 -2.32163E+00  1.19284E+00 -9.04373E-01  4.61744E+00 -8.22674E-01 -4.93646E-01  2.30554E+00  2.02628E+00
   3.32156E+00  4.85413E+00  2.78339E+00  1.52383E+00  4.33240E+00  1.79524E+00  1.11371E+00  3.36920E+00  1.17409E+00  3.87368E+00
   2.32695E+00  3.81431E+00 -8.80896E-02  1.00252E+00 -8.80498E-01  1.65115E+00  2.83736E+00  6.01486E-01  1.72527E-01  2.40776E+00
   1.48741E+00  5.10010E+00  3.50412E+00  1.64728E+00  1.06510E+00  4.28378E+00  3.79748E+00  5.73731E+00  8.52723E-01  2.05519E+00
   4.17685E+00  2.65607E+00  2.65567E+00  6.13356E+00  1.90077E+00  3.44318E+00  2.01359E+00  4.13427E+00  4.35961E+00  4.15072E+00
   7.56641E+00  5.49191E+00  4.01694E+00  3.91953E+00  6.44825E+00  5.29061E+00  4.52236E+00  2.76422E+00  6.67687E+00  5.40909E+00
   4.59446E+00  4.33239E+00  1.77142E+00  3.97623E+00  1.11795E+00  1.43278E+00  3.30417E+00  2.62797E+00  1.02000E+00  1.84850E+00
   2.53547E+00  2.56222E-01 -2.89910E-01  1.36108E+00  3.19563E-01  4.85328E+00  2.45995E+00  3.91028E+00  2.16098E+00  2.06144E+00
   3.00194E+00  3.16361E+00  9.89517E-02  3.32062E+00  1.06174E+00  3.23346E+00 -1.09998E+00  3.09420E+00  4.84712E+00  2.66454E+00
  -9.65987E-01  2.30162E+00  8.27649E-01 -5.26961E-01  1.90989E+00  4.82714E-01  2.18606E+00  4.34594E+00  3.73981E+00  5.17154E+00
   1.02791E+00  4.87567E+00  4.48820E+00  2.64243E+00  4.07920E+00  1.54092E+00  2.81534E+00  2.96446E+00  8.62642E-01  4.78103E+00
   4.69492E+00  2.26726E+00  2.80072E-01  2.81053E+00  1.78571E+00  1.45120E+00  1.60055E+00  9.51661E-01  3.63948E+00  4.60327E+00
   3.81516E+00  1.36211E+00  2.33548E+00 -4.86804E-01  2.95033E+00  1.21786E+00  2.03421E+00  2.32859E+00  1.02853E+00  1.22782E-01
  -1.47202E-01  5.23312E+00  3.43425E+00  1.84743E+00  3.23688E+00  1.00857E+00  1.71720E+00  5.61475E-01  5.06084E+00  1.29969E+00
   1.81528E+00  1.35982E+00  1.74945E-01  3.90531E+00  5.30523E+00  3.60173E+00  3.24939E-01  4.06443E+00  1.18141E+00  4.15449E+00
   4.57884E+00  2.43983E+00  9.60067E-01  8.14231E-01  4.16805E+00  3.21015E+00  7.64723E-01  1.86854E+00  1.06117E+00 -1.14124E+00
   1.53128E+00 -2.01180E+00 -2.13878E-01  1.95419E+00 -1.63819E+00 -3.76711E-01  6.16916E-01  1.65919E+00  3.19767E-01 -1.41741E-01
   1.68074E+00 -2.25280E+00  1.18879E+00  8.72468E-01  9.06333E-01  1.63429E+00 -2.41050E+00  6.95754E-01 -1.17612E+00  1.79590E+00
   6.20552E-01  2.52806E+00 -1.11486E+00  1.80389E+00  1.15451E+00 -4.35325E-01 -2.29199E+00  2.23071E+00 -4.71962E-01  1.18597E+00
  -1.80733E+00 -1.16843E+00  2.10308E-01  3.41938E+00 -1.42160E-01 -1.42670E+00  7.05036E-03  2.09257E+00 -2.11216E+00  2.80764E-01
  -7.79625E-01  6.38965E-01 -5.00616E-01 -1.98813E+00  1.22578E+00  2.00891E+00  3.14818E+00  1.44226E+00 -6.74204E-01 -1.99046E-01
  -8.80066E-01  4.15344E-01 -1.41038E+00 -4.95261E-01  4.22189E+00  3.17534E+00  2.14967E+00  2.98984E+00
 NY points of the fit to the data follow
   1.46223E+00  1.37434E+00  1.33196E+00  1.33139E+00  1.36232E+00  1.36478E+00  1.42688E+00  1.76255E+00  2.35499E+00  2.97356E+00
   3.39543E+00  3.55766E+00  3.51066E+00  3.33604E+00  3.08003E+00  2.72774E+00  2.28420E+00  1.82888E+00  1.46113E+00  1.26408E+00
   1.21849E+00  1.20645E+00  1.18563E+00  1.14884E+00  1.10194E+00  1.08461E+00  1.12811E+00  1.23848E+00  1.39043E+00  1.53873E+00
   1.64646E+00  1.69776E+00  1.70183E+00  1.68699E+00  1.67030E+00  1.63899E+00  1.56629E+00  1.45079E+00  1.34332E+00  1.26958E+00
   1.21779E+00  1.17047E+00  1.17388E+00  1.33577E+00  1.68320E+00  2.10633E+00  2.44307E+00  2.59368E+00  2.55410E+00  2.38246E+00
   2.14032E+00  1.86239E+00  1.56352E+00  1.26867E+00  1.04300E+00  9.65434E-01  1.05263E+00  1.24270E+00  1.44581E+00  1.59351E+00
   1.65206E+00  1.62217E+00  1.53688E+00  1.42935E+00  1.32803E+00  1.24380E+00  1.17500E+00  1.15239E+00  1.19674E+00  1.28708E+00
   1.38829E+00  1.47380E+00  1.53300E+00  1.55885E+00  1.55152E+00  1.51752E+00  1.45875E+00  1.38840E+00  1.32119E+00  1.26530E+00
   1.22654E+00  1.21874E+00  1.24324E+00  1.26548E+00  1.23777E+00  1.14602E+00  1.01872E+00  8.98958E-01  8.15541E-01  7.76062E-01
   7.69781E-01  7.94248E-01  8.55986E-01  9.44295E-01  1.04025E+00  1.10286E+00  1.07200E+00  9.87857E-01  1.26031E+00  2.06035E+00
   3.11443E+00  3.99708E+00  4.48468E+00  4.58008E+00  4.39526E+00  4.04776E+00  3.55352E+00  2.90134E+00  2.16832E+00  1.51010E+00
   1.06790E+00  9.23774E-01  8.96699E-01  8.90004E-01  8.90676E-01  8.91156E-01  8.89805E-01  8.87448E-01  8.86291E-01  8.86574E-01
   8.76717E-01  8.15644E-01  8.98189E-01  1.42470E+00  2.33506E+00  3.28001E+00  3.94515E+00  4.23563E+00  4.20736E+00  3.98021E+00
   3.62312E+00  3.11884E+00  2.47890E+00  1.81201E+00  1.25319E+00  9.38610E-01  8.34976E-01  7.98403E-01  7.88058E-01  7.91482E-01
   8.02357E-01  8.21113E-01  8.47068E-01  8.69408E-01  8.79980E-01  8.76537E-01  8.61537E-01  8.41471E-01  8.22215E-01  8.04786E-01
   7.88725E-01  7.72800E-01  7.59761E-01  7.52016E-01  7.51335E-01  7.56162E-01  7.51210E-01  7.23091E-01  6.75646E-01  6.25533E-01
   5.98920E-01  6.04322E-01  6.27462E-01  6.48652E-01  6.60388E-01  6.66449E-01  6.70292E-01  6.70817E-01  6.62716E-01  6.40189E-01
   6.10635E-01  5.76732E-01  5.28889E-01  4.80835E-01  4.50311E-01  4.49116E-01  4.63321E-01  4.68932E-01  4.60336E-01  4.51427E-01
   4.60204E-01  4.87362E-01  5.07002E-01  4.98763E-01  4.76260E-01  4.71771E-01  5.09922E-01  5.82260E-01  6.65568E-01  7.32311E-01
   7.75765E-01  8.02857E-01  8.21913E-01  8.24932E-01  7.99351E-01  7.44253E-01  6.83426E-01  6.48298E-01  6.54116E-01  7.07013E-01
   7.99874E-01  9.12360E-01  1.01674E+00  1.09317E+00  1.12710E+00  1.08589E+00  9.52900E-01  7.76824E-01  6.12122E-01  4.84108E-01
   4.03601E-01  3.77184E-01  4.03396E-01  4.71779E-01  5.70193E-01  6.78646E-01  7.75210E-01  8.46693E-01  8.87881E-01  9.16288E-01
   9.47925E-01  9.75095E-01  9.95321E-01  1.01014E+00  1.01843E+00  1.01980E+00  1.01069E+00  9.85072E-01  9.45916E-01  9.09472E-01
   8.91423E-01  8.78063E-01  8.54202E-01  8.33625E-01  8.38113E-01  8.74511E-01  9.42851E-01  1.03862E+00  1.12934E+00  1.18374E+00
   1.19463E+00  1.17346E+00  1.13136E+00  1.07903E+00  1.02121E+00  9.68963E-01  9.39769E-01  9.45140E-01  9.87533E-01  1.05794E+00
   1.13755E+00  1.20480E+00  1.25182E+00  1.26482E+00  1.16690E+00  1.14002E+00  1.69921E+00  2.90215E+00  4.30323E+00  5.39096E+00
   5.95312E+00  6.02682E+00  5.76355E+00  5.28987E+00  4.60469E+00  3.70781E+00  2.73681E+00  1.88983E+00  1.36515E+00  1.18313E+00
   1.10725E+00  1.06126E+00  1.03201E+00  1.01497E+00  1.00597E+00  1.00141E+00  9.98928E-01  9.96738E-01  9.94020E-01  9.91464E-01
   9.89973E-01  9.91300E-01  9.98020E-01  1.01169E+00  1.03304E+00  1.06234E+00  1.09882E+00  1.14156E+00  1.19023E+00  1.24393E+00
   1.30162E+00  1.36258E+00  1.42635E+00  1.49273E+00  1.56136E+00  1.63141E+00  1.70176E+00  1.77134E+00  1.83894E+00  1.90324E+00
   1.96305E+00  2.01753E+00  2.06591E+00  2.10783E+00  2.14332E+00  2.17277E+00  2.19705E+00  2.21738E+00  2.23529E+00  2.25253E+00
   2.27105E+00  2.29291E+00  2.32023E+00  2.35504E+00  2.39910E+00  2.45386E+00  2.52036E+00  2.59925E+00  2.69064E+00  2.79410E+00
   2.90859E+00  3.03250E+00  3.16374E+00  3.29980E+00  3.43782E+00  3.57464E+00  3.70692E+00  3.83129E+00  3.94454E+00  4.04375E+00
   4.12635E+00  4.19023E+00  4.23383E+00  4.25623E+00  4.25729E+00  4.23759E+00  4.19841E+00  4.14166E+00  4.06988E+00  3.98606E+00
   3.89257E+00  3.79440E+00  3.74237E+00  3.76506E+00  3.79334E+00  3.73672E+00  3.56231E+00  3.29980E+00  2.98822E+00  2.63072E+00
   2.27111E+00  1.99706E+00  1.86876E+00  1.88376E+00  1.99511E+00  2.15557E+00  2.30526E+00  2.40967E+00  2.47463E+00  2.49162E+00
   2.44931E+00  2.35603E+00  2.23425E+00  2.13001E+00  2.05525E+00  1.99448E+00  1.94062E+00  1.89070E+00  1.84333E+00  1.79787E+00
   1.75411E+00  1.71213E+00  1.67214E+00  1.63452E+00  1.59969E+00  1.56816E+00  1.54046E+00  1.51713E+00  1.49873E+00  1.48583E+00
   1.47896E+00  1.47866E+00  1.48542E+00  1.49970E+00  1.52189E+00  1.55232E+00  1.59119E+00  1.63858E+00  1.69441E+00  1.75840E+00
   1.83005E+00  1.90863E+00  1.99313E+00  2.08227E+00  2.17450E+00  2.26804E+00  2.36092E+00  2.45100E+00  2.53609E+00  2.61395E+00
   2.68247E+00  2.73973E+00  2.78405E+00  2.81410E+00  2.82897E+00  2.82817E+00  2.81167E+00  2.77993E+00  2.73383E+00  2.67461E+00
   2.60382E+00  2.52325E+00  2.43483E+00  2.34056E+00  2.24243E+00  2.14229E+00  2.04187E+00  1.94268E+00  1.84604E+00  1.75298E+00
   1.66434E+00  1.58067E+00  1.50233E+00  1.42951E+00  1.36222E+00  1.30038E+00  1.24375E+00  1.19205E+00  1.14497E+00  1.10214E+00
   1.06322E+00  1.02785E+00  9.95670E-01  9.66357E-01  9.39610E-01  9.15161E-01  8.92766E-01  8.72197E-01  8.53245E-01  8.35730E-01
   8.19504E-01  8.04438E-01  7.90412E-01  7.77312E-01  7.65038E-01  7.53510E-01  7.42664E-01  7.32442E-01  7.22784E-01  7.13632E-01
   7.04937E-01  6.96666E-01  6.88792E-01  6.81285E-01  6.74111E-01  6.67236E-01  6.60636E-01  6.54301E-01  6.48217E-01  6.42365E-01
   6.36721E-01  6.31265E-01  6.25989E-01  6.20890E-01  6.15962E-01  6.11186E-01  6.06546E-01  6.02031E-01  5.97642E-01  5.93379E-01
   5.89235E-01  5.85192E-01  5.81241E-01  5.77378E-01  5.73608E-01  5.69931E-01  5.66337E-01  5.62811E-01  5.59348E-01  5.55952E-01
   5.52628E-01  5.49372E-01  5.46172E-01  5.43018E-01  5.39909E-01  5.36852E-01  5.33852E-01  5.30899E-01  5.27982E-01  5.25094E-01
   5.22241E-01  5.19429E-01  5.16659E-01  5.13917E-01  5.11193E-01  5.08487E-01  5.05806E-01  5.03156E-01
 NY background values follow
     8.349E-01    8.339E-01    8.330E-01    8.321E-01    8.311E-01    8.302E-01    8.293E-01    8.283E-01    8.274E-01    8.265E-01
     8.255E-01    8.246E-01    8.237E-01    8.227E-01    8.218E-01    8.209E-01    8.199E-01    8.190E-01    8.180E-01    8.171E-01
     8.162E-01    8.152E-01    8.143E-01    8.133E-01    8.124E-01    8.115E-01    8.105E-01    8.096E-01    8.086E-01    8.077E-01
     8.067E-01    8.058E-01    8.049E-01    8.039E-01    8.030E-01    8.020E-01    8.011E-01    8.001E-01    7.992E-01    7.982E-01
     7.973E-01    7.963E-01    7.954E-01    7.944E-01    7.935E-01    7.925E-01    7.916E-01    7.906E-01    7.897E-01    7.887E-01
     7.878E-01    7.868E-01    7.859E-01    7.849E-01    7.840E-01    7.830E-01    7.821E-01    7.811E-01    7.802E-01    7.792E-01
     7.782E-01    7.773E-01    7.763E-01    7.754E-01    7.744E-01    7.735E-01    7.725E-01    7.715E-01    7.706E-01    7.696E-01
     7.687E-01    7.677E-01    7.667E-01    7.658E-01    7.648E-01    7.639E-01    7.629E-01    7.619E-01    7.610E-01    7.600E-01
     7.591E-01    7.581E-01    7.571E-01    7.562E-01    7.552E-01    7.542E-01    7.533E-01    7.523E-01    7.513E-01    7.504E-01
     7.494E-01    7.484E-01    7.475E-01    7.465E-01    7.455E-01    7.446E-01    7.436E-01    7.426E-01    7.417E-01    7.407E-01
     7.397E-01    7.387E-01    7.378E-01    7.368E-01    7.358E-01    7.349E-01    7.339E-01    7.329E-01    7.319E-01    7.310E-01
     7.300E-01    7.290E-01    7.281E-01    7.271E-01    7.261E-01    7.251E-01    7.242E-01    7.232E-01    7.222E-01    7.212E-01
     7.202E-01    7.193E-01    7.183E-01    7.173E-01    7.163E-01    7.154E-01    7.144E-01    7.134E-01    7.124E-01    7.114E-01
     7.105E-01    7.095E-01    7.085E-01    7.075E-01    7.065E-01    7.056E-01    7.046E-01    7.036E-01    7.026E-01    7.016E-01
     7.007E-01    6.997E-01    6.987E-01    6.977E-01    6.967E-01    6.957E-01    6.948E-01    6.938E-01    6.928E-01    6.918E-01
     6.908E-01    6.898E-01    6.888E-01    6.879E-01    6.869E-01    6.859E-01    6.849E-01    6.839E-01    6.829E-01    6.819E-01
     6.809E-01    6.800E-01    6.790E-01    6.780E-01    6.770E-01    6.760E-01    6.750E-01    6.740E-01    6.730E-01    6.720E-01
     6.710E-01    6.701E-01    6.691E-01    6.681E-01    6.671E-01    6.661E-01    6.651E-01    6.641E-01    6.631E-01    6.621E-01
     6.611E-01    6.601E-01    6.591E-01    6.581E-01    6.571E-01    6.562E-01    6.552E-01    6.542E-01    6.532E-01    6.522E-01
     6.512E-01    6.502E-01    6.492E-01    6.482E-01    6.472E-01    6.462E-01    6.452E-01    6.442E-01    6.432E-01    6.422E-01
     6.412E-01    6.402E-01    6.392E-01    6.382E-01    6.372E-01    6.362E-01    6.352E-01    6.342E-01    6.332E-01    6.322E-01
     6.312E-01    6.302E-01    6.292E-01    6.282E-01    6.272E-01    6.262E-01    6.252E-01    6.242E-01    6.232E-01    6.222E-01
     6.212E-01    6.202E-01    6.192E-01    6.182E-01    6.172E-01    6.162E-01    6.152E-01    6.142E-01    6.132E-01    6.122E-01
     6.112E-01    6.102E-01    6.091E-01    6.081E-01    6.071E-01    6.061E-01    6.051E-01    6.041E-01    6.031E-01    6.021E-01
     6.011E-01    6.001E-01    5.991E-01    5.981E-01    5.971E-01    5.961E-01    5.951E-01    5.940E-01    5.930E-01    5.920E-01
     5.910E-01    5.900E-01    5.890E-01    5.880E-01    5.870E-01    5.860E-01    5.850E-01    5.840E-01    5.830E-01    5.819E-01
     5.809E-01    5.799E-01    5.789E-01    5.779E-01    5.769E-01    5.759E-01    5.749E-01    5.739E-01    5.728E-01    5.718E-01
     5.708E-01    5.698E-01    5.688E-01    5.678E-01    5.668E-01    5.658E-01    5.647E-01    5.637E-01    5.627E-01    5.617E-01
     5.607E-01    5.597E-01    5.587E-01    5.577E-01    5.566E-01    5.556E-01    5.546E-01    5.536E-01    5.526E-01    5.516E-01
     5.506E-01    5.495E-01    5.485E-01    5.475E-01    5.465E-01    5.455E-01    5.445E-01    5.435E-01    5.424E-01    5.414E-01
     5.404E-01    5.394E-01    5.384E-01    5.374E-01    5.363E-01    5.353E-01    5.343E-01    5.333E-01    5.323E-01    5.313E-01
     5.302E-01    5.292E-01    5.282E-01    5.272E-01    5.262E-01    5.252E-01    5.241E-01    5.231E-01    5.221E-01    5.211E-01
     5.201E-01    5.190E-01    5.180E-01    5.170E-01    5.160E-01    5.150E-01    5.140E-01    5.129E-01    5.119E-01    5.109E-01
     5.099E-01    5.089E-01    5.078E-01    5.068E-01    5.058E-01    5.048E-01    5.038E-01    5.027E-01    5.017E-01    5.007E-01
     4.997E-01    4.987E-01    4.976E-01    4.966E-01    4.956E-01    4.946E-01    4.936E-01    4.925E-01    4.915E-01    4.905E-01
     4.895E-01    4.885E-01    4.874E-01    4.864E-01    4.854E-01    4.844E-01    4.834E-01    4.823E-01    4.813E-01    4.803E-01
     4.793E-01    4.782E-01    4.772E-01    4.762E-01    4.752E-01    4.742E-01    4.731E-01    4.721E-01    4.711E-01    4.701E-01
     4.691E-01    4.680E-01    4.670E-01    4.660E-01    4.650E-01    4.639E-01    4.629E-01    4.619E-01    4.609E-01    4.599E-01
     4.588E-01    4.578E-01    4.568E-01    4.558E-01    4.547E-01    4.537E-01    4.527E-01    4.517E-01    4.506E-01    4.496E-01
     4.486E-01    4.476E-01    4.466E-01    4.455E-01    4.445E-01    4.435E-01    4.425E-01    4.414E-01    4.404E-01    4.394E-01
     4.384E-01    4.374E-01    4.363E-01    4.353E-01    4.343E-01    4.333E-01    4.322E-01    4.312E-01    4.302E-01    4.292E-01
     4.281E-01    4.271E-01    4.261E-01    4.251E-01    4.241E-01    4.230E-01    4.220E-01    4.210E-01    4.200E-01    4.189E-01
     4.179E-01    4.169E-01    4.159E-01    4.148E-01    4.138E-01    4.128E-01    4.118E-01    4.108E-01    4.097E-01    4.087E-01
     4.077E-01    4.067E-01    4.056E-01    4.046E-01    4.036E-01    4.026E-01    4.015E-01    4.005E-01    3.995E-01    3.985E-01
     3.975E-01    3.964E-01    3.954E-01    3.944E-01    3.934E-01    3.923E-01    3.913E-01    3.903E-01    3.893E-01    3.882E-01
     3.872E-01    3.862E-01    3.852E-01    3.842E-01    3.831E-01    3.821E-01    3.811E-01    3.801E-01    3.790E-01    3.780E-01
     3.770E-01    3.760E-01    3.750E-01    3.739E-01    3.729E-01    3.719E-01    3.709E-01    3.698E-01    3.688E-01    3.678E-01
     3.668E-01    3.658E-01    3.647E-01    3.637E-01    3.627E-01    3.617E-01    3.607E-01    3.596E-01    3.586E-01    3.576E-01
     3.566E-01    3.555E-01    3.545E-01    3.535E-01    3.525E-01    3.515E-01    3.504E-01    3.494E-01    3.484E-01    3.474E-01
     3.464E-01    3.453E-01    3.443E-01    3.433E-01    3.423E-01    3.413E-01    3.402E-01    3.392E-01
 Asp      Conc. = 1.78E+01
