 LCModel (Version 6.3-1L) Copyright: S.W. Provencher.          Ref.: Magn. Reson. Med. 30:672-679 (1993).                
 Slice#1 Row#4 Col#7  PD_24_press_1_raw_act
 36 lines in following concentration table = NCONC+1
    Conc.  %SD /Cr+PCr  Metabolite                                         
  421.310  36%   0.387 Ala                                                 
  128.353 164%   0.118 Asp                                                 
 1.09E+03   5%   1.000 Cr                                                  
    0.000 999%   0.000 PCr                                                 
   32.927 436% 3.0E-02 GABA                                                
   96.701 143% 8.9E-02 Glc                                                 
 1.47E+03  22%   1.347 Gln                                                 
 1.67E+03  22%   1.530 Glu                                                 
  599.957   4%   0.550 GPC                                                 
    0.000 999%   0.000 PCh                                                 
  514.962  16%   0.472 GSH                                                 
 2.15E+03  12%   1.973 Ins                                                 
   26.912 619% 2.5E-02 Lac                                                 
 1.63E+03   7%   1.494 NAA                                                 
   62.855 212% 5.8E-02 NAAG                                                
  137.812  20%   0.126 Scyllo                                              
   64.512 291% 5.9E-02 Tau                                                 
    0.000 999%   0.000 -CrCH2                                              
  599.957   4%   0.550 GPC+PCh                                             
 1.69E+03   5%   1.552 NAA+NAAG                                            
 1.09E+03   5%   1.000 Cr+PCr                                              
 3.14E+03  18%   2.877 Glu+Gln                                             
 3.03E+03  27%   2.780 Lip13a                                              
    0.000 999%   0.000 Lip13b                                              
  146.324 264%   0.134 Lip09                                               
 1.90E+03  22%   1.743 MM09                                                
  295.157  94%   0.271 Lip20                                               
 3.62E+03  12%   3.318 MM20                                                
  671.881  37%   0.616 MM12                                                
 2.87E+03  21%   2.634 MM14                                                
 1.20E+03  24%   1.105 MM17                                                
 3.03E+03  27%   2.780 Lip13a+Lip13b                                       
 6.57E+03   7%   6.031 MM14+Lip13a+Lip13b+MM12                             
 2.05E+03  10%   1.877 MM09+Lip09                                          
 3.91E+03  10%   3.588 MM20+Lip20                                          
   6 lines in following misc. output table
  FWHM = 0.061 ppm    S/N =   9                                            
  Data shift =-0.031 ppm                                                   
  Ph: -36 deg      -5.2 deg/ppm                                            
  alphaB,S = 8.5E+01,   1.6E+02                                            
   14 spline knots.   Ns = 8(1)                                            
   4 inflections.     1 extrema                                            
  498 points on ppm-axis = NY
      4.000000     3.992357     3.984714     3.977070     3.969427     3.961784     3.954141     3.946497     3.938854     3.931211
      3.923568     3.915925     3.908281     3.900638     3.892995     3.885352     3.877708     3.870065     3.862422     3.854779
      3.847136     3.839492     3.831849     3.824206     3.816563     3.808919     3.801276     3.793633     3.785990     3.778347
      3.770703     3.763060     3.755417     3.747774     3.740130     3.732487     3.724844     3.717201     3.709558     3.701914
      3.694271     3.686628     3.678985     3.671341     3.663698     3.656055     3.648412     3.640769     3.633125     3.625482
      3.617839     3.610196     3.602552     3.594909     3.587266     3.579623     3.571980     3.564336     3.556693     3.549050
      3.541407     3.533763     3.526120     3.518477     3.510834     3.503191     3.495547     3.487904     3.480261     3.472618
      3.464974     3.457331     3.449688     3.442045     3.434402     3.426758     3.419115     3.411472     3.403829     3.396185
      3.388542     3.380899     3.373256     3.365613     3.357969     3.350326     3.342683     3.335040     3.327396     3.319753
      3.312110     3.304467     3.296824     3.289180     3.281537     3.273894     3.266251     3.258607     3.250964     3.243321
      3.235678     3.228034     3.220391     3.212748     3.205105     3.197462     3.189818     3.182175     3.174532     3.166889
      3.159245     3.151602     3.143959     3.136316     3.128673     3.121029     3.113386     3.105743     3.098100     3.090456
      3.082813     3.075170     3.067527     3.059884     3.052240     3.044597     3.036954     3.029311     3.021667     3.014024
      3.006381     2.998738     2.991095     2.983451     2.975808     2.968165     2.960522     2.952878     2.945235     2.937592
      2.929949     2.922306     2.914662     2.907019     2.899376     2.891733     2.884089     2.876446     2.868803     2.861160
      2.853517     2.845873     2.838230     2.830587     2.822944     2.815300     2.807657     2.800014     2.792371     2.784728
      2.777084     2.769441     2.761798     2.754155     2.746511     2.738868     2.731225     2.723582     2.715939     2.708295
      2.700652     2.693009     2.685366     2.677722     2.670079     2.662436     2.654793     2.647150     2.639506     2.631863
      2.624220     2.616577     2.608933     2.601290     2.593647     2.586004     2.578361     2.570717     2.563074     2.555431
      2.547788     2.540144     2.532501     2.524858     2.517215     2.509572     2.501928     2.494285     2.486642     2.478999
      2.471355     2.463712     2.456069     2.448426     2.440783     2.433139     2.425496     2.417853     2.410210     2.402566
      2.394923     2.387280     2.379637     2.371994     2.364350     2.356707     2.349064     2.341421     2.333777     2.326134
      2.318491     2.310848     2.303205     2.295561     2.287918     2.280275     2.272632     2.264988     2.257345     2.249702
      2.242059     2.234416     2.226772     2.219129     2.211486     2.203843     2.196199     2.188556     2.180913     2.173270
      2.165627     2.157983     2.150340     2.142697     2.135054     2.127410     2.119767     2.112124     2.104481     2.096838
      2.089194     2.081551     2.073908     2.066265     2.058621     2.050978     2.043335     2.035692     2.028049     2.020405
      2.012762     2.005119     1.997476     1.989833     1.982190     1.974546     1.966903     1.959260     1.951617     1.943974
      1.936331     1.928688     1.921045     1.913402     1.905759     1.898115     1.890472     1.882829     1.875186     1.867543
      1.859900     1.852257     1.844614     1.836971     1.829327     1.821684     1.814041     1.806398     1.798755     1.791112
      1.783469     1.775826     1.768183     1.760540     1.752896     1.745253     1.737610     1.729967     1.722324     1.714681
      1.707038     1.699395     1.691752     1.684108     1.676465     1.668822     1.661179     1.653536     1.645893     1.638250
      1.630607     1.622964     1.615321     1.607677     1.600034     1.592391     1.584748     1.577105     1.569462     1.561819
      1.554176     1.546533     1.538890     1.531246     1.523603     1.515960     1.508317     1.500674     1.493031     1.485388
      1.477745     1.470102     1.462458     1.454815     1.447172     1.439529     1.431886     1.424243     1.416600     1.408957
      1.401314     1.393671     1.386027     1.378384     1.370741     1.363098     1.355455     1.347812     1.340169     1.332526
      1.324883     1.317240     1.309596     1.301953     1.294310     1.286667     1.279024     1.271381     1.263738     1.256095
      1.248452     1.240808     1.233165     1.225522     1.217879     1.210236     1.202593     1.194950     1.187307     1.179664
      1.172021     1.164377     1.156734     1.149091     1.141448     1.133805     1.126162     1.118519     1.110876     1.103233
      1.095590     1.087946     1.080303     1.072660     1.065017     1.057374     1.049731     1.042088     1.034445     1.026802
      1.019158     1.011515     1.003872     0.996229     0.988586     0.980943     0.973300     0.965657     0.958014     0.950371
      0.942727     0.935084     0.927441     0.919798     0.912155     0.904512     0.896869     0.889226     0.881583     0.873940
      0.866296     0.858653     0.851010     0.843367     0.835724     0.828081     0.820438     0.812795     0.805152     0.797508
      0.789865     0.782222     0.774579     0.766936     0.759293     0.751650     0.744007     0.736364     0.728721     0.721077
      0.713434     0.705791     0.698148     0.690505     0.682862     0.675219     0.667576     0.659933     0.652290     0.644646
      0.637003     0.629360     0.621717     0.614074     0.606431     0.598788     0.591145     0.583502     0.575858     0.568215
      0.560572     0.552929     0.545286     0.537643     0.530000     0.522357     0.514714     0.507071     0.499427     0.491784
      0.484141     0.476498     0.468855     0.461212     0.453569     0.445925     0.438282     0.430639     0.422996     0.415353
      0.407710     0.400067     0.392424     0.384780     0.377137     0.369494     0.361851     0.354208     0.346565     0.338922
      0.331278     0.323635     0.315992     0.308349     0.300706     0.293063     0.285420     0.277777     0.270133     0.262490
      0.254847     0.247204     0.239561     0.231918     0.224275     0.216631     0.208988     0.201345
 NY phased data points follow
   7.94818E+00  5.94592E+00  6.82260E+00  5.59792E+00  1.79738E+00  1.26658E+01  1.16683E+01  1.56904E+01  2.18686E+01  2.29535E+01
   2.78765E+01  2.39451E+01  2.56917E+01  1.48891E+01  2.10647E+01  1.46051E+01  1.73641E+01  1.43873E+01  1.19215E+01  1.15033E+01
   1.08268E+01  7.13117E+00  8.08474E+00  1.11500E+01  8.86437E+00  4.18544E+00  7.17396E+00  7.81049E+00  9.82979E+00  1.28958E+01
   1.43435E+01  1.39024E+01  1.14312E+01  1.40753E+01  1.32251E+01  1.04221E+01  1.21440E+01  8.38562E+00  1.04374E+01  9.93775E+00
   6.05376E+00  9.17710E+00  9.49851E+00  9.94531E+00  1.58064E+01  1.49897E+01  1.38215E+01  1.42771E+01  1.26699E+01  9.34146E+00
   1.33146E+01  1.18240E+01  5.04852E+00  1.03050E+01  9.91078E+00  2.83960E+00  7.44538E+00  3.39894E+00  3.18796E+00  9.76585E+00
   1.97477E+00  6.53745E-01  3.74051E+00  1.60123E+00  2.07947E-01 -1.41749E+00 -2.19092E+00  8.04800E-01  3.71747E+00  6.61202E+00
   5.96196E+00 -9.26906E-01  6.61543E+00  2.07832E+00  4.80824E+00  2.20407E+00  2.62711E+00  6.85830E+00  2.77176E+00  4.81800E+00
   3.80528E+00  4.60440E+00  5.02550E-01  5.29004E+00  3.91319E+00  2.81608E+00  4.48218E+00  4.80377E+00  1.97826E+00  2.55356E+00
   6.16683E+00  6.66042E+00  7.76491E+00  3.73968E+00  6.12857E+00  1.10122E+01  3.43088E+00  9.62714E+00  1.34073E+01  2.48966E+01
   2.99026E+01  4.41226E+01  4.53634E+01  4.39881E+01  4.09709E+01  3.67183E+01  2.61364E+01  2.59745E+01  1.24567E+01  1.61642E+01
   1.25007E+01  7.80169E+00  9.97342E+00  1.31458E+01  6.14630E+00  8.29910E-01  2.54612E-01  6.05352E+00 -4.25203E+00  1.65635E+00
  -1.21986E+00  5.07796E+00  9.01556E+00  1.48382E+01  2.19236E+01  2.92321E+01  2.94893E+01  3.24819E+01  2.15418E+01  2.56573E+01
   2.40862E+01  1.87403E+01  1.45412E+01  1.39289E+01  1.03603E+01  5.01410E+00  5.67809E+00  7.61002E+00  2.51367E+00  5.02431E-01
   2.71064E+00 -2.67331E+00 -2.87519E-01 -1.13626E+00 -2.17032E-01 -3.60475E+00 -3.27190E+00  3.18342E+00  2.28266E+00 -9.11410E-01
  -4.41412E-01 -2.26770E+00 -3.84608E+00 -4.60729E+00  1.28314E+00 -8.50969E-01 -4.56051E-01 -9.00600E+00 -3.83212E-01 -6.38613E+00
  -3.10522E-01 -6.55836E+00  1.32406E+00 -1.16943E+00 -3.87383E+00 -5.91178E+00 -3.86007E+00 -6.07522E+00 -4.80244E+00 -1.28831E+00
  -9.48212E+00 -8.52810E+00 -1.13319E+01 -7.23778E+00 -9.62390E+00 -4.94897E+00 -9.37001E+00 -1.13064E+01 -7.70738E+00 -1.05980E+01
  -7.51890E+00 -6.80682E+00 -6.64164E+00 -5.59633E+00 -3.98988E+00 -1.38400E+01 -8.33804E+00 -7.30671E+00 -5.34030E+00 -6.20162E+00
  -7.88056E+00 -3.19588E+00 -3.80452E+00 -7.53349E+00 -3.56369E+00 -1.04941E+01 -5.05350E+00 -2.62311E+00 -6.10958E+00 -7.42425E+00
  -9.00572E+00 -2.86283E+00  3.36279E+00 -2.82595E+00 -2.49919E+00  1.79448E-01  6.72251E+00 -3.61238E+00 -1.30831E+00  1.04456E+00
  -3.74759E+00 -8.66060E-01  3.13206E+00  4.50804E+00  5.26570E+00  8.38267E+00  1.00294E+01  4.26222E-01  3.99563E+00  2.71720E+00
  -1.57405E+00 -6.76306E-01  1.36844E+00  3.99809E+00  4.96058E+00  5.26480E+00  8.99103E+00  6.64044E+00  4.73755E+00  9.08327E+00
   1.10310E+01  6.72269E+00  6.92562E+00  6.21037E+00  8.05382E+00  6.39585E+00  1.14232E+00  9.32054E+00  5.32811E+00  7.92649E+00
   5.21369E+00  5.56223E+00  2.91448E+00  4.90830E+00  6.35239E+00  8.28805E+00  7.99680E+00  7.12614E+00  9.71725E+00  1.43164E+01
   1.83546E+01  1.12721E+01  1.55352E+01  2.02824E+01  2.19272E+01  2.63778E+01  3.29341E+01  3.82167E+01  4.78168E+01  5.73571E+01
   6.15732E+01  5.43438E+01  4.69871E+01  4.63059E+01  3.49510E+01  3.33688E+01  2.28290E+01  2.55507E+01  1.61533E+01  1.23452E+01
   5.82646E+00  8.15359E+00  9.06852E+00  5.55068E+00  1.01610E+01  4.77661E+00  8.93914E+00  4.16734E+00  7.98472E+00  3.78878E+00
   1.06048E+01  1.50283E+00  3.10417E+00  3.08929E+00  2.92460E+00  3.74089E+00  3.64513E+00  2.63025E+00  3.93139E+00  3.93637E+00
   4.63574E+00  1.93610E+00  1.50817E+00  7.81979E-01  3.17682E+00  3.00078E+00  6.52085E+00  3.64740E+00  1.28959E+00  1.97985E+00
  -1.90894E+00  2.89492E+00  8.94091E+00  1.02815E+00  8.13850E+00  1.13415E+01  5.53017E+00  2.61760E+00  8.10763E+00  8.66481E+00
   7.10914E+00  6.32455E+00  8.11892E+00  1.09164E+01  7.24740E+00  7.64525E+00  1.13350E+01  1.08811E+01  1.17242E+01  6.10133E+00
   1.06372E+01  6.93892E+00  1.25886E+01  1.11384E+01  1.17691E+01  1.24904E+01  1.08639E+01  7.25922E+00  6.85740E+00  9.96186E+00
   1.14689E+01  1.00572E+01  1.12014E+01  1.95942E+01  1.35349E+01  1.50651E+01  1.46177E+01  1.58441E+01  2.15047E+01  2.19792E+01
   1.81810E+01  1.50079E+01  2.19124E+01  2.34237E+01  2.42731E+01  2.36473E+01  2.11459E+01  2.33670E+01  2.06647E+01  2.18715E+01
   2.03770E+01  1.93771E+01  2.10903E+01  2.03567E+01  2.09249E+01  1.52718E+01  1.75812E+01  1.68075E+01  1.52887E+01  1.44647E+01
   1.51371E+01  1.94934E+01  1.65863E+01  1.69228E+01  1.47370E+01  1.81992E+01  1.31597E+01  1.22707E+01  9.14349E+00  1.08848E+01
   1.28717E+01  1.17202E+01  1.20883E+01  1.12559E+01  9.66220E+00  1.18986E+01  7.69083E+00  7.08177E+00  9.20699E+00  1.09578E+01
   5.54541E+00  3.41305E+00  9.97437E+00  1.01358E+01  6.59415E+00  7.97564E+00  2.86166E+00  8.41825E+00  1.04625E+01  8.22392E+00
   9.64905E+00  6.73255E+00  1.38150E+01  1.28579E+01  1.04764E+01  9.82693E+00  1.18757E+01  1.29753E+01  6.66632E+00  1.01692E+01
   1.02172E+01  1.44561E+01  1.27793E+01  1.31716E+01  8.70176E+00  1.51283E+01  1.97405E+01  8.70944E+00  1.57162E+01  1.47568E+01
   9.19769E+00  1.20670E+01  1.08568E+01  1.26926E+01  9.32392E+00  1.02466E+01  6.81639E+00  6.94840E+00  8.78675E+00  9.96841E+00
   3.36937E+00  8.27908E+00  4.79470E+00  6.49875E-01  1.24836E+00  1.79164E+00  4.65022E-01  2.84826E+00  1.35425E+00 -1.61600E+00
  -2.09882E-01  2.13086E-01 -1.67450E+00  1.90859E+00  1.57846E+00  1.15390E+00 -1.94627E+00 -1.65667E+00 -4.96683E+00  7.80182E-01
   4.79765E-02 -6.04306E+00  3.02192E+00 -1.73791E+00 -5.72891E+00 -5.14974E+00 -2.30010E+00  2.23729E+00  2.37981E+00  2.59597E+00
   1.04126E-01  2.14052E-01 -1.92066E+00  2.46424E+00 -2.60998E+00 -2.43583E+00 -2.21021E+00 -1.68631E+00 -1.73221E+00  8.97843E-01
   2.10141E+00  1.80652E+00 -8.99478E-01  2.32641E+00 -1.55443E+00 -2.65178E+00 -2.56398E+00 -4.86754E+00 -3.59903E+00 -1.63434E+00
   4.25278E+00 -2.63670E+00  5.80573E+00  1.62958E-01 -8.79005E-02  3.26240E+00 -3.43998E+00 -3.66758E+00 -1.98180E+00 -9.52363E-01
  -1.66254E+00  6.02692E-01 -3.31546E+00 -3.73355E+00 -3.09464E+00 -3.30868E-01 -3.60860E+00 -4.48116E-01 -2.99139E+00  3.47779E+00
  -1.81141E+00 -9.40407E-01  1.13907E+00 -2.41882E+00 -1.95967E+00 -4.51440E-01  6.48038E-01  3.23125E+00
 NY points of the fit to the data follow
   6.23664E+00  5.68632E+00  5.56234E+00  6.16868E+00  7.52232E+00  9.47944E+00  1.21317E+01  1.54472E+01  1.91075E+01  2.23798E+01
   2.43621E+01  2.45581E+01  2.31929E+01  2.09875E+01  1.85848E+01  1.62948E+01  1.43031E+01  1.27216E+01  1.13123E+01  9.61340E+00
   7.57987E+00  5.98934E+00  5.48129E+00  5.27987E+00  5.17248E+00  5.57793E+00  6.87107E+00  9.07853E+00  1.17457E+01  1.41787E+01
   1.57259E+01  1.60605E+01  1.52349E+01  1.34933E+01  1.13980E+01  9.66530E+00  8.50683E+00  7.55454E+00  6.64450E+00  6.09187E+00
   6.28573E+00  7.06196E+00  8.42716E+00  1.05576E+01  1.29897E+01  1.49329E+01  1.57011E+01  1.50934E+01  1.34098E+01  1.12669E+01
   9.26846E+00  7.61223E+00  6.43404E+00  5.76865E+00  5.35854E+00  4.88376E+00  4.51753E+00  4.66772E+00  5.15812E+00  5.42005E+00
   5.19552E+00  4.64109E+00  3.97034E+00  3.40179E+00  3.10056E+00  3.09993E+00  3.32292E+00  3.59083E+00  3.80491E+00  4.03135E+00
   4.27122E+00  4.48247E+00  4.62448E+00  4.64842E+00  4.55649E+00  4.34396E+00  4.04341E+00  3.75415E+00  3.54867E+00  3.51419E+00
   3.53582E+00  3.65033E+00  3.95733E+00  4.32807E+00  4.54717E+00  4.43603E+00  3.97556E+00  3.32064E+00  2.74756E+00  2.41384E+00
   2.29766E+00  2.33551E+00  2.46076E+00  2.58047E+00  2.76606E+00  3.83435E+00  6.49857E+00  1.07785E+01  1.67457E+01  2.43933E+01
   3.28604E+01  4.02083E+01  4.43323E+01  4.42736E+01  4.07863E+01  3.55866E+01  3.01038E+01  2.49802E+01  2.05561E+01  1.68006E+01
   1.29996E+01  8.44963E+00  3.63372E+00  5.90684E-01 -1.47834E-01 -2.10980E-01 -1.03786E-01  1.14030E-01  5.40500E-01  1.62712E+00
   3.75979E+00  6.73649E+00  1.06942E+01  1.57514E+01  2.14404E+01  2.66060E+01  2.98997E+01  3.05647E+01  2.89289E+01  2.60310E+01
   2.27120E+01  1.93331E+01  1.60925E+01  1.30373E+01  9.92410E+00  6.46300E+00  2.99353E+00  7.98984E-01  4.38294E-01  6.68681E-01
   9.09119E-01  9.79627E-01  8.79273E-01  7.42243E-01  6.83703E-01  6.34379E-01  5.19612E-01  3.17226E-01  3.55924E-03 -3.92958E-01
  -7.92448E-01 -1.14750E+00 -1.39840E+00 -1.60252E+00 -1.79252E+00 -1.97948E+00 -2.18947E+00 -2.43387E+00 -2.70260E+00 -2.93481E+00
  -3.05465E+00 -3.04025E+00 -2.94638E+00 -2.87593E+00 -2.91099E+00 -3.06834E+00 -3.30038E+00 -3.54737E+00 -3.77905E+00 -3.98041E+00
  -4.14845E+00 -4.37455E+00 -4.70340E+00 -5.08164E+00 -5.40073E+00 -5.53340E+00 -5.51820E+00 -5.48713E+00 -5.51208E+00 -5.59559E+00
  -5.67494E+00 -5.68856E+00 -5.62801E+00 -5.46122E+00 -5.11556E+00 -4.55072E+00 -3.82347E+00 -3.01618E+00 -2.17629E+00 -1.49393E+00
  -1.17625E+00 -1.32459E+00 -1.86661E+00 -2.57370E+00 -3.16422E+00 -3.42968E+00 -3.24693E+00 -2.56983E+00 -1.40978E+00  7.45001E-02
   1.62847E+00  2.96094E+00  3.68958E+00  3.56889E+00  2.61783E+00  9.31447E-01 -1.21688E+00 -3.34890E+00 -4.82390E+00 -5.20575E+00
  -4.35176E+00 -2.49770E+00 -1.47962E-01  2.03120E+00  3.41768E+00  3.71690E+00  3.09797E+00  1.91513E+00  6.41076E-01 -4.31500E-01
  -1.23228E+00 -1.47024E+00 -8.69642E-01  1.47455E-01  1.15377E+00  2.12520E+00  3.19553E+00  4.04197E+00  4.53654E+00  4.90123E+00
   5.42072E+00  6.00096E+00  6.32587E+00  6.45111E+00  6.71559E+00  7.15608E+00  7.66403E+00  8.14952E+00  8.46774E+00  8.56186E+00
   8.47693E+00  8.21488E+00  7.86692E+00  7.70737E+00  7.88045E+00  8.25838E+00  8.60538E+00  8.97148E+00  9.60975E+00  1.04802E+01
   1.15253E+01  1.28900E+01  1.50483E+01  1.83256E+01  2.23666E+01  2.74783E+01  3.41451E+01  4.20598E+01  4.97747E+01  5.50904E+01
   5.64241E+01  5.39351E+01  4.91082E+01  4.34201E+01  3.76846E+01  3.24907E+01  2.81323E+01  2.40079E+01  1.91503E+01  1.36181E+01
   9.21440E+00  7.41195E+00  6.61700E+00  6.07640E+00  5.65023E+00  5.23663E+00  4.81074E+00  4.40236E+00  4.02115E+00  3.67964E+00
   3.37899E+00  3.10221E+00  2.83466E+00  2.59455E+00  2.40323E+00  2.25851E+00  2.15538E+00  2.09569E+00  2.08313E+00  2.11677E+00
   2.18735E+00  2.28920E+00  2.42534E+00  2.59580E+00  2.79895E+00  3.03378E+00  3.29996E+00  3.59445E+00  3.91160E+00  4.24646E+00
   4.59336E+00  4.94418E+00  5.29165E+00  5.62942E+00  5.95059E+00  6.24930E+00  6.52110E+00  6.76302E+00  6.97347E+00  7.15225E+00
   7.30174E+00  7.42656E+00  7.53366E+00  7.63284E+00  7.73571E+00  7.85622E+00  8.01258E+00  8.23094E+00  8.55930E+00  9.06571E+00
   9.68822E+00  1.03677E+01  1.10924E+01  1.17608E+01  1.21707E+01  1.21160E+01  1.15369E+01  1.06860E+01  9.92531E+00  9.47279E+00
   9.46913E+00  1.00323E+01  1.11987E+01  1.27884E+01  1.44415E+01  1.58793E+01  1.71045E+01  1.82866E+01  1.92930E+01  2.00224E+01
   2.05819E+01  2.10584E+01  2.14226E+01  2.15357E+01  2.13124E+01  2.09843E+01  2.07432E+01  2.05295E+01  2.03218E+01  2.01204E+01
   1.99300E+01  1.97545E+01  1.95932E+01  1.94319E+01  1.92449E+01  1.90111E+01  1.87290E+01  1.84125E+01  1.80594E+01  1.76575E+01
   1.72126E+01  1.67314E+01  1.62138E+01  1.56543E+01  1.50537E+01  1.44336E+01  1.38091E+01  1.31808E+01  1.25522E+01  1.19286E+01
   1.13156E+01  1.07192E+01  1.01453E+01  9.59956E+00  9.08739E+00  8.61391E+00  8.18384E+00  7.80152E+00  7.47094E+00  7.19573E+00
   6.97921E+00  6.82431E+00  6.73352E+00  6.70885E+00  6.75176E+00  6.86303E+00  7.04260E+00  7.28938E+00  7.60102E+00  7.97377E+00
   8.40234E+00  8.87975E+00  9.39728E+00  9.94445E+00  1.05092E+01  1.10780E+01  1.16363E+01  1.21692E+01  1.26614E+01  1.30982E+01
   1.34658E+01  1.37524E+01  1.39482E+01  1.40461E+01  1.40419E+01  1.39344E+01  1.37256E+01  1.34205E+01  1.30266E+01  1.25539E+01
   1.20137E+01  1.14187E+01  1.07820E+01  1.01170E+01  9.43618E+00  8.75143E+00  8.07320E+00  7.41050E+00  6.77076E+00  6.15979E+00
   5.58182E+00  5.03959E+00  4.53455E+00  4.06703E+00  3.63650E+00  3.24169E+00  2.88083E+00  2.55175E+00  2.25212E+00  1.97950E+00
   1.73149E+00  1.50575E+00  1.30004E+00  1.11228E+00  9.40563E-01  7.83169E-01  6.38572E-01  5.05392E-01  3.82395E-01  2.68484E-01
   1.62708E-01  6.42411E-02 -2.76443E-02 -1.13602E-01 -1.94220E-01 -2.70008E-01 -3.41406E-01 -4.08794E-01 -4.72518E-01 -5.32898E-01
  -5.90225E-01 -6.44746E-01 -6.96669E-01 -7.46181E-01 -7.93462E-01 -8.38690E-01 -8.82026E-01 -9.23595E-01 -9.63507E-01 -1.00186E+00
  -1.03878E+00 -1.07435E+00 -1.10867E+00 -1.14181E+00 -1.17382E+00 -1.20478E+00 -1.23476E+00 -1.26383E+00 -1.29204E+00 -1.31942E+00
  -1.34602E+00 -1.37188E+00 -1.39706E+00 -1.42159E+00 -1.44552E+00 -1.46885E+00 -1.49163E+00 -1.51389E+00 -1.53567E+00 -1.55700E+00
  -1.57789E+00 -1.59837E+00 -1.61846E+00 -1.63819E+00 -1.65761E+00 -1.67671E+00 -1.69553E+00 -1.71406E+00 -1.73235E+00 -1.75044E+00
  -1.76834E+00 -1.78606E+00 -1.80363E+00 -1.82107E+00 -1.83842E+00 -1.85572E+00 -1.87299E+00 -1.89025E+00
 NY background values follow
    -2.607E+00   -2.609E+00   -2.611E+00   -2.613E+00   -2.616E+00   -2.618E+00   -2.620E+00   -2.622E+00   -2.624E+00   -2.626E+00
    -2.628E+00   -2.630E+00   -2.633E+00   -2.635E+00   -2.637E+00   -2.639E+00   -2.641E+00   -2.643E+00   -2.645E+00   -2.647E+00
    -2.650E+00   -2.652E+00   -2.654E+00   -2.656E+00   -2.658E+00   -2.660E+00   -2.662E+00   -2.664E+00   -2.666E+00   -2.669E+00
    -2.671E+00   -2.673E+00   -2.675E+00   -2.677E+00   -2.679E+00   -2.681E+00   -2.683E+00   -2.685E+00   -2.687E+00   -2.690E+00
    -2.692E+00   -2.694E+00   -2.696E+00   -2.698E+00   -2.700E+00   -2.702E+00   -2.704E+00   -2.706E+00   -2.708E+00   -2.710E+00
    -2.713E+00   -2.715E+00   -2.717E+00   -2.719E+00   -2.721E+00   -2.723E+00   -2.725E+00   -2.727E+00   -2.729E+00   -2.731E+00
    -2.733E+00   -2.735E+00   -2.738E+00   -2.740E+00   -2.742E+00   -2.744E+00   -2.746E+00   -2.748E+00   -2.750E+00   -2.752E+00
    -2.754E+00   -2.756E+00   -2.758E+00   -2.760E+00   -2.762E+00   -2.764E+00   -2.766E+00   -2.768E+00   -2.771E+00   -2.773E+00
    -2.775E+00   -2.777E+00   -2.779E+00   -2.781E+00   -2.783E+00   -2.785E+00   -2.787E+00   -2.789E+00   -2.791E+00   -2.793E+00
    -2.795E+00   -2.797E+00   -2.799E+00   -2.801E+00   -2.803E+00   -2.805E+00   -2.807E+00   -2.809E+00   -2.811E+00   -2.813E+00
    -2.816E+00   -2.818E+00   -2.820E+00   -2.822E+00   -2.824E+00   -2.826E+00   -2.828E+00   -2.830E+00   -2.832E+00   -2.834E+00
    -2.836E+00   -2.838E+00   -2.840E+00   -2.842E+00   -2.844E+00   -2.846E+00   -2.848E+00   -2.850E+00   -2.852E+00   -2.854E+00
    -2.856E+00   -2.858E+00   -2.860E+00   -2.862E+00   -2.864E+00   -2.866E+00   -2.868E+00   -2.870E+00   -2.872E+00   -2.874E+00
    -2.876E+00   -2.878E+00   -2.880E+00   -2.882E+00   -2.884E+00   -2.886E+00   -2.888E+00   -2.890E+00   -2.892E+00   -2.894E+00
    -2.896E+00   -2.898E+00   -2.900E+00   -2.902E+00   -2.904E+00   -2.906E+00   -2.908E+00   -2.910E+00   -2.912E+00   -2.914E+00
    -2.916E+00   -2.918E+00   -2.920E+00   -2.922E+00   -2.923E+00   -2.925E+00   -2.927E+00   -2.929E+00   -2.931E+00   -2.933E+00
    -2.935E+00   -2.937E+00   -2.939E+00   -2.941E+00   -2.943E+00   -2.945E+00   -2.947E+00   -2.949E+00   -2.951E+00   -2.953E+00
    -2.955E+00   -2.957E+00   -2.959E+00   -2.961E+00   -2.962E+00   -2.964E+00   -2.966E+00   -2.968E+00   -2.970E+00   -2.972E+00
    -2.974E+00   -2.976E+00   -2.978E+00   -2.980E+00   -2.982E+00   -2.984E+00   -2.986E+00   -2.988E+00   -2.989E+00   -2.991E+00
    -2.993E+00   -2.995E+00   -2.997E+00   -2.999E+00   -3.001E+00   -3.003E+00   -3.005E+00   -3.007E+00   -3.009E+00   -3.010E+00
    -3.012E+00   -3.014E+00   -3.016E+00   -3.018E+00   -3.020E+00   -3.022E+00   -3.024E+00   -3.026E+00   -3.028E+00   -3.029E+00
    -3.031E+00   -3.033E+00   -3.035E+00   -3.037E+00   -3.039E+00   -3.041E+00   -3.043E+00   -3.044E+00   -3.046E+00   -3.048E+00
    -3.050E+00   -3.052E+00   -3.054E+00   -3.056E+00   -3.058E+00   -3.059E+00   -3.061E+00   -3.063E+00   -3.065E+00   -3.067E+00
    -3.069E+00   -3.071E+00   -3.072E+00   -3.074E+00   -3.076E+00   -3.078E+00   -3.080E+00   -3.082E+00   -3.083E+00   -3.085E+00
    -3.087E+00   -3.089E+00   -3.091E+00   -3.093E+00   -3.094E+00   -3.096E+00   -3.098E+00   -3.100E+00   -3.102E+00   -3.104E+00
    -3.105E+00   -3.107E+00   -3.109E+00   -3.111E+00   -3.113E+00   -3.115E+00   -3.116E+00   -3.118E+00   -3.120E+00   -3.122E+00
    -3.124E+00   -3.125E+00   -3.127E+00   -3.129E+00   -3.131E+00   -3.133E+00   -3.134E+00   -3.136E+00   -3.138E+00   -3.140E+00
    -3.142E+00   -3.143E+00   -3.145E+00   -3.147E+00   -3.149E+00   -3.151E+00   -3.152E+00   -3.154E+00   -3.156E+00   -3.158E+00
    -3.159E+00   -3.161E+00   -3.163E+00   -3.165E+00   -3.167E+00   -3.168E+00   -3.170E+00   -3.172E+00   -3.174E+00   -3.175E+00
    -3.177E+00   -3.179E+00   -3.181E+00   -3.182E+00   -3.184E+00   -3.186E+00   -3.188E+00   -3.189E+00   -3.191E+00   -3.193E+00
    -3.195E+00   -3.196E+00   -3.198E+00   -3.200E+00   -3.202E+00   -3.203E+00   -3.205E+00   -3.207E+00   -3.208E+00   -3.210E+00
    -3.212E+00   -3.214E+00   -3.215E+00   -3.217E+00   -3.219E+00   -3.221E+00   -3.222E+00   -3.224E+00   -3.226E+00   -3.227E+00
    -3.229E+00   -3.231E+00   -3.232E+00   -3.234E+00   -3.236E+00   -3.238E+00   -3.239E+00   -3.241E+00   -3.243E+00   -3.244E+00
    -3.246E+00   -3.248E+00   -3.249E+00   -3.251E+00   -3.253E+00   -3.254E+00   -3.256E+00   -3.258E+00   -3.260E+00   -3.261E+00
    -3.263E+00   -3.265E+00   -3.266E+00   -3.268E+00   -3.270E+00   -3.271E+00   -3.273E+00   -3.275E+00   -3.276E+00   -3.278E+00
    -3.280E+00   -3.281E+00   -3.283E+00   -3.284E+00   -3.286E+00   -3.288E+00   -3.289E+00   -3.291E+00   -3.293E+00   -3.294E+00
    -3.296E+00   -3.298E+00   -3.299E+00   -3.301E+00   -3.302E+00   -3.304E+00   -3.306E+00   -3.307E+00   -3.309E+00   -3.311E+00
    -3.312E+00   -3.314E+00   -3.315E+00   -3.317E+00   -3.319E+00   -3.320E+00   -3.322E+00   -3.324E+00   -3.325E+00   -3.327E+00
    -3.328E+00   -3.330E+00   -3.332E+00   -3.333E+00   -3.335E+00   -3.336E+00   -3.338E+00   -3.339E+00   -3.341E+00   -3.343E+00
    -3.344E+00   -3.346E+00   -3.347E+00   -3.349E+00   -3.351E+00   -3.352E+00   -3.354E+00   -3.355E+00   -3.357E+00   -3.358E+00
    -3.360E+00   -3.361E+00   -3.363E+00   -3.365E+00   -3.366E+00   -3.368E+00   -3.369E+00   -3.371E+00   -3.372E+00   -3.374E+00
    -3.375E+00   -3.377E+00   -3.378E+00   -3.380E+00   -3.382E+00   -3.383E+00   -3.385E+00   -3.386E+00   -3.388E+00   -3.389E+00
    -3.391E+00   -3.392E+00   -3.394E+00   -3.395E+00   -3.397E+00   -3.398E+00   -3.400E+00   -3.401E+00   -3.403E+00   -3.404E+00
    -3.406E+00   -3.407E+00   -3.409E+00   -3.410E+00   -3.412E+00   -3.413E+00   -3.415E+00   -3.416E+00   -3.418E+00   -3.419E+00
    -3.421E+00   -3.422E+00   -3.424E+00   -3.425E+00   -3.427E+00   -3.428E+00   -3.430E+00   -3.431E+00   -3.433E+00   -3.434E+00
    -3.435E+00   -3.437E+00   -3.438E+00   -3.440E+00   -3.441E+00   -3.443E+00   -3.444E+00   -3.446E+00   -3.447E+00   -3.449E+00
    -3.450E+00   -3.451E+00   -3.453E+00   -3.454E+00   -3.456E+00   -3.457E+00   -3.459E+00   -3.460E+00   -3.461E+00   -3.463E+00
    -3.464E+00   -3.466E+00   -3.467E+00   -3.469E+00   -3.470E+00   -3.471E+00   -3.473E+00   -3.474E+00   -3.476E+00   -3.477E+00
    -3.478E+00   -3.480E+00   -3.481E+00   -3.483E+00   -3.484E+00   -3.485E+00   -3.487E+00   -3.488E+00   -3.489E+00   -3.491E+00
    -3.492E+00   -3.494E+00   -3.495E+00   -3.496E+00   -3.498E+00   -3.499E+00   -3.500E+00   -3.502E+00
 Ala      Conc. = 4.21E+02
