 LCModel (Version 6.3-1L) Copyright: S.W. Provencher.          Ref.: Magn. Reson. Med. 30:672-679 (1993).                
 Slice#1 Row#5 Col#10  PD_24_press_1_raw_act
 36 lines in following concentration table = NCONC+1
    Conc.  %SD /Cr+PCr  Metabolite                                         
  258.009  65%   0.271 Ala                                                 
   28.645 697% 3.0E-02 Asp                                                 
   95.288 265%   0.100 Cr                                                  
  856.056  30%   0.900 PCr                                                 
   15.702 873% 1.7E-02 GABA                                                
   94.700 140%   0.100 Glc                                                 
  752.211  44%   0.791 Gln                                                 
 1.63E+03  23%   1.717 Glu                                                 
  540.592   4%   0.568 GPC                                                 
    0.000 999%   0.000 PCh                                                 
  243.334  35%   0.256 GSH                                                 
 1.54E+03  17%   1.620 Ins                                                 
    0.000 999%   0.000 Lac                                                 
 1.72E+03   4%   1.809 NAA                                                 
    0.000 999%   0.000 NAAG                                                
  154.510  18%   0.162 Scyllo                                              
   13.484 999% 1.4E-02 Tau                                                 
  212.367  49%   0.223 -CrCH2                                              
  540.592   4%   0.568 GPC+PCh                                             
 1.72E+03   4%   1.809 NAA+NAAG                                            
  951.345   6%   1.000 Cr+PCr                                              
 2.39E+03  25%   2.508 Glu+Gln                                             
    0.000 999%   0.000 Lip13a                                              
    0.000 999%   0.000 Lip13b                                              
 4.20E-03 999% 4.4E-06 Lip09                                               
 1.57E+03   9%   1.653 MM09                                                
    0.000 999%   0.000 Lip20                                               
 2.29E+03  14%   2.403 MM20                                                
    0.000 999%   0.000 MM12                                                
 1.97E+03  14%   2.068 MM14                                                
 1.42E+03  20%   1.497 MM17                                                
    0.000 999%   0.000 Lip13a+Lip13b                                       
 1.97E+03  14%   2.068 MM14+Lip13a+Lip13b+MM12                             
 1.57E+03   9%   1.653 MM09+Lip09                                          
 2.29E+03  14%   2.403 MM20+Lip20                                          
   6 lines in following misc. output table
  FWHM = 0.069 ppm    S/N =   8                                            
  Data shift = 0.038 ppm                                                   
  Ph: -39 deg     -13.9 deg/ppm                                            
  alphaB,S = 8.5E+01,   4.1E+02                                            
   14 spline knots.   Ns = 9(1)                                            
   2 inflections.     1 extrema                                            
  498 points on ppm-axis = NY
      4.000000     3.992357     3.984714     3.977070     3.969427     3.961784     3.954141     3.946497     3.938854     3.931211
      3.923568     3.915925     3.908281     3.900638     3.892995     3.885352     3.877708     3.870065     3.862422     3.854779
      3.847136     3.839492     3.831849     3.824206     3.816563     3.808919     3.801276     3.793633     3.785990     3.778347
      3.770703     3.763060     3.755417     3.747774     3.740130     3.732487     3.724844     3.717201     3.709558     3.701914
      3.694271     3.686628     3.678985     3.671341     3.663698     3.656055     3.648412     3.640769     3.633125     3.625482
      3.617839     3.610196     3.602552     3.594909     3.587266     3.579623     3.571980     3.564336     3.556693     3.549050
      3.541407     3.533763     3.526120     3.518477     3.510834     3.503191     3.495547     3.487904     3.480261     3.472618
      3.464974     3.457331     3.449688     3.442045     3.434402     3.426758     3.419115     3.411472     3.403829     3.396185
      3.388542     3.380899     3.373256     3.365613     3.357969     3.350326     3.342683     3.335040     3.327396     3.319753
      3.312110     3.304467     3.296824     3.289180     3.281537     3.273894     3.266251     3.258607     3.250964     3.243321
      3.235678     3.228034     3.220391     3.212748     3.205105     3.197462     3.189818     3.182175     3.174532     3.166889
      3.159245     3.151602     3.143959     3.136316     3.128673     3.121029     3.113386     3.105743     3.098100     3.090456
      3.082813     3.075170     3.067527     3.059884     3.052240     3.044597     3.036954     3.029311     3.021667     3.014024
      3.006381     2.998738     2.991095     2.983451     2.975808     2.968165     2.960522     2.952878     2.945235     2.937592
      2.929949     2.922306     2.914662     2.907019     2.899376     2.891733     2.884089     2.876446     2.868803     2.861160
      2.853517     2.845873     2.838230     2.830587     2.822944     2.815300     2.807657     2.800014     2.792371     2.784728
      2.777084     2.769441     2.761798     2.754155     2.746511     2.738868     2.731225     2.723582     2.715939     2.708295
      2.700652     2.693009     2.685366     2.677722     2.670079     2.662436     2.654793     2.647150     2.639506     2.631863
      2.624220     2.616577     2.608933     2.601290     2.593647     2.586004     2.578361     2.570717     2.563074     2.555431
      2.547788     2.540144     2.532501     2.524858     2.517215     2.509572     2.501928     2.494285     2.486642     2.478999
      2.471355     2.463712     2.456069     2.448426     2.440783     2.433139     2.425496     2.417853     2.410210     2.402566
      2.394923     2.387280     2.379637     2.371994     2.364350     2.356707     2.349064     2.341421     2.333777     2.326134
      2.318491     2.310848     2.303205     2.295561     2.287918     2.280275     2.272632     2.264988     2.257345     2.249702
      2.242059     2.234416     2.226772     2.219129     2.211486     2.203843     2.196199     2.188556     2.180913     2.173270
      2.165627     2.157983     2.150340     2.142697     2.135054     2.127410     2.119767     2.112124     2.104481     2.096838
      2.089194     2.081551     2.073908     2.066265     2.058621     2.050978     2.043335     2.035692     2.028049     2.020405
      2.012762     2.005119     1.997476     1.989833     1.982190     1.974546     1.966903     1.959260     1.951617     1.943974
      1.936331     1.928688     1.921045     1.913402     1.905759     1.898115     1.890472     1.882829     1.875186     1.867543
      1.859900     1.852257     1.844614     1.836971     1.829327     1.821684     1.814041     1.806398     1.798755     1.791112
      1.783469     1.775826     1.768183     1.760540     1.752896     1.745253     1.737610     1.729967     1.722324     1.714681
      1.707038     1.699395     1.691752     1.684108     1.676465     1.668822     1.661179     1.653536     1.645893     1.638250
      1.630607     1.622964     1.615321     1.607677     1.600034     1.592391     1.584748     1.577105     1.569462     1.561819
      1.554176     1.546533     1.538890     1.531246     1.523603     1.515960     1.508317     1.500674     1.493031     1.485388
      1.477745     1.470102     1.462458     1.454815     1.447172     1.439529     1.431886     1.424243     1.416600     1.408957
      1.401314     1.393671     1.386027     1.378384     1.370741     1.363098     1.355455     1.347812     1.340169     1.332526
      1.324883     1.317240     1.309596     1.301953     1.294310     1.286667     1.279024     1.271381     1.263738     1.256095
      1.248452     1.240808     1.233165     1.225522     1.217879     1.210236     1.202593     1.194950     1.187307     1.179664
      1.172021     1.164377     1.156734     1.149091     1.141448     1.133805     1.126162     1.118519     1.110876     1.103233
      1.095590     1.087946     1.080303     1.072660     1.065017     1.057374     1.049731     1.042088     1.034445     1.026802
      1.019158     1.011515     1.003872     0.996229     0.988586     0.980943     0.973300     0.965657     0.958014     0.950371
      0.942727     0.935084     0.927441     0.919798     0.912155     0.904512     0.896869     0.889226     0.881583     0.873940
      0.866296     0.858653     0.851010     0.843367     0.835724     0.828081     0.820438     0.812795     0.805152     0.797508
      0.789865     0.782222     0.774579     0.766936     0.759293     0.751650     0.744007     0.736364     0.728721     0.721077
      0.713434     0.705791     0.698148     0.690505     0.682862     0.675219     0.667576     0.659933     0.652290     0.644646
      0.637003     0.629360     0.621717     0.614074     0.606431     0.598788     0.591145     0.583502     0.575858     0.568215
      0.560572     0.552929     0.545286     0.537643     0.530000     0.522357     0.514714     0.507071     0.499427     0.491784
      0.484141     0.476498     0.468855     0.461212     0.453569     0.445925     0.438282     0.430639     0.422996     0.415353
      0.407710     0.400067     0.392424     0.384780     0.377137     0.369494     0.361851     0.354208     0.346565     0.338922
      0.331278     0.323635     0.315992     0.308349     0.300706     0.293063     0.285420     0.277777     0.270133     0.262490
      0.254847     0.247204     0.239561     0.231918     0.224275     0.216631     0.208988     0.201345
 NY phased data points follow
  -1.65466E+00  2.07831E+00  9.27757E-01  6.66686E+00  3.85009E+00  6.21181E+00  1.40161E+01  1.20313E+01  9.95884E+00  1.34081E+01
   8.51489E+00  1.35868E+01  5.71285E+00  7.16098E+00  3.02951E+00  5.26154E+00  1.25353E-01  5.91180E-01 -2.54027E+00  1.41961E+00
   2.90245E+00  2.25447E-01  2.57983E+00  3.93621E+00  1.23585E+00  1.19565E+00 -1.03753E+00  2.68449E+00 -1.58037E+00  2.83120E+00
   1.03285E+00  7.47819E+00  4.50726E+00  4.22779E+00  3.59264E+00  3.90211E+00  2.28398E+00  4.33259E+00  1.17845E+00  2.38818E+00
   1.98790E+00  4.12929E+00  4.19959E+00  9.18191E+00  5.92960E+00  1.16853E+01  4.99415E+00  9.84853E+00  7.54582E+00  2.42418E+00
   5.84014E+00  6.45882E+00  7.53528E+00  3.01482E+00  9.15711E-01  5.41579E+00  2.43761E+00  2.52290E+00 -1.17334E+00  1.24622E+00
  -4.93639E-01  4.06782E-01 -7.18281E+00 -3.38290E+00 -4.50235E+00 -2.80775E+00 -2.90140E+00 -3.13774E+00 -6.17549E+00 -3.05300E+00
  -3.66151E+00 -4.93234E+00  1.64849E+00  2.98138E+00  6.21891E-01  2.16763E+00 -3.56283E-01 -1.90061E+00 -5.77663E-01 -8.25402E-01
   1.14800E-01 -1.29678E+00  2.60507E+00  2.42000E+00  4.53539E+00  1.71616E+00  2.99441E+00  7.07562E+00  2.18516E+00 -7.00078E-01
   3.41295E+00  1.67649E+00  3.14234E+00  4.87340E+00  9.52022E+00  1.23903E+01  1.21796E+01  1.93066E+01  2.34266E+01  3.33242E+01
   3.13346E+01  3.68074E+01  3.37920E+01  3.23178E+01  2.58347E+01  1.93817E+01  1.57957E+01  1.01421E+01  9.82228E+00  2.08981E-01
  -1.16727E+00  2.02489E+00 -4.59332E-01 -4.49967E+00 -1.18944E+00  1.86925E+00  1.13550E+00 -6.60417E-01  1.05100E+00  1.15182E+00
   3.78176E+00  1.08384E+01  1.04738E+01  1.73315E+01  2.14908E+01  2.36125E+01  2.14726E+01  2.40796E+01  1.45037E+01  1.06948E+01
   9.63486E+00  9.80532E+00  9.31576E+00  8.00589E+00  3.47002E+00  1.37577E+00  3.82290E+00  7.10079E-01  6.05015E-01 -1.20517E-01
  -2.24095E+00 -2.52400E+00  9.61568E-01 -2.86124E+00 -1.63634E+00 -3.01018E+00 -4.43177E+00 -3.82107E+00 -3.09296E+00 -4.69566E+00
  -1.57668E+00 -1.41028E+00 -4.05391E+00 -3.78221E+00 -3.93521E+00 -7.52287E-01 -3.12022E+00 -3.72371E-01 -6.69280E+00 -7.63719E+00
  -9.74222E+00 -3.68561E+00 -3.67026E+00  3.95835E-01 -1.81192E+00 -2.33092E+00 -5.34094E+00 -7.99096E+00 -1.00542E+01 -6.72848E+00
  -6.47770E+00 -5.41934E+00 -6.64595E+00 -9.61121E+00 -1.20408E+01 -1.46994E+01 -1.14250E+01 -9.84010E+00 -1.10897E+01 -1.23371E+01
  -7.67072E+00 -7.50771E+00 -6.85766E+00 -6.92351E+00 -6.46239E+00 -3.58736E+00 -5.09770E+00 -2.89447E+00 -5.05416E+00 -2.03173E+00
  -4.03103E+00  5.56340E-03 -4.18814E+00 -4.47007E+00  1.11497E+00 -3.06563E+00 -5.50057E+00 -6.90219E+00 -5.77923E+00 -8.34035E+00
  -4.76998E+00 -3.30689E+00 -3.05848E+00 -2.75635E+00 -7.03984E+00 -1.48626E-03 -3.05120E+00 -1.08814E+00 -6.16604E+00 -6.99726E+00
  -1.46052E+00  4.96277E-01 -7.95677E-01  8.53310E+00  6.26251E+00  3.68079E+00  1.88561E+00  6.87969E+00  1.13182E+00 -1.10103E+00
  -1.41980E+00 -4.42080E+00 -5.12397E+00 -3.42976E+00 -1.16000E+00  3.92418E+00  1.81179E+00  1.95018E+00  1.50194E+00 -2.84214E+00
   1.33931E+00  2.25511E+00  2.90253E+00  7.20339E-02  5.05834E+00  3.91629E+00  7.89836E+00 -4.07781E-01  6.27403E+00  9.90721E-01
  -4.56606E+00  1.76326E+00  2.45268E+00  5.60574E+00  3.74752E+00  3.15353E+00  5.07070E+00  8.99549E+00  7.68712E+00  6.11066E+00
   5.94744E+00  9.01673E+00  1.23612E+01  1.90645E+01  1.46112E+01  1.53072E+01  2.96889E+01  4.42650E+01  5.24699E+01  5.40324E+01
   4.84927E+01  5.09976E+01  4.22519E+01  3.72570E+01  2.77015E+01  2.34482E+01  1.57159E+01  1.47256E+01  1.48555E+01  9.34524E+00
   6.47644E+00  9.91023E+00  5.89132E+00  4.17468E+00  1.69694E+00  2.11486E+00  2.58586E+00  1.92101E+00  2.27678E+00  2.74429E+00
   1.99687E-02  3.51657E+00 -8.01889E-01  2.33838E+00  1.48438E+00  2.99500E+00 -1.05903E-01  1.77198E+00 -2.93615E-01  7.79814E+00
  -7.93377E-01  7.14086E+00  4.53775E+00  2.27451E+00  1.30663E+00  6.06975E+00  3.28993E+00  5.99481E+00  1.22292E+00  3.96683E+00
   2.88310E-01  1.51847E+00  3.43112E+00  4.08938E+00  5.90855E+00  2.91774E+00  8.01062E+00  4.79185E+00  8.70575E+00  6.90164E+00
   7.64823E+00  1.20276E+01  8.18129E+00  7.58452E+00  9.46544E+00  6.16506E+00  1.44541E+01  7.63276E+00  8.42097E+00  1.10866E+01
   1.13704E+01  1.15053E+01  1.10220E+01  7.39993E+00  8.25214E+00  1.39324E+01  1.01362E+01  1.51895E+01  1.05438E+01  1.23261E+01
   1.71246E+01  8.38193E+00  1.30490E+01  1.57991E+01  1.07543E+01  1.57423E+01  1.11349E+01  1.07147E+01  1.14426E+01  1.15851E+01
   1.34006E+01  1.25625E+01  1.44660E+01  1.46215E+01  1.41386E+01  1.43753E+01  8.06618E+00  1.24085E+01  9.24588E+00  8.92493E+00
   2.92289E+00 -1.30893E+00 -5.05941E-01 -4.69747E+00  2.23764E-01 -3.35965E-01 -5.30569E+00 -6.66147E+00 -6.59034E-01 -9.01693E+00
  -8.86453E+00 -1.03701E+00 -4.09771E+00 -6.76385E+00 -4.36459E+00 -4.26307E+00 -4.54476E+00 -1.11108E+00  1.31477E+00 -3.82826E+00
  -2.14987E+00 -2.80526E+00 -4.35971E+00 -2.11332E+00 -3.79240E+00 -1.23670E+00 -3.38178E+00 -4.06302E-01 -8.07976E-01 -4.19919E-01
   8.53565E-01  1.50641E+00  3.29304E-01  4.27008E+00  5.71135E+00  4.46890E+00  4.71086E+00  5.03893E+00  5.38758E+00  5.60366E+00
   5.70642E+00  6.18835E+00  4.13371E+00  7.16326E+00  3.54965E+00  7.82969E+00  7.29031E+00  8.99265E+00  7.31752E+00  5.60936E+00
   1.02949E+01  1.05135E+01  1.33857E+01  1.68672E+01  1.44504E+01  1.63620E+01  1.27832E+01  1.67197E+01  1.42593E+01  1.40451E+01
   1.03218E+01  1.27890E+01  1.17336E+01  5.99297E+00  1.37500E+01  4.86172E+00  1.26679E+01  6.69248E+00  2.56147E+00  6.82239E+00
   4.85542E+00  4.04219E+00  6.46699E+00  5.19844E+00 -1.61635E+00  8.96653E-01  9.29961E-01  1.68499E+00 -1.57267E+00  2.52768E+00
   2.98199E+00  9.52106E-01  5.60205E-02  1.18427E+00  3.81937E+00  1.23554E+00  1.64383E+00  2.83771E+00  3.97821E+00  1.26431E+00
  -1.11429E+00  2.06356E+00  6.22685E-01  5.38311E-01  3.39206E-01  8.47029E-01 -2.06029E+00  1.80977E+00  2.36054E+00 -4.31707E-01
  -3.98899E+00  5.69889E-01  1.99007E+00  3.11834E+00 -2.75346E+00 -3.33617E+00  5.49926E-01 -2.16167E-01  1.08874E+00  1.21402E+00
   3.54190E+00  6.87667E+00  5.24358E-01 -7.82415E-01  1.39823E+00 -2.43969E+00 -4.99573E+00  2.68059E+00 -9.89623E-02 -8.82314E-01
   1.28371E+00  3.62637E-01  1.15993E+00 -6.01009E-01  2.55126E+00  2.19162E+00 -2.00283E+00  1.07176E+00  4.98548E+00 -4.00153E+00
   3.22323E+00  3.31170E+00 -1.02016E+00  2.29300E+00 -4.86182E+00  3.26243E+00  1.15299E+00  1.84969E+00 -6.12589E-01  2.20206E+00
   7.56332E+00  1.94087E+00  4.60071E+00  2.13505E-01  1.74171E+00  1.95814E+00  4.16652E+00  1.47541E+00
 NY points of the fit to the data follow
   1.30915E+00  2.08470E+00  3.29200E+00  4.91574E+00  6.82782E+00  8.74181E+00  1.03681E+01  1.14701E+01  1.18816E+01  1.15777E+01
   1.06690E+01  9.35539E+00  7.85184E+00  6.32900E+00  4.89080E+00  3.58413E+00  2.44199E+00  1.47183E+00  7.01895E-01  1.66032E-01
  -1.45331E-01 -3.22523E-01 -4.00776E-01 -3.87112E-01 -2.34689E-01  1.58755E-01  8.61286E-01  1.81597E+00  2.89838E+00  3.96492E+00
   4.81413E+00  5.26140E+00  5.25428E+00  4.84743E+00  4.13110E+00  3.23709E+00  2.36122E+00  1.67112E+00  1.32442E+00  1.40238E+00
   1.91145E+00  2.80784E+00  3.96099E+00  5.22513E+00  6.40229E+00  7.25133E+00  7.56698E+00  7.25621E+00  6.39355E+00  5.15139E+00
   3.75586E+00  2.45875E+00  1.45590E+00  8.03537E-01  4.29566E-01  2.46634E-01  1.87514E-01  1.85871E-01  2.15219E-01  2.19834E-01
   1.10927E-01 -1.55206E-01 -5.05264E-01 -8.14454E-01 -1.00411E+00 -1.04615E+00 -9.53052E-01 -7.61147E-01 -5.32148E-01 -3.20217E-01
  -1.38443E-01  7.38848E-04  8.07235E-02  9.20006E-02  2.84602E-02 -9.07068E-02 -2.28542E-01 -2.87657E-01 -1.33511E-01  1.88344E-01
   6.16424E-01  1.13361E+00  1.71057E+00  2.24766E+00  2.58644E+00  2.63011E+00  2.37952E+00  1.92253E+00  1.36908E+00  8.26061E-01
   3.95737E-01  1.83831E-01  5.24107E-01  2.16111E+00  5.10581E+00  9.07884E+00  1.40239E+01  1.98275E+01  2.58875E+01  3.10844E+01
   3.44156E+01  3.53749E+01  3.39760E+01  3.06370E+01  2.60622E+01  2.10408E+01  1.61980E+01  1.18641E+01  8.08285E+00  4.75661E+00
   1.82587E+00 -6.15113E-01 -2.24171E+00 -2.80548E+00 -2.85111E+00 -2.75505E+00 -2.51587E+00 -1.83784E+00 -3.01886E-01  2.01616E+00
   4.97177E+00  8.50011E+00  1.24154E+01  1.62591E+01  1.94059E+01  2.13312E+01  2.17862E+01  2.08226E+01  1.87286E+01  1.59328E+01
   1.28757E+01  9.88291E+00  7.11587E+00  4.61905E+00  2.38267E+00  4.35793E-01 -1.09650E+00 -1.98625E+00 -2.21705E+00 -2.20361E+00
  -2.15489E+00 -2.13251E+00 -2.15565E+00 -2.21791E+00 -2.29937E+00 -2.39107E+00 -2.50524E+00 -2.64324E+00 -2.79666E+00 -2.95662E+00
  -3.10619E+00 -3.23353E+00 -3.35812E+00 -3.49358E+00 -3.64325E+00 -3.80469E+00 -3.96138E+00 -4.10993E+00 -4.24818E+00 -4.34962E+00
  -4.39349E+00 -4.39026E+00 -4.37547E+00 -4.38961E+00 -4.46060E+00 -4.59848E+00 -4.79952E+00 -5.05604E+00 -5.35111E+00 -5.63459E+00
  -5.88480E+00 -6.11343E+00 -6.35018E+00 -6.57324E+00 -6.72012E+00 -6.76486E+00 -6.72516E+00 -6.65747E+00 -6.61254E+00 -6.58637E+00
  -6.53976E+00 -6.44602E+00 -6.27899E+00 -6.00702E+00 -5.60992E+00 -5.09948E+00 -4.51211E+00 -3.91788E+00 -3.37220E+00 -2.92595E+00
  -2.63293E+00 -2.50619E+00 -2.50974E+00 -2.55965E+00 -2.55587E+00 -2.40806E+00 -2.06583E+00 -1.53934E+00 -8.91696E-01 -2.12506E-01
   3.93988E-01  7.34263E-01  7.04825E-01  2.81825E-01 -5.45167E-01 -1.67813E+00 -2.87296E+00 -3.80507E+00 -4.19515E+00 -3.99776E+00
  -3.23119E+00 -1.98849E+00 -4.99791E-01  8.50635E-01  1.65990E+00  1.74740E+00  1.15962E+00  2.48877E-02 -1.44046E+00 -2.91339E+00
  -4.05024E+00 -4.63071E+00 -4.55365E+00 -3.92043E+00 -2.94480E+00 -1.81690E+00 -7.02528E-01  2.82373E-01  1.10692E+00  1.74934E+00
   2.26746E+00  2.72330E+00  3.14733E+00  3.51114E+00  3.75017E+00  3.89390E+00  3.99123E+00  4.01343E+00  3.92260E+00  3.74749E+00
   3.56856E+00  3.47199E+00  3.50009E+00  3.65805E+00  3.95483E+00  4.36277E+00  4.80951E+00  5.24652E+00  5.70749E+00  6.22938E+00
   6.89950E+00  8.33445E+00  1.13099E+01  1.55681E+01  2.08223E+01  2.70313E+01  3.39361E+01  4.06980E+01  4.61400E+01  4.92942E+01
   4.97335E+01  4.75571E+01  4.32874E+01  3.77447E+01  3.18041E+01  2.61150E+01  2.09739E+01  1.64019E+01  1.23120E+01  8.68225E+00
   5.70079E+00  3.83620E+00  3.11795E+00  2.78554E+00  2.55333E+00  2.35969E+00  2.17461E+00  1.97437E+00  1.77160E+00  1.57942E+00
   1.40351E+00  1.24780E+00  1.11396E+00  1.00020E+00  9.10632E-01  8.53869E-01  8.32919E-01  8.46039E-01  8.92934E-01  9.74579E-01
   1.09202E+00  1.24506E+00  1.43242E+00  1.65592E+00  1.91728E+00  2.21627E+00  2.55140E+00  2.91994E+00  3.31767E+00  3.73885E+00
   4.17640E+00  4.62255E+00  5.06841E+00  5.50437E+00  5.92109E+00  6.30973E+00  6.66254E+00  6.97340E+00  7.23836E+00  7.45601E+00
   7.62789E+00  7.75863E+00  7.85616E+00  7.93168E+00  7.99977E+00  8.07831E+00  8.18923E+00  8.36268E+00  8.64583E+00  9.04961E+00
   9.52008E+00  1.00259E+01  1.05400E+01  1.10089E+01  1.13573E+01  1.15208E+01  1.15119E+01  1.14434E+01  1.14040E+01  1.14619E+01
   1.16838E+01  1.21091E+01  1.27142E+01  1.34063E+01  1.40601E+01  1.45644E+01  1.48479E+01  1.48855E+01  1.46885E+01  1.42588E+01
   1.36008E+01  1.27723E+01  1.18235E+01  1.07867E+01  9.68545E+00  8.54900E+00  7.43783E+00  6.41723E+00  5.48355E+00  4.62925E+00
   3.85447E+00  3.16010E+00  2.54584E+00  2.00969E+00  1.54814E+00  1.15630E+00  8.28398E-01  5.58034E-01  3.38605E-01  1.63537E-01
   2.65851E-02 -7.80551E-02 -1.55579E-01 -2.10571E-01 -2.46913E-01 -2.67867E-01 -2.76042E-01 -2.73516E-01 -2.61819E-01 -2.42060E-01
  -2.14905E-01 -1.80681E-01 -1.39348E-01 -9.05832E-02 -3.37213E-02  3.21889E-02  1.08465E-01  1.96754E-01  2.99118E-01  4.18009E-01
   5.56351E-01  7.17505E-01  9.05321E-01  1.12404E+00  1.37829E+00  1.67287E+00  2.01267E+00  2.40232E+00  2.84599E+00  3.34687E+00
   3.90690E+00  4.52618E+00  5.20266E+00  5.93164E+00  6.70557E+00  7.51378E+00  8.34257E+00  9.17539E+00  9.99331E+00  1.07757E+01
   1.15010E+01  1.21479E+01  1.26963E+01  1.31286E+01  1.34305E+01  1.35921E+01  1.36081E+01  1.34788E+01  1.32094E+01  1.28099E+01
   1.22948E+01  1.16817E+01  1.09905E+01  1.02424E+01  9.45871E+00  8.65970E+00  7.86402E+00  7.08787E+00  6.34467E+00  5.64480E+00
   4.99566E+00  4.40178E+00  3.86518E+00  3.38573E+00  2.96160E+00  2.58965E+00  2.26593E+00  1.98592E+00  1.74495E+00  1.53836E+00
   1.36170E+00  1.21085E+00  1.08210E+00  9.72153E-01  8.78144E-01  7.97595E-01  7.28429E-01  6.68869E-01  6.17461E-01  5.72963E-01
   5.34372E-01  5.00826E-01  4.71638E-01  4.46205E-01  4.24058E-01  4.04770E-01  3.88011E-01  3.73469E-01  3.60912E-01  3.50111E-01
   3.40900E-01  3.33104E-01  3.26599E-01  3.21247E-01  3.16958E-01  3.13623E-01  3.11175E-01  3.09522E-01  3.08614E-01  3.08375E-01
   3.08768E-01  3.09731E-01  3.11237E-01  3.13230E-01  3.15689E-01  3.18564E-01  3.21843E-01  3.25483E-01  3.29478E-01  3.33786E-01
   3.38404E-01  3.43297E-01  3.48466E-01  3.53879E-01  3.59536E-01  3.65405E-01  3.71490E-01  3.77763E-01  3.84230E-01  3.90863E-01
   3.97669E-01  4.04620E-01  4.11726E-01  4.18964E-01  4.26342E-01  4.33836E-01  4.41456E-01  4.49179E-01  4.57017E-01  4.64947E-01
   4.72983E-01  4.81103E-01  4.89318E-01  4.97608E-01  5.05988E-01  5.14440E-01  5.22978E-01  5.31584E-01
 NY background values follow
    -5.851E+00   -5.839E+00   -5.827E+00   -5.815E+00   -5.802E+00   -5.790E+00   -5.778E+00   -5.766E+00   -5.754E+00   -5.742E+00
    -5.730E+00   -5.718E+00   -5.706E+00   -5.694E+00   -5.682E+00   -5.670E+00   -5.658E+00   -5.645E+00   -5.633E+00   -5.621E+00
    -5.609E+00   -5.597E+00   -5.585E+00   -5.573E+00   -5.561E+00   -5.549E+00   -5.537E+00   -5.525E+00   -5.513E+00   -5.501E+00
    -5.488E+00   -5.476E+00   -5.464E+00   -5.452E+00   -5.440E+00   -5.428E+00   -5.416E+00   -5.404E+00   -5.392E+00   -5.380E+00
    -5.368E+00   -5.355E+00   -5.343E+00   -5.331E+00   -5.319E+00   -5.307E+00   -5.295E+00   -5.283E+00   -5.271E+00   -5.259E+00
    -5.247E+00   -5.235E+00   -5.222E+00   -5.210E+00   -5.198E+00   -5.186E+00   -5.174E+00   -5.162E+00   -5.150E+00   -5.138E+00
    -5.126E+00   -5.114E+00   -5.102E+00   -5.089E+00   -5.077E+00   -5.065E+00   -5.053E+00   -5.041E+00   -5.029E+00   -5.017E+00
    -5.005E+00   -4.993E+00   -4.981E+00   -4.968E+00   -4.956E+00   -4.944E+00   -4.932E+00   -4.920E+00   -4.908E+00   -4.896E+00
    -4.884E+00   -4.872E+00   -4.860E+00   -4.847E+00   -4.835E+00   -4.823E+00   -4.811E+00   -4.799E+00   -4.787E+00   -4.775E+00
    -4.763E+00   -4.751E+00   -4.738E+00   -4.726E+00   -4.714E+00   -4.702E+00   -4.690E+00   -4.678E+00   -4.666E+00   -4.654E+00
    -4.642E+00   -4.629E+00   -4.617E+00   -4.605E+00   -4.593E+00   -4.581E+00   -4.569E+00   -4.557E+00   -4.545E+00   -4.533E+00
    -4.520E+00   -4.508E+00   -4.496E+00   -4.484E+00   -4.472E+00   -4.460E+00   -4.448E+00   -4.436E+00   -4.424E+00   -4.411E+00
    -4.399E+00   -4.387E+00   -4.375E+00   -4.363E+00   -4.351E+00   -4.339E+00   -4.327E+00   -4.314E+00   -4.302E+00   -4.290E+00
    -4.278E+00   -4.266E+00   -4.254E+00   -4.242E+00   -4.230E+00   -4.217E+00   -4.205E+00   -4.193E+00   -4.181E+00   -4.169E+00
    -4.157E+00   -4.145E+00   -4.133E+00   -4.120E+00   -4.108E+00   -4.096E+00   -4.084E+00   -4.072E+00   -4.060E+00   -4.048E+00
    -4.036E+00   -4.023E+00   -4.011E+00   -3.999E+00   -3.987E+00   -3.975E+00   -3.963E+00   -3.951E+00   -3.939E+00   -3.926E+00
    -3.914E+00   -3.902E+00   -3.890E+00   -3.878E+00   -3.866E+00   -3.854E+00   -3.841E+00   -3.829E+00   -3.817E+00   -3.805E+00
    -3.793E+00   -3.781E+00   -3.769E+00   -3.757E+00   -3.744E+00   -3.732E+00   -3.720E+00   -3.708E+00   -3.696E+00   -3.684E+00
    -3.672E+00   -3.659E+00   -3.647E+00   -3.635E+00   -3.623E+00   -3.611E+00   -3.599E+00   -3.587E+00   -3.574E+00   -3.562E+00
    -3.550E+00   -3.538E+00   -3.526E+00   -3.514E+00   -3.502E+00   -3.490E+00   -3.477E+00   -3.465E+00   -3.453E+00   -3.441E+00
    -3.429E+00   -3.417E+00   -3.405E+00   -3.392E+00   -3.380E+00   -3.368E+00   -3.356E+00   -3.344E+00   -3.332E+00   -3.320E+00
    -3.307E+00   -3.295E+00   -3.283E+00   -3.271E+00   -3.259E+00   -3.247E+00   -3.234E+00   -3.222E+00   -3.210E+00   -3.198E+00
    -3.186E+00   -3.174E+00   -3.162E+00   -3.149E+00   -3.137E+00   -3.125E+00   -3.113E+00   -3.101E+00   -3.089E+00   -3.077E+00
    -3.064E+00   -3.052E+00   -3.040E+00   -3.028E+00   -3.016E+00   -3.004E+00   -2.992E+00   -2.979E+00   -2.967E+00   -2.955E+00
    -2.943E+00   -2.931E+00   -2.919E+00   -2.906E+00   -2.894E+00   -2.882E+00   -2.870E+00   -2.858E+00   -2.846E+00   -2.834E+00
    -2.821E+00   -2.809E+00   -2.797E+00   -2.785E+00   -2.773E+00   -2.761E+00   -2.748E+00   -2.736E+00   -2.724E+00   -2.712E+00
    -2.700E+00   -2.688E+00   -2.676E+00   -2.663E+00   -2.651E+00   -2.639E+00   -2.627E+00   -2.615E+00   -2.603E+00   -2.590E+00
    -2.578E+00   -2.566E+00   -2.554E+00   -2.542E+00   -2.530E+00   -2.518E+00   -2.505E+00   -2.493E+00   -2.481E+00   -2.469E+00
    -2.457E+00   -2.445E+00   -2.432E+00   -2.420E+00   -2.408E+00   -2.396E+00   -2.384E+00   -2.372E+00   -2.360E+00   -2.347E+00
    -2.335E+00   -2.323E+00   -2.311E+00   -2.299E+00   -2.287E+00   -2.274E+00   -2.262E+00   -2.250E+00   -2.238E+00   -2.226E+00
    -2.214E+00   -2.201E+00   -2.189E+00   -2.177E+00   -2.165E+00   -2.153E+00   -2.141E+00   -2.128E+00   -2.116E+00   -2.104E+00
    -2.092E+00   -2.080E+00   -2.068E+00   -2.056E+00   -2.043E+00   -2.031E+00   -2.019E+00   -2.007E+00   -1.995E+00   -1.983E+00
    -1.970E+00   -1.958E+00   -1.946E+00   -1.934E+00   -1.922E+00   -1.910E+00   -1.897E+00   -1.885E+00   -1.873E+00   -1.861E+00
    -1.849E+00   -1.837E+00   -1.824E+00   -1.812E+00   -1.800E+00   -1.788E+00   -1.776E+00   -1.764E+00   -1.751E+00   -1.739E+00
    -1.727E+00   -1.715E+00   -1.703E+00   -1.691E+00   -1.679E+00   -1.666E+00   -1.654E+00   -1.642E+00   -1.630E+00   -1.618E+00
    -1.606E+00   -1.593E+00   -1.581E+00   -1.569E+00   -1.557E+00   -1.545E+00   -1.533E+00   -1.520E+00   -1.508E+00   -1.496E+00
    -1.484E+00   -1.472E+00   -1.460E+00   -1.447E+00   -1.435E+00   -1.423E+00   -1.411E+00   -1.399E+00   -1.387E+00   -1.374E+00
    -1.362E+00   -1.350E+00   -1.338E+00   -1.326E+00   -1.314E+00   -1.301E+00   -1.289E+00   -1.277E+00   -1.265E+00   -1.253E+00
    -1.241E+00   -1.229E+00   -1.216E+00   -1.204E+00   -1.192E+00   -1.180E+00   -1.168E+00   -1.156E+00   -1.143E+00   -1.131E+00
    -1.119E+00   -1.107E+00   -1.095E+00   -1.083E+00   -1.070E+00   -1.058E+00   -1.046E+00   -1.034E+00   -1.022E+00   -1.010E+00
    -9.974E-01   -9.852E-01   -9.731E-01   -9.609E-01   -9.488E-01   -9.366E-01   -9.244E-01   -9.123E-01   -9.001E-01   -8.880E-01
    -8.758E-01   -8.636E-01   -8.515E-01   -8.393E-01   -8.271E-01   -8.150E-01   -8.028E-01   -7.907E-01   -7.785E-01   -7.663E-01
    -7.542E-01   -7.420E-01   -7.299E-01   -7.177E-01   -7.055E-01   -6.934E-01   -6.812E-01   -6.691E-01   -6.569E-01   -6.447E-01
    -6.326E-01   -6.204E-01   -6.083E-01   -5.961E-01   -5.839E-01   -5.718E-01   -5.596E-01   -5.475E-01   -5.353E-01   -5.231E-01
    -5.110E-01   -4.988E-01   -4.867E-01   -4.745E-01   -4.623E-01   -4.502E-01   -4.380E-01   -4.259E-01   -4.137E-01   -4.015E-01
    -3.894E-01   -3.772E-01   -3.651E-01   -3.529E-01   -3.408E-01   -3.286E-01   -3.164E-01   -3.043E-01   -2.921E-01   -2.800E-01
    -2.678E-01   -2.557E-01   -2.435E-01   -2.314E-01   -2.192E-01   -2.070E-01   -1.949E-01   -1.827E-01   -1.706E-01   -1.584E-01
    -1.463E-01   -1.341E-01   -1.220E-01   -1.098E-01   -9.765E-02   -8.549E-02   -7.334E-02   -6.119E-02   -4.903E-02   -3.688E-02
    -2.473E-02   -1.257E-02   -4.212E-04    1.173E-02    2.388E-02    3.604E-02    4.819E-02    6.034E-02    7.249E-02    8.464E-02
     9.679E-02    1.089E-01    1.211E-01    1.332E-01    1.454E-01    1.575E-01    1.697E-01    1.818E-01
 Ala      Conc. = 2.58E+02
