 LCModel (Version 6.3-1L) Copyright: S.W. Provencher.          Ref.: Magn. Reson. Med. 30:672-679 (1993).                
 Slice#2 Row#9 Col#5  PD_24_press_1_raw_act
 36 lines in following concentration table = NCONC+1
    Conc.  %SD /Cr+PCr  Metabolite                                         
    0.000 999%   0.000 Ala                                                 
    0.000 999%   0.000 Asp                                                 
  459.017  58%   0.270 Cr                                                  
 1.24E+03  22%   0.730 PCr                                                 
    0.000 999%   0.000 GABA                                                
  144.340 148% 8.5E-02 Glc                                                 
  713.844  39%   0.421 Gln                                                 
 1.78E+03  18%   1.049 Glu                                                 
  691.464  22%   0.407 GPC                                                 
  255.281  60%   0.150 PCh                                                 
  307.260  30%   0.181 GSH                                                 
 1.55E+03  21%   0.915 Ins                                                 
  201.419  75%   0.119 Lac                                                 
 2.78E+03   6%   1.640 NAA                                                 
  592.524  27%   0.349 NAAG                                                
  266.463  14%   0.157 Scyllo                                              
  461.721  62%   0.272 Tau                                                 
  250.845  53%   0.148 -CrCH2                                              
  946.745   3%   0.558 GPC+PCh                                             
 3.38E+03   3%   1.989 NAA+NAAG                                            
 1.70E+03   4%   1.000 Cr+PCr                                              
 2.49E+03  19%   1.469 Glu+Gln                                             
 2.47E+03  33%   1.454 Lip13a                                              
   81.239 228% 4.8E-02 Lip13b                                              
  411.790  84%   0.243 Lip09                                               
  996.805  36%   0.587 MM09                                                
  438.000  57%   0.258 Lip20                                               
 2.37E+03  21%   1.399 MM20                                                
  444.667  61%   0.262 MM12                                                
 1.44E+03  30%   0.848 MM14                                                
  589.891  44%   0.348 MM17                                                
 2.55E+03  29%   1.501 Lip13a+Lip13b                                       
 4.43E+03  12%   2.611 MM14+Lip13a+Lip13b+MM12                             
 1.41E+03  16%   0.830 MM09+Lip09                                          
 2.81E+03  17%   1.657 MM20+Lip20                                          
   6 lines in following misc. output table
  FWHM = 0.046 ppm    S/N =  14                                            
  Data shift = 0.015 ppm                                                   
  Ph: -56 deg     -19.9 deg/ppm                                            
  alphaB,S = 1.9E+00,   9.8E+01                                            
   14 spline knots.   Ns = 8(1)                                            
  (14) 3 infls.   (15) 1 extrs.                                            
  498 points on ppm-axis = NY
      4.000000     3.992357     3.984714     3.977070     3.969427     3.961784     3.954141     3.946497     3.938854     3.931211
      3.923568     3.915925     3.908281     3.900638     3.892995     3.885352     3.877708     3.870065     3.862422     3.854779
      3.847136     3.839492     3.831849     3.824206     3.816563     3.808919     3.801276     3.793633     3.785990     3.778347
      3.770703     3.763060     3.755417     3.747774     3.740130     3.732487     3.724844     3.717201     3.709558     3.701914
      3.694271     3.686628     3.678985     3.671341     3.663698     3.656055     3.648412     3.640769     3.633125     3.625482
      3.617839     3.610196     3.602552     3.594909     3.587266     3.579623     3.571980     3.564336     3.556693     3.549050
      3.541407     3.533763     3.526120     3.518477     3.510834     3.503191     3.495547     3.487904     3.480261     3.472618
      3.464974     3.457331     3.449688     3.442045     3.434402     3.426758     3.419115     3.411472     3.403829     3.396185
      3.388542     3.380899     3.373256     3.365613     3.357969     3.350326     3.342683     3.335040     3.327396     3.319753
      3.312110     3.304467     3.296824     3.289180     3.281537     3.273894     3.266251     3.258607     3.250964     3.243321
      3.235678     3.228034     3.220391     3.212748     3.205105     3.197462     3.189818     3.182175     3.174532     3.166889
      3.159245     3.151602     3.143959     3.136316     3.128673     3.121029     3.113386     3.105743     3.098100     3.090456
      3.082813     3.075170     3.067527     3.059884     3.052240     3.044597     3.036954     3.029311     3.021667     3.014024
      3.006381     2.998738     2.991095     2.983451     2.975808     2.968165     2.960522     2.952878     2.945235     2.937592
      2.929949     2.922306     2.914662     2.907019     2.899376     2.891733     2.884089     2.876446     2.868803     2.861160
      2.853517     2.845873     2.838230     2.830587     2.822944     2.815300     2.807657     2.800014     2.792371     2.784728
      2.777084     2.769441     2.761798     2.754155     2.746511     2.738868     2.731225     2.723582     2.715939     2.708295
      2.700652     2.693009     2.685366     2.677722     2.670079     2.662436     2.654793     2.647150     2.639506     2.631863
      2.624220     2.616577     2.608933     2.601290     2.593647     2.586004     2.578361     2.570717     2.563074     2.555431
      2.547788     2.540144     2.532501     2.524858     2.517215     2.509572     2.501928     2.494285     2.486642     2.478999
      2.471355     2.463712     2.456069     2.448426     2.440783     2.433139     2.425496     2.417853     2.410210     2.402566
      2.394923     2.387280     2.379637     2.371994     2.364350     2.356707     2.349064     2.341421     2.333777     2.326134
      2.318491     2.310848     2.303205     2.295561     2.287918     2.280275     2.272632     2.264988     2.257345     2.249702
      2.242059     2.234416     2.226772     2.219129     2.211486     2.203843     2.196199     2.188556     2.180913     2.173270
      2.165627     2.157983     2.150340     2.142697     2.135054     2.127410     2.119767     2.112124     2.104481     2.096838
      2.089194     2.081551     2.073908     2.066265     2.058621     2.050978     2.043335     2.035692     2.028049     2.020405
      2.012762     2.005119     1.997476     1.989833     1.982190     1.974546     1.966903     1.959260     1.951617     1.943974
      1.936331     1.928688     1.921045     1.913402     1.905759     1.898115     1.890472     1.882829     1.875186     1.867543
      1.859900     1.852257     1.844614     1.836971     1.829327     1.821684     1.814041     1.806398     1.798755     1.791112
      1.783469     1.775826     1.768183     1.760540     1.752896     1.745253     1.737610     1.729967     1.722324     1.714681
      1.707038     1.699395     1.691752     1.684108     1.676465     1.668822     1.661179     1.653536     1.645893     1.638250
      1.630607     1.622964     1.615321     1.607677     1.600034     1.592391     1.584748     1.577105     1.569462     1.561819
      1.554176     1.546533     1.538890     1.531246     1.523603     1.515960     1.508317     1.500674     1.493031     1.485388
      1.477745     1.470102     1.462458     1.454815     1.447172     1.439529     1.431886     1.424243     1.416600     1.408957
      1.401314     1.393671     1.386027     1.378384     1.370741     1.363098     1.355455     1.347812     1.340169     1.332526
      1.324883     1.317240     1.309596     1.301953     1.294310     1.286667     1.279024     1.271381     1.263738     1.256095
      1.248452     1.240808     1.233165     1.225522     1.217879     1.210236     1.202593     1.194950     1.187307     1.179664
      1.172021     1.164377     1.156734     1.149091     1.141448     1.133805     1.126162     1.118519     1.110876     1.103233
      1.095590     1.087946     1.080303     1.072660     1.065017     1.057374     1.049731     1.042088     1.034445     1.026802
      1.019158     1.011515     1.003872     0.996229     0.988586     0.980943     0.973300     0.965657     0.958014     0.950371
      0.942727     0.935084     0.927441     0.919798     0.912155     0.904512     0.896869     0.889226     0.881583     0.873940
      0.866296     0.858653     0.851010     0.843367     0.835724     0.828081     0.820438     0.812795     0.805152     0.797508
      0.789865     0.782222     0.774579     0.766936     0.759293     0.751650     0.744007     0.736364     0.728721     0.721077
      0.713434     0.705791     0.698148     0.690505     0.682862     0.675219     0.667576     0.659933     0.652290     0.644646
      0.637003     0.629360     0.621717     0.614074     0.606431     0.598788     0.591145     0.583502     0.575858     0.568215
      0.560572     0.552929     0.545286     0.537643     0.530000     0.522357     0.514714     0.507071     0.499427     0.491784
      0.484141     0.476498     0.468855     0.461212     0.453569     0.445925     0.438282     0.430639     0.422996     0.415353
      0.407710     0.400067     0.392424     0.384780     0.377137     0.369494     0.361851     0.354208     0.346565     0.338922
      0.331278     0.323635     0.315992     0.308349     0.300706     0.293063     0.285420     0.277777     0.270133     0.262490
      0.254847     0.247204     0.239561     0.231918     0.224275     0.216631     0.208988     0.201345
 NY phased data points follow
  -4.92195E+01 -4.55087E+01 -4.91593E+01 -4.13939E+01 -3.34307E+01 -3.28412E+01 -3.20595E+01 -1.87582E+01 -1.59518E+01 -1.52102E+01
  -1.18638E+01 -9.27097E+00 -1.41318E+01 -2.25407E+01 -3.22904E+01 -3.90475E+01 -4.01457E+01 -4.39810E+01 -4.91730E+01 -4.32033E+01
  -4.83728E+01 -4.02616E+01 -4.28467E+01 -3.59027E+01 -3.85157E+01 -3.60964E+01 -3.86386E+01 -3.94072E+01 -3.37273E+01 -3.33721E+01
  -3.10329E+01 -2.82475E+01 -3.28757E+01 -2.99674E+01 -3.20040E+01 -3.54962E+01 -3.41014E+01 -2.92915E+01 -3.03285E+01 -2.95780E+01
  -2.80684E+01 -2.40341E+01 -2.50904E+01 -2.41185E+01 -2.79565E+01 -2.26478E+01 -1.72818E+01 -2.14524E+01 -2.60179E+01 -2.55895E+01
  -2.54125E+01 -2.68047E+01 -2.95412E+01 -2.66654E+01 -2.87479E+01 -2.72862E+01 -2.81715E+01 -2.72003E+01 -2.81033E+01 -2.64004E+01
  -3.36503E+01 -3.17667E+01 -3.09600E+01 -2.88174E+01 -4.20476E+01 -2.72919E+01 -3.30597E+01 -2.65622E+01 -3.42423E+01 -2.94393E+01
  -2.79867E+01 -2.53042E+01 -2.60776E+01 -2.64394E+01 -2.56828E+01 -2.14404E+01 -2.44898E+01 -2.23260E+01 -2.58385E+01 -2.33721E+01
  -2.29504E+01 -1.48131E+01 -2.35630E+01 -8.97328E+00 -1.90765E+01 -1.28707E+01 -1.70904E+01 -1.27812E+01 -1.61898E+01 -1.52753E+01
  -1.19184E+01 -1.34173E+01 -1.07086E+01 -9.13810E+00 -1.00024E+01 -1.77489E+00 -1.55032E+00  6.45290E+00  1.35510E+01  2.93853E+01
   4.02939E+01  5.33935E+01  5.95914E+01  5.78846E+01  4.35942E+01  2.77326E+01  2.05911E+01  8.85684E+00  1.78475E+00 -8.41705E+00
  -1.51923E+01 -1.48258E+01 -1.38613E+01 -1.03298E+01 -2.18257E+01 -1.36915E+01 -1.39167E+01 -1.76994E+01 -1.14222E+01 -1.32037E+01
  -7.99157E+00 -8.47908E+00 -2.01836E+00  4.33621E+00  1.42985E+01  3.16974E+01  2.74679E+01  3.66039E+01  3.39223E+01  2.67662E+01
   1.59850E+01  1.40468E+01 -5.05627E+00 -3.58896E+00 -8.51592E+00 -1.35560E+01 -1.64439E+01 -1.39240E+01 -1.74783E+01 -1.36103E+01
  -1.40258E+01 -1.14145E+01 -1.00188E+01 -1.45014E+01 -1.05250E+01 -1.51056E+01 -1.56428E+01 -9.07750E+00 -1.20015E+01 -1.54838E+01
  -1.12057E+01 -1.12147E+01 -1.03336E+01 -1.37496E+01 -1.37452E+01 -1.46060E+01 -1.28946E+01 -1.33899E+01 -9.01287E+00 -1.15358E+01
  -1.48075E+01 -1.02288E+01 -1.05736E+01 -1.33255E+01 -1.28075E+01 -9.01433E+00 -1.53739E+01 -1.45661E+01 -1.81094E+01 -1.58722E+01
  -1.66799E+01 -1.57738E+01 -1.62342E+01 -2.06586E+01 -2.27037E+01 -1.75931E+01 -1.82978E+01 -1.60164E+01 -1.52054E+01 -1.59065E+01
  -2.14786E+01 -1.75162E+01 -2.44644E+01 -1.80044E+01 -2.08414E+01 -1.17245E+01 -1.23378E+01 -6.69320E+00 -2.60719E+00 -3.23181E+00
   1.82470E+00  6.71869E+00 -9.90188E-01  1.46120E+00  1.05472E+00  3.73491E-02  4.01437E-01 -6.58213E+00 -2.97199E+00 -2.39664E+00
  -5.85902E+00 -4.05539E-01 -2.24120E+00 -1.10585E+00 -1.84923E-02  4.97719E-01 -2.14776E+00 -7.88603E+00 -7.03143E+00 -2.59919E+00
  -5.56244E+00 -1.59469E+00 -6.02699E+00  6.37005E+00  1.15250E+01  6.50656E+00  1.08481E+01  9.29309E+00  6.95728E+00  1.02839E+01
  -8.07642E-01 -1.68985E+00 -6.37960E+00 -6.29610E-01 -4.62268E+00 -1.19005E+00  3.98913E+00  7.21665E+00  6.07040E+00  7.94524E+00
   1.20851E+01  9.88898E+00  1.17428E+01  4.26391E+00  5.76715E+00  1.02083E+01  3.69350E+00  1.14633E+01  8.35115E+00  1.22670E+01
   2.48247E+00  3.72313E+00 -2.62051E+00  5.73066E+00  1.02738E+01  5.48789E+00  1.53551E+01  1.46713E+01  1.14666E+01  1.15803E+01
   1.69130E+01  2.15160E+01  2.79934E+01  4.58979E+01  5.42475E+01  6.27763E+01  6.40825E+01  7.05945E+01  8.23917E+01  1.07454E+02
   1.12614E+02  1.05505E+02  8.40366E+01  7.47079E+01  5.19965E+01  4.45845E+01  3.06864E+01  2.79812E+01  2.11140E+01  1.82301E+01
   1.88270E+01  1.01861E+01  1.83643E+01  1.30550E+01  1.23697E+01  1.62016E+01  8.36735E+00  1.21790E+01  1.18525E+01  1.38084E+01
   1.47729E+01  1.41486E+01  9.92820E+00  5.63634E+00  7.98210E+00  5.35202E+00  5.55321E+00  8.75171E+00  1.07212E+01  1.16450E+01
   8.65571E+00  1.29694E+01  8.60713E+00  1.06443E+01  8.91962E+00  1.34152E+01  1.36138E+01  1.24896E+01  1.23809E+01  1.41209E+01
   6.83704E+00  1.31291E+01  1.39355E+01  1.81631E+01  1.24478E+01  1.26955E+01  1.02851E+01  1.32646E+01  9.79062E+00  1.34579E+01
   1.48970E+01  1.32585E+01  1.70682E+01  1.12092E+01  1.16427E+01  1.10477E+01  1.35685E+01  1.10963E+01  1.69433E+01  1.75805E+01
   1.83199E+01  1.28675E+01  1.50865E+01  1.56348E+01  1.46464E+01  1.86222E+01  1.57158E+01  2.31644E+01  2.07431E+01  1.68427E+01
   1.94807E+01  1.99309E+01  1.81629E+01  2.11491E+01  2.45767E+01  1.77373E+01  2.08052E+01  2.04209E+01  1.89279E+01  2.27803E+01
   2.08940E+01  1.75468E+01  1.83151E+01  2.20299E+01  2.52691E+01  2.55372E+01  2.60967E+01  2.47911E+01  1.39538E+01  1.84160E+01
   1.92083E+01  2.07179E+01  2.51391E+01  2.33769E+01  2.86618E+01  2.46560E+01  2.33155E+01  2.45230E+01  2.40739E+01  2.51214E+01
   2.92497E+01  2.34252E+01  2.16693E+01  2.05264E+01  1.86875E+01  1.89766E+01  2.07590E+01  1.68969E+01  2.16873E+01  2.09005E+01
   2.01108E+01  2.31994E+01  1.99253E+01  2.33920E+01  2.19066E+01  2.53271E+01  1.59543E+01  2.07073E+01  1.79729E+01  1.84335E+01
   1.59450E+01  1.63232E+01  2.19198E+01  2.03748E+01  1.59695E+01  1.77169E+01  2.24292E+01  1.87027E+01  1.93214E+01  2.06829E+01
   1.54921E+01  1.56303E+01  1.74283E+01  2.11302E+01  1.62635E+01  1.79315E+01  2.62616E+01  2.67379E+01  1.46562E+01  2.08167E+01
   2.11513E+01  1.73642E+01  2.14075E+01  1.70509E+01  1.85817E+01  2.21341E+01  2.00930E+01  2.01005E+01  1.88027E+01  2.23312E+01
   1.95098E+01  1.56390E+01  1.55254E+01  1.89258E+01  2.25216E+01  1.93392E+01  1.77603E+01  1.80965E+01  1.49919E+01  1.51956E+01
   1.58178E+01  1.85539E+01  1.62731E+01  1.64638E+01  1.25170E+01  1.40175E+01  1.44933E+01  1.70010E+01  1.19390E+01  1.80764E+01
   1.56719E+01  1.09731E+01  5.65168E+00  1.51596E+01  1.33380E+01  1.06099E+01  9.25174E+00  1.21454E+01  1.32185E+01  1.49390E+01
   1.23086E+01  8.68398E+00  1.21540E+01  1.32239E+01  1.43687E+01  9.74087E+00  1.21749E+01  1.19050E+01  9.50501E+00  1.56420E+01
   6.83347E+00  1.09064E+01  1.17439E+01  1.30534E+01  1.44001E+01  1.19105E+01  9.53677E+00  9.34503E+00  1.24694E+01  1.34785E+01
   1.13011E+01  1.02181E+01  7.08767E+00  6.96449E+00  6.57625E+00  1.06340E+01  1.25254E+01  8.91633E+00  8.00737E+00  8.62406E+00
   1.25987E+01  9.97803E+00  1.10333E+01  8.22972E+00  1.24681E+01  1.06856E+01  1.01875E+01  1.23159E+01  1.45539E+01  6.95816E+00
   1.25134E+01  1.32448E+01  1.44627E+01  1.06547E+01  8.24943E+00  7.55989E+00  9.27129E+00  8.21861E+00  7.26624E+00  7.17442E+00
   1.04557E+01  8.78998E+00  9.79224E+00  6.36777E+00  9.76081E+00  8.24271E+00  8.66054E+00  7.05587E+00
 NY points of the fit to the data follow
  -4.49688E+01 -4.37593E+01 -4.08345E+01 -3.74580E+01 -3.47064E+01 -3.21892E+01 -2.85548E+01 -2.31434E+01 -1.70734E+01 -1.27079E+01
  -1.18498E+01 -1.44828E+01 -1.91047E+01 -2.40985E+01 -2.85286E+01 -3.21024E+01 -3.48661E+01 -3.69991E+01 -3.86047E+01 -3.95216E+01
  -3.99027E+01 -4.00057E+01 -3.96027E+01 -3.89012E+01 -3.82530E+01 -3.77240E+01 -3.70464E+01 -3.58186E+01 -3.40402E+01 -3.19430E+01
  -2.99877E+01 -2.87729E+01 -2.84303E+01 -2.86830E+01 -2.94082E+01 -3.07111E+01 -3.23966E+01 -3.38467E+01 -3.44284E+01 -3.38209E+01
  -3.24577E+01 -3.10622E+01 -2.98251E+01 -2.83262E+01 -2.63068E+01 -2.41547E+01 -2.27225E+01 -2.26455E+01 -2.39371E+01 -2.60972E+01
  -2.83036E+01 -2.98775E+01 -3.07268E+01 -3.10465E+01 -3.11000E+01 -3.09351E+01 -3.04411E+01 -2.96133E+01 -2.86682E+01 -2.79497E+01
  -2.77739E+01 -2.80882E+01 -2.86649E+01 -2.91117E+01 -2.91781E+01 -2.88835E+01 -2.84059E+01 -2.77969E+01 -2.70214E+01 -2.62616E+01
  -2.56848E+01 -2.52844E+01 -2.49621E+01 -2.46059E+01 -2.42133E+01 -2.39603E+01 -2.40362E+01 -2.43831E+01 -2.45516E+01 -2.37660E+01
  -2.26396E+01 -2.17379E+01 -2.07859E+01 -1.91785E+01 -1.66746E+01 -1.39214E+01 -1.21356E+01 -1.20494E+01 -1.33805E+01 -1.53060E+01
  -1.70658E+01 -1.82302E+01 -1.86498E+01 -1.71476E+01 -1.20495E+01 -5.95551E+00 -1.08269E-01  6.09693E+00  1.48505E+01  2.76199E+01
   4.25120E+01  5.46621E+01  5.94751E+01  5.55640E+01  4.51619E+01  3.18381E+01  1.86790E+01  7.41120E+00 -1.40819E+00 -8.13166E+00
  -1.31104E+01 -1.64206E+01 -1.81864E+01 -1.89921E+01 -1.92000E+01 -1.91197E+01 -1.88767E+01 -1.83886E+01 -1.70068E+01 -1.29568E+01
  -7.41960E+00 -3.28180E+00 -6.67183E-02  4.92079E+00  1.36095E+01  2.46800E+01  3.38702E+01  3.70766E+01  3.33968E+01  2.52989E+01
   1.60699E+01  7.76314E+00  1.05059E+00 -4.15708E+00 -8.24839E+00 -1.15472E+01 -1.38443E+01 -1.48230E+01 -1.48009E+01 -1.43468E+01
  -1.37631E+01 -1.32555E+01 -1.29295E+01 -1.27778E+01 -1.27331E+01 -1.27423E+01 -1.27857E+01 -1.28371E+01 -1.28528E+01 -1.28272E+01
  -1.27792E+01 -1.27330E+01 -1.27456E+01 -1.29008E+01 -1.30265E+01 -1.29178E+01 -1.26041E+01 -1.22708E+01 -1.23012E+01 -1.27827E+01
  -1.33339E+01 -1.35196E+01 -1.32241E+01 -1.26844E+01 -1.23014E+01 -1.23358E+01 -1.27673E+01 -1.34150E+01 -1.40876E+01 -1.45496E+01
  -1.46005E+01 -1.44754E+01 -1.45426E+01 -1.50156E+01 -1.55988E+01 -1.57518E+01 -1.52873E+01 -1.45346E+01 -1.39817E+01 -1.38739E+01
  -1.38497E+01 -1.34460E+01 -1.26711E+01 -1.18028E+01 -1.10288E+01 -1.03282E+01 -9.47309E+00 -8.22011E+00 -6.61248E+00 -4.93994E+00
  -3.73101E+00 -3.16486E+00 -3.06825E+00 -3.19064E+00 -3.36884E+00 -3.50590E+00 -3.41513E+00 -3.05791E+00 -2.42987E+00 -1.56032E+00
  -6.27989E-01  2.35354E-01  8.18849E-01  1.11491E+00  8.83322E-01 -2.71157E-01 -2.17076E+00 -4.18952E+00 -5.59051E+00 -5.96134E+00
  -5.70255E+00 -4.88606E+00 -3.25754E+00 -6.94171E-01  2.21152E+00  4.31820E+00  5.02836E+00  4.47158E+00  2.79191E+00  1.90659E-01
  -2.80672E+00 -5.27778E+00 -6.29723E+00 -5.54883E+00 -3.43816E+00 -6.33085E-01  2.21326E+00  4.53400E+00  5.99455E+00  6.74487E+00
   7.06800E+00  7.17671E+00  7.22110E+00  7.29349E+00  7.46723E+00  7.82033E+00  8.37168E+00  8.98584E+00  9.37062E+00  9.21187E+00
   8.51803E+00  7.66682E+00  7.16260E+00  7.31010E+00  8.07444E+00  9.25320E+00  1.06427E+01  1.23815E+01  1.48630E+01  1.71350E+01
   1.88008E+01  2.11603E+01  2.84851E+01  4.11611E+01  5.22852E+01  5.94546E+01  6.57605E+01  7.57903E+01  9.01502E+01  1.03601E+02
   1.09125E+02  1.03626E+02  8.98170E+01  7.29677E+01  5.69524E+01  4.36170E+01  3.34688E+01  2.59607E+01  2.01292E+01  1.57742E+01
   1.32717E+01  1.22935E+01  1.18679E+01  1.16383E+01  1.14610E+01  1.12663E+01  1.10296E+01  1.07701E+01  1.05145E+01  1.02859E+01
   1.01114E+01  1.00043E+01  9.94707E+00  9.91812E+00  9.91566E+00  9.93000E+00  9.94623E+00  9.96212E+00  9.99672E+00  1.00756E+01
   1.02075E+01  1.03778E+01  1.05750E+01  1.07862E+01  1.09967E+01  1.11956E+01  1.13797E+01  1.15542E+01  1.17297E+01  1.19130E+01
   1.21039E+01  1.22967E+01  1.24853E+01  1.26621E+01  1.28215E+01  1.29609E+01  1.30810E+01  1.31850E+01  1.32761E+01  1.33582E+01
   1.34363E+01  1.35149E+01  1.35987E+01  1.36931E+01  1.38031E+01  1.39328E+01  1.40852E+01  1.42627E+01  1.44673E+01  1.47002E+01
   1.49615E+01  1.52498E+01  1.55626E+01  1.58970E+01  1.62498E+01  1.66174E+01  1.69952E+01  1.73782E+01  1.77615E+01  1.81411E+01
   1.85132E+01  1.88751E+01  1.92244E+01  1.95596E+01  1.98812E+01  2.01922E+01  2.04994E+01  2.08172E+01  2.11832E+01  2.16387E+01
   2.20071E+01  2.22075E+01  2.23844E+01  2.26685E+01  2.30138E+01  2.31880E+01  2.30015E+01  2.25991E+01  2.21175E+01  2.16561E+01
   2.13371E+01  2.13148E+01  2.17268E+01  2.25574E+01  2.35711E+01  2.44575E+01  2.50188E+01  2.52317E+01  2.51511E+01  2.48663E+01
   2.44641E+01  2.40070E+01  2.35188E+01  2.30088E+01  2.25022E+01  2.20322E+01  2.15937E+01  2.11731E+01  2.07651E+01  2.03681E+01
   1.99817E+01  1.96070E+01  1.92459E+01  1.89012E+01  1.85764E+01  1.82751E+01  1.80006E+01  1.77559E+01  1.75440E+01  1.73678E+01
   1.72299E+01  1.71324E+01  1.70769E+01  1.70642E+01  1.70952E+01  1.71701E+01  1.72887E+01  1.74495E+01  1.76504E+01  1.78881E+01
   1.81587E+01  1.84574E+01  1.87781E+01  1.91138E+01  1.94562E+01  1.97967E+01  2.01264E+01  2.04363E+01  2.07172E+01  2.09602E+01
   2.11575E+01  2.13024E+01  2.13897E+01  2.14161E+01  2.13794E+01  2.12796E+01  2.11182E+01  2.08989E+01  2.06266E+01  2.03075E+01
   1.99486E+01  1.95571E+01  1.91411E+01  1.87084E+01  1.82667E+01  1.78228E+01  1.73828E+01  1.69519E+01  1.65347E+01  1.61348E+01
   1.57550E+01  1.53968E+01  1.50612E+01  1.47484E+01  1.44586E+01  1.41911E+01  1.39451E+01  1.37193E+01  1.35121E+01  1.33223E+01
   1.31486E+01  1.29897E+01  1.28441E+01  1.27104E+01  1.25873E+01  1.24738E+01  1.23691E+01  1.22722E+01  1.21823E+01  1.20984E+01
   1.20199E+01  1.19465E+01  1.18776E+01  1.18128E+01  1.17515E+01  1.16933E+01  1.16380E+01  1.15854E+01  1.15353E+01  1.14874E+01
   1.14414E+01  1.13971E+01  1.13544E+01  1.13134E+01  1.12738E+01  1.12355E+01  1.11982E+01  1.11620E+01  1.11268E+01  1.10927E+01
   1.10594E+01  1.10269E+01  1.09949E+01  1.09637E+01  1.09332E+01  1.09034E+01  1.08741E+01  1.08453E+01  1.08168E+01  1.07888E+01
   1.07614E+01  1.07345E+01  1.07078E+01  1.06814E+01  1.06553E+01  1.06297E+01  1.06044E+01  1.05795E+01  1.05546E+01  1.05300E+01
   1.05056E+01  1.04816E+01  1.04579E+01  1.04343E+01  1.04108E+01  1.03875E+01  1.03644E+01  1.03416E+01  1.03190E+01  1.02965E+01
   1.02739E+01  1.02516E+01  1.02296E+01  1.02077E+01  1.01859E+01  1.01641E+01  1.01423E+01  1.01208E+01
 NY background values follow
    -5.131E+01   -5.104E+01   -5.077E+01   -5.050E+01   -5.023E+01   -4.997E+01   -4.970E+01   -4.943E+01   -4.916E+01   -4.889E+01
    -4.863E+01   -4.836E+01   -4.809E+01   -4.782E+01   -4.755E+01   -4.729E+01   -4.702E+01   -4.675E+01   -4.648E+01   -4.622E+01
    -4.595E+01   -4.568E+01   -4.541E+01   -4.515E+01   -4.488E+01   -4.461E+01   -4.435E+01   -4.408E+01   -4.381E+01   -4.355E+01
    -4.328E+01   -4.301E+01   -4.275E+01   -4.248E+01   -4.222E+01   -4.195E+01   -4.169E+01   -4.142E+01   -4.116E+01   -4.089E+01
    -4.063E+01   -4.036E+01   -4.010E+01   -3.984E+01   -3.958E+01   -3.931E+01   -3.905E+01   -3.879E+01   -3.853E+01   -3.826E+01
    -3.800E+01   -3.774E+01   -3.748E+01   -3.722E+01   -3.696E+01   -3.670E+01   -3.644E+01   -3.618E+01   -3.593E+01   -3.567E+01
    -3.541E+01   -3.515E+01   -3.490E+01   -3.464E+01   -3.439E+01   -3.413E+01   -3.388E+01   -3.362E+01   -3.337E+01   -3.311E+01
    -3.286E+01   -3.261E+01   -3.236E+01   -3.210E+01   -3.185E+01   -3.160E+01   -3.135E+01   -3.110E+01   -3.085E+01   -3.061E+01
    -3.036E+01   -3.011E+01   -2.986E+01   -2.962E+01   -2.937E+01   -2.913E+01   -2.888E+01   -2.864E+01   -2.840E+01   -2.816E+01
    -2.791E+01   -2.767E+01   -2.743E+01   -2.719E+01   -2.695E+01   -2.672E+01   -2.648E+01   -2.624E+01   -2.600E+01   -2.577E+01
    -2.553E+01   -2.530E+01   -2.506E+01   -2.483E+01   -2.460E+01   -2.437E+01   -2.414E+01   -2.391E+01   -2.368E+01   -2.345E+01
    -2.322E+01   -2.299E+01   -2.276E+01   -2.254E+01   -2.231E+01   -2.209E+01   -2.186E+01   -2.164E+01   -2.142E+01   -2.119E+01
    -2.097E+01   -2.075E+01   -2.053E+01   -2.031E+01   -2.009E+01   -1.987E+01   -1.966E+01   -1.944E+01   -1.922E+01   -1.901E+01
    -1.879E+01   -1.858E+01   -1.837E+01   -1.815E+01   -1.794E+01   -1.773E+01   -1.752E+01   -1.731E+01   -1.710E+01   -1.689E+01
    -1.669E+01   -1.648E+01   -1.627E+01   -1.607E+01   -1.586E+01   -1.566E+01   -1.546E+01   -1.525E+01   -1.505E+01   -1.485E+01
    -1.465E+01   -1.445E+01   -1.425E+01   -1.405E+01   -1.386E+01   -1.366E+01   -1.346E+01   -1.327E+01   -1.307E+01   -1.288E+01
    -1.268E+01   -1.249E+01   -1.230E+01   -1.211E+01   -1.192E+01   -1.173E+01   -1.154E+01   -1.135E+01   -1.116E+01   -1.098E+01
    -1.079E+01   -1.060E+01   -1.042E+01   -1.023E+01   -1.005E+01   -9.868E+00   -9.686E+00   -9.504E+00   -9.324E+00   -9.144E+00
    -8.964E+00   -8.786E+00   -8.608E+00   -8.430E+00   -8.254E+00   -8.078E+00   -7.903E+00   -7.729E+00   -7.555E+00   -7.382E+00
    -7.210E+00   -7.039E+00   -6.868E+00   -6.698E+00   -6.529E+00   -6.361E+00   -6.193E+00   -6.027E+00   -5.861E+00   -5.696E+00
    -5.532E+00   -5.368E+00   -5.206E+00   -5.044E+00   -4.883E+00   -4.723E+00   -4.564E+00   -4.405E+00   -4.248E+00   -4.091E+00
    -3.936E+00   -3.781E+00   -3.627E+00   -3.474E+00   -3.322E+00   -3.171E+00   -3.020E+00   -2.871E+00   -2.723E+00   -2.575E+00
    -2.429E+00   -2.283E+00   -2.138E+00   -1.995E+00   -1.852E+00   -1.710E+00   -1.570E+00   -1.430E+00   -1.291E+00   -1.154E+00
    -1.017E+00   -8.810E-01   -7.462E-01   -6.123E-01   -4.795E-01   -3.476E-01   -2.167E-01   -8.674E-02    4.225E-02    1.703E-01
     2.973E-01    4.234E-01    5.486E-01    6.728E-01    7.960E-01    9.183E-01    1.040E+00    1.160E+00    1.280E+00    1.398E+00
     1.516E+00    1.632E+00    1.748E+00    1.863E+00    1.977E+00    2.090E+00    2.202E+00    2.313E+00    2.423E+00    2.532E+00
     2.641E+00    2.748E+00    2.855E+00    2.960E+00    3.065E+00    3.169E+00    3.272E+00    3.374E+00    3.475E+00    3.575E+00
     3.675E+00    3.773E+00    3.871E+00    3.968E+00    4.063E+00    4.158E+00    4.252E+00    4.346E+00    4.438E+00    4.529E+00
     4.620E+00    4.710E+00    4.799E+00    4.887E+00    4.974E+00    5.060E+00    5.146E+00    5.230E+00    5.314E+00    5.397E+00
     5.479E+00    5.560E+00    5.641E+00    5.721E+00    5.799E+00    5.877E+00    5.954E+00    6.031E+00    6.106E+00    6.181E+00
     6.254E+00    6.327E+00    6.400E+00    6.471E+00    6.541E+00    6.611E+00    6.680E+00    6.748E+00    6.816E+00    6.882E+00
     6.948E+00    7.013E+00    7.077E+00    7.140E+00    7.203E+00    7.265E+00    7.326E+00    7.386E+00    7.446E+00    7.504E+00
     7.562E+00    7.619E+00    7.676E+00    7.731E+00    7.786E+00    7.840E+00    7.894E+00    7.946E+00    7.998E+00    8.049E+00
     8.100E+00    8.149E+00    8.198E+00    8.246E+00    8.294E+00    8.340E+00    8.386E+00    8.432E+00    8.476E+00    8.520E+00
     8.563E+00    8.606E+00    8.647E+00    8.688E+00    8.729E+00    8.768E+00    8.807E+00    8.845E+00    8.883E+00    8.920E+00
     8.956E+00    8.992E+00    9.026E+00    9.060E+00    9.094E+00    9.127E+00    9.159E+00    9.190E+00    9.221E+00    9.251E+00
     9.281E+00    9.310E+00    9.338E+00    9.366E+00    9.393E+00    9.419E+00    9.445E+00    9.470E+00    9.494E+00    9.518E+00
     9.541E+00    9.564E+00    9.586E+00    9.607E+00    9.628E+00    9.648E+00    9.668E+00    9.687E+00    9.706E+00    9.724E+00
     9.741E+00    9.758E+00    9.774E+00    9.790E+00    9.805E+00    9.820E+00    9.834E+00    9.848E+00    9.861E+00    9.873E+00
     9.885E+00    9.897E+00    9.908E+00    9.918E+00    9.929E+00    9.938E+00    9.947E+00    9.956E+00    9.964E+00    9.971E+00
     9.979E+00    9.985E+00    9.992E+00    9.997E+00    1.000E+01    1.001E+01    1.001E+01    1.002E+01    1.002E+01    1.002E+01
     1.003E+01    1.003E+01    1.003E+01    1.003E+01    1.003E+01    1.003E+01    1.003E+01    1.003E+01    1.003E+01    1.003E+01
     1.003E+01    1.003E+01    1.003E+01    1.003E+01    1.002E+01    1.002E+01    1.002E+01    1.001E+01    1.001E+01    1.001E+01
     1.000E+01    9.998E+00    9.993E+00    9.988E+00    9.983E+00    9.977E+00    9.971E+00    9.965E+00    9.958E+00    9.951E+00
     9.944E+00    9.937E+00    9.930E+00    9.922E+00    9.914E+00    9.906E+00    9.898E+00    9.889E+00    9.880E+00    9.872E+00
     9.862E+00    9.853E+00    9.844E+00    9.834E+00    9.824E+00    9.815E+00    9.805E+00    9.794E+00    9.784E+00    9.773E+00
     9.763E+00    9.752E+00    9.741E+00    9.730E+00    9.719E+00    9.708E+00    9.697E+00    9.685E+00    9.674E+00    9.662E+00
     9.650E+00    9.638E+00    9.626E+00    9.614E+00    9.602E+00    9.590E+00    9.578E+00    9.565E+00    9.553E+00    9.541E+00
     9.528E+00    9.516E+00    9.503E+00    9.490E+00    9.478E+00    9.465E+00    9.452E+00    9.440E+00    9.427E+00    9.414E+00
     9.401E+00    9.389E+00    9.376E+00    9.363E+00    9.350E+00    9.337E+00    9.325E+00    9.312E+00
 Cr       Conc. = 4.59E+02
