 LCModel (Version 6.3-1L) Copyright: S.W. Provencher.          Ref.: Magn. Reson. Med. 30:672-679 (1993).                
 Slice#3 Row#3 Col#12  PD_24_press_1_raw_act
 36 lines in following concentration table = NCONC+1
    Conc.  %SD /Cr+PCr  Metabolite                                         
 2.45E+03  25%  28.252 Ala                                                 
  106.860  82%   1.232 Asp                                                 
   86.738 115%   1.000 Cr                                                  
    0.000 999%   0.000 PCr                                                 
   40.555 131%   0.468 GABA                                                
   55.388  96%   0.639 Glc                                                 
 1.30E+04   6% 149.915 Gln                                                 
    0.000 999%   0.000 Glu                                                 
    0.000 999%   0.000 GPC                                                 
   78.539  41%   0.905 PCh                                                 
    0.000 999%   0.000 GSH                                                 
 1.01E+03  37%  11.683 Ins                                                 
    0.000 999%   0.000 Lac                                                 
 1.31E+03  12%  15.112 NAA                                                 
    0.000 999%   0.000 NAAG                                                
   22.056  78%   0.254 Scyllo                                              
  135.342  64%   1.560 Tau                                                 
    0.000 999%   0.000 -CrCH2                                              
   78.539  41%   0.905 GPC+PCh                                             
 1.31E+03  12%  15.112 NAA+NAAG                                            
   86.738 115%   1.000 Cr+PCr                                              
 1.30E+04   6% 149.915 Glu+Gln                                             
 2.62E+05   1% 3.0E+03 Lip13a                                              
 8.85E+03   2% 102.057 Lip13b                                              
 2.21E+04  18% 254.840 Lip09                                               
    0.000 999%   0.000 MM09                                                
 4.09E+03  24%  47.207 Lip20                                               
 8.01E+03  15%  92.324 MM20                                                
  225.728 633%   2.602 MM12                                                
    0.000 999%   0.000 MM14                                                
 1.31E+03  41%  15.081 MM17                                                
 2.71E+05   1% 3.1E+03 Lip13a+Lip13b                                       
 2.71E+05   1% 3.1E+03 MM14+Lip13a+Lip13b+MM12                             
 2.21E+04  18% 254.840 MM09+Lip09                                          
 1.21E+04   8% 139.530 MM20+Lip20                                          
   6 lines in following misc. output table
  FWHM = 0.138 ppm    S/N = 174                                            
  Data shift =-0.054 ppm                                                   
  Ph: -15 deg     -22.2 deg/ppm                                            
  alphaB,S = 1.4E+00,   3.8E+02                                            
   14 spline knots.   Ns = 7(2)                                            
  ( 9) 2 infls.   ( 1) 1 extrs.                                            
  498 points on ppm-axis = NY
      4.000000     3.992357     3.984714     3.977070     3.969427     3.961784     3.954141     3.946497     3.938854     3.931211
      3.923568     3.915925     3.908281     3.900638     3.892995     3.885352     3.877708     3.870065     3.862422     3.854779
      3.847136     3.839492     3.831849     3.824206     3.816563     3.808919     3.801276     3.793633     3.785990     3.778347
      3.770703     3.763060     3.755417     3.747774     3.740130     3.732487     3.724844     3.717201     3.709558     3.701914
      3.694271     3.686628     3.678985     3.671341     3.663698     3.656055     3.648412     3.640769     3.633125     3.625482
      3.617839     3.610196     3.602552     3.594909     3.587266     3.579623     3.571980     3.564336     3.556693     3.549050
      3.541407     3.533763     3.526120     3.518477     3.510834     3.503191     3.495547     3.487904     3.480261     3.472618
      3.464974     3.457331     3.449688     3.442045     3.434402     3.426758     3.419115     3.411472     3.403829     3.396185
      3.388542     3.380899     3.373256     3.365613     3.357969     3.350326     3.342683     3.335040     3.327396     3.319753
      3.312110     3.304467     3.296824     3.289180     3.281537     3.273894     3.266251     3.258607     3.250964     3.243321
      3.235678     3.228034     3.220391     3.212748     3.205105     3.197462     3.189818     3.182175     3.174532     3.166889
      3.159245     3.151602     3.143959     3.136316     3.128673     3.121029     3.113386     3.105743     3.098100     3.090456
      3.082813     3.075170     3.067527     3.059884     3.052240     3.044597     3.036954     3.029311     3.021667     3.014024
      3.006381     2.998738     2.991095     2.983451     2.975808     2.968165     2.960522     2.952878     2.945235     2.937592
      2.929949     2.922306     2.914662     2.907019     2.899376     2.891733     2.884089     2.876446     2.868803     2.861160
      2.853517     2.845873     2.838230     2.830587     2.822944     2.815300     2.807657     2.800014     2.792371     2.784728
      2.777084     2.769441     2.761798     2.754155     2.746511     2.738868     2.731225     2.723582     2.715939     2.708295
      2.700652     2.693009     2.685366     2.677722     2.670079     2.662436     2.654793     2.647150     2.639506     2.631863
      2.624220     2.616577     2.608933     2.601290     2.593647     2.586004     2.578361     2.570717     2.563074     2.555431
      2.547788     2.540144     2.532501     2.524858     2.517215     2.509572     2.501928     2.494285     2.486642     2.478999
      2.471355     2.463712     2.456069     2.448426     2.440783     2.433139     2.425496     2.417853     2.410210     2.402566
      2.394923     2.387280     2.379637     2.371994     2.364350     2.356707     2.349064     2.341421     2.333777     2.326134
      2.318491     2.310848     2.303205     2.295561     2.287918     2.280275     2.272632     2.264988     2.257345     2.249702
      2.242059     2.234416     2.226772     2.219129     2.211486     2.203843     2.196199     2.188556     2.180913     2.173270
      2.165627     2.157983     2.150340     2.142697     2.135054     2.127410     2.119767     2.112124     2.104481     2.096838
      2.089194     2.081551     2.073908     2.066265     2.058621     2.050978     2.043335     2.035692     2.028049     2.020405
      2.012762     2.005119     1.997476     1.989833     1.982190     1.974546     1.966903     1.959260     1.951617     1.943974
      1.936331     1.928688     1.921045     1.913402     1.905759     1.898115     1.890472     1.882829     1.875186     1.867543
      1.859900     1.852257     1.844614     1.836971     1.829327     1.821684     1.814041     1.806398     1.798755     1.791112
      1.783469     1.775826     1.768183     1.760540     1.752896     1.745253     1.737610     1.729967     1.722324     1.714681
      1.707038     1.699395     1.691752     1.684108     1.676465     1.668822     1.661179     1.653536     1.645893     1.638250
      1.630607     1.622964     1.615321     1.607677     1.600034     1.592391     1.584748     1.577105     1.569462     1.561819
      1.554176     1.546533     1.538890     1.531246     1.523603     1.515960     1.508317     1.500674     1.493031     1.485388
      1.477745     1.470102     1.462458     1.454815     1.447172     1.439529     1.431886     1.424243     1.416600     1.408957
      1.401314     1.393671     1.386027     1.378384     1.370741     1.363098     1.355455     1.347812     1.340169     1.332526
      1.324883     1.317240     1.309596     1.301953     1.294310     1.286667     1.279024     1.271381     1.263738     1.256095
      1.248452     1.240808     1.233165     1.225522     1.217879     1.210236     1.202593     1.194950     1.187307     1.179664
      1.172021     1.164377     1.156734     1.149091     1.141448     1.133805     1.126162     1.118519     1.110876     1.103233
      1.095590     1.087946     1.080303     1.072660     1.065017     1.057374     1.049731     1.042088     1.034445     1.026802
      1.019158     1.011515     1.003872     0.996229     0.988586     0.980943     0.973300     0.965657     0.958014     0.950371
      0.942727     0.935084     0.927441     0.919798     0.912155     0.904512     0.896869     0.889226     0.881583     0.873940
      0.866296     0.858653     0.851010     0.843367     0.835724     0.828081     0.820438     0.812795     0.805152     0.797508
      0.789865     0.782222     0.774579     0.766936     0.759293     0.751650     0.744007     0.736364     0.728721     0.721077
      0.713434     0.705791     0.698148     0.690505     0.682862     0.675219     0.667576     0.659933     0.652290     0.644646
      0.637003     0.629360     0.621717     0.614074     0.606431     0.598788     0.591145     0.583502     0.575858     0.568215
      0.560572     0.552929     0.545286     0.537643     0.530000     0.522357     0.514714     0.507071     0.499427     0.491784
      0.484141     0.476498     0.468855     0.461212     0.453569     0.445925     0.438282     0.430639     0.422996     0.415353
      0.407710     0.400067     0.392424     0.384780     0.377137     0.369494     0.361851     0.354208     0.346565     0.338922
      0.331278     0.323635     0.315992     0.308349     0.300706     0.293063     0.285420     0.277777     0.270133     0.262490
      0.254847     0.247204     0.239561     0.231918     0.224275     0.216631     0.208988     0.201345
 NY phased data points follow
   5.29242E+01  5.55131E+01  5.71078E+01  5.57332E+01  5.34730E+01  5.63137E+01  5.43538E+01  5.49464E+01  5.17590E+01  5.37255E+01
   5.21440E+01  5.60361E+01  5.20677E+01  4.98074E+01  5.01383E+01  5.36305E+01  4.92316E+01  5.54922E+01  5.38344E+01  5.92906E+01
   5.58531E+01  6.08250E+01  5.47995E+01  5.47365E+01  5.58546E+01  5.73116E+01  5.53146E+01  5.85233E+01  5.57682E+01  5.51196E+01
   5.43216E+01  5.67168E+01  5.17041E+01  5.53010E+01  5.28575E+01  5.65230E+01  5.20709E+01  5.81234E+01  5.59263E+01  5.60544E+01
   5.49615E+01  5.46623E+01  5.40664E+01  5.64781E+01  4.96807E+01  5.75351E+01  5.50041E+01  5.43001E+01  5.38853E+01  5.53177E+01
   5.30813E+01  5.20905E+01  5.02625E+01  5.38749E+01  5.58815E+01  5.52390E+01  5.74318E+01  5.56943E+01  5.50879E+01  5.46184E+01
   5.39256E+01  5.80831E+01  5.29206E+01  5.36455E+01  5.40589E+01  5.64482E+01  5.82307E+01  5.40208E+01  5.45863E+01  5.65194E+01
   5.31059E+01  5.51057E+01  5.10928E+01  5.22304E+01  5.43477E+01  5.14638E+01  5.33761E+01  5.20421E+01  5.66845E+01  5.48399E+01
   5.56653E+01  5.21415E+01  5.53086E+01  5.56509E+01  5.22495E+01  5.38139E+01  5.41694E+01  5.77220E+01  5.27678E+01  5.39251E+01
   5.44344E+01  5.27996E+01  5.41049E+01  5.44584E+01  5.33711E+01  5.37792E+01  5.34685E+01  5.28621E+01  5.31729E+01  5.37256E+01
   5.58533E+01  5.75213E+01  5.60102E+01  5.64154E+01  5.45418E+01  5.72231E+01  4.94216E+01  5.22998E+01  5.65000E+01  5.43826E+01
   6.03154E+01  6.23074E+01  6.23305E+01  5.84637E+01  5.65244E+01  5.52648E+01  5.39515E+01  5.95315E+01  5.24730E+01  5.87370E+01
   5.59208E+01  5.64874E+01  5.97424E+01  5.71409E+01  5.79566E+01  5.98601E+01  5.88374E+01  6.10443E+01  5.66794E+01  5.59646E+01
   5.59393E+01  5.34210E+01  5.56597E+01  5.94290E+01  5.65415E+01  5.99872E+01  6.22578E+01  6.32817E+01  6.19582E+01  6.24277E+01
   6.04170E+01  6.18131E+01  5.82933E+01  6.17741E+01  5.87870E+01  6.15548E+01  6.14123E+01  5.97688E+01  5.98446E+01  6.26000E+01
   5.96562E+01  6.21672E+01  6.21394E+01  5.98832E+01  6.17160E+01  6.23198E+01  6.37839E+01  6.47558E+01  6.27999E+01  6.48136E+01
   6.36206E+01  6.23487E+01  6.22922E+01  6.70916E+01  6.32685E+01  6.77664E+01  6.42846E+01  6.46898E+01  6.36168E+01  6.40878E+01
   6.36533E+01  6.40557E+01  6.53466E+01  6.63258E+01  6.43672E+01  6.41228E+01  6.53521E+01  6.71466E+01  6.56847E+01  6.42709E+01
   6.70573E+01  6.82929E+01  6.31458E+01  6.43406E+01  6.57817E+01  6.36398E+01  6.49348E+01  6.95244E+01  6.65692E+01  7.02586E+01
   6.58038E+01  6.87544E+01  7.06407E+01  7.11144E+01  7.23791E+01  7.46603E+01  7.37235E+01  7.44856E+01  7.21913E+01  7.68150E+01
   7.62688E+01  7.95202E+01  7.93262E+01  8.01264E+01  8.24330E+01  8.50606E+01  8.45767E+01  8.54328E+01  9.13881E+01  9.15105E+01
   9.28950E+01  9.73475E+01  9.65453E+01  1.02642E+02  1.02430E+02  1.06602E+02  1.11078E+02  1.11468E+02  1.15154E+02  1.20978E+02
   1.24050E+02  1.24791E+02  1.30647E+02  1.36579E+02  1.36764E+02  1.42365E+02  1.42707E+02  1.47020E+02  1.50229E+02  1.50697E+02
   1.50557E+02  1.53131E+02  1.49236E+02  1.49770E+02  1.51210E+02  1.48988E+02  1.49734E+02  1.50800E+02  1.49749E+02  1.52217E+02
   1.52325E+02  1.55575E+02  1.52124E+02  1.56650E+02  1.61041E+02  1.62683E+02  1.65808E+02  1.69963E+02  1.74555E+02  1.78358E+02
   1.81945E+02  1.88147E+02  1.89759E+02  1.93599E+02  2.01526E+02  2.02159E+02  2.06529E+02  2.08347E+02  2.06816E+02  2.13075E+02
   2.12500E+02  2.10111E+02  2.08901E+02  2.09859E+02  2.04517E+02  2.03530E+02  2.03506E+02  2.01791E+02  2.05634E+02  2.03938E+02
   2.06367E+02  2.01553E+02  1.97888E+02  1.97382E+02  1.94359E+02  1.96478E+02  1.95112E+02  1.94465E+02  1.97125E+02  1.94728E+02
   1.93410E+02  1.95935E+02  1.99271E+02  2.00044E+02  2.01155E+02  2.02650E+02  2.00170E+02  2.08389E+02  2.10040E+02  2.11421E+02
   2.10951E+02  2.13075E+02  2.15571E+02  2.16537E+02  2.19200E+02  2.22535E+02  2.30483E+02  2.30374E+02  2.34339E+02  2.36479E+02
   2.37328E+02  2.42443E+02  2.46080E+02  2.49254E+02  2.55873E+02  2.58061E+02  2.58229E+02  2.67862E+02  2.70746E+02  2.77439E+02
   2.79433E+02  2.85946E+02  2.93893E+02  2.96988E+02  3.07202E+02  3.09220E+02  3.16727E+02  3.25835E+02  3.32963E+02  3.39621E+02
   3.46377E+02  3.57163E+02  3.69881E+02  3.76670E+02  3.87866E+02  4.01696E+02  4.10425E+02  4.27116E+02  4.42612E+02  4.56788E+02
   4.78531E+02  4.92948E+02  5.12400E+02  5.34143E+02  5.53697E+02  5.75472E+02  6.02105E+02  6.26053E+02  6.43238E+02  6.72417E+02
   7.04216E+02  7.31303E+02  7.61862E+02  7.93156E+02  8.26112E+02  8.59898E+02  8.95709E+02  9.25128E+02  9.60236E+02  9.92222E+02
   1.02041E+03  1.04380E+03  1.06856E+03  1.08270E+03  1.09080E+03  1.09238E+03  1.08256E+03  1.06521E+03  1.04573E+03  1.01131E+03
   9.84001E+02  9.49620E+02  9.15760E+02  8.85917E+02  8.58214E+02  8.28352E+02  7.96878E+02  7.73131E+02  7.46515E+02  7.19607E+02
   6.92807E+02  6.67142E+02  6.41575E+02  6.12830E+02  5.85401E+02  5.65076E+02  5.37859E+02  5.15143E+02  4.93469E+02  4.80273E+02
   4.59781E+02  4.37664E+02  4.24757E+02  4.09120E+02  3.96437E+02  3.84206E+02  3.75163E+02  3.65474E+02  3.57349E+02  3.49195E+02
   3.41500E+02  3.31488E+02  3.23606E+02  3.17674E+02  3.10917E+02  3.03723E+02  2.99088E+02  2.92567E+02  2.86929E+02  2.80937E+02
   2.74965E+02  2.71585E+02  2.67455E+02  2.62452E+02  2.60045E+02  2.55459E+02  2.51253E+02  2.46482E+02  2.43319E+02  2.41413E+02
   2.35798E+02  2.34881E+02  2.27073E+02  2.24310E+02  2.23133E+02  2.20197E+02  2.17773E+02  2.12185E+02  2.12177E+02  2.08037E+02
   2.04159E+02  2.00379E+02  2.00102E+02  1.96639E+02  1.90506E+02  1.87901E+02  1.86923E+02  1.82486E+02  1.81492E+02  1.77221E+02
   1.74401E+02  1.72022E+02  1.72372E+02  1.66499E+02  1.65116E+02  1.59808E+02  1.57003E+02  1.58767E+02  1.55472E+02  1.53217E+02
   1.51160E+02  1.51056E+02  1.48355E+02  1.43916E+02  1.40823E+02  1.40107E+02  1.37781E+02  1.37001E+02  1.33555E+02  1.32866E+02
   1.29576E+02  1.28408E+02  1.28234E+02  1.25820E+02  1.23373E+02  1.24132E+02  1.24450E+02  1.23722E+02  1.18272E+02  1.16487E+02
   1.14638E+02  1.14588E+02  1.17337E+02  1.11710E+02  1.10963E+02  1.08145E+02  1.10638E+02  1.08354E+02  1.08596E+02  1.07930E+02
   1.04259E+02  1.03062E+02  1.02603E+02  1.03507E+02  1.00527E+02  9.91910E+01  1.03226E+02  9.96205E+01  9.81122E+01  9.62677E+01
   9.54979E+01  9.50992E+01  9.19709E+01  9.34472E+01  9.22211E+01  9.53173E+01  9.22988E+01  9.26975E+01  9.16932E+01  9.15538E+01
   8.83972E+01  8.97553E+01  8.98528E+01  8.44396E+01  8.70518E+01  8.88060E+01  8.53492E+01  8.82818E+01
 NY points of the fit to the data follow
   5.43916E+01  5.42727E+01  5.40411E+01  5.38731E+01  5.35217E+01  5.34046E+01  5.30465E+01  5.31027E+01  5.28891E+01  5.32677E+01
   5.34601E+01  5.44990E+01  5.41614E+01  5.48009E+01  5.39268E+01  5.41325E+01  5.29420E+01  5.32753E+01  5.33313E+01  5.41108E+01
   5.46204E+01  5.51509E+01  5.55250E+01  5.52880E+01  5.54819E+01  5.53357E+01  5.56744E+01  5.56585E+01  5.60320E+01  5.60069E+01
   5.61386E+01  5.59957E+01  5.58724E+01  5.58410E+01  5.57804E+01  5.60062E+01  5.59298E+01  5.63743E+01  5.62604E+01  5.68967E+01
   5.66036E+01  5.73745E+01  5.68566E+01  5.76769E+01  5.63126E+01  5.64991E+01  5.50370E+01  5.50575E+01  5.40782E+01  5.43283E+01
   5.46359E+01  5.49724E+01  5.52935E+01  5.51399E+01  5.51955E+01  5.45522E+01  5.43709E+01  5.39369E+01  5.38345E+01  5.34563E+01
   5.34230E+01  5.31406E+01  5.31955E+01  5.30127E+01  5.31707E+01  5.31257E+01  5.34338E+01  5.34478E+01  5.37262E+01  5.36974E+01
   5.39205E+01  5.38731E+01  5.40793E+01  5.39938E+01  5.41364E+01  5.40053E+01  5.40936E+01  5.39563E+01  5.40606E+01  5.39141E+01
   5.40068E+01  5.38191E+01  5.38629E+01  5.36549E+01  5.36453E+01  5.34532E+01  5.33961E+01  5.32490E+01  5.31923E+01  5.32496E+01
   5.33718E+01  5.34991E+01  5.37235E+01  5.38400E+01  5.41479E+01  5.42191E+01  5.46052E+01  5.46204E+01  5.50876E+01  5.50232E+01
   5.55601E+01  5.53927E+01  5.59585E+01  5.56863E+01  5.62644E+01  5.58706E+01  5.63885E+01  5.58971E+01  5.63708E+01  5.58365E+01
   5.62659E+01  5.57310E+01  5.61342E+01  5.57411E+01  5.60605E+01  5.58328E+01  5.60321E+01  5.59942E+01  5.60861E+01  5.62626E+01
   5.63142E+01  5.67529E+01  5.68503E+01  5.73329E+01  5.73914E+01  5.78717E+01  5.78931E+01  5.83457E+01  5.83274E+01  5.87390E+01
   5.86950E+01  5.90617E+01  5.90095E+01  5.93216E+01  5.92679E+01  5.95200E+01  5.94842E+01  5.96845E+01  5.96908E+01  5.98597E+01
   5.99342E+01  6.00988E+01  6.02573E+01  6.04542E+01  6.07131E+01  6.09944E+01  6.12790E+01  6.15448E+01  6.18352E+01  6.20967E+01
   6.24000E+01  6.26798E+01  6.29580E+01  6.32148E+01  6.34464E+01  6.36609E+01  6.38310E+01  6.39987E+01  6.41051E+01  6.42280E+01
   6.42630E+01  6.43320E+01  6.42787E+01  6.42960E+01  6.42252E+01  6.42072E+01  6.41417E+01  6.40759E+01  6.40416E+01  6.39829E+01
   6.40247E+01  6.40092E+01  6.41319E+01  6.41581E+01  6.44135E+01  6.45210E+01  6.49174E+01  6.51267E+01  6.56474E+01  6.58575E+01
   6.61836E+01  6.63794E+01  6.61987E+01  6.62589E+01  6.57403E+01  6.57681E+01  6.52264E+01  6.60002E+01  6.62256E+01  6.78836E+01
   6.86213E+01  7.13075E+01  7.22332E+01  7.52457E+01  7.57158E+01  7.77595E+01  7.60437E+01  7.80766E+01  7.60784E+01  7.85281E+01
   7.66615E+01  7.95117E+01  7.77756E+01  8.09402E+01  7.95067E+01  8.31066E+01  8.23974E+01  8.64769E+01  8.66175E+01  9.09501E+01
   9.16970E+01  9.59081E+01  9.69112E+01  1.00882E+02  1.02192E+02  1.06036E+02  1.08256E+02  1.12322E+02  1.15717E+02  1.20348E+02
   1.24913E+02  1.29045E+02  1.32579E+02  1.36246E+02  1.38759E+02  1.41747E+02  1.43267E+02  1.45862E+02  1.45423E+02  1.47540E+02
   1.47129E+02  1.48550E+02  1.47962E+02  1.48954E+02  1.48618E+02  1.49204E+02  1.49493E+02  1.50105E+02  1.51286E+02  1.51941E+02
   1.54059E+02  1.54861E+02  1.57846E+02  1.58777E+02  1.62703E+02  1.63774E+02  1.69488E+02  1.71157E+02  1.77359E+02  1.79091E+02
   1.84856E+02  1.86504E+02  1.91480E+02  1.92994E+02  1.96573E+02  1.98800E+02  2.01813E+02  2.04796E+02  2.07010E+02  2.10207E+02
   2.10825E+02  2.12592E+02  2.11624E+02  2.12095E+02  2.09771E+02  2.09460E+02  2.06473E+02  2.05836E+02  2.02739E+02  2.02320E+02
   1.99482E+02  1.99154E+02  1.96698E+02  1.96388E+02  1.94505E+02  1.94245E+02  1.93307E+02  1.93339E+02  1.93879E+02  1.94613E+02
   1.95504E+02  1.96525E+02  1.97693E+02  1.98993E+02  2.00430E+02  2.01996E+02  2.03695E+02  2.05519E+02  2.07470E+02  2.09546E+02
   2.11740E+02  2.14055E+02  2.16479E+02  2.19018E+02  2.21662E+02  2.24412E+02  2.27258E+02  2.30204E+02  2.33243E+02  2.36380E+02
   2.39612E+02  2.42947E+02  2.46390E+02  2.49955E+02  2.53652E+02  2.57501E+02  2.61524E+02  2.65745E+02  2.70201E+02  2.74926E+02
   2.79987E+02  2.85469E+02  2.91586E+02  2.98400E+02  3.04621E+02  3.12038E+02  3.18309E+02  3.26294E+02  3.32777E+02  3.41371E+02
   3.48106E+02  3.58515E+02  3.66522E+02  3.78596E+02  3.88081E+02  4.01693E+02  4.12910E+02  4.28246E+02  4.41548E+02  4.58812E+02
   4.74505E+02  4.93713E+02  5.11915E+02  5.32935E+02  5.53635E+02  5.76372E+02  5.99569E+02  6.23984E+02  6.49602E+02  6.75674E+02
   7.03660E+02  7.31507E+02  7.61864E+02  7.91800E+02  8.24635E+02  8.57033E+02  8.91358E+02  9.24965E+02  9.59499E+02  9.91941E+02
   1.02275E+03  1.04894E+03  1.07005E+03  1.08450E+03  1.09112E+03  1.08944E+03  1.07972E+03  1.06284E+03  1.04016E+03  1.01323E+03
   9.83610E+02  9.52621E+02  9.21268E+02  8.90189E+02  8.59703E+02  8.29897E+02  8.00725E+02  7.72094E+02  7.43924E+02  7.16184E+02
   6.88896E+02  6.62129E+02  6.35983E+02  6.10574E+02  5.86013E+02  5.62402E+02  5.39826E+02  5.18346E+02  4.98003E+02  4.78819E+02
   4.60796E+02  4.43919E+02  4.28161E+02  4.13485E+02  3.99845E+02  3.87189E+02  3.75460E+02  3.64599E+02  3.54547E+02  3.45243E+02
   3.36628E+02  3.28642E+02  3.21231E+02  3.14341E+02  3.07920E+02  3.01919E+02  2.96293E+02  2.90999E+02  2.85999E+02  2.81254E+02
   2.76731E+02  2.72399E+02  2.68231E+02  2.64201E+02  2.60287E+02  2.56470E+02  2.52731E+02  2.49057E+02  2.45435E+02  2.41855E+02
   2.38310E+02  2.34793E+02  2.31301E+02  2.27831E+02  2.24381E+02  2.20953E+02  2.17546E+02  2.14163E+02  2.10807E+02  2.07480E+02
   2.04187E+02  2.00930E+02  1.97714E+02  1.94542E+02  1.91418E+02  1.88345E+02  1.85326E+02  1.82365E+02  1.79462E+02  1.76622E+02
   1.73844E+02  1.71130E+02  1.68482E+02  1.65899E+02  1.63382E+02  1.60930E+02  1.58543E+02  1.56221E+02  1.53962E+02  1.51766E+02
   1.49630E+02  1.47554E+02  1.45536E+02  1.43575E+02  1.41668E+02  1.39814E+02  1.38011E+02  1.36258E+02  1.34552E+02  1.32892E+02
   1.31277E+02  1.29704E+02  1.28172E+02  1.26680E+02  1.25225E+02  1.23806E+02  1.22423E+02  1.21073E+02  1.19755E+02  1.18468E+02
   1.17210E+02  1.15982E+02  1.14781E+02  1.13606E+02  1.12457E+02  1.11332E+02  1.10231E+02  1.09153E+02  1.08097E+02  1.07062E+02
   1.06048E+02  1.05054E+02  1.04079E+02  1.03122E+02  1.02184E+02  1.01263E+02  1.00360E+02  9.94725E+01  9.86017E+01  9.77466E+01
   9.69070E+01  9.60823E+01  9.52724E+01  9.44769E+01  9.36954E+01  9.29278E+01  9.21738E+01  9.14332E+01  9.07057E+01  8.99912E+01
   8.92895E+01  8.86004E+01  8.79239E+01  8.72599E+01  8.66082E+01  8.59688E+01  8.53417E+01  8.47270E+01
 NY background values follow
     5.800E+01    5.783E+01    5.766E+01    5.750E+01    5.733E+01    5.717E+01    5.701E+01    5.685E+01    5.669E+01    5.654E+01
     5.639E+01    5.624E+01    5.609E+01    5.595E+01    5.581E+01    5.567E+01    5.554E+01    5.540E+01    5.528E+01    5.515E+01
     5.503E+01    5.491E+01    5.480E+01    5.469E+01    5.458E+01    5.448E+01    5.439E+01    5.429E+01    5.420E+01    5.412E+01
     5.404E+01    5.397E+01    5.390E+01    5.383E+01    5.378E+01    5.372E+01    5.367E+01    5.363E+01    5.360E+01    5.356E+01
     5.354E+01    5.352E+01    5.351E+01    5.350E+01    5.350E+01    5.351E+01    5.352E+01    5.354E+01    5.356E+01    5.359E+01
     5.363E+01    5.367E+01    5.372E+01    5.377E+01    5.382E+01    5.388E+01    5.394E+01    5.401E+01    5.408E+01    5.415E+01
     5.422E+01    5.429E+01    5.437E+01    5.445E+01    5.453E+01    5.460E+01    5.468E+01    5.476E+01    5.484E+01    5.492E+01
     5.499E+01    5.507E+01    5.514E+01    5.521E+01    5.528E+01    5.535E+01    5.541E+01    5.547E+01    5.553E+01    5.558E+01
     5.563E+01    5.567E+01    5.571E+01    5.574E+01    5.577E+01    5.579E+01    5.580E+01    5.581E+01    5.581E+01    5.581E+01
     5.579E+01    5.577E+01    5.574E+01    5.571E+01    5.566E+01    5.561E+01    5.556E+01    5.550E+01    5.543E+01    5.535E+01
     5.527E+01    5.519E+01    5.510E+01    5.501E+01    5.492E+01    5.482E+01    5.472E+01    5.461E+01    5.451E+01    5.440E+01
     5.429E+01    5.418E+01    5.407E+01    5.396E+01    5.385E+01    5.374E+01    5.363E+01    5.352E+01    5.341E+01    5.331E+01
     5.320E+01    5.310E+01    5.300E+01    5.291E+01    5.282E+01    5.273E+01    5.264E+01    5.257E+01    5.249E+01    5.242E+01
     5.236E+01    5.230E+01    5.225E+01    5.221E+01    5.217E+01    5.214E+01    5.212E+01    5.211E+01    5.210E+01    5.210E+01
     5.212E+01    5.214E+01    5.217E+01    5.220E+01    5.225E+01    5.231E+01    5.238E+01    5.246E+01    5.254E+01    5.264E+01
     5.275E+01    5.287E+01    5.300E+01    5.314E+01    5.329E+01    5.346E+01    5.363E+01    5.382E+01    5.402E+01    5.424E+01
     5.446E+01    5.470E+01    5.495E+01    5.521E+01    5.549E+01    5.578E+01    5.608E+01    5.640E+01    5.673E+01    5.707E+01
     5.743E+01    5.781E+01    5.820E+01    5.860E+01    5.902E+01    5.946E+01    5.991E+01    6.037E+01    6.085E+01    6.135E+01
     6.187E+01    6.240E+01    6.294E+01    6.351E+01    6.408E+01    6.468E+01    6.529E+01    6.591E+01    6.655E+01    6.720E+01
     6.786E+01    6.854E+01    6.923E+01    6.993E+01    7.064E+01    7.136E+01    7.209E+01    7.284E+01    7.359E+01    7.435E+01
     7.512E+01    7.590E+01    7.669E+01    7.748E+01    7.829E+01    7.910E+01    7.991E+01    8.073E+01    8.156E+01    8.239E+01
     8.322E+01    8.406E+01    8.491E+01    8.575E+01    8.660E+01    8.745E+01    8.831E+01    8.916E+01    9.002E+01    9.088E+01
     9.174E+01    9.259E+01    9.345E+01    9.431E+01    9.516E+01    9.601E+01    9.686E+01    9.771E+01    9.855E+01    9.940E+01
     1.002E+02    1.011E+02    1.019E+02    1.027E+02    1.035E+02    1.044E+02    1.052E+02    1.060E+02    1.068E+02    1.076E+02
     1.084E+02    1.092E+02    1.100E+02    1.107E+02    1.115E+02    1.123E+02    1.130E+02    1.138E+02    1.145E+02    1.153E+02
     1.160E+02    1.167E+02    1.174E+02    1.181E+02    1.188E+02    1.195E+02    1.202E+02    1.209E+02    1.216E+02    1.222E+02
     1.229E+02    1.235E+02    1.241E+02    1.248E+02    1.254E+02    1.260E+02    1.266E+02    1.271E+02    1.277E+02    1.283E+02
     1.288E+02    1.293E+02    1.299E+02    1.304E+02    1.309E+02    1.314E+02    1.318E+02    1.323E+02    1.328E+02    1.332E+02
     1.336E+02    1.341E+02    1.345E+02    1.349E+02    1.353E+02    1.356E+02    1.360E+02    1.364E+02    1.367E+02    1.371E+02
     1.374E+02    1.377E+02    1.380E+02    1.383E+02    1.386E+02    1.389E+02    1.392E+02    1.395E+02    1.397E+02    1.400E+02
     1.402E+02    1.404E+02    1.407E+02    1.409E+02    1.411E+02    1.413E+02    1.415E+02    1.417E+02    1.418E+02    1.420E+02
     1.422E+02    1.423E+02    1.425E+02    1.426E+02    1.427E+02    1.429E+02    1.430E+02    1.431E+02    1.432E+02    1.433E+02
     1.434E+02    1.435E+02    1.435E+02    1.436E+02    1.437E+02    1.437E+02    1.438E+02    1.438E+02    1.439E+02    1.439E+02
     1.439E+02    1.439E+02    1.439E+02    1.439E+02    1.439E+02    1.439E+02    1.439E+02    1.439E+02    1.439E+02    1.438E+02
     1.438E+02    1.438E+02    1.437E+02    1.436E+02    1.436E+02    1.435E+02    1.434E+02    1.433E+02    1.433E+02    1.432E+02
     1.431E+02    1.430E+02    1.429E+02    1.427E+02    1.426E+02    1.425E+02    1.423E+02    1.422E+02    1.421E+02    1.419E+02
     1.418E+02    1.416E+02    1.414E+02    1.413E+02    1.411E+02    1.409E+02    1.407E+02    1.405E+02    1.403E+02    1.401E+02
     1.399E+02    1.397E+02    1.394E+02    1.392E+02    1.390E+02    1.387E+02    1.385E+02    1.382E+02    1.380E+02    1.377E+02
     1.375E+02    1.372E+02    1.369E+02    1.366E+02    1.363E+02    1.360E+02    1.358E+02    1.354E+02    1.351E+02    1.348E+02
     1.345E+02    1.342E+02    1.338E+02    1.335E+02    1.332E+02    1.328E+02    1.325E+02    1.321E+02    1.317E+02    1.314E+02
     1.310E+02    1.306E+02    1.302E+02    1.298E+02    1.295E+02    1.291E+02    1.286E+02    1.282E+02    1.278E+02    1.274E+02
     1.270E+02    1.265E+02    1.261E+02    1.257E+02    1.252E+02    1.248E+02    1.243E+02    1.239E+02    1.234E+02    1.229E+02
     1.225E+02    1.220E+02    1.215E+02    1.210E+02    1.205E+02    1.201E+02    1.196E+02    1.191E+02    1.186E+02    1.181E+02
     1.176E+02    1.171E+02    1.166E+02    1.160E+02    1.155E+02    1.150E+02    1.145E+02    1.140E+02    1.135E+02    1.129E+02
     1.124E+02    1.119E+02    1.114E+02    1.108E+02    1.103E+02    1.098E+02    1.093E+02    1.087E+02    1.082E+02    1.077E+02
     1.071E+02    1.066E+02    1.061E+02    1.055E+02    1.050E+02    1.045E+02    1.039E+02    1.034E+02    1.029E+02    1.023E+02
     1.018E+02    1.013E+02    1.007E+02    1.002E+02    9.967E+01    9.915E+01    9.862E+01    9.810E+01    9.758E+01    9.706E+01
     9.654E+01    9.602E+01    9.551E+01    9.500E+01    9.449E+01    9.398E+01    9.348E+01    9.298E+01    9.248E+01    9.198E+01
     9.149E+01    9.100E+01    9.051E+01    9.003E+01    8.955E+01    8.908E+01    8.860E+01    8.814E+01    8.767E+01    8.721E+01
     8.676E+01    8.631E+01    8.586E+01    8.542E+01    8.498E+01    8.455E+01    8.412E+01    8.369E+01
 Ala      Conc. = 2.45E+03
