 LCModel (Version 6.3-1L) Copyright: S.W. Provencher.          Ref.: Magn. Reson. Med. 30:672-679 (1993).                
 Slice#2 Row#7 Col#7  PD_24_press_1_raw_act
 36 lines in following concentration table = NCONC+1
    Conc.  %SD /Cr+PCr  Metabolite                                         
    0.000 999%   0.000 Ala                                                 
    0.000 999%   0.000 Asp                                                 
  974.277  39%   0.582 Cr                                                  
  699.085  56%   0.418 PCr                                                 
   86.034 232% 5.1E-02 GABA                                                
   88.994 208% 5.3E-02 Glc                                                 
 1.64E+03  28%   0.982 Gln                                                 
 2.10E+03  25%   1.257 Glu                                                 
  848.268   3%   0.507 GPC                                                 
    0.000 999%   0.000 PCh                                                 
  628.580  17%   0.376 GSH                                                 
 2.57E+03  13%   1.535 Ins                                                 
    0.000 999%   0.000 Lac                                                 
 2.21E+03   7%   1.321 NAA                                                 
  191.738  99%   0.115 NAAG                                                
   74.763  47% 4.5E-02 Scyllo                                              
    0.000 999%   0.000 Tau                                                 
    0.000 999%   0.000 -CrCH2                                              
  848.268   3%   0.507 GPC+PCh                                             
 2.40E+03   5%   1.435 NAA+NAAG                                            
 1.67E+03   4%   1.000 Cr+PCr                                              
 3.75E+03  21%   2.239 Glu+Gln                                             
    0.000 999%   0.000 Lip13a                                              
 1.40E+03  23%   0.839 Lip13b                                              
  196.760 126%   0.118 Lip09                                               
 1.59E+03  18%   0.948 MM09                                                
  271.063  65%   0.162 Lip20                                               
 2.84E+03  16%   1.698 MM20                                                
  556.161  35%   0.332 MM12                                                
  820.407  43%   0.490 MM14                                                
 1.64E+03  17%   0.977 MM17                                                
 1.40E+03  23%   0.839 Lip13a+Lip13b                                       
 2.78E+03  12%   1.661 MM14+Lip13a+Lip13b+MM12                             
 1.78E+03  12%   1.065 MM09+Lip09                                          
 3.11E+03  14%   1.860 MM20+Lip20                                          
   6 lines in following misc. output table
  FWHM = 0.076 ppm    S/N =   8                                            
  Data shift = 0.008 ppm                                                   
  Ph: -25 deg       0.8 deg/ppm                                            
  alphaB,S = 8.5E+01,   4.1E+02                                            
   14 spline knots.   Ns = 9(1)                                            
   2 inflections.     1 extrema                                            
  498 points on ppm-axis = NY
      4.000000     3.992357     3.984714     3.977070     3.969427     3.961784     3.954141     3.946497     3.938854     3.931211
      3.923568     3.915925     3.908281     3.900638     3.892995     3.885352     3.877708     3.870065     3.862422     3.854779
      3.847136     3.839492     3.831849     3.824206     3.816563     3.808919     3.801276     3.793633     3.785990     3.778347
      3.770703     3.763060     3.755417     3.747774     3.740130     3.732487     3.724844     3.717201     3.709558     3.701914
      3.694271     3.686628     3.678985     3.671341     3.663698     3.656055     3.648412     3.640769     3.633125     3.625482
      3.617839     3.610196     3.602552     3.594909     3.587266     3.579623     3.571980     3.564336     3.556693     3.549050
      3.541407     3.533763     3.526120     3.518477     3.510834     3.503191     3.495547     3.487904     3.480261     3.472618
      3.464974     3.457331     3.449688     3.442045     3.434402     3.426758     3.419115     3.411472     3.403829     3.396185
      3.388542     3.380899     3.373256     3.365613     3.357969     3.350326     3.342683     3.335040     3.327396     3.319753
      3.312110     3.304467     3.296824     3.289180     3.281537     3.273894     3.266251     3.258607     3.250964     3.243321
      3.235678     3.228034     3.220391     3.212748     3.205105     3.197462     3.189818     3.182175     3.174532     3.166889
      3.159245     3.151602     3.143959     3.136316     3.128673     3.121029     3.113386     3.105743     3.098100     3.090456
      3.082813     3.075170     3.067527     3.059884     3.052240     3.044597     3.036954     3.029311     3.021667     3.014024
      3.006381     2.998738     2.991095     2.983451     2.975808     2.968165     2.960522     2.952878     2.945235     2.937592
      2.929949     2.922306     2.914662     2.907019     2.899376     2.891733     2.884089     2.876446     2.868803     2.861160
      2.853517     2.845873     2.838230     2.830587     2.822944     2.815300     2.807657     2.800014     2.792371     2.784728
      2.777084     2.769441     2.761798     2.754155     2.746511     2.738868     2.731225     2.723582     2.715939     2.708295
      2.700652     2.693009     2.685366     2.677722     2.670079     2.662436     2.654793     2.647150     2.639506     2.631863
      2.624220     2.616577     2.608933     2.601290     2.593647     2.586004     2.578361     2.570717     2.563074     2.555431
      2.547788     2.540144     2.532501     2.524858     2.517215     2.509572     2.501928     2.494285     2.486642     2.478999
      2.471355     2.463712     2.456069     2.448426     2.440783     2.433139     2.425496     2.417853     2.410210     2.402566
      2.394923     2.387280     2.379637     2.371994     2.364350     2.356707     2.349064     2.341421     2.333777     2.326134
      2.318491     2.310848     2.303205     2.295561     2.287918     2.280275     2.272632     2.264988     2.257345     2.249702
      2.242059     2.234416     2.226772     2.219129     2.211486     2.203843     2.196199     2.188556     2.180913     2.173270
      2.165627     2.157983     2.150340     2.142697     2.135054     2.127410     2.119767     2.112124     2.104481     2.096838
      2.089194     2.081551     2.073908     2.066265     2.058621     2.050978     2.043335     2.035692     2.028049     2.020405
      2.012762     2.005119     1.997476     1.989833     1.982190     1.974546     1.966903     1.959260     1.951617     1.943974
      1.936331     1.928688     1.921045     1.913402     1.905759     1.898115     1.890472     1.882829     1.875186     1.867543
      1.859900     1.852257     1.844614     1.836971     1.829327     1.821684     1.814041     1.806398     1.798755     1.791112
      1.783469     1.775826     1.768183     1.760540     1.752896     1.745253     1.737610     1.729967     1.722324     1.714681
      1.707038     1.699395     1.691752     1.684108     1.676465     1.668822     1.661179     1.653536     1.645893     1.638250
      1.630607     1.622964     1.615321     1.607677     1.600034     1.592391     1.584748     1.577105     1.569462     1.561819
      1.554176     1.546533     1.538890     1.531246     1.523603     1.515960     1.508317     1.500674     1.493031     1.485388
      1.477745     1.470102     1.462458     1.454815     1.447172     1.439529     1.431886     1.424243     1.416600     1.408957
      1.401314     1.393671     1.386027     1.378384     1.370741     1.363098     1.355455     1.347812     1.340169     1.332526
      1.324883     1.317240     1.309596     1.301953     1.294310     1.286667     1.279024     1.271381     1.263738     1.256095
      1.248452     1.240808     1.233165     1.225522     1.217879     1.210236     1.202593     1.194950     1.187307     1.179664
      1.172021     1.164377     1.156734     1.149091     1.141448     1.133805     1.126162     1.118519     1.110876     1.103233
      1.095590     1.087946     1.080303     1.072660     1.065017     1.057374     1.049731     1.042088     1.034445     1.026802
      1.019158     1.011515     1.003872     0.996229     0.988586     0.980943     0.973300     0.965657     0.958014     0.950371
      0.942727     0.935084     0.927441     0.919798     0.912155     0.904512     0.896869     0.889226     0.881583     0.873940
      0.866296     0.858653     0.851010     0.843367     0.835724     0.828081     0.820438     0.812795     0.805152     0.797508
      0.789865     0.782222     0.774579     0.766936     0.759293     0.751650     0.744007     0.736364     0.728721     0.721077
      0.713434     0.705791     0.698148     0.690505     0.682862     0.675219     0.667576     0.659933     0.652290     0.644646
      0.637003     0.629360     0.621717     0.614074     0.606431     0.598788     0.591145     0.583502     0.575858     0.568215
      0.560572     0.552929     0.545286     0.537643     0.530000     0.522357     0.514714     0.507071     0.499427     0.491784
      0.484141     0.476498     0.468855     0.461212     0.453569     0.445925     0.438282     0.430639     0.422996     0.415353
      0.407710     0.400067     0.392424     0.384780     0.377137     0.369494     0.361851     0.354208     0.346565     0.338922
      0.331278     0.323635     0.315992     0.308349     0.300706     0.293063     0.285420     0.277777     0.270133     0.262490
      0.254847     0.247204     0.239561     0.231918     0.224275     0.216631     0.208988     0.201345
 NY phased data points follow
   9.35283E+00  4.49066E+00  1.11702E+01  1.29105E+01  1.76719E+01  2.75151E+01  3.21024E+01  3.36167E+01  4.21990E+01  3.99240E+01
   4.19043E+01  3.40334E+01  3.88853E+01  3.11369E+01  2.46517E+01  2.21382E+01  2.24303E+01  1.10302E+01  1.18716E+01  1.51822E+01
   5.04598E+00  6.41575E+00  1.18805E+01  1.79032E+01  1.18765E+01  1.39904E+01  1.82064E+01  1.63717E+01  2.25469E+01  1.31315E+01
   1.56279E+01  1.30471E+01  1.24786E+01  1.30739E+01  1.65758E+01  8.02766E+00  1.69197E+01  2.06729E+01  1.33538E+01  1.11527E+01
   1.60333E+01  2.35553E+01  1.66607E+01  1.62943E+01  2.12639E+01  2.04926E+01  1.65616E+01  1.63110E+01  1.71338E+01  1.26448E+01
   1.67013E+01  1.58459E+01  1.53952E+01  1.27785E+01  1.41319E+01  6.03336E+00  8.90740E+00  1.42191E+01  8.19062E+00  8.53922E+00
   2.03576E+01  3.83809E+00  2.54295E+00 -6.47598E+00  1.75597E+00  4.65401E+00  1.39214E+00  2.89663E+00 -3.13844E+00  3.48255E+00
   2.69887E-01  1.70732E+00  5.27355E+00  3.21996E-01  4.23104E+00  1.08330E+01  6.27353E+00  6.66142E+00  3.73971E+00  4.55371E+00
   6.87780E+00  3.04438E+00  3.50986E+00  4.66097E-01  3.48795E+00  5.36441E+00 -1.03235E-01  3.21289E+00  4.58287E+00 -3.98273E-01
   1.38825E+00  6.20556E+00  1.99467E+00  3.20080E+00  3.91542E-01  8.89573E+00  7.82738E+00  2.07407E+01  3.48059E+01  4.40206E+01
   6.07857E+01  6.00283E+01  6.07344E+01  5.93492E+01  5.86329E+01  5.19849E+01  3.70169E+01  3.66836E+01  1.96334E+01  2.07552E+01
   9.92647E+00  1.34347E+01  7.64164E+00  3.77018E+00  1.06320E+00  8.81980E-01  9.64785E-01 -6.73392E-01  3.15217E+00  3.02943E+00
   9.52640E+00  1.24727E+01  2.32770E+01  3.01802E+01  3.52452E+01  3.38078E+01  4.30455E+01  4.02850E+01  4.17720E+01  3.93996E+01
   3.80623E+01  2.79989E+01  1.05530E+01  1.14425E+01  9.16016E+00  6.18669E+00  7.71134E+00  4.12945E+00 -9.68095E-01  1.02241E+00
   3.14798E-01 -2.34083E+00  3.84939E+00  1.77913E+00 -3.93965E+00 -2.30835E+00 -1.16990E+00  3.42132E+00  1.22325E+00  3.37629E+00
  -2.57094E+00 -1.64191E+00 -3.56265E+00  4.81570E+00 -5.74221E-01 -3.53827E+00 -4.13481E+00  1.06116E+00 -2.62519E+00 -5.15326E+00
  -4.95011E-01 -1.20809E+00 -5.61099E-01 -6.09370E-01  3.94402E+00  4.37637E+00 -1.34429E+00 -4.20727E+00  6.04720E-03 -5.14934E+00
  -6.28881E+00 -2.16296E+00 -1.38346E+00 -7.51016E+00 -1.07160E+01 -3.57633E+00 -8.97905E+00 -1.19100E+01 -1.19661E+01 -1.19812E+01
  -1.20119E+01 -1.22561E+01 -1.26550E+01 -1.83622E+01 -1.39475E+01 -2.08576E+00 -4.67479E+00 -1.66054E+00 -3.06207E+00 -2.82390E+00
   5.27111E+00  6.70238E+00 -2.86189E+00 -1.12235E+00  3.16574E+00  5.93548E+00  7.89575E+00 -1.45733E+00  3.31621E-01  1.79194E+00
   2.12336E+00  3.14747E+00  7.01187E-01  2.07756E+00  3.15382E+00  3.80064E+00 -2.74770E+00 -9.55096E-01 -3.50981E+00 -2.98154E+00
  -1.90793E+00  3.31881E+00  4.19821E+00  1.07261E+01  1.01910E-01  1.54721E+01  7.98483E+00  1.02170E+01  5.66752E+00  1.03468E+01
   4.69146E+00 -1.37238E+00 -4.13006E-01  1.93880E+00  3.32729E+00  2.32121E+00  5.34597E+00  8.52809E+00  6.04162E+00  1.01761E+01
   8.68242E+00  8.66385E+00  6.22884E+00  6.43546E+00  8.09300E+00  4.60533E+00  1.31566E+01  4.55276E+00  5.56320E+00  7.28876E+00
   2.69985E+00  3.74264E+00  1.78379E+00  4.48518E+00  8.98380E+00  7.45233E+00  7.65816E+00  1.01651E+01  7.43606E+00  2.12103E+01
   1.56119E+01  1.36321E+01  2.27566E+01  2.61114E+01  2.59200E+01  4.73945E+01  4.90388E+01  5.84599E+01  5.96186E+01  5.91418E+01
   6.28806E+01  7.04625E+01  6.41706E+01  6.17987E+01  5.03718E+01  4.21281E+01  2.48319E+01  1.58441E+01  1.28216E+01  1.42384E+01
   1.22590E+01  1.58113E+01  9.18993E+00  6.03124E+00  1.23346E+01  7.17319E+00  6.92084E+00  3.27070E+00  1.67541E+00  4.71321E+00
   6.05257E+00  9.32107E+00  2.38636E+00 -2.16496E+00  3.58785E+00  1.44224E+00  1.44301E-02  1.09135E+01  4.28341E+00  5.74222E+00
   4.46438E+00  1.14754E+01  7.91833E+00  3.42971E+00  1.07284E+01 -1.35730E+00  4.13153E+00  7.21698E+00  5.98803E+00  6.62918E+00
   8.76659E+00  1.05684E+01  3.57288E+00  8.36523E+00  7.89226E+00  9.17826E+00  1.10078E+01  5.82607E+00  1.00091E+01  6.46989E+00
   1.60841E+01  5.65004E+00  8.51994E+00  1.72404E+01  9.99183E+00  1.11170E+01  9.64377E+00  3.75951E+00  1.19348E+01  9.17974E+00
   5.51807E+00  1.10676E+01  9.67498E+00  3.41128E+00  2.49554E+00  1.25779E+01  9.00953E+00  7.79692E+00  9.31696E+00  9.94195E+00
   5.99405E+00  2.27702E+00  8.17437E+00  9.74884E+00  1.20985E+01  6.71559E+00  4.52532E-02 -5.08323E+00  5.45230E-01  6.60121E-01
  -4.89011E-01 -1.63044E+00  6.27652E+00  1.57853E+00 -1.55259E+00  5.22220E+00  6.54637E+00  8.66929E+00  1.15555E+01  1.06062E+01
   1.42648E+01  1.19626E+01  1.65813E+01  1.59201E+01  1.81006E+01  2.26557E+01  1.56936E+01  2.06061E+01  1.94798E+01  1.19146E+01
   1.34601E+01  1.17007E+01  7.64922E+00  1.44559E+01  1.33240E+01  1.22332E+01  1.00083E+01  8.62407E+00  8.58990E+00  5.69096E+00
   6.30837E+00  1.00747E+01  2.45916E+00  1.44203E+01  4.53829E-01  7.39903E+00  5.06218E-02  3.20863E+00  5.66826E+00 -2.17707E-01
  -7.69743E-01 -5.73439E-02 -9.38181E-01  5.03288E+00  9.16006E+00  9.90355E+00  1.09914E+01  4.13360E+00 -1.44333E+00 -2.07722E-02
   1.27253E+01  1.15820E+01  1.57353E+00  7.96560E+00  4.44796E+00  1.19857E+01  7.80802E+00  9.86884E+00  1.10233E+01  6.49683E+00
   7.22366E+00  1.07552E+01  1.33281E+01  1.33762E+01  1.36309E+01  1.47245E+01  1.60957E+01  1.32114E+01  1.50254E+01  1.58826E+01
   1.83049E+01  1.18834E+01  2.01408E+00  1.20874E+01  5.81665E+00  6.69674E+00  6.02612E+00  3.81856E+00  5.51811E+00  4.20953E+00
   8.90434E+00  7.76124E+00  2.13544E-01  1.16780E+00  9.81444E+00  8.51296E+00 -1.65216E-01  6.63361E+00  1.73691E+00  3.20111E+00
   2.69891E-01  4.50371E+00 -2.06791E-01  4.75329E+00  3.10777E+00  4.02017E+00  3.97582E+00  7.74607E+00  6.23590E+00  5.49603E+00
  -1.91678E+00  6.68310E+00  3.58473E-01  9.57236E-01  2.03621E+00  2.63454E+00 -1.12289E+00 -6.48710E-01 -2.02778E+00  9.43957E-01
  -3.54349E+00 -7.83780E-01  2.53792E+00  1.33182E+00  1.23622E+00 -2.29208E+00 -4.92207E+00 -4.12997E+00  2.74128E+00 -6.22889E+00
   1.43525E+00 -5.04270E+00  1.63278E-01  2.57040E+00  9.12276E-01 -1.25536E+00  2.43742E-01  2.22656E+00  3.18398E+00  5.79767E+00
  -3.47943E+00  7.24849E-01  2.41765E+00  4.29774E+00 -8.36823E-02 -6.79525E-02  2.62023E-01 -4.02102E+00 -3.94815E+00  8.96351E-01
   1.90219E+00 -2.98887E+00 -6.06076E+00  1.61316E+00  8.54606E+00 -7.02093E-01  2.20311E-01  5.63949E-01 -5.24124E+00 -1.72398E+00
  -6.13094E-01 -5.52310E+00  1.08247E+00 -5.64723E+00 -4.57145E-02  6.78445E-01 -1.03261E+00 -1.80297E+00
 NY points of the fit to the data follow
   1.07119E+01  1.13075E+01  1.29749E+01  1.58714E+01  1.97251E+01  2.40360E+01  2.82834E+01  3.19355E+01  3.45889E+01  3.60364E+01
   3.62133E+01  3.51450E+01  3.29368E+01  2.98096E+01  2.61122E+01  2.22720E+01  1.86734E+01  1.55365E+01  1.29258E+01  1.07849E+01
   9.19680E+00  8.37513E+00  8.40342E+00  9.25750E+00  1.07020E+01  1.25392E+01  1.45435E+01  1.64459E+01  1.80226E+01  1.90884E+01
   1.94891E+01  1.91768E+01  1.81812E+01  1.66264E+01  1.47493E+01  1.28393E+01  1.11403E+01  9.90450E+00  9.43951E+00  9.88187E+00
   1.12238E+01  1.32312E+01  1.54250E+01  1.73911E+01  1.87939E+01  1.94664E+01  1.93778E+01  1.85622E+01  1.71106E+01  1.51755E+01
   1.30199E+01  1.09898E+01  9.36513E+00  8.31141E+00  7.81698E+00  7.67515E+00  7.64783E+00  7.66989E+00  7.72879E+00  7.67823E+00
   7.41098E+00  6.96555E+00  6.45370E+00  5.98009E+00  5.63358E+00  5.48164E+00  5.54930E+00  5.79175E+00  6.10845E+00  6.42643E+00
   6.70933E+00  6.90651E+00  6.98414E+00  6.91471E+00  6.70104E+00  6.38084E+00  6.01331E+00  5.67809E+00  5.40457E+00  5.13716E+00
   4.81056E+00  4.37604E+00  3.84856E+00  3.26618E+00  2.68518E+00  2.18516E+00  1.83024E+00  1.66798E+00  1.70094E+00  1.90868E+00
   2.26202E+00  2.73370E+00  3.32710E+00  4.22140E+00  6.34481E+00  1.07050E+01  1.74284E+01  2.60715E+01  3.56062E+01  4.47227E+01
   5.22868E+01  5.75725E+01  6.02810E+01  6.03137E+01  5.76198E+01  5.23155E+01  4.49046E+01  3.62908E+01  2.75592E+01  1.97112E+01
   1.32870E+01  8.26366E+00  4.39766E+00  1.70932E+00  5.81581E-01  6.27813E-01  1.00797E+00  1.69217E+00  3.26516E+00  6.39019E+00
   1.11519E+01  1.72492E+01  2.40239E+01  3.06215E+01  3.62754E+01  4.04592E+01  4.28890E+01  4.34167E+01  4.19318E+01  3.84514E+01
   3.33041E+01  2.71304E+01  2.07614E+01  1.49652E+01  1.01733E+01  6.42522E+00  3.58385E+00  1.64978E+00  8.37137E-01  8.81525E-01
   1.14945E+00  1.41740E+00  1.59883E+00  1.66205E+00  1.61346E+00  1.44812E+00  1.16980E+00  8.27492E-01  4.64469E-01  1.16711E-01
  -1.73413E-01 -3.96227E-01 -5.68694E-01 -7.36144E-01 -9.30565E-01 -1.14988E+00 -1.35766E+00 -1.52244E+00 -1.63958E+00 -1.72145E+00
  -1.79781E+00 -1.89912E+00 -2.03256E+00 -2.18666E+00 -2.35100E+00 -2.53229E+00 -2.75439E+00 -3.04967E+00 -3.43681E+00 -3.87495E+00
  -4.30094E+00 -4.66906E+00 -4.98041E+00 -5.24342E+00 -5.44974E+00 -5.59425E+00 -5.67324E+00 -5.70197E+00 -5.70893E+00 -5.70258E+00
  -5.65882E+00 -5.52935E+00 -5.24134E+00 -4.72815E+00 -3.98661E+00 -3.08905E+00 -2.16139E+00 -1.35630E+00 -7.71719E-01 -4.37202E-01
  -3.53690E-01 -4.82258E-01 -7.27151E-01 -9.40500E-01 -9.64792E-01 -6.62362E-01  3.49923E-02  1.09571E+00  2.38249E+00  3.68233E+00
   4.71189E+00  5.14567E+00  4.84412E+00  3.83013E+00  2.24111E+00  3.55388E-01 -1.47057E+00 -2.85579E+00 -3.48276E+00 -3.22784E+00
  -2.09960E+00 -2.81361E-01  1.87569E+00  3.88515E+00  5.28214E+00  5.83590E+00  5.54562E+00  4.56371E+00  3.16458E+00  1.65620E+00
   3.12766E-01 -6.18544E-01 -9.25761E-01 -6.27774E-01  1.39800E-01  1.23175E+00  2.47101E+00  3.69205E+00  4.75581E+00  5.56229E+00
   6.17846E+00  6.74274E+00  7.34154E+00  7.90629E+00  8.31641E+00  8.53827E+00  8.57495E+00  8.40756E+00  8.06387E+00  7.62287E+00
   7.16338E+00  6.74166E+00  6.39886E+00  6.22130E+00  6.32350E+00  6.74201E+00  7.45022E+00  8.48070E+00  9.85216E+00  1.14483E+01
   1.32152E+01  1.56378E+01  1.96362E+01  2.54680E+01  3.29369E+01  4.14377E+01  4.99754E+01  5.74528E+01  6.30332E+01  6.63218E+01
   6.72041E+01  6.56364E+01  6.16356E+01  5.54651E+01  4.77523E+01  3.93994E+01  3.13916E+01  2.44523E+01  1.87433E+01  1.40886E+01
   1.04397E+01  8.10886E+00  7.07726E+00  6.53735E+00  6.15008E+00  5.83577E+00  5.54855E+00  5.25302E+00  4.95417E+00  4.65939E+00
   4.37740E+00  4.11971E+00  3.89623E+00  3.71110E+00  3.57208E+00  3.48807E+00  3.45882E+00  3.47774E+00  3.53933E+00  3.64131E+00
   3.78314E+00  3.96371E+00  4.18080E+00  4.43589E+00  4.72987E+00  5.06106E+00  5.42666E+00  5.82334E+00  6.24539E+00  6.68516E+00
   7.13376E+00  7.58123E+00  8.01670E+00  8.42958E+00  8.80882E+00  9.14336E+00  9.42376E+00  9.64263E+00  9.79480E+00  9.87724E+00
   9.88924E+00  9.83299E+00  9.71286E+00  9.53508E+00  9.30764E+00  9.03977E+00  8.74126E+00  8.42215E+00  8.09227E+00  7.76086E+00
   7.43618E+00  7.12512E+00  6.83307E+00  6.56382E+00  6.31962E+00  6.10126E+00  5.90824E+00  5.73892E+00  5.59082E+00  5.46089E+00
   5.34583E+00  5.24238E+00  5.14752E+00  5.05876E+00  4.97439E+00  4.89383E+00  4.81802E+00  4.74982E+00  4.69455E+00  4.66075E+00
   4.66095E+00  4.71257E+00  4.83842E+00  5.06660E+00  5.42939E+00  5.96051E+00  6.69069E+00  7.64141E+00  8.81746E+00  1.01998E+01
   1.17402E+01  1.33600E+01  1.49546E+01  1.64029E+01  1.75828E+01  1.83884E+01  1.87461E+01  1.86265E+01  1.80486E+01  1.70758E+01
   1.58044E+01  1.43482E+01  1.28213E+01  1.13243E+01  9.93392E+00  8.69949E+00  7.64379E+00  6.76784E+00  6.05743E+00  5.48985E+00
   5.03955E+00  4.68216E+00  4.39688E+00  4.16743E+00  3.98215E+00  3.83339E+00  3.71681E+00  3.63050E+00  3.57435E+00  3.54951E+00
   3.55799E+00  3.60236E+00  3.68547E+00  3.81030E+00  3.97975E+00  4.19647E+00  4.46273E+00  4.78016E+00  5.14948E+00  5.57033E+00
   6.04098E+00  6.55814E+00  7.11682E+00  7.71017E+00  8.32943E+00  8.96400E+00  9.60168E+00  1.02289E+01  1.08314E+01  1.13942E+01
   1.19029E+01  1.23435E+01  1.27040E+01  1.29740E+01  1.31461E+01  1.32155E+01  1.31806E+01  1.30431E+01  1.28077E+01  1.24818E+01
   1.20753E+01  1.15997E+01  1.10679E+01  1.04932E+01  9.88913E+00  9.26856E+00  8.64342E+00  8.02432E+00  7.42030E+00  6.83877E+00
   6.28542E+00  5.76434E+00  5.27808E+00  4.82788E+00  4.41386E+00  4.03526E+00  3.69067E+00  3.37813E+00  3.09539E+00  2.84002E+00
   2.60955E+00  2.40156E+00  2.21375E+00  2.04392E+00  1.89007E+00  1.75038E+00  1.62323E+00  1.50718E+00  1.40095E+00  1.30343E+00
   1.21361E+00  1.13064E+00  1.05377E+00  9.82374E-01  9.15868E-01  8.53743E-01  7.95555E-01  7.40926E-01  6.89531E-01  6.41077E-01
   5.95296E-01  5.51942E-01  5.10808E-01  4.71719E-01  4.34517E-01  3.99053E-01  3.65182E-01  3.32775E-01  3.01727E-01  2.71950E-01
   2.43359E-01  2.15864E-01  1.89378E-01  1.63829E-01  1.39161E-01  1.15325E-01  9.22657E-02  6.99220E-02  4.82396E-02  2.71781E-02
   6.70861E-03 -1.32002E-02 -3.25892E-02 -5.15021E-02 -6.99738E-02 -8.80268E-02 -1.05679E-01 -1.22958E-01 -1.39899E-01 -1.56535E-01
  -1.72891E-01 -1.88979E-01 -2.04816E-01 -2.20429E-01 -2.35852E-01 -2.51110E-01 -2.66221E-01 -2.81197E-01 -2.96062E-01 -3.10846E-01
  -3.25585E-01 -3.40305E-01 -3.55025E-01 -3.69769E-01 -3.84573E-01 -3.99484E-01 -4.14545E-01 -4.29796E-01
 NY background values follow
    -1.054E+00   -1.056E+00   -1.057E+00   -1.059E+00   -1.061E+00   -1.063E+00   -1.064E+00   -1.066E+00   -1.068E+00   -1.070E+00
    -1.071E+00   -1.073E+00   -1.075E+00   -1.077E+00   -1.078E+00   -1.080E+00   -1.082E+00   -1.084E+00   -1.085E+00   -1.087E+00
    -1.089E+00   -1.091E+00   -1.092E+00   -1.094E+00   -1.096E+00   -1.097E+00   -1.099E+00   -1.101E+00   -1.103E+00   -1.104E+00
    -1.106E+00   -1.108E+00   -1.110E+00   -1.111E+00   -1.113E+00   -1.115E+00   -1.117E+00   -1.118E+00   -1.120E+00   -1.122E+00
    -1.123E+00   -1.125E+00   -1.127E+00   -1.129E+00   -1.130E+00   -1.132E+00   -1.134E+00   -1.136E+00   -1.137E+00   -1.139E+00
    -1.141E+00   -1.143E+00   -1.144E+00   -1.146E+00   -1.148E+00   -1.149E+00   -1.151E+00   -1.153E+00   -1.155E+00   -1.156E+00
    -1.158E+00   -1.160E+00   -1.162E+00   -1.163E+00   -1.165E+00   -1.167E+00   -1.168E+00   -1.170E+00   -1.172E+00   -1.174E+00
    -1.175E+00   -1.177E+00   -1.179E+00   -1.180E+00   -1.182E+00   -1.184E+00   -1.186E+00   -1.187E+00   -1.189E+00   -1.191E+00
    -1.192E+00   -1.194E+00   -1.196E+00   -1.198E+00   -1.199E+00   -1.201E+00   -1.203E+00   -1.204E+00   -1.206E+00   -1.208E+00
    -1.210E+00   -1.211E+00   -1.213E+00   -1.215E+00   -1.216E+00   -1.218E+00   -1.220E+00   -1.222E+00   -1.223E+00   -1.225E+00
    -1.227E+00   -1.228E+00   -1.230E+00   -1.232E+00   -1.233E+00   -1.235E+00   -1.237E+00   -1.239E+00   -1.240E+00   -1.242E+00
    -1.244E+00   -1.245E+00   -1.247E+00   -1.249E+00   -1.250E+00   -1.252E+00   -1.254E+00   -1.256E+00   -1.257E+00   -1.259E+00
    -1.261E+00   -1.262E+00   -1.264E+00   -1.266E+00   -1.267E+00   -1.269E+00   -1.271E+00   -1.272E+00   -1.274E+00   -1.276E+00
    -1.277E+00   -1.279E+00   -1.281E+00   -1.283E+00   -1.284E+00   -1.286E+00   -1.288E+00   -1.289E+00   -1.291E+00   -1.293E+00
    -1.294E+00   -1.296E+00   -1.298E+00   -1.299E+00   -1.301E+00   -1.303E+00   -1.304E+00   -1.306E+00   -1.308E+00   -1.309E+00
    -1.311E+00   -1.313E+00   -1.314E+00   -1.316E+00   -1.318E+00   -1.319E+00   -1.321E+00   -1.323E+00   -1.324E+00   -1.326E+00
    -1.328E+00   -1.329E+00   -1.331E+00   -1.333E+00   -1.334E+00   -1.336E+00   -1.338E+00   -1.339E+00   -1.341E+00   -1.343E+00
    -1.344E+00   -1.346E+00   -1.348E+00   -1.349E+00   -1.351E+00   -1.353E+00   -1.354E+00   -1.356E+00   -1.358E+00   -1.359E+00
    -1.361E+00   -1.363E+00   -1.364E+00   -1.366E+00   -1.367E+00   -1.369E+00   -1.371E+00   -1.372E+00   -1.374E+00   -1.376E+00
    -1.377E+00   -1.379E+00   -1.381E+00   -1.382E+00   -1.384E+00   -1.385E+00   -1.387E+00   -1.389E+00   -1.390E+00   -1.392E+00
    -1.394E+00   -1.395E+00   -1.397E+00   -1.399E+00   -1.400E+00   -1.402E+00   -1.403E+00   -1.405E+00   -1.407E+00   -1.408E+00
    -1.410E+00   -1.412E+00   -1.413E+00   -1.415E+00   -1.416E+00   -1.418E+00   -1.420E+00   -1.421E+00   -1.423E+00   -1.425E+00
    -1.426E+00   -1.428E+00   -1.429E+00   -1.431E+00   -1.433E+00   -1.434E+00   -1.436E+00   -1.437E+00   -1.439E+00   -1.441E+00
    -1.442E+00   -1.444E+00   -1.445E+00   -1.447E+00   -1.449E+00   -1.450E+00   -1.452E+00   -1.453E+00   -1.455E+00   -1.457E+00
    -1.458E+00   -1.460E+00   -1.461E+00   -1.463E+00   -1.465E+00   -1.466E+00   -1.468E+00   -1.469E+00   -1.471E+00   -1.473E+00
    -1.474E+00   -1.476E+00   -1.477E+00   -1.479E+00   -1.480E+00   -1.482E+00   -1.484E+00   -1.485E+00   -1.487E+00   -1.488E+00
    -1.490E+00   -1.492E+00   -1.493E+00   -1.495E+00   -1.496E+00   -1.498E+00   -1.499E+00   -1.501E+00   -1.503E+00   -1.504E+00
    -1.506E+00   -1.507E+00   -1.509E+00   -1.510E+00   -1.512E+00   -1.513E+00   -1.515E+00   -1.517E+00   -1.518E+00   -1.520E+00
    -1.521E+00   -1.523E+00   -1.524E+00   -1.526E+00   -1.527E+00   -1.529E+00   -1.531E+00   -1.532E+00   -1.534E+00   -1.535E+00
    -1.537E+00   -1.538E+00   -1.540E+00   -1.541E+00   -1.543E+00   -1.544E+00   -1.546E+00   -1.548E+00   -1.549E+00   -1.551E+00
    -1.552E+00   -1.554E+00   -1.555E+00   -1.557E+00   -1.558E+00   -1.560E+00   -1.561E+00   -1.563E+00   -1.564E+00   -1.566E+00
    -1.567E+00   -1.569E+00   -1.570E+00   -1.572E+00   -1.573E+00   -1.575E+00   -1.576E+00   -1.578E+00   -1.580E+00   -1.581E+00
    -1.583E+00   -1.584E+00   -1.586E+00   -1.587E+00   -1.589E+00   -1.590E+00   -1.592E+00   -1.593E+00   -1.595E+00   -1.596E+00
    -1.598E+00   -1.599E+00   -1.601E+00   -1.602E+00   -1.604E+00   -1.605E+00   -1.607E+00   -1.608E+00   -1.610E+00   -1.611E+00
    -1.612E+00   -1.614E+00   -1.615E+00   -1.617E+00   -1.618E+00   -1.620E+00   -1.621E+00   -1.623E+00   -1.624E+00   -1.626E+00
    -1.627E+00   -1.629E+00   -1.630E+00   -1.632E+00   -1.633E+00   -1.635E+00   -1.636E+00   -1.638E+00   -1.639E+00   -1.640E+00
    -1.642E+00   -1.643E+00   -1.645E+00   -1.646E+00   -1.648E+00   -1.649E+00   -1.651E+00   -1.652E+00   -1.654E+00   -1.655E+00
    -1.656E+00   -1.658E+00   -1.659E+00   -1.661E+00   -1.662E+00   -1.664E+00   -1.665E+00   -1.667E+00   -1.668E+00   -1.669E+00
    -1.671E+00   -1.672E+00   -1.674E+00   -1.675E+00   -1.677E+00   -1.678E+00   -1.679E+00   -1.681E+00   -1.682E+00   -1.684E+00
    -1.685E+00   -1.686E+00   -1.688E+00   -1.689E+00   -1.691E+00   -1.692E+00   -1.694E+00   -1.695E+00   -1.696E+00   -1.698E+00
    -1.699E+00   -1.701E+00   -1.702E+00   -1.703E+00   -1.705E+00   -1.706E+00   -1.708E+00   -1.709E+00   -1.710E+00   -1.712E+00
    -1.713E+00   -1.715E+00   -1.716E+00   -1.717E+00   -1.719E+00   -1.720E+00   -1.721E+00   -1.723E+00   -1.724E+00   -1.726E+00
    -1.727E+00   -1.728E+00   -1.730E+00   -1.731E+00   -1.732E+00   -1.734E+00   -1.735E+00   -1.736E+00   -1.738E+00   -1.739E+00
    -1.741E+00   -1.742E+00   -1.743E+00   -1.745E+00   -1.746E+00   -1.747E+00   -1.749E+00   -1.750E+00   -1.751E+00   -1.753E+00
    -1.754E+00   -1.755E+00   -1.757E+00   -1.758E+00   -1.759E+00   -1.761E+00   -1.762E+00   -1.763E+00   -1.765E+00   -1.766E+00
    -1.767E+00   -1.769E+00   -1.770E+00   -1.771E+00   -1.773E+00   -1.774E+00   -1.775E+00   -1.777E+00   -1.778E+00   -1.779E+00
    -1.781E+00   -1.782E+00   -1.783E+00   -1.784E+00   -1.786E+00   -1.787E+00   -1.788E+00   -1.790E+00   -1.791E+00   -1.792E+00
    -1.794E+00   -1.795E+00   -1.796E+00   -1.797E+00   -1.799E+00   -1.800E+00   -1.801E+00   -1.803E+00   -1.804E+00   -1.805E+00
    -1.806E+00   -1.808E+00   -1.809E+00   -1.810E+00   -1.811E+00   -1.813E+00   -1.814E+00   -1.815E+00   -1.817E+00   -1.818E+00
    -1.819E+00   -1.820E+00   -1.822E+00   -1.823E+00   -1.824E+00   -1.825E+00   -1.827E+00   -1.828E+00
 Cr       Conc. = 9.74E+02
