 LCModel (Version 6.3-1L) Copyright: S.W. Provencher.          Ref.: Magn. Reson. Med. 30:672-679 (1993).                
 Slice#1 Row#3 Col#10  PD_24_press_1_raw_act
 36 lines in following concentration table = NCONC+1
    Conc.  %SD /Cr+PCr  Metabolite                                         
 1.71E+03  24%   1.562 Ala                                                 
    0.000 999%   0.000 Asp                                                 
    0.000 999%   0.000 Cr                                                  
 1.09E+03   7%   1.000 PCr                                                 
   94.808 167% 8.7E-02 GABA                                                
    0.000 999%   0.000 Glc                                                 
 1.50E+03  45%   1.367 Gln                                                 
 1.55E+03  53%   1.415 Glu                                                 
  538.719   5%   0.492 GPC                                                 
    0.000 999%   0.000 PCh                                                 
  317.263  43%   0.290 GSH                                                 
 1.63E+03  18%   1.489 Ins                                                 
 1.08E+03  43%   0.985 Lac                                                 
 1.71E+03   6%   1.559 NAA                                                 
    0.000 999%   0.000 NAAG                                                
  122.188  25%   0.112 Scyllo                                              
    0.000 999%   0.000 Tau                                                 
   32.432 367% 3.0E-02 -CrCH2                                              
  538.719   5%   0.492 GPC+PCh                                             
 1.71E+03   6%   1.559 NAA+NAAG                                            
 1.09E+03   7%   1.000 Cr+PCr                                              
 3.04E+03  43%   2.782 Glu+Gln                                             
 5.82E+03  13%   5.320 Lip13a                                              
    0.000 999%   0.000 Lip13b                                              
 1.51E+03  16%   1.376 Lip09                                               
  808.597  25%   0.739 MM09                                                
 1.07E+03  22%   0.976 Lip20                                               
 2.49E+03  19%   2.279 MM20                                                
  102.607 283% 9.4E-02 MM12                                                
 3.80E+03  12%   3.474 MM14                                                
 1.88E+03  13%   1.718 MM17                                                
 5.82E+03  13%   5.320 Lip13a+Lip13b                                       
 9.73E+03   6%   8.888 MM14+Lip13a+Lip13b+MM12                             
 2.31E+03   7%   2.115 MM09+Lip09                                          
 3.56E+03  11%   3.255 MM20+Lip20                                          
   6 lines in following misc. output table
  FWHM = 0.122 ppm    S/N =   7                                            
  Data shift = 0.069 ppm                                                   
  Ph: -22 deg      -7.0 deg/ppm                                            
  alphaB,S = 8.5E+01,   4.0E+02                                            
   14 spline knots.   Ns = 8(2)                                            
   2 inflections.     1 extrema                                            
  498 points on ppm-axis = NY
      4.000000     3.992357     3.984714     3.977070     3.969427     3.961784     3.954141     3.946497     3.938854     3.931211
      3.923568     3.915925     3.908281     3.900638     3.892995     3.885352     3.877708     3.870065     3.862422     3.854779
      3.847136     3.839492     3.831849     3.824206     3.816563     3.808919     3.801276     3.793633     3.785990     3.778347
      3.770703     3.763060     3.755417     3.747774     3.740130     3.732487     3.724844     3.717201     3.709558     3.701914
      3.694271     3.686628     3.678985     3.671341     3.663698     3.656055     3.648412     3.640769     3.633125     3.625482
      3.617839     3.610196     3.602552     3.594909     3.587266     3.579623     3.571980     3.564336     3.556693     3.549050
      3.541407     3.533763     3.526120     3.518477     3.510834     3.503191     3.495547     3.487904     3.480261     3.472618
      3.464974     3.457331     3.449688     3.442045     3.434402     3.426758     3.419115     3.411472     3.403829     3.396185
      3.388542     3.380899     3.373256     3.365613     3.357969     3.350326     3.342683     3.335040     3.327396     3.319753
      3.312110     3.304467     3.296824     3.289180     3.281537     3.273894     3.266251     3.258607     3.250964     3.243321
      3.235678     3.228034     3.220391     3.212748     3.205105     3.197462     3.189818     3.182175     3.174532     3.166889
      3.159245     3.151602     3.143959     3.136316     3.128673     3.121029     3.113386     3.105743     3.098100     3.090456
      3.082813     3.075170     3.067527     3.059884     3.052240     3.044597     3.036954     3.029311     3.021667     3.014024
      3.006381     2.998738     2.991095     2.983451     2.975808     2.968165     2.960522     2.952878     2.945235     2.937592
      2.929949     2.922306     2.914662     2.907019     2.899376     2.891733     2.884089     2.876446     2.868803     2.861160
      2.853517     2.845873     2.838230     2.830587     2.822944     2.815300     2.807657     2.800014     2.792371     2.784728
      2.777084     2.769441     2.761798     2.754155     2.746511     2.738868     2.731225     2.723582     2.715939     2.708295
      2.700652     2.693009     2.685366     2.677722     2.670079     2.662436     2.654793     2.647150     2.639506     2.631863
      2.624220     2.616577     2.608933     2.601290     2.593647     2.586004     2.578361     2.570717     2.563074     2.555431
      2.547788     2.540144     2.532501     2.524858     2.517215     2.509572     2.501928     2.494285     2.486642     2.478999
      2.471355     2.463712     2.456069     2.448426     2.440783     2.433139     2.425496     2.417853     2.410210     2.402566
      2.394923     2.387280     2.379637     2.371994     2.364350     2.356707     2.349064     2.341421     2.333777     2.326134
      2.318491     2.310848     2.303205     2.295561     2.287918     2.280275     2.272632     2.264988     2.257345     2.249702
      2.242059     2.234416     2.226772     2.219129     2.211486     2.203843     2.196199     2.188556     2.180913     2.173270
      2.165627     2.157983     2.150340     2.142697     2.135054     2.127410     2.119767     2.112124     2.104481     2.096838
      2.089194     2.081551     2.073908     2.066265     2.058621     2.050978     2.043335     2.035692     2.028049     2.020405
      2.012762     2.005119     1.997476     1.989833     1.982190     1.974546     1.966903     1.959260     1.951617     1.943974
      1.936331     1.928688     1.921045     1.913402     1.905759     1.898115     1.890472     1.882829     1.875186     1.867543
      1.859900     1.852257     1.844614     1.836971     1.829327     1.821684     1.814041     1.806398     1.798755     1.791112
      1.783469     1.775826     1.768183     1.760540     1.752896     1.745253     1.737610     1.729967     1.722324     1.714681
      1.707038     1.699395     1.691752     1.684108     1.676465     1.668822     1.661179     1.653536     1.645893     1.638250
      1.630607     1.622964     1.615321     1.607677     1.600034     1.592391     1.584748     1.577105     1.569462     1.561819
      1.554176     1.546533     1.538890     1.531246     1.523603     1.515960     1.508317     1.500674     1.493031     1.485388
      1.477745     1.470102     1.462458     1.454815     1.447172     1.439529     1.431886     1.424243     1.416600     1.408957
      1.401314     1.393671     1.386027     1.378384     1.370741     1.363098     1.355455     1.347812     1.340169     1.332526
      1.324883     1.317240     1.309596     1.301953     1.294310     1.286667     1.279024     1.271381     1.263738     1.256095
      1.248452     1.240808     1.233165     1.225522     1.217879     1.210236     1.202593     1.194950     1.187307     1.179664
      1.172021     1.164377     1.156734     1.149091     1.141448     1.133805     1.126162     1.118519     1.110876     1.103233
      1.095590     1.087946     1.080303     1.072660     1.065017     1.057374     1.049731     1.042088     1.034445     1.026802
      1.019158     1.011515     1.003872     0.996229     0.988586     0.980943     0.973300     0.965657     0.958014     0.950371
      0.942727     0.935084     0.927441     0.919798     0.912155     0.904512     0.896869     0.889226     0.881583     0.873940
      0.866296     0.858653     0.851010     0.843367     0.835724     0.828081     0.820438     0.812795     0.805152     0.797508
      0.789865     0.782222     0.774579     0.766936     0.759293     0.751650     0.744007     0.736364     0.728721     0.721077
      0.713434     0.705791     0.698148     0.690505     0.682862     0.675219     0.667576     0.659933     0.652290     0.644646
      0.637003     0.629360     0.621717     0.614074     0.606431     0.598788     0.591145     0.583502     0.575858     0.568215
      0.560572     0.552929     0.545286     0.537643     0.530000     0.522357     0.514714     0.507071     0.499427     0.491784
      0.484141     0.476498     0.468855     0.461212     0.453569     0.445925     0.438282     0.430639     0.422996     0.415353
      0.407710     0.400067     0.392424     0.384780     0.377137     0.369494     0.361851     0.354208     0.346565     0.338922
      0.331278     0.323635     0.315992     0.308349     0.300706     0.293063     0.285420     0.277777     0.270133     0.262490
      0.254847     0.247204     0.239561     0.231918     0.224275     0.216631     0.208988     0.201345
 NY phased data points follow
   6.39365E+00  1.32985E+01  1.44380E+01  1.32464E+01  1.57071E+01  1.45919E+01  2.03163E+01  1.51817E+01  1.76107E+01  1.48148E+01
   1.55718E+01  1.53261E+01  1.73835E+01  6.17576E+00  9.81299E+00  8.58232E+00  1.15597E+01  9.24726E+00  1.19284E+01  4.96939E+00
   9.32685E+00  6.49157E+00  1.12999E+01  5.02945E+00  9.33407E+00  6.54097E+00  6.33394E+00  7.37532E+00  7.11848E+00  8.79594E+00
   9.31487E+00  7.06085E+00  8.57182E+00  3.86984E+00  1.06822E+01  8.90762E+00  7.71201E+00  4.43256E+00  8.58679E+00  7.63702E+00
   9.38861E+00  9.12486E+00  1.41081E+01  9.68847E+00  1.05659E+01  1.25432E+01  1.33024E+01  7.02870E+00  9.95523E+00  8.36189E+00
   9.69940E+00  3.89322E+00  6.06272E+00  6.04390E+00  6.05958E+00  8.73484E+00  6.93190E+00  8.04752E+00  8.03841E+00  1.93774E+00
   6.72586E+00  2.52634E+00  8.80857E+00  2.91203E+00  6.15861E+00  3.10817E+00  5.37562E+00 -3.58134E-01  4.35314E+00 -1.73593E-01
   2.41780E+00  3.40399E+00  2.35797E+00  1.02627E+00  2.35922E+00  4.76368E+00  6.19431E+00  5.98796E+00  4.59975E-02  6.70800E+00
   6.64859E+00  5.89766E+00  4.11846E+00  4.88174E+00  5.98476E+00  6.63132E-01  2.84828E+00  1.87404E+00  8.50952E+00  8.45186E+00
   1.01282E+01  1.33713E+01  1.13981E+01  1.20656E+01  1.66468E+01  1.63062E+01  1.89724E+01  1.83780E+01  2.25784E+01  2.53970E+01
   2.76649E+01  2.63918E+01  2.31461E+01  2.18886E+01  2.27719E+01  1.83809E+01  1.95307E+01  1.79633E+01  1.47244E+01  7.06610E+00
   8.16782E+00  6.57086E+00  6.89196E+00  7.99081E+00  9.93040E+00  1.11763E+01  9.84155E+00  6.48268E+00  1.28648E+01  6.60551E+00
   1.58721E+01  1.64330E+01  1.20511E+01  1.77765E+01  2.09577E+01  1.94480E+01  1.99741E+01  2.08780E+01  2.17733E+01  1.57719E+01
   1.50872E+01  1.18354E+01  1.20213E+01  1.31636E+01  7.41875E+00  1.34523E+01  7.29308E+00  7.19471E+00  8.44444E+00  7.73047E+00
   2.68927E+00  6.70294E+00  3.90410E+00  1.01293E+01  8.35617E+00  8.95810E-01  5.14658E+00  3.45023E+00  4.86318E+00  9.61137E-01
   2.96933E+00  1.77384E+00  5.34484E+00  9.14149E-01  4.26672E+00 -4.32849E+00 -1.06633E-02  1.17489E+00  1.10637E+00  5.24987E-01
   4.47986E+00  1.77389E+00 -1.88503E+00  3.64371E+00  2.40409E+00 -9.37707E-01  5.84269E-01  1.03895E+00  3.54277E+00 -1.68124E+00
   1.66043E+00 -1.25102E+00 -3.63553E+00 -2.10048E+00 -2.51780E+00 -8.54896E+00 -2.23882E+00 -3.64595E+00 -3.28776E-01 -1.97383E+00
  -2.22755E+00 -2.16313E+00 -3.77708E+00 -2.62811E+00 -3.13860E+00 -3.52786E+00 -1.49645E-01  1.28905E+00  9.53815E-01 -4.79861E+00
  -1.47122E-01  3.88608E+00  3.07774E+00  2.24941E+00  2.20012E+00 -5.48469E-01 -1.98947E+00  1.27580E-01 -1.12938E+00  8.51800E-01
   4.81404E+00  2.06222E+00  2.98344E+00  3.21741E+00  3.24839E+00  5.74959E+00  3.08708E+00 -2.21940E-01  5.87381E+00  3.28485E+00
   5.60604E+00  1.70170E+00  5.96321E+00  4.92938E+00  7.16988E+00  5.17760E+00  6.16644E+00  5.06114E+00  6.50852E+00  7.52752E+00
   5.73576E+00  2.55506E+00  6.35603E+00  3.15977E+00  9.29202E+00  4.95692E+00  9.77576E+00  6.10882E+00  7.03046E+00  7.58359E+00
   5.65411E+00  9.13419E+00  9.08030E+00  8.51946E+00  1.00740E+01  5.80748E+00  6.13413E+00  6.69367E+00  1.05528E+01  1.15438E+01
   1.41146E+01  1.05070E+01  1.03984E+01  1.46537E+01  1.21104E+01  1.44398E+01  2.06015E+01  2.10371E+01  2.47040E+01  2.11997E+01
   2.42532E+01  2.28585E+01  2.60437E+01  2.62397E+01  3.57753E+01  3.47092E+01  4.15703E+01  4.14219E+01  3.72874E+01  4.12938E+01
   4.02672E+01  3.68552E+01  3.26453E+01  3.37535E+01  3.16631E+01  3.35947E+01  2.41455E+01  2.36884E+01  2.36352E+01  1.69027E+01
   1.66169E+01  1.68862E+01  1.95156E+01  1.54686E+01  1.23563E+01  1.15794E+01  8.34059E+00  1.30747E+01  1.04427E+01  9.54487E+00
   8.08081E+00  1.15176E+01  1.37807E+01  1.08728E+01  1.29370E+01  9.98401E+00  1.32528E+01  1.10089E+01  8.92737E+00  9.57979E+00
   1.64009E+01  1.04712E+01  1.02306E+01  1.09960E+01  1.05266E+01  1.12506E+01  1.27285E+01  9.95186E+00  1.35042E+01  9.89564E+00
   1.49813E+01  1.34051E+01  1.36796E+01  1.54817E+01  1.50819E+01  1.36400E+01  1.27673E+01  1.35957E+01  1.63202E+01  1.48807E+01
   1.98049E+01  1.55465E+01  1.68972E+01  1.31998E+01  2.05958E+01  1.76835E+01  2.20535E+01  2.35903E+01  2.54623E+01  2.06390E+01
   2.68600E+01  2.63219E+01  2.29919E+01  2.73596E+01  2.57799E+01  2.32694E+01  2.68726E+01  2.62271E+01  2.62968E+01  2.85134E+01
   2.86780E+01  3.21154E+01  3.09632E+01  3.34859E+01  3.15704E+01  2.97911E+01  3.56235E+01  3.42301E+01  3.89395E+01  3.40697E+01
   3.44223E+01  3.16308E+01  3.30223E+01  2.68325E+01  3.11972E+01  2.67949E+01  2.99311E+01  2.45490E+01  2.45119E+01  2.07062E+01
   2.50094E+01  2.57496E+01  2.45132E+01  2.22780E+01  2.25954E+01  2.19243E+01  2.64973E+01  2.07052E+01  2.01488E+01  1.75905E+01
   2.36449E+01  2.23326E+01  1.82741E+01  1.68620E+01  2.01912E+01  1.47572E+01  1.95462E+01  1.49120E+01  1.15921E+01  1.63652E+01
   1.60484E+01  1.28000E+01  1.18587E+01  1.33203E+01  1.37541E+01  1.19990E+01  1.61950E+01  9.72852E+00  1.18650E+01  1.41534E+01
   1.42560E+01  1.23130E+01  1.44699E+01  1.12068E+01  1.32182E+01  1.06520E+01  8.67268E+00  1.09604E+01  1.01079E+01  1.39537E+01
   1.08410E+01  1.28910E+01  1.03777E+01  1.39999E+01  1.38237E+01  1.31880E+01  1.19338E+01  1.28530E+01  1.14772E+01  1.41465E+01
   1.47599E+01  1.08282E+01  1.23705E+01  1.03054E+01  1.02448E+01  1.32077E+01  1.18570E+01  1.19735E+01  1.25269E+01  1.56058E+01
   9.94272E+00  9.74587E+00  1.24394E+01  1.25291E+01  1.40984E+01  7.61384E+00  1.21236E+01  9.83588E+00  1.21430E+01  1.00211E+01
   6.69495E+00  9.20030E+00  7.63945E+00  9.92514E+00  5.52967E+00  2.95409E+00  7.49982E+00  5.32781E+00  7.04203E+00  9.13857E-01
   6.47600E+00  1.17207E+00  1.70552E+00  1.95677E+00  2.28191E+00  5.39087E+00  1.26818E+00  2.54785E-01  3.42548E+00  1.45373E+00
   3.36887E+00  2.72820E+00 -1.44161E-01 -7.30637E-01 -9.59389E-01  3.03456E+00 -9.16383E-02  1.96350E+00  5.85394E-01  1.16587E+00
   3.02837E+00  1.67926E+00 -9.09372E-01  2.41941E+00  3.30282E-01  2.32436E+00  8.87220E-01  3.29707E+00  2.44601E+00  3.64272E+00
   3.19244E+00  5.45788E-02 -3.24441E-01 -2.29306E+00 -8.62459E-01 -2.09015E+00 -6.83153E-01 -1.34529E+00 -3.00718E+00 -3.37658E+00
  -3.62769E-01 -2.38812E+00 -3.69085E+00 -1.03859E-01 -3.86576E+00 -3.81459E+00  6.98150E-03 -5.26314E+00  1.59265E+00 -8.48633E-01
  -2.82913E+00 -3.26290E+00 -1.38601E+00  1.78016E-01 -2.47434E+00  2.01105E+00 -1.62638E+00  4.53888E-01  1.29108E-01  1.93621E-01
  -3.93392E-01  5.68093E-01 -8.40025E-01 -1.18489E+00 -2.78256E+00 -3.86004E+00  1.54848E+00  2.67556E+00
 NY points of the fit to the data follow
   1.14367E+01  1.13782E+01  1.31725E+01  1.28411E+01  1.48645E+01  1.40014E+01  1.60264E+01  1.45490E+01  1.63600E+01  1.45061E+01
   1.58874E+01  1.37721E+01  1.46243E+01  1.25449E+01  1.30248E+01  1.11154E+01  1.14982E+01  9.97301E+00  1.04000E+01  9.11884E+00
   9.61709E+00  8.36971E+00  8.95622E+00  7.71677E+00  8.48062E+00  7.25699E+00  8.24054E+00  7.10447E+00  8.25336E+00  7.25764E+00
   8.53098E+00  7.51858E+00  8.81377E+00  7.84114E+00  9.06042E+00  8.08574E+00  9.18779E+00  8.23228E+00  9.25011E+00  8.38879E+00
   9.40039E+00  8.67129E+00  9.61155E+00  8.98585E+00  9.73767E+00  9.12575E+00  9.53936E+00  8.79016E+00  8.89008E+00  8.09779E+00
   8.06067E+00  7.28459E+00  7.24765E+00  6.59198E+00  6.61131E+00  6.00327E+00  6.09454E+00  5.50866E+00  5.64380E+00  5.06372E+00
   5.22400E+00  4.60052E+00  4.78797E+00  4.18957E+00  4.42859E+00  3.88811E+00  4.20919E+00  3.79954E+00  4.19440E+00  3.87711E+00
   4.34695E+00  4.05368E+00  4.50549E+00  4.18124E+00  4.56817E+00  4.21955E+00  4.57097E+00  4.22598E+00  4.58689E+00  4.25575E+00
   4.64846E+00  4.29766E+00  4.61835E+00  4.21317E+00  4.39090E+00  4.01974E+00  4.29811E+00  4.92735E+00  5.47969E+00  6.94754E+00
   7.68411E+00  9.68475E+00  1.05367E+01  1.29461E+01  1.38812E+01  1.65821E+01  1.75071E+01  2.01210E+01  2.08205E+01  2.27239E+01
   2.29600E+01  2.36362E+01  2.33276E+01  2.27550E+01  2.19879E+01  2.04174E+01  1.93919E+01  1.72378E+01  1.60827E+01  1.38115E+01
   1.28745E+01  1.15029E+01  1.11432E+01  1.05714E+01  1.07785E+01  1.06549E+01  1.13404E+01  1.14659E+01  1.25790E+01  1.28528E+01
   1.43684E+01  1.46532E+01  1.64835E+01  1.66618E+01  1.84589E+01  1.76764E+01  1.90984E+01  1.74016E+01  1.83489E+01  1.59853E+01
   1.64758E+01  1.38361E+01  1.39869E+01  1.14423E+01  1.14045E+01  9.25722E+00  9.15849E+00  7.45051E+00  7.32430E+00  5.95280E+00
   5.78356E+00  4.65495E+00  4.43792E+00  3.54961E+00  3.31278E+00  2.70511E+00  2.54420E+00  2.36218E+00  2.33865E+00  2.18336E+00
   2.17318E+00  2.02515E+00  2.01110E+00  1.85561E+00  1.82153E+00  1.63301E+00  1.56846E+00  1.37303E+00  1.26856E+00  1.08884E+00
   9.16909E-01  7.59433E-01  5.44346E-01  3.93137E-01  1.49267E-01 -3.11665E-02 -2.74772E-01 -4.84544E-01 -6.95910E-01 -9.41367E-01
  -1.09990E+00 -1.39483E+00 -1.43699E+00 -1.74206E+00 -1.62597E+00 -1.90521E+00 -1.63269E+00 -1.87992E+00 -1.50278E+00 -1.72209E+00
  -1.28920E+00 -1.50653E+00 -1.05079E+00 -1.21411E+00 -7.62790E-01 -8.15558E-01 -3.70618E-01 -2.95486E-01  1.37898E-01  3.41396E-01
   7.49088E-01  1.00312E+00  1.37482E+00  1.56499E+00  1.75993E+00  1.86663E+00  1.99986E+00  2.02267E+00  2.23161E+00  2.18493E+00
   2.54580E+00  2.25233E+00  2.73835E+00  2.11726E+00  2.74379E+00  1.78850E+00  2.59310E+00  1.44902E+00  2.64193E+00  1.47067E+00
   3.03381E+00  1.87686E+00  3.61625E+00  2.45552E+00  4.11090E+00  2.95866E+00  4.40148E+00  3.37255E+00  4.59415E+00  3.85233E+00
   4.86205E+00  4.51981E+00  5.41839E+00  5.45946E+00  6.26703E+00  6.58974E+00  7.23612E+00  7.55245E+00  7.99947E+00  8.18454E+00
   8.42003E+00  8.51110E+00  8.79953E+00  8.81889E+00  9.26299E+00  9.22414E+00  9.88516E+00  9.70177E+00  1.05174E+01  1.02169E+01
   1.11298E+01  1.07894E+01  1.17781E+01  1.17740E+01  1.37763E+01  1.44611E+01  1.71458E+01  1.84299E+01  2.13741E+01  2.30594E+01
   2.60362E+01  2.79458E+01  3.07918E+01  3.27534E+01  3.50795E+01  3.67942E+01  3.79913E+01  3.91561E+01  3.88399E+01  3.92643E+01
   3.75098E+01  3.72228E+01  3.43762E+01  3.34818E+01  3.00992E+01  2.88799E+01  2.54652E+01  2.41812E+01  2.12134E+01  2.00569E+01
   1.76461E+01  1.66844E+01  1.47542E+01  1.39592E+01  1.23875E+01  1.17348E+01  1.05324E+01  1.00629E+01  9.35583E+00  9.19847E+00
   9.23791E+00  9.35115E+00  9.50204E+00  9.70899E+00  9.93581E+00  1.01972E+01  1.04727E+01  1.07683E+01  1.10608E+01  1.13597E+01
   1.16407E+01  1.19179E+01  1.21670E+01  1.24080E+01  1.26132E+01  1.28015E+01  1.29512E+01  1.30815E+01  1.31755E+01  1.32541E+01
   1.33066E+01  1.33561E+01  1.33986E+01  1.34567E+01  1.35328E+01  1.36502E+01  1.38172E+01  1.40590E+01  1.43941E+01  1.48640E+01
   1.55398E+01  1.64998E+01  1.72840E+01  1.84453E+01  1.91815E+01  2.03402E+01  2.09483E+01  2.19586E+01  2.22900E+01  2.33453E+01
   2.36691E+01  2.46035E+01  2.49653E+01  2.54941E+01  2.59365E+01  2.59761E+01  2.67145E+01  2.64521E+01  2.77480E+01  2.73753E+01
   2.94107E+01  2.91215E+01  3.17319E+01  3.11314E+01  3.38928E+01  3.27472E+01  3.52490E+01  3.33931E+01  3.53206E+01  3.29257E+01
   3.44520E+01  3.15594E+01  3.28448E+01  2.95703E+01  3.08162E+01  2.73950E+01  2.87782E+01  2.55200E+01  2.69836E+01  2.38476E+01
   2.54607E+01  2.26347E+01  2.43116E+01  2.18358E+01  2.34222E+01  2.14252E+01  2.29422E+01  2.11694E+01  2.23311E+01  2.06787E+01
   2.13983E+01  1.98684E+01  2.01727E+01  1.88602E+01  1.88760E+01  1.78368E+01  1.76797E+01  1.68863E+01  1.65731E+01  1.57659E+01
   1.53063E+01  1.45409E+01  1.39913E+01  1.33201E+01  1.27605E+01  1.22992E+01  1.19015E+01  1.15588E+01  1.12664E+01  1.10244E+01
   1.08311E+01  1.06876E+01  1.05923E+01  1.05459E+01  1.05458E+01  1.05917E+01  1.06797E+01  1.08081E+01  1.09716E+01  1.11668E+01
   1.13870E+01  1.16276E+01  1.18808E+01  1.21409E+01  1.23998E+01  1.26517E+01  1.28886E+01  1.31053E+01  1.32947E+01  1.34529E+01
   1.35745E+01  1.36571E+01  1.36969E+01  1.36935E+01  1.36447E+01  1.35515E+01  1.34133E+01  1.32325E+01  1.30092E+01  1.27469E+01
   1.24466E+01  1.21124E+01  1.17460E+01  1.13520E+01  1.09325E+01  1.04927E+01  1.00352E+01  9.56510E+00  9.08533E+00  8.60124E+00
   8.11550E+00  7.63327E+00  7.15682E+00  6.69079E+00  6.23681E+00  5.79873E+00  5.37736E+00  4.97565E+00  4.59353E+00  4.23309E+00
   3.89341E+00  3.57585E+00  3.27881E+00  3.00308E+00  2.74661E+00  2.50979E+00  2.29032E+00  2.08840E+00  1.90159E+00  1.73010E+00
   1.57147E+00  1.42596E+00  1.29121E+00  1.16758E+00  1.05283E+00  9.47455E-01  8.49347E-01  7.59143E-01  6.74851E-01  5.97232E-01
   5.24413E-01  4.57263E-01  3.94008E-01  3.35599E-01  2.80341E-01  2.29260E-01  1.80732E-01  1.35841E-01  9.30144E-02  5.33778E-02
   1.54034E-02 -1.97448E-02 -5.35558E-02 -8.48365E-02 -1.15053E-01 -1.42989E-01 -1.70090E-01 -1.95112E-01 -2.19485E-01 -2.41948E-01
  -2.63923E-01 -2.84135E-01 -3.03992E-01 -3.22202E-01 -3.40168E-01 -3.56587E-01 -3.72860E-01 -3.87672E-01 -4.02417E-01 -4.15767E-01
  -4.29116E-01 -4.41129E-01 -4.53199E-01 -4.63979E-01 -4.74855E-01 -4.84475E-01 -4.94221E-01 -5.02739E-01 -5.11405E-01 -5.18851E-01
  -5.26448E-01 -5.32820E-01 -5.39333E-01 -5.44599E-01 -5.49969E-01 -5.54033E-01 -5.58120E-01 -5.60794E-01
 NY background values follow
    -8.593E-01   -8.588E-01   -8.583E-01   -8.579E-01   -8.574E-01   -8.569E-01   -8.564E-01   -8.560E-01   -8.555E-01   -8.550E-01
    -8.546E-01   -8.541E-01   -8.536E-01   -8.531E-01   -8.527E-01   -8.522E-01   -8.517E-01   -8.512E-01   -8.508E-01   -8.503E-01
    -8.498E-01   -8.493E-01   -8.489E-01   -8.484E-01   -8.479E-01   -8.474E-01   -8.470E-01   -8.465E-01   -8.460E-01   -8.455E-01
    -8.450E-01   -8.446E-01   -8.441E-01   -8.436E-01   -8.431E-01   -8.427E-01   -8.422E-01   -8.417E-01   -8.412E-01   -8.408E-01
    -8.403E-01   -8.398E-01   -8.393E-01   -8.389E-01   -8.384E-01   -8.379E-01   -8.374E-01   -8.370E-01   -8.365E-01   -8.360E-01
    -8.355E-01   -8.351E-01   -8.346E-01   -8.341E-01   -8.336E-01   -8.332E-01   -8.327E-01   -8.322E-01   -8.317E-01   -8.313E-01
    -8.308E-01   -8.303E-01   -8.298E-01   -8.294E-01   -8.289E-01   -8.284E-01   -8.279E-01   -8.275E-01   -8.270E-01   -8.265E-01
    -8.260E-01   -8.256E-01   -8.251E-01   -8.246E-01   -8.241E-01   -8.237E-01   -8.232E-01   -8.227E-01   -8.222E-01   -8.218E-01
    -8.213E-01   -8.208E-01   -8.203E-01   -8.199E-01   -8.194E-01   -8.189E-01   -8.184E-01   -8.179E-01   -8.175E-01   -8.170E-01
    -8.165E-01   -8.160E-01   -8.156E-01   -8.151E-01   -8.146E-01   -8.141E-01   -8.137E-01   -8.132E-01   -8.127E-01   -8.122E-01
    -8.118E-01   -8.113E-01   -8.108E-01   -8.103E-01   -8.099E-01   -8.094E-01   -8.089E-01   -8.084E-01   -8.080E-01   -8.075E-01
    -8.070E-01   -8.065E-01   -8.061E-01   -8.056E-01   -8.051E-01   -8.046E-01   -8.042E-01   -8.037E-01   -8.032E-01   -8.027E-01
    -8.022E-01   -8.018E-01   -8.013E-01   -8.008E-01   -8.003E-01   -7.999E-01   -7.994E-01   -7.989E-01   -7.984E-01   -7.980E-01
    -7.975E-01   -7.970E-01   -7.965E-01   -7.961E-01   -7.956E-01   -7.951E-01   -7.946E-01   -7.942E-01   -7.937E-01   -7.932E-01
    -7.927E-01   -7.923E-01   -7.918E-01   -7.913E-01   -7.908E-01   -7.904E-01   -7.899E-01   -7.894E-01   -7.889E-01   -7.885E-01
    -7.880E-01   -7.875E-01   -7.870E-01   -7.866E-01   -7.861E-01   -7.856E-01   -7.851E-01   -7.847E-01   -7.842E-01   -7.837E-01
    -7.832E-01   -7.828E-01   -7.823E-01   -7.818E-01   -7.813E-01   -7.809E-01   -7.804E-01   -7.799E-01   -7.794E-01   -7.790E-01
    -7.785E-01   -7.780E-01   -7.775E-01   -7.771E-01   -7.766E-01   -7.761E-01   -7.756E-01   -7.752E-01   -7.747E-01   -7.742E-01
    -7.737E-01   -7.733E-01   -7.728E-01   -7.723E-01   -7.718E-01   -7.714E-01   -7.709E-01   -7.704E-01   -7.699E-01   -7.695E-01
    -7.690E-01   -7.685E-01   -7.680E-01   -7.676E-01   -7.671E-01   -7.666E-01   -7.661E-01   -7.657E-01   -7.652E-01   -7.647E-01
    -7.643E-01   -7.638E-01   -7.633E-01   -7.628E-01   -7.624E-01   -7.619E-01   -7.614E-01   -7.609E-01   -7.605E-01   -7.600E-01
    -7.595E-01   -7.590E-01   -7.586E-01   -7.581E-01   -7.576E-01   -7.571E-01   -7.567E-01   -7.562E-01   -7.557E-01   -7.553E-01
    -7.548E-01   -7.543E-01   -7.538E-01   -7.534E-01   -7.529E-01   -7.524E-01   -7.519E-01   -7.515E-01   -7.510E-01   -7.505E-01
    -7.500E-01   -7.496E-01   -7.491E-01   -7.486E-01   -7.482E-01   -7.477E-01   -7.472E-01   -7.467E-01   -7.463E-01   -7.458E-01
    -7.453E-01   -7.448E-01   -7.444E-01   -7.439E-01   -7.434E-01   -7.430E-01   -7.425E-01   -7.420E-01   -7.415E-01   -7.411E-01
    -7.406E-01   -7.401E-01   -7.397E-01   -7.392E-01   -7.387E-01   -7.382E-01   -7.378E-01   -7.373E-01   -7.368E-01   -7.364E-01
    -7.359E-01   -7.354E-01   -7.349E-01   -7.345E-01   -7.340E-01   -7.335E-01   -7.331E-01   -7.326E-01   -7.321E-01   -7.316E-01
    -7.312E-01   -7.307E-01   -7.302E-01   -7.298E-01   -7.293E-01   -7.288E-01   -7.283E-01   -7.279E-01   -7.274E-01   -7.269E-01
    -7.265E-01   -7.260E-01   -7.255E-01   -7.250E-01   -7.246E-01   -7.241E-01   -7.236E-01   -7.232E-01   -7.227E-01   -7.222E-01
    -7.218E-01   -7.213E-01   -7.208E-01   -7.203E-01   -7.199E-01   -7.194E-01   -7.189E-01   -7.185E-01   -7.180E-01   -7.175E-01
    -7.171E-01   -7.166E-01   -7.161E-01   -7.156E-01   -7.152E-01   -7.147E-01   -7.142E-01   -7.138E-01   -7.133E-01   -7.128E-01
    -7.124E-01   -7.119E-01   -7.114E-01   -7.109E-01   -7.105E-01   -7.100E-01   -7.095E-01   -7.091E-01   -7.086E-01   -7.081E-01
    -7.077E-01   -7.072E-01   -7.067E-01   -7.063E-01   -7.058E-01   -7.053E-01   -7.049E-01   -7.044E-01   -7.039E-01   -7.034E-01
    -7.030E-01   -7.025E-01   -7.020E-01   -7.016E-01   -7.011E-01   -7.006E-01   -7.002E-01   -6.997E-01   -6.992E-01   -6.988E-01
    -6.983E-01   -6.978E-01   -6.974E-01   -6.969E-01   -6.964E-01   -6.960E-01   -6.955E-01   -6.950E-01   -6.945E-01   -6.941E-01
    -6.936E-01   -6.931E-01   -6.927E-01   -6.922E-01   -6.917E-01   -6.913E-01   -6.908E-01   -6.903E-01   -6.899E-01   -6.894E-01
    -6.889E-01   -6.885E-01   -6.880E-01   -6.875E-01   -6.871E-01   -6.866E-01   -6.861E-01   -6.857E-01   -6.852E-01   -6.847E-01
    -6.843E-01   -6.838E-01   -6.833E-01   -6.829E-01   -6.824E-01   -6.819E-01   -6.815E-01   -6.810E-01   -6.805E-01   -6.801E-01
    -6.796E-01   -6.791E-01   -6.787E-01   -6.782E-01   -6.777E-01   -6.773E-01   -6.768E-01   -6.763E-01   -6.759E-01   -6.754E-01
    -6.749E-01   -6.745E-01   -6.740E-01   -6.735E-01   -6.731E-01   -6.726E-01   -6.721E-01   -6.717E-01   -6.712E-01   -6.707E-01
    -6.703E-01   -6.698E-01   -6.693E-01   -6.689E-01   -6.684E-01   -6.679E-01   -6.675E-01   -6.670E-01   -6.665E-01   -6.661E-01
    -6.656E-01   -6.651E-01   -6.647E-01   -6.642E-01   -6.637E-01   -6.633E-01   -6.628E-01   -6.623E-01   -6.619E-01   -6.614E-01
    -6.609E-01   -6.605E-01   -6.600E-01   -6.595E-01   -6.591E-01   -6.586E-01   -6.581E-01   -6.577E-01   -6.572E-01   -6.567E-01
    -6.563E-01   -6.558E-01   -6.553E-01   -6.549E-01   -6.544E-01   -6.539E-01   -6.535E-01   -6.530E-01   -6.525E-01   -6.521E-01
    -6.516E-01   -6.511E-01   -6.507E-01   -6.502E-01   -6.498E-01   -6.493E-01   -6.488E-01   -6.484E-01   -6.479E-01   -6.474E-01
    -6.470E-01   -6.465E-01   -6.460E-01   -6.456E-01   -6.451E-01   -6.446E-01   -6.442E-01   -6.437E-01   -6.432E-01   -6.428E-01
    -6.423E-01   -6.418E-01   -6.414E-01   -6.409E-01   -6.404E-01   -6.400E-01   -6.395E-01   -6.390E-01   -6.386E-01   -6.381E-01
    -6.376E-01   -6.372E-01   -6.367E-01   -6.363E-01   -6.358E-01   -6.353E-01   -6.349E-01   -6.344E-01   -6.339E-01   -6.335E-01
    -6.330E-01   -6.325E-01   -6.321E-01   -6.316E-01   -6.311E-01   -6.307E-01   -6.302E-01   -6.297E-01   -6.293E-01   -6.288E-01
    -6.283E-01   -6.279E-01   -6.274E-01   -6.269E-01   -6.265E-01   -6.260E-01   -6.255E-01   -6.251E-01
 Ala      Conc. = 1.71E+03
