 LCModel (Version 6.3-1L) Copyright: S.W. Provencher.          Ref.: Magn. Reson. Med. 30:672-679 (1993).                
 Slice#2 Row#6 Col#5  PD_24_press_1_raw_act
 36 lines in following concentration table = NCONC+1
    Conc.  %SD /Cr+PCr  Metabolite                                         
    0.000 999%   0.000 Ala                                                 
  182.348 155%   0.100 Asp                                                 
  943.479  31%   0.516 Cr                                                  
  884.534  33%   0.484 PCr                                                 
   98.744 204% 5.4E-02 GABA                                                
    0.000 999%   0.000 Glc                                                 
  969.478  35%   0.530 Gln                                                 
 1.98E+03  20%   1.081 Glu                                                 
  783.702   4%   0.429 GPC                                                 
    0.000 999%   0.000 PCh                                                 
  476.310  20%   0.261 GSH                                                 
  968.891  35%   0.530 Ins                                                 
    0.000 999%   0.000 Lac                                                 
 2.91E+03   6%   1.589 NAA                                                 
  254.558  71%   0.139 NAAG                                                
  109.775  33% 6.0E-02 Scyllo                                              
    0.000 999%   0.000 Tau                                                 
    0.000 999%   0.000 -CrCH2                                              
  783.702   4%   0.429 GPC+PCh                                             
 3.16E+03   3%   1.729 NAA+NAAG                                            
 1.83E+03   4%   1.000 Cr+PCr                                              
 2.95E+03  20%   1.612 Glu+Gln                                             
 1.99E+03  23%   1.086 Lip13a                                              
    0.000 999%   0.000 Lip13b                                              
    0.000 999%   0.000 Lip09                                               
 1.14E+03  17%   0.624 MM09                                                
  380.107  55%   0.208 Lip20                                               
 2.45E+03  16%   1.342 MM20                                                
  358.764  32%   0.196 MM12                                                
 1.66E+03  20%   0.907 MM14                                                
 1.28E+03  19%   0.701 MM17                                                
 1.99E+03  23%   1.086 Lip13a+Lip13b                                       
 4.00E+03  13%   2.189 MM14+Lip13a+Lip13b+MM12                             
 1.14E+03  17%   0.624 MM09+Lip09                                          
 2.83E+03  14%   1.550 MM20+Lip20                                          
   6 lines in following misc. output table
  FWHM = 0.054 ppm    S/N =  12                                            
  Data shift =-0.008 ppm                                                   
  Ph: -32 deg      -2.4 deg/ppm                                            
  alphaB,S = 9.3E-01,   1.3E+01                                            
   14 spline knots.   Ns = 8(1)                                            
  (13) 9 infls.   (15) 5 extrs.                                            
  498 points on ppm-axis = NY
      4.000000     3.992357     3.984714     3.977070     3.969427     3.961784     3.954141     3.946497     3.938854     3.931211
      3.923568     3.915925     3.908281     3.900638     3.892995     3.885352     3.877708     3.870065     3.862422     3.854779
      3.847136     3.839492     3.831849     3.824206     3.816563     3.808919     3.801276     3.793633     3.785990     3.778347
      3.770703     3.763060     3.755417     3.747774     3.740130     3.732487     3.724844     3.717201     3.709558     3.701914
      3.694271     3.686628     3.678985     3.671341     3.663698     3.656055     3.648412     3.640769     3.633125     3.625482
      3.617839     3.610196     3.602552     3.594909     3.587266     3.579623     3.571980     3.564336     3.556693     3.549050
      3.541407     3.533763     3.526120     3.518477     3.510834     3.503191     3.495547     3.487904     3.480261     3.472618
      3.464974     3.457331     3.449688     3.442045     3.434402     3.426758     3.419115     3.411472     3.403829     3.396185
      3.388542     3.380899     3.373256     3.365613     3.357969     3.350326     3.342683     3.335040     3.327396     3.319753
      3.312110     3.304467     3.296824     3.289180     3.281537     3.273894     3.266251     3.258607     3.250964     3.243321
      3.235678     3.228034     3.220391     3.212748     3.205105     3.197462     3.189818     3.182175     3.174532     3.166889
      3.159245     3.151602     3.143959     3.136316     3.128673     3.121029     3.113386     3.105743     3.098100     3.090456
      3.082813     3.075170     3.067527     3.059884     3.052240     3.044597     3.036954     3.029311     3.021667     3.014024
      3.006381     2.998738     2.991095     2.983451     2.975808     2.968165     2.960522     2.952878     2.945235     2.937592
      2.929949     2.922306     2.914662     2.907019     2.899376     2.891733     2.884089     2.876446     2.868803     2.861160
      2.853517     2.845873     2.838230     2.830587     2.822944     2.815300     2.807657     2.800014     2.792371     2.784728
      2.777084     2.769441     2.761798     2.754155     2.746511     2.738868     2.731225     2.723582     2.715939     2.708295
      2.700652     2.693009     2.685366     2.677722     2.670079     2.662436     2.654793     2.647150     2.639506     2.631863
      2.624220     2.616577     2.608933     2.601290     2.593647     2.586004     2.578361     2.570717     2.563074     2.555431
      2.547788     2.540144     2.532501     2.524858     2.517215     2.509572     2.501928     2.494285     2.486642     2.478999
      2.471355     2.463712     2.456069     2.448426     2.440783     2.433139     2.425496     2.417853     2.410210     2.402566
      2.394923     2.387280     2.379637     2.371994     2.364350     2.356707     2.349064     2.341421     2.333777     2.326134
      2.318491     2.310848     2.303205     2.295561     2.287918     2.280275     2.272632     2.264988     2.257345     2.249702
      2.242059     2.234416     2.226772     2.219129     2.211486     2.203843     2.196199     2.188556     2.180913     2.173270
      2.165627     2.157983     2.150340     2.142697     2.135054     2.127410     2.119767     2.112124     2.104481     2.096838
      2.089194     2.081551     2.073908     2.066265     2.058621     2.050978     2.043335     2.035692     2.028049     2.020405
      2.012762     2.005119     1.997476     1.989833     1.982190     1.974546     1.966903     1.959260     1.951617     1.943974
      1.936331     1.928688     1.921045     1.913402     1.905759     1.898115     1.890472     1.882829     1.875186     1.867543
      1.859900     1.852257     1.844614     1.836971     1.829327     1.821684     1.814041     1.806398     1.798755     1.791112
      1.783469     1.775826     1.768183     1.760540     1.752896     1.745253     1.737610     1.729967     1.722324     1.714681
      1.707038     1.699395     1.691752     1.684108     1.676465     1.668822     1.661179     1.653536     1.645893     1.638250
      1.630607     1.622964     1.615321     1.607677     1.600034     1.592391     1.584748     1.577105     1.569462     1.561819
      1.554176     1.546533     1.538890     1.531246     1.523603     1.515960     1.508317     1.500674     1.493031     1.485388
      1.477745     1.470102     1.462458     1.454815     1.447172     1.439529     1.431886     1.424243     1.416600     1.408957
      1.401314     1.393671     1.386027     1.378384     1.370741     1.363098     1.355455     1.347812     1.340169     1.332526
      1.324883     1.317240     1.309596     1.301953     1.294310     1.286667     1.279024     1.271381     1.263738     1.256095
      1.248452     1.240808     1.233165     1.225522     1.217879     1.210236     1.202593     1.194950     1.187307     1.179664
      1.172021     1.164377     1.156734     1.149091     1.141448     1.133805     1.126162     1.118519     1.110876     1.103233
      1.095590     1.087946     1.080303     1.072660     1.065017     1.057374     1.049731     1.042088     1.034445     1.026802
      1.019158     1.011515     1.003872     0.996229     0.988586     0.980943     0.973300     0.965657     0.958014     0.950371
      0.942727     0.935084     0.927441     0.919798     0.912155     0.904512     0.896869     0.889226     0.881583     0.873940
      0.866296     0.858653     0.851010     0.843367     0.835724     0.828081     0.820438     0.812795     0.805152     0.797508
      0.789865     0.782222     0.774579     0.766936     0.759293     0.751650     0.744007     0.736364     0.728721     0.721077
      0.713434     0.705791     0.698148     0.690505     0.682862     0.675219     0.667576     0.659933     0.652290     0.644646
      0.637003     0.629360     0.621717     0.614074     0.606431     0.598788     0.591145     0.583502     0.575858     0.568215
      0.560572     0.552929     0.545286     0.537643     0.530000     0.522357     0.514714     0.507071     0.499427     0.491784
      0.484141     0.476498     0.468855     0.461212     0.453569     0.445925     0.438282     0.430639     0.422996     0.415353
      0.407710     0.400067     0.392424     0.384780     0.377137     0.369494     0.361851     0.354208     0.346565     0.338922
      0.331278     0.323635     0.315992     0.308349     0.300706     0.293063     0.285420     0.277777     0.270133     0.262490
      0.254847     0.247204     0.239561     0.231918     0.224275     0.216631     0.208988     0.201345
 NY phased data points follow
   1.87568E+01  1.47458E+01  2.08719E+01  1.37085E+01  2.49298E+01  2.24034E+01  3.33464E+01  3.10365E+01  4.62949E+01  3.99012E+01
   5.42224E+01  4.51503E+01  5.22123E+01  4.49720E+01  4.36719E+01  3.18668E+01  3.29644E+01  2.20819E+01  2.86488E+01  1.92201E+01
   2.35924E+01  1.54414E+01  2.72412E+01  1.20624E+01  1.86264E+01  1.20319E+01  2.65224E+01  1.31341E+01  2.13277E+01  1.78313E+01
   2.31535E+01  1.90966E+01  2.82244E+01  1.31001E+01  1.89750E+01  1.50243E+01  1.89907E+01  1.29781E+01  2.06237E+01  1.19331E+01
   1.57328E+01  1.30891E+01  1.91660E+01  1.36808E+01  2.06885E+01  1.82668E+01  2.70254E+01  2.21140E+01  2.51633E+01  1.54307E+01
   2.13564E+01  1.56680E+01  1.58339E+01  9.49969E+00  1.61730E+01  9.21104E+00  1.81877E+01  1.07018E+01  1.03074E+01  7.38975E+00
   1.20030E+01  5.84226E+00  5.19715E+00  3.21159E+00  7.44887E+00 -1.03717E+00  5.03627E+00 -5.00278E-01  2.58378E+00 -2.42200E+00
   4.27926E+00  2.54456E+00  1.01678E+01  1.50570E+00  1.36055E+00  9.25703E-01  5.64407E+00  4.38513E+00  4.84998E+00  2.33705E+00
   7.89073E+00 -1.29250E+00  9.93851E+00  4.48203E+00  8.78031E+00  6.20914E+00  1.35797E+01  3.84040E+00  4.87190E+00  6.95607E+00
   9.83927E+00  8.45498E+00  1.18509E+01  4.27210E+00  1.11992E+01  1.43503E+01  1.62992E+01  1.17187E+01  1.64176E+01  2.17517E+01
   3.67671E+01  4.54940E+01  5.87080E+01  6.66077E+01  6.80760E+01  5.94133E+01  5.30423E+01  4.35790E+01  3.96256E+01  2.85909E+01
   2.61627E+01  1.97250E+01  1.60444E+01  9.06164E+00  1.17406E+01  9.21689E+00  1.06036E+01  5.05070E+00  1.16017E+01  6.17152E+00
   8.67733E+00  8.52665E+00  1.72931E+01  2.23346E+01  3.24303E+01  4.12890E+01  5.56395E+01  5.54087E+01  5.30465E+01  4.76864E+01
   4.73349E+01  3.25577E+01  3.14003E+01  2.35014E+01  1.30763E+01  1.23389E+01  1.81758E+01  6.24847E+00  6.42912E+00  6.05706E+00
   1.09671E+01  6.63193E+00  3.04950E+00  8.11849E-01  6.26682E+00  7.93914E-01 -1.48534E+00  2.89327E+00  3.73621E+00 -2.34577E+00
   3.30406E+00 -1.59611E+00  7.57456E+00 -4.22502E+00  5.80315E-02  6.60249E+00  5.88629E+00 -1.45486E+00  3.77978E+00 -4.11270E+00
   9.97087E-01 -4.72674E+00 -5.43725E+00 -3.72220E+00 -2.46207E+00 -1.91180E+00  3.39949E+00 -7.96634E+00  3.57577E-01 -3.26441E+00
  -1.38952E+00 -7.57748E+00 -1.10559E+00 -1.12305E+01 -7.40554E+00 -7.52533E+00 -6.94774E+00 -9.71987E+00 -7.10456E+00 -6.74621E+00
  -6.37167E+00 -6.94266E+00 -3.08638E+00 -1.19382E+01 -1.05590E+01 -1.06920E+01 -4.94616E+00 -4.79425E+00 -3.71778E+00  6.49214E-01
   4.31770E+00  4.63797E+00  7.28710E+00  8.13525E+00  4.54502E+00  1.32441E+00  6.10296E+00  3.08814E+00 -3.18729E+00 -1.11418E+00
   4.14107E+00  3.32769E-01  6.45608E+00  4.70912E+00  6.71653E+00 -2.05792E-01  5.40270E+00  1.96273E+00 -2.89113E+00  6.24998E-01
   2.32064E+00 -1.97762E+00  4.52420E+00  5.94684E+00  1.37597E+01  8.78884E+00  1.39989E+01  1.21873E+01  1.31876E+01  6.75956E+00
   5.52361E+00  5.39389E+00  6.29682E+00 -8.51741E-01  1.81166E+00  3.99893E+00  6.67426E+00  1.01357E+01  9.33380E+00  9.72564E+00
   6.35680E+00  8.32025E+00  7.82905E+00  8.89553E+00  1.03751E+01  1.19975E+01  1.12945E+01  6.59278E+00  1.26873E+01  3.63380E+00
   6.29129E+00  6.66064E+00  1.57032E+01  4.11570E+00  1.07404E+01  1.39470E+01  1.19355E+01  1.14087E+01  1.64033E+01  1.81327E+01
   1.91566E+01  1.55805E+01  2.44341E+01  2.24594E+01  3.16223E+01  3.88677E+01  4.85667E+01  5.56879E+01  7.40216E+01  8.67724E+01
   1.00233E+02  9.95470E+01  9.09095E+01  7.12992E+01  6.90617E+01  5.17632E+01  4.83583E+01  3.65801E+01  2.47686E+01  1.79290E+01
   1.99815E+01  1.35732E+01  1.41998E+01  1.07765E+01  1.46411E+01  1.32633E+01  1.32617E+01  8.73487E+00  8.79621E+00  9.04181E+00
   7.10656E+00  5.75262E+00  8.24969E+00  8.80814E+00  6.49578E+00  5.97348E+00  4.49106E+00  6.32341E+00  1.04918E+01  8.90042E+00
   9.23459E+00  6.02185E+00  1.44878E+01  6.99687E+00  9.67541E+00  7.49185E+00  5.79184E+00  5.09585E+00  4.44423E+00  1.32876E+00
   1.19890E+00  9.28405E+00  1.11127E+01  1.13481E+01  1.08616E+01  1.45201E+01  1.82315E+01  1.40501E+01  1.58704E+01  1.14674E+01
   1.73940E+01  9.26942E+00  1.45526E+01  1.11616E+01  1.35017E+01  7.70450E+00  1.31009E+01  1.03413E+01  1.13179E+01  7.66800E+00
   1.43105E+01  1.16468E+01  1.28020E+01  1.02243E+01  9.03205E+00  1.04087E+01  1.28913E+01  7.19801E+00  1.03122E+01  1.25725E+01
   1.41783E+01  7.14084E+00  1.34527E+01  1.05912E+01  1.02076E+01  7.51338E+00  1.51728E+01  4.96277E+00  9.25593E+00  6.24393E+00
   1.04850E+01  6.62199E+00  1.00286E+01  1.14964E+01  8.65803E+00  1.04564E+01  1.18159E+01  7.89199E+00  1.09354E+01  7.53179E+00
   1.16959E+01  9.48390E+00  1.43918E+01  1.03154E+01  1.21148E+01  1.02176E+01  1.10382E+01  4.89531E+00  1.32056E+01  9.88465E+00
   7.71121E+00  7.71774E+00  7.68563E+00  5.58948E+00  6.79865E+00  5.00067E+00  4.86039E+00  1.18188E+01  8.18846E+00  8.24429E+00
   5.35125E+00  4.41725E+00  9.50958E+00  5.17110E+00  3.05212E+00  3.07074E+00  3.26813E-01  3.63884E+00 -3.38731E+00 -7.41318E-01
   8.15415E-01 -4.67098E+00  2.19176E+00 -6.77787E+00  7.43594E-01 -3.51595E+00  6.25339E-01  1.31140E-01 -3.40521E+00 -1.79104E+00
  -8.00881E+00 -2.15126E+00  5.43352E-01 -2.04871E+00 -6.54096E-01 -6.16853E-01  4.39930E+00  6.76462E+00  2.53396E+00  4.72418E+00
   5.83981E+00  2.55677E+00  1.35635E+00  4.30905E+00  1.90173E+00  2.79690E+00  6.87408E+00  4.20640E+00  6.84448E+00 -1.89818E+00
   1.96038E+00  5.19753E-01  1.49859E-01  2.91298E-01 -3.86927E+00 -4.66472E+00 -6.73922E-01 -4.05916E+00 -4.23409E+00 -1.17628E+01
  -6.24078E+00 -4.86053E+00 -4.57093E+00 -4.85202E+00 -8.90332E+00 -5.44975E+00 -7.48593E+00 -1.05666E+01 -9.36937E+00 -1.03355E+01
  -8.45922E+00 -5.43876E+00 -8.05011E+00 -7.57539E+00 -7.88102E+00 -1.03813E+01 -8.43374E+00 -1.15685E+01 -7.89329E+00 -1.09593E+01
  -4.45776E+00 -6.03796E+00 -9.04252E+00 -9.52817E+00 -6.54278E+00 -4.52862E+00 -7.17779E+00 -8.18054E+00 -8.86840E+00 -5.46945E+00
  -7.12554E+00 -4.90119E+00 -8.08252E+00 -3.92270E+00 -6.71429E-01 -7.97169E+00 -6.83900E+00 -1.07978E+01 -9.12002E+00 -8.83559E+00
  -7.48397E+00 -5.07158E+00 -1.23528E+01 -7.36677E+00 -7.18901E+00 -9.09255E+00 -8.21987E+00 -6.68033E+00 -1.73533E+00 -1.20230E+01
  -5.06183E+00 -9.31073E+00 -1.05917E+01 -8.99121E+00 -7.76312E-01 -5.00222E+00 -1.05992E+01 -8.39318E+00 -6.59444E+00 -1.02968E+01
  -5.17888E+00 -9.57979E+00 -8.09018E+00 -5.00308E+00 -6.57769E+00 -6.37230E+00 -3.56177E+00 -6.29738E+00 -4.74959E+00 -6.88712E+00
  -7.40795E+00 -9.39306E+00 -6.28524E+00 -8.68155E+00 -8.87152E+00  1.44902E+00 -7.90375E+00 -3.33895E+00
 NY points of the fit to the data follow
   1.50053E+01  1.63010E+01  1.63918E+01  1.79186E+01  2.08484E+01  2.32832E+01  2.79086E+01  3.38090E+01  4.01927E+01  4.52959E+01
   4.81664E+01  4.84671E+01  4.65486E+01  4.25851E+01  3.86806E+01  3.49660E+01  3.06748E+01  2.84493E+01  2.43013E+01  2.11275E+01
   1.94988E+01  1.74167E+01  1.67925E+01  1.56701E+01  1.55629E+01  1.56745E+01  1.60999E+01  1.71339E+01  1.87256E+01  2.09074E+01
   2.25170E+01  2.29598E+01  2.28798E+01  2.22349E+01  2.03052E+01  1.89496E+01  1.66448E+01  1.48436E+01  1.47786E+01  1.40796E+01
   1.40349E+01  1.39662E+01  1.44165E+01  1.54820E+01  1.61366E+01  1.72245E+01  1.84238E+01  1.87926E+01  1.83771E+01  1.72188E+01
   1.58227E+01  1.48241E+01  1.39361E+01  1.26726E+01  1.17073E+01  1.13291E+01  1.09183E+01  1.03348E+01  1.02116E+01  1.03780E+01
   1.01552E+01  9.71140E+00  9.03401E+00  8.38578E+00  7.93050E+00  7.48501E+00  7.18776E+00  7.17951E+00  7.19998E+00  7.19417E+00
   7.27296E+00  7.29134E+00  7.28229E+00  7.14243E+00  6.92094E+00  6.74799E+00  6.51934E+00  6.40614E+00  6.46472E+00  6.46799E+00
   6.18342E+00  6.31699E+00  6.74092E+00  7.28818E+00  7.99498E+00  8.69525E+00  9.00904E+00  8.51517E+00  7.62440E+00  6.78998E+00
   6.26856E+00  5.87243E+00  5.75921E+00  5.55924E+00  6.29344E+00  1.01550E+01  1.25561E+01  1.19929E+01  1.68274E+01  2.46130E+01
   3.45759E+01  4.69230E+01  5.98515E+01  6.86176E+01  6.83256E+01  6.11884E+01  5.26158E+01  4.50814E+01  3.73430E+01  3.13071E+01
   2.29267E+01  1.80565E+01  1.54204E+01  8.31961E+00  5.56318E+00  4.79988E+00  4.56161E+00  4.64754E+00  5.83749E+00  9.59986E+00
   1.03918E+01  1.14434E+01  1.66788E+01  2.36679E+01  3.26831E+01  4.32027E+01  5.32578E+01  5.79057E+01  5.56488E+01  4.90813E+01
   4.30342E+01  3.67962E+01  3.12395E+01  2.54218E+01  1.78598E+01  1.49434E+01  1.05389E+01  5.58173E+00  4.48458E+00  4.49417E+00
   4.62509E+00  4.81507E+00  4.80889E+00  4.49519E+00  4.47160E+00  4.37452E+00  4.09471E+00  3.91985E+00  3.53472E+00  3.21099E+00
   2.82661E+00  2.43162E+00  2.11205E+00  1.72588E+00  1.55951E+00  1.51930E+00  1.36902E+00  1.22340E+00  7.31970E-01  1.20170E-01
  -3.73040E-01 -6.56045E-01 -5.88946E-01 -2.81393E-01 -7.44984E-03 -1.08885E-01 -5.52481E-01 -1.12147E+00 -1.56946E+00 -2.06047E+00
  -2.20849E+00 -2.50204E+00 -3.13459E+00 -3.72428E+00 -4.36784E+00 -4.80751E+00 -4.91484E+00 -4.71141E+00 -4.47985E+00 -4.52519E+00
  -4.62637E+00 -4.44240E+00 -4.27565E+00 -3.78723E+00 -3.40348E+00 -3.16170E+00 -2.31362E+00 -1.20180E+00  2.22272E-01  1.63506E+00
   2.52869E+00  3.12816E+00  3.14909E+00  2.77316E+00  2.49041E+00  2.13714E+00  2.22930E+00  2.68795E+00  3.21341E+00  4.04845E+00
   5.17912E+00  6.16708E+00  6.80773E+00  7.78208E+00  7.65854E+00  6.39277E+00  4.57233E+00  2.60228E+00  7.34895E-01 -7.53359E-01
  -1.50155E+00 -7.14951E-01  1.13339E+00  3.17014E+00  5.59736E+00  7.75904E+00  9.22074E+00  9.11627E+00  6.60216E+00  4.38922E+00
   2.25093E+00 -2.93774E-01 -1.51535E+00 -1.44279E+00  3.87530E-01  2.80342E+00  4.04842E+00  5.42271E+00  6.60844E+00  7.74581E+00
   8.18619E+00  8.20268E+00  8.89185E+00  9.84543E+00  9.98868E+00  1.01180E+01  1.08869E+01  1.14688E+01  1.15363E+01  1.09131E+01
   1.02778E+01  9.57971E+00  8.99977E+00  8.86244E+00  9.24453E+00  1.05006E+01  1.13269E+01  1.20268E+01  1.31683E+01  1.38939E+01
   1.48044E+01  1.69122E+01  2.31326E+01  2.98454E+01  3.10863E+01  3.79689E+01  4.79533E+01  5.93135E+01  7.30566E+01  8.81616E+01
   9.89652E+01  9.85752E+01  8.90022E+01  7.65758E+01  6.64225E+01  5.50667E+01  4.63300E+01  3.51365E+01  2.74523E+01  2.42529E+01
   1.46550E+01  1.01598E+01  8.88228E+00  8.37109E+00  7.92459E+00  7.71037E+00  7.43039E+00  7.08521E+00  6.73802E+00  6.43837E+00
   6.10811E+00  5.81399E+00  5.61832E+00  5.45485E+00  5.30536E+00  5.20771E+00  5.14984E+00  5.14598E+00  5.19462E+00  5.26224E+00
   5.39575E+00  5.58773E+00  5.81561E+00  6.07163E+00  6.36938E+00  6.70320E+00  7.06886E+00  7.46718E+00  7.89566E+00  8.33924E+00
   8.80661E+00  9.27555E+00  9.72576E+00  1.01559E+01  1.05485E+01  1.08940E+01  1.11846E+01  1.14079E+01  1.15699E+01  1.16656E+01
   1.16926E+01  1.16596E+01  1.15740E+01  1.14431E+01  1.12792E+01  1.10932E+01  1.08966E+01  1.07000E+01  1.05128E+01  1.03428E+01
   1.01961E+01  1.00763E+01  9.98487E+00  9.92183E+00  9.88494E+00  9.87044E+00  9.87345E+00  9.88861E+00  9.91052E+00  9.93396E+00
   9.95435E+00  9.96801E+00  9.97227E+00  9.96598E+00  9.94931E+00  9.92360E+00  9.89134E+00  9.85582E+00  9.82098E+00  9.79112E+00
   9.77051E+00  9.76290E+00  9.77125E+00  9.79744E+00  9.84212E+00  9.90453E+00  9.98235E+00  1.00717E+01  1.01672E+01  1.02623E+01
   1.03496E+01  1.04209E+01  1.04682E+01  1.04831E+01  1.04584E+01  1.03874E+01  1.02651E+01  1.00880E+01  9.85425E+00  9.56378E+00
   9.21834E+00  8.82140E+00  8.37796E+00  7.89426E+00  7.37738E+00  6.83508E+00  6.27544E+00  5.70664E+00  5.13664E+00  4.57290E+00
   4.02221E+00  3.49066E+00  2.98359E+00  2.50558E+00  2.06046E+00  1.65131E+00  1.28058E+00  9.50285E-01  6.62102E-01  4.17455E-01
   2.17551E-01  6.34341E-02 -4.39439E-02 -1.03688E-01 -1.15013E-01 -7.73959E-02  9.26177E-03  1.44464E-01  3.26969E-01  5.54605E-01
   8.24028E-01  1.13050E+00  1.46774E+00  1.82791E+00  2.20170E+00  2.57844E+00  2.94639E+00  3.29304E+00  3.60558E+00  3.87155E+00
   4.07940E+00  4.21907E+00  4.28251E+00  4.26409E+00  4.16092E+00  3.97309E+00  3.70365E+00  3.35838E+00  2.94540E+00  2.47475E+00
   1.95781E+00  1.40679E+00  8.34069E-01  2.51633E-01 -3.29462E-01 -8.99432E-01 -1.45000E+00 -1.97453E+00 -2.46809E+00 -2.92741E+00
  -3.35077E+00 -3.73775E+00 -4.08897E+00 -4.40589E+00 -4.69057E+00 -4.94550E+00 -5.17344E+00 -5.37715E+00 -5.55936E+00 -5.72258E+00
  -5.86921E+00 -6.00142E+00 -6.12116E+00 -6.23012E+00 -6.32973E+00 -6.42122E+00 -6.50569E+00 -6.58405E+00 -6.65710E+00 -6.72547E+00
  -6.78969E+00 -6.85019E+00 -6.90740E+00 -6.96166E+00 -7.01328E+00 -7.06248E+00 -7.10942E+00 -7.15432E+00 -7.19734E+00 -7.23864E+00
  -7.27835E+00 -7.31653E+00 -7.35326E+00 -7.38865E+00 -7.42280E+00 -7.45580E+00 -7.48768E+00 -7.51850E+00 -7.54830E+00 -7.57718E+00
  -7.60519E+00 -7.63238E+00 -7.65875E+00 -7.68435E+00 -7.70920E+00 -7.73338E+00 -7.75693E+00 -7.77987E+00 -7.80220E+00 -7.82395E+00
  -7.84516E+00 -7.86587E+00 -7.88612E+00 -7.90590E+00 -7.92522E+00 -7.94409E+00 -7.96258E+00 -7.98071E+00 -7.99849E+00 -8.01592E+00
  -8.03301E+00 -8.04978E+00 -8.06629E+00 -8.08254E+00 -8.09854E+00 -8.11427E+00 -8.12976E+00 -8.14503E+00 -8.16012E+00 -8.17502E+00
  -8.18973E+00 -8.20424E+00 -8.21857E+00 -8.23275E+00 -8.24679E+00 -8.26066E+00 -8.27435E+00 -8.28784E+00
 NY background values follow
     1.113E+01    1.103E+01    1.093E+01    1.083E+01    1.073E+01    1.063E+01    1.053E+01    1.043E+01    1.033E+01    1.023E+01
     1.013E+01    1.003E+01    9.927E+00    9.827E+00    9.727E+00    9.627E+00    9.527E+00    9.426E+00    9.327E+00    9.227E+00
     9.127E+00    9.027E+00    8.928E+00    8.829E+00    8.729E+00    8.630E+00    8.532E+00    8.433E+00    8.335E+00    8.237E+00
     8.139E+00    8.041E+00    7.943E+00    7.846E+00    7.749E+00    7.653E+00    7.556E+00    7.460E+00    7.364E+00    7.269E+00
     7.174E+00    7.079E+00    6.985E+00    6.891E+00    6.797E+00    6.704E+00    6.611E+00    6.519E+00    6.427E+00    6.336E+00
     6.245E+00    6.154E+00    6.064E+00    5.974E+00    5.885E+00    5.796E+00    5.708E+00    5.620E+00    5.533E+00    5.447E+00
     5.360E+00    5.275E+00    5.190E+00    5.105E+00    5.021E+00    4.938E+00    4.855E+00    4.773E+00    4.691E+00    4.610E+00
     4.530E+00    4.450E+00    4.371E+00    4.293E+00    4.215E+00    4.138E+00    4.061E+00    3.985E+00    3.910E+00    3.836E+00
     3.762E+00    3.689E+00    3.617E+00    3.545E+00    3.474E+00    3.404E+00    3.335E+00    3.266E+00    3.198E+00    3.131E+00
     3.065E+00    3.000E+00    2.935E+00    2.871E+00    2.808E+00    2.746E+00    2.684E+00    2.624E+00    2.564E+00    2.505E+00
     2.446E+00    2.389E+00    2.332E+00    2.276E+00    2.221E+00    2.167E+00    2.114E+00    2.061E+00    2.009E+00    1.958E+00
     1.908E+00    1.858E+00    1.810E+00    1.762E+00    1.715E+00    1.669E+00    1.623E+00    1.579E+00    1.535E+00    1.492E+00
     1.450E+00    1.409E+00    1.368E+00    1.328E+00    1.289E+00    1.251E+00    1.214E+00    1.177E+00    1.142E+00    1.107E+00
     1.073E+00    1.039E+00    1.007E+00    9.754E-01    9.446E-01    9.146E-01    8.854E-01    8.570E-01    8.294E-01    8.027E-01
     7.767E-01    7.516E-01    7.272E-01    7.037E-01    6.810E-01    6.591E-01    6.380E-01    6.177E-01    5.982E-01    5.795E-01
     5.616E-01    5.446E-01    5.283E-01    5.128E-01    4.981E-01    4.843E-01    4.712E-01    4.589E-01    4.474E-01    4.368E-01
     4.269E-01    4.178E-01    4.095E-01    4.020E-01    3.953E-01    3.894E-01    3.843E-01    3.800E-01    3.765E-01    3.738E-01
     3.718E-01    3.707E-01    3.703E-01    3.708E-01    3.720E-01    3.740E-01    3.768E-01    3.804E-01    3.847E-01    3.899E-01
     3.958E-01    4.025E-01    4.100E-01    4.183E-01    4.272E-01    4.369E-01    4.472E-01    4.582E-01    4.698E-01    4.820E-01
     4.948E-01    5.081E-01    5.220E-01    5.363E-01    5.511E-01    5.664E-01    5.820E-01    5.981E-01    6.145E-01    6.312E-01
     6.483E-01    6.657E-01    6.833E-01    7.011E-01    7.192E-01    7.374E-01    7.558E-01    7.744E-01    7.930E-01    8.118E-01
     8.305E-01    8.494E-01    8.682E-01    8.870E-01    9.057E-01    9.244E-01    9.430E-01    9.614E-01    9.797E-01    9.979E-01
     1.016E+00    1.033E+00    1.051E+00    1.068E+00    1.085E+00    1.102E+00    1.118E+00    1.133E+00    1.149E+00    1.164E+00
     1.178E+00    1.193E+00    1.206E+00    1.220E+00    1.232E+00    1.245E+00    1.257E+00    1.268E+00    1.279E+00    1.289E+00
     1.299E+00    1.308E+00    1.316E+00    1.325E+00    1.332E+00    1.339E+00    1.345E+00    1.351E+00    1.356E+00    1.360E+00
     1.364E+00    1.367E+00    1.369E+00    1.370E+00    1.371E+00    1.371E+00    1.371E+00    1.370E+00    1.367E+00    1.365E+00
     1.361E+00    1.356E+00    1.351E+00    1.345E+00    1.338E+00    1.330E+00    1.322E+00    1.312E+00    1.302E+00    1.291E+00
     1.278E+00    1.265E+00    1.251E+00    1.236E+00    1.220E+00    1.203E+00    1.186E+00    1.167E+00    1.147E+00    1.127E+00
     1.105E+00    1.083E+00    1.060E+00    1.036E+00    1.011E+00    9.849E-01    9.581E-01    9.305E-01    9.020E-01    8.726E-01
     8.424E-01    8.113E-01    7.793E-01    7.465E-01    7.128E-01    6.783E-01    6.429E-01    6.067E-01    5.697E-01    5.318E-01
     4.932E-01    4.536E-01    4.133E-01    3.722E-01    3.302E-01    2.874E-01    2.439E-01    1.995E-01    1.543E-01    1.084E-01
     6.164E-02    1.411E-02   -3.419E-02   -8.328E-02   -1.331E-01   -1.838E-01   -2.351E-01   -2.873E-01   -3.402E-01   -3.938E-01
    -4.482E-01   -5.032E-01   -5.589E-01   -6.153E-01   -6.723E-01   -7.300E-01   -7.882E-01   -8.471E-01   -9.065E-01   -9.665E-01
    -1.027E+00   -1.088E+00   -1.150E+00   -1.212E+00   -1.274E+00   -1.337E+00   -1.401E+00   -1.465E+00   -1.529E+00   -1.594E+00
    -1.659E+00   -1.724E+00   -1.790E+00   -1.856E+00   -1.922E+00   -1.989E+00   -2.056E+00   -2.123E+00   -2.191E+00   -2.258E+00
    -2.326E+00   -2.394E+00   -2.463E+00   -2.531E+00   -2.599E+00   -2.668E+00   -2.737E+00   -2.806E+00   -2.875E+00   -2.944E+00
    -3.013E+00   -3.082E+00   -3.151E+00   -3.220E+00   -3.289E+00   -3.358E+00   -3.427E+00   -3.495E+00   -3.564E+00   -3.633E+00
    -3.701E+00   -3.769E+00   -3.837E+00   -3.905E+00   -3.973E+00   -4.041E+00   -4.108E+00   -4.175E+00   -4.242E+00   -4.308E+00
    -4.374E+00   -4.440E+00   -4.506E+00   -4.571E+00   -4.636E+00   -4.700E+00   -4.764E+00   -4.828E+00   -4.891E+00   -4.953E+00
    -5.016E+00   -5.077E+00   -5.138E+00   -5.199E+00   -5.259E+00   -5.319E+00   -5.378E+00   -5.436E+00   -5.494E+00   -5.551E+00
    -5.608E+00   -5.663E+00   -5.718E+00   -5.773E+00   -5.827E+00   -5.880E+00   -5.932E+00   -5.983E+00   -6.034E+00   -6.084E+00
    -6.133E+00   -6.182E+00   -6.229E+00   -6.276E+00   -6.322E+00   -6.368E+00   -6.413E+00   -6.457E+00   -6.500E+00   -6.542E+00
    -6.584E+00   -6.625E+00   -6.666E+00   -6.706E+00   -6.745E+00   -6.783E+00   -6.821E+00   -6.858E+00   -6.895E+00   -6.930E+00
    -6.966E+00   -7.000E+00   -7.034E+00   -7.067E+00   -7.100E+00   -7.132E+00   -7.163E+00   -7.194E+00   -7.224E+00   -7.254E+00
    -7.283E+00   -7.312E+00   -7.339E+00   -7.367E+00   -7.394E+00   -7.420E+00   -7.445E+00   -7.471E+00   -7.495E+00   -7.519E+00
    -7.543E+00   -7.566E+00   -7.588E+00   -7.610E+00   -7.632E+00   -7.653E+00   -7.673E+00   -7.693E+00   -7.713E+00   -7.732E+00
    -7.751E+00   -7.769E+00   -7.787E+00   -7.805E+00   -7.822E+00   -7.839E+00   -7.856E+00   -7.872E+00   -7.888E+00   -7.904E+00
    -7.919E+00   -7.934E+00   -7.949E+00   -7.964E+00   -7.978E+00   -7.992E+00   -8.006E+00   -8.020E+00   -8.034E+00   -8.047E+00
    -8.061E+00   -8.074E+00   -8.087E+00   -8.100E+00   -8.112E+00   -8.125E+00   -8.138E+00   -8.151E+00   -8.163E+00   -8.176E+00
    -8.188E+00   -8.201E+00   -8.213E+00   -8.226E+00   -8.238E+00   -8.251E+00   -8.264E+00   -8.276E+00
 Asp      Conc. = 1.82E+02
