 LCModel (Version 6.3-1L) Copyright: S.W. Provencher.          Ref.: Magn. Reson. Med. 30:672-679 (1993).                
 Slice#2 Row#9 Col#4  PD_24_press_1_raw_act
 36 lines in following concentration table = NCONC+1
    Conc.  %SD /Cr+PCr  Metabolite                                         
    0.000 999%   0.000 Ala                                                 
    0.000 999%   0.000 Asp                                                 
  494.089  53%   0.269 Cr                                                  
 1.35E+03  20%   0.731 PCr                                                 
    0.000 999%   0.000 GABA                                                
    0.000 999%   0.000 Glc                                                 
 1.09E+03  25%   0.595 Gln                                                 
 1.89E+03  16%   1.030 Glu                                                 
  729.636   3%   0.397 GPC                                                 
    0.000 999%   0.000 PCh                                                 
  290.345  25%   0.158 GSH                                                 
  411.717  65%   0.224 Ins                                                 
  183.789  75%   0.100 Lac                                                 
 2.87E+03   6%   1.562 NAA                                                 
  599.293  29%   0.326 NAAG                                                
   98.377  30% 5.3E-02 Scyllo                                              
    0.000 999%   0.000 Tau                                                 
    0.000 999%   0.000 -CrCH2                                              
  729.636   3%   0.397 GPC+PCh                                             
 3.47E+03   2%   1.887 NAA+NAAG                                            
 1.84E+03   3%   1.000 Cr+PCr                                              
 2.99E+03  15%   1.624 Glu+Gln                                             
 1.21E+03  28%   0.658 Lip13a                                              
    0.000 999%   0.000 Lip13b                                              
    0.000 999%   0.000 Lip09                                               
 1.07E+03  18%   0.584 MM09                                                
  311.370  47%   0.169 Lip20                                               
 2.39E+03  14%   1.299 MM20                                                
  327.455  30%   0.178 MM12                                                
 1.08E+03  25%   0.586 MM14                                                
  831.413  23%   0.452 MM17                                                
 1.21E+03  28%   0.658 Lip13a+Lip13b                                       
 2.61E+03  16%   1.421 MM14+Lip13a+Lip13b+MM12                             
 1.07E+03  18%   0.584 MM09+Lip09                                          
 2.70E+03  13%   1.469 MM20+Lip20                                          
   6 lines in following misc. output table
  FWHM = 0.061 ppm    S/N =  16                                            
  Data shift = 0.008 ppm                                                   
  Ph: -34 deg     -11.3 deg/ppm                                            
  alphaB,S = 6.2E-01,   2.0E+02                                            
   14 spline knots.   Ns = 8(1)                                            
  (13) 3 infls.   ( 7) 1 extrs.                                            
  498 points on ppm-axis = NY
      4.000000     3.992357     3.984714     3.977070     3.969427     3.961784     3.954141     3.946497     3.938854     3.931211
      3.923568     3.915925     3.908281     3.900638     3.892995     3.885352     3.877708     3.870065     3.862422     3.854779
      3.847136     3.839492     3.831849     3.824206     3.816563     3.808919     3.801276     3.793633     3.785990     3.778347
      3.770703     3.763060     3.755417     3.747774     3.740130     3.732487     3.724844     3.717201     3.709558     3.701914
      3.694271     3.686628     3.678985     3.671341     3.663698     3.656055     3.648412     3.640769     3.633125     3.625482
      3.617839     3.610196     3.602552     3.594909     3.587266     3.579623     3.571980     3.564336     3.556693     3.549050
      3.541407     3.533763     3.526120     3.518477     3.510834     3.503191     3.495547     3.487904     3.480261     3.472618
      3.464974     3.457331     3.449688     3.442045     3.434402     3.426758     3.419115     3.411472     3.403829     3.396185
      3.388542     3.380899     3.373256     3.365613     3.357969     3.350326     3.342683     3.335040     3.327396     3.319753
      3.312110     3.304467     3.296824     3.289180     3.281537     3.273894     3.266251     3.258607     3.250964     3.243321
      3.235678     3.228034     3.220391     3.212748     3.205105     3.197462     3.189818     3.182175     3.174532     3.166889
      3.159245     3.151602     3.143959     3.136316     3.128673     3.121029     3.113386     3.105743     3.098100     3.090456
      3.082813     3.075170     3.067527     3.059884     3.052240     3.044597     3.036954     3.029311     3.021667     3.014024
      3.006381     2.998738     2.991095     2.983451     2.975808     2.968165     2.960522     2.952878     2.945235     2.937592
      2.929949     2.922306     2.914662     2.907019     2.899376     2.891733     2.884089     2.876446     2.868803     2.861160
      2.853517     2.845873     2.838230     2.830587     2.822944     2.815300     2.807657     2.800014     2.792371     2.784728
      2.777084     2.769441     2.761798     2.754155     2.746511     2.738868     2.731225     2.723582     2.715939     2.708295
      2.700652     2.693009     2.685366     2.677722     2.670079     2.662436     2.654793     2.647150     2.639506     2.631863
      2.624220     2.616577     2.608933     2.601290     2.593647     2.586004     2.578361     2.570717     2.563074     2.555431
      2.547788     2.540144     2.532501     2.524858     2.517215     2.509572     2.501928     2.494285     2.486642     2.478999
      2.471355     2.463712     2.456069     2.448426     2.440783     2.433139     2.425496     2.417853     2.410210     2.402566
      2.394923     2.387280     2.379637     2.371994     2.364350     2.356707     2.349064     2.341421     2.333777     2.326134
      2.318491     2.310848     2.303205     2.295561     2.287918     2.280275     2.272632     2.264988     2.257345     2.249702
      2.242059     2.234416     2.226772     2.219129     2.211486     2.203843     2.196199     2.188556     2.180913     2.173270
      2.165627     2.157983     2.150340     2.142697     2.135054     2.127410     2.119767     2.112124     2.104481     2.096838
      2.089194     2.081551     2.073908     2.066265     2.058621     2.050978     2.043335     2.035692     2.028049     2.020405
      2.012762     2.005119     1.997476     1.989833     1.982190     1.974546     1.966903     1.959260     1.951617     1.943974
      1.936331     1.928688     1.921045     1.913402     1.905759     1.898115     1.890472     1.882829     1.875186     1.867543
      1.859900     1.852257     1.844614     1.836971     1.829327     1.821684     1.814041     1.806398     1.798755     1.791112
      1.783469     1.775826     1.768183     1.760540     1.752896     1.745253     1.737610     1.729967     1.722324     1.714681
      1.707038     1.699395     1.691752     1.684108     1.676465     1.668822     1.661179     1.653536     1.645893     1.638250
      1.630607     1.622964     1.615321     1.607677     1.600034     1.592391     1.584748     1.577105     1.569462     1.561819
      1.554176     1.546533     1.538890     1.531246     1.523603     1.515960     1.508317     1.500674     1.493031     1.485388
      1.477745     1.470102     1.462458     1.454815     1.447172     1.439529     1.431886     1.424243     1.416600     1.408957
      1.401314     1.393671     1.386027     1.378384     1.370741     1.363098     1.355455     1.347812     1.340169     1.332526
      1.324883     1.317240     1.309596     1.301953     1.294310     1.286667     1.279024     1.271381     1.263738     1.256095
      1.248452     1.240808     1.233165     1.225522     1.217879     1.210236     1.202593     1.194950     1.187307     1.179664
      1.172021     1.164377     1.156734     1.149091     1.141448     1.133805     1.126162     1.118519     1.110876     1.103233
      1.095590     1.087946     1.080303     1.072660     1.065017     1.057374     1.049731     1.042088     1.034445     1.026802
      1.019158     1.011515     1.003872     0.996229     0.988586     0.980943     0.973300     0.965657     0.958014     0.950371
      0.942727     0.935084     0.927441     0.919798     0.912155     0.904512     0.896869     0.889226     0.881583     0.873940
      0.866296     0.858653     0.851010     0.843367     0.835724     0.828081     0.820438     0.812795     0.805152     0.797508
      0.789865     0.782222     0.774579     0.766936     0.759293     0.751650     0.744007     0.736364     0.728721     0.721077
      0.713434     0.705791     0.698148     0.690505     0.682862     0.675219     0.667576     0.659933     0.652290     0.644646
      0.637003     0.629360     0.621717     0.614074     0.606431     0.598788     0.591145     0.583502     0.575858     0.568215
      0.560572     0.552929     0.545286     0.537643     0.530000     0.522357     0.514714     0.507071     0.499427     0.491784
      0.484141     0.476498     0.468855     0.461212     0.453569     0.445925     0.438282     0.430639     0.422996     0.415353
      0.407710     0.400067     0.392424     0.384780     0.377137     0.369494     0.361851     0.354208     0.346565     0.338922
      0.331278     0.323635     0.315992     0.308349     0.300706     0.293063     0.285420     0.277777     0.270133     0.262490
      0.254847     0.247204     0.239561     0.231918     0.224275     0.216631     0.208988     0.201345
 NY phased data points follow
   3.25169E+01  3.07075E+01  3.35395E+01  3.49344E+01  4.06740E+01  4.02245E+01  4.34944E+01  5.30842E+01  5.51681E+01  5.79542E+01
   6.70709E+01  6.95375E+01  6.41565E+01  6.01600E+01  5.61906E+01  5.01420E+01  4.50301E+01  3.83784E+01  3.69800E+01  3.34664E+01
   3.29536E+01  2.94844E+01  2.70938E+01  2.62974E+01  2.95388E+01  3.13993E+01  2.93279E+01  2.35736E+01  3.42612E+01  2.89908E+01
   2.77892E+01  3.05590E+01  3.07618E+01  2.96968E+01  2.45641E+01  2.53980E+01  2.24100E+01  2.44619E+01  2.46650E+01  2.65119E+01
   2.26596E+01  2.64125E+01  2.50376E+01  2.38513E+01  2.58753E+01  2.39177E+01  2.87796E+01  3.25322E+01  2.84660E+01  2.80584E+01
   2.31296E+01  2.49953E+01  2.66963E+01  2.27054E+01  1.89985E+01  2.45364E+01  2.30014E+01  2.34687E+01  2.43525E+01  2.07888E+01
   1.61589E+01  1.52189E+01  1.34270E+01  1.56617E+01  8.59486E+00  7.02714E+00  8.51366E+00  1.36266E+01  8.80731E+00  7.18857E+00
   1.30104E+01  1.16463E+01  1.16709E+01  1.31494E+01  1.32676E+01  1.48495E+01  1.10108E+01  1.14941E+01  9.67458E+00  4.13566E+00
   1.13883E+01  1.11875E+01  1.04656E+01  1.59120E+01  1.69957E+01  1.47722E+01  1.50168E+01  1.37998E+01  1.68529E+01  1.30297E+01
   1.26526E+01  1.40052E+01  1.20401E+01  1.18666E+01  1.23115E+01  1.40845E+01  1.91329E+01  2.16086E+01  2.86745E+01  3.60937E+01
   4.76135E+01  5.63922E+01  6.68078E+01  6.71272E+01  6.58712E+01  6.05465E+01  5.37938E+01  4.06702E+01  4.15391E+01  2.88725E+01
   2.00725E+01  1.62581E+01  1.74717E+01  1.48457E+01  1.35046E+01  6.88041E+00  1.60168E+01  9.60363E+00  1.24817E+01  1.22679E+01
   1.36136E+01  1.61417E+01  2.10732E+01  2.35407E+01  3.38073E+01  4.61019E+01  5.06856E+01  5.52206E+01  5.78150E+01  5.22095E+01
   5.31027E+01  4.67856E+01  3.39700E+01  3.03381E+01  2.35004E+01  1.56123E+01  1.04809E+01  1.12942E+01  8.44927E+00  7.89218E+00
   7.73139E+00  5.41451E+00  1.00423E+01  9.90076E+00  8.31377E+00  7.12186E+00  6.95378E+00  8.23884E+00  1.04465E+01  2.40781E+00
   8.62007E+00  5.62562E+00  8.08288E+00  9.48674E+00  9.26330E+00  3.27024E+00  2.42154E+00  7.96905E-02  8.34658E+00  1.04775E+00
  -5.31871E-01  3.87844E+00  1.59412E+00  2.29959E+00 -8.07947E-01  5.83976E-02 -8.88565E-01 -8.41377E-01 -5.23889E+00 -2.90173E+00
  -9.02534E+00 -7.26987E+00 -3.83215E+00 -6.98446E+00 -6.24609E+00 -1.07104E+01 -9.66725E+00 -8.11882E+00 -8.25830E+00 -5.76464E+00
  -1.07514E+01 -6.69334E+00 -9.72268E+00 -6.47057E+00 -9.94659E+00 -2.80496E+00 -9.53536E-01 -3.74354E+00  1.44244E+00 -4.52739E-01
   4.99054E+00  6.67005E+00  5.38051E+00  7.84707E+00  6.55464E+00  1.01199E+01  7.41818E+00  3.65267E+00  3.34393E+00  4.83849E+00
   2.26982E+00  6.80288E+00  1.88607E+00  5.61212E+00  6.34153E+00  2.53099E+00  1.47076E+00 -1.75438E-01 -9.65718E-01  3.02333E+00
   6.22138E+00  3.37439E+00  9.41151E-01  6.98161E+00  1.18776E+01  1.14785E+01  1.37630E+01  1.16269E+01  1.74297E+01  1.44152E+01
   5.14040E+00  4.76812E+00  1.89657E+00  2.75440E+00  2.87376E+00  4.98687E+00  4.82652E+00  9.04813E+00  1.02816E+01  1.19696E+01
   1.40166E+01  1.26733E+01  1.07520E+01  1.10512E+01  1.46063E+01  9.88954E+00  9.71741E+00  1.41306E+01  1.38786E+01  1.32410E+01
   1.14544E+01  9.31132E+00  3.70825E+00  1.03060E+01  1.17095E+01  1.19348E+01  1.44894E+01  1.38775E+01  1.54354E+01  1.94269E+01
   1.93600E+01  2.20941E+01  2.95518E+01  4.20332E+01  4.78375E+01  5.39842E+01  5.91456E+01  7.52493E+01  8.69162E+01  9.90367E+01
   1.03509E+02  1.03087E+02  9.02917E+01  8.03317E+01  6.47552E+01  5.05050E+01  3.84754E+01  2.96681E+01  2.56867E+01  1.91496E+01
   1.43159E+01  1.60566E+01  1.28528E+01  9.14539E+00  1.00732E+01  1.00351E+01  1.18820E+01  9.87181E+00  7.49098E+00  8.47248E+00
   1.04018E+01  9.30344E+00  1.18415E+01  1.27662E+00  7.36456E+00  4.56700E+00  9.52617E-01  4.60718E+00  9.08033E+00  3.68520E+00
   2.81763E+00  1.15882E+01  6.59406E+00  9.79100E+00  4.63931E+00  1.23191E+01  6.66779E+00  9.72777E+00  1.19402E+01  1.13876E+01
   6.13665E+00  5.26014E+00  1.04883E+01  1.06192E+01  7.32877E+00  1.26322E+01  1.10934E+01  4.95821E+00  1.08327E+01  8.86186E+00
   8.46446E+00  9.78889E+00  1.23522E+01  1.09064E+01  8.92183E+00  7.34037E+00  1.02000E+01  3.02048E+00  6.94649E+00  9.18131E+00
   4.98761E+00  5.85442E+00  5.46922E+00  7.57876E+00  5.52581E+00  6.54257E+00  5.54305E+00  1.15172E+01  1.00126E+01  7.96516E+00
   6.05210E+00  8.77521E+00  9.66777E+00  1.03617E+01  1.05509E+01  5.89832E+00  9.40550E+00  7.00113E+00  7.98020E+00  1.05785E+01
   1.22599E+01  1.02909E+01  5.66128E+00  1.03070E+01  8.61675E+00  1.09037E+01  1.35766E+01  1.18630E+01  8.94124E+00  4.61323E+00
   9.47562E+00  6.22238E+00  9.98170E+00  7.29606E+00  1.13612E+01  7.21935E+00  9.93265E+00  8.86893E+00  1.05139E+01  9.05644E+00
   6.03732E+00  9.21268E+00  1.00200E+01  7.67562E+00  7.39772E+00  3.74266E+00  8.22325E+00  6.00766E+00  6.78702E+00  5.55204E+00
   6.00084E+00  5.70628E+00  2.68328E+00  9.66440E+00  1.49940E+00  4.90847E+00  3.11887E-01  4.81577E+00  1.15746E+00  6.51698E+00
   4.18700E+00  2.11964E-01 -2.07514E-01  4.25382E+00  1.02370E+00 -1.14226E+00  3.01555E+00  5.10668E-01  5.48719E+00 -1.47482E-01
   1.65035E+00  2.38078E+00 -8.39058E-01  1.95599E+00  3.33727E+00  5.67591E-01  4.95207E+00  4.47443E+00  1.29847E+00  7.23923E+00
   4.78834E+00  5.03434E+00  8.02942E+00  8.62962E+00  2.98727E+00  4.01633E+00  5.98301E+00  6.62841E+00  2.52283E+00  4.62657E+00
   5.22071E+00  3.88180E+00  1.68023E+00  3.51419E+00  7.11788E+00  2.25046E+00 -1.04891E+00  3.84454E+00  2.07587E+00  1.12192E+00
   4.66166E-01  2.39873E+00  1.61806E+00  4.31506E-01  3.98879E-01 -2.11367E+00  2.30543E+00 -1.42656E-02 -2.32258E-01  1.99235E-01
  -6.73899E-01 -3.63105E+00 -1.79323E+00  4.61583E+00 -1.54692E+00 -3.92635E+00 -1.46942E-01 -1.22224E-01 -1.39332E+00  1.52850E+00
  -3.00363E+00 -5.18979E+00 -2.83945E-01 -4.90814E-01  1.26587E+00 -6.88438E+00 -3.05301E-01 -4.01166E+00  1.37441E+00  5.24522E-01
  -4.20520E+00 -4.19846E+00 -2.17362E+00 -2.61444E+00  1.43530E+00 -2.67967E+00 -3.69833E+00  1.05493E+00 -4.74169E-01  1.76858E+00
  -6.14649E-01  2.67033E+00 -1.88468E-01 -4.03273E-01 -1.84578E+00 -9.17674E-01  2.04673E+00  1.56531E+00  4.43481E-01 -2.93852E-02
  -9.40091E-01 -2.70223E+00  1.52499E+00 -2.38247E-01  7.87062E-01 -1.04054E+00  4.02544E-01  2.77599E+00  2.66575E+00  3.47883E-01
   5.17720E+00  5.00513E+00  1.99942E+00  2.43769E+00  1.83056E+00  2.16761E+00  6.13095E-01  1.55747E-01 -2.95292E-04 -1.03855E+00
  -4.52653E-01  2.01424E+00  8.05411E-01 -1.06933E+00  1.40037E+00  3.88661E+00  1.85343E-01 -3.47494E-01
 NY points of the fit to the data follow
   2.92808E+01  2.96412E+01  3.11213E+01  3.35578E+01  3.64966E+01  3.99632E+01  4.44431E+01  5.00172E+01  5.59147E+01  6.08932E+01
   6.38275E+01  6.42006E+01  6.22033E+01  5.84753E+01  5.38135E+01  4.89414E+01  4.43191E+01  4.01016E+01  3.63082E+01  3.31587E+01
   3.09880E+01  2.95317E+01  2.86384E+01  2.80582E+01  2.75594E+01  2.71932E+01  2.72262E+01  2.78283E+01  2.87914E+01  2.98474E+01
   3.08140E+01  3.14437E+01  3.15359E+01  3.10144E+01  2.99689E+01  2.86258E+01  2.71946E+01  2.58861E+01  2.48643E+01  2.42585E+01
   2.41507E+01  2.43394E+01  2.46537E+01  2.50314E+01  2.54202E+01  2.57403E+01  2.58455E+01  2.57030E+01  2.53502E+01  2.47690E+01
   2.39901E+01  2.31001E+01  2.22004E+01  2.13762E+01  2.06041E+01  1.98568E+01  1.92104E+01  1.87041E+01  1.82821E+01  1.78810E+01
   1.74872E+01  1.70669E+01  1.66062E+01  1.61210E+01  1.56600E+01  1.52612E+01  1.49317E+01  1.46662E+01  1.44537E+01  1.42895E+01
   1.41555E+01  1.40206E+01  1.38645E+01  1.36720E+01  1.34449E+01  1.31944E+01  1.29377E+01  1.27138E+01  1.26444E+01  1.27662E+01
   1.29145E+01  1.30789E+01  1.34041E+01  1.39518E+01  1.45893E+01  1.50857E+01  1.52621E+01  1.50525E+01  1.45131E+01  1.37696E+01
   1.29539E+01  1.21945E+01  1.15958E+01  1.12773E+01  1.18136E+01  1.46105E+01  1.89034E+01  2.34987E+01  2.90217E+01  3.68240E+01
   4.67918E+01  5.69040E+01  6.46176E+01  6.81463E+01  6.70025E+01  6.19006E+01  5.41889E+01  4.53605E+01  3.67108E+01  2.89562E+01
   2.22811E+01  1.65780E+01  1.21543E+01  9.98831E+00  9.24047E+00  8.88405E+00  8.69726E+00  8.65840E+00  8.92890E+00  1.03568E+01
   1.36643E+01  1.76671E+01  2.19216E+01  2.74220E+01  3.49988E+01  4.39029E+01  5.20981E+01  5.75356E+01  5.90926E+01  5.68113E+01
   5.15584E+01  4.45240E+01  3.68891E+01  2.95642E+01  2.29921E+01  1.72640E+01  1.24330E+01  9.14039E+00  7.83919E+00  7.45509E+00
   7.33577E+00  7.28227E+00  7.20527E+00  7.08794E+00  6.93060E+00  6.71160E+00  6.42944E+00  6.10263E+00  5.76160E+00  5.43493E+00
   5.12949E+00  4.85648E+00  4.60170E+00  4.30168E+00  4.00447E+00  3.78399E+00  3.61982E+00  3.44322E+00  3.13036E+00  2.67467E+00
   2.22643E+00  1.92922E+00  1.79124E+00  1.72383E+00  1.60385E+00  1.33355E+00  8.89795E-01  3.02897E-01 -3.65524E-01 -9.84772E-01
  -1.44306E+00 -1.85939E+00 -2.35383E+00 -2.95242E+00 -3.49019E+00 -3.73814E+00 -3.70334E+00 -3.55388E+00 -3.42754E+00 -3.39025E+00
  -3.33741E+00 -3.12521E+00 -2.76036E+00 -2.29849E+00 -1.73403E+00 -1.05500E+00 -2.50380E-01  7.00730E-01  1.81257E+00  2.94788E+00
   3.83417E+00  4.31470E+00  4.46943E+00  4.44870E+00  4.34962E+00  4.28718E+00  4.48531E+00  4.94850E+00  5.63960E+00  6.51604E+00
   7.37785E+00  8.00943E+00  8.33943E+00  8.24202E+00  7.46860E+00  5.85168E+00  3.70654E+00  1.62468E+00  8.11988E-02 -5.89354E-01
  -4.68701E-01  4.32658E-01  2.14763E+00  4.52047E+00  7.06411E+00  9.01596E+00  9.99567E+00  9.98888E+00  8.89033E+00  6.73843E+00
   4.09937E+00  1.78239E+00  3.82920E-01  5.91606E-02  7.60207E-01  2.28784E+00  4.30492E+00  6.37952E+00  8.07965E+00  9.32352E+00
   1.01355E+01  1.05940E+01  1.08439E+01  1.09365E+01  1.10205E+01  1.13256E+01  1.18075E+01  1.22575E+01  1.24508E+01  1.22026E+01
   1.15455E+01  1.07460E+01  1.01350E+01  9.92026E+00  1.01313E+01  1.07303E+01  1.17196E+01  1.31436E+01  1.51920E+01  1.74930E+01
   1.98549E+01  2.28998E+01  2.87308E+01  3.76383E+01  4.67750E+01  5.54740E+01  6.52496E+01  7.69058E+01  8.87747E+01  9.79081E+01
   1.01891E+02  9.97342E+01  9.20284E+01  8.04308E+01  6.69103E+01  5.34755E+01  4.16887E+01  3.17387E+01  2.32663E+01  1.62269E+01
   1.18667E+01  1.02487E+01  9.52362E+00  9.06543E+00  8.72582E+00  8.45128E+00  8.17476E+00  7.88503E+00  7.59449E+00  7.31821E+00
   7.07487E+00  6.87536E+00  6.71123E+00  6.57458E+00  6.47925E+00  6.42930E+00  6.40729E+00  6.40250E+00  6.42692E+00  6.49645E+00
   6.61415E+00  6.76802E+00  6.95340E+00  7.16909E+00  7.40359E+00  7.64120E+00  7.87506E+00  8.10274E+00  8.32299E+00  8.53286E+00
   8.72605E+00  8.89667E+00  9.04190E+00  9.15374E+00  9.22414E+00  9.24813E+00  9.22413E+00  9.15383E+00  9.04016E+00  8.88649E+00
   8.70166E+00  8.49508E+00  8.27561E+00  8.05253E+00  7.83492E+00  7.63078E+00  7.44691E+00  7.28903E+00  7.16162E+00  7.06782E+00
   7.00924E+00  6.98605E+00  6.99714E+00  7.04036E+00  7.11263E+00  7.21030E+00  7.32917E+00  7.46470E+00  7.61235E+00  7.76781E+00
   7.92727E+00  8.08745E+00  8.24574E+00  8.40039E+00  8.55087E+00  8.69827E+00  8.84591E+00  9.00105E+00  9.18105E+00  9.41691E+00
   9.65845E+00  9.83858E+00  9.99429E+00  1.01619E+01  1.02914E+01  1.02688E+01  1.00189E+01  9.61576E+00  9.14027E+00  8.62964E+00
   8.16652E+00  7.87878E+00  7.85963E+00  8.09395E+00  8.47830E+00  8.88478E+00  9.21930E+00  9.44834E+00  9.51473E+00  9.38386E+00
   9.10771E+00  8.73818E+00  8.30795E+00  7.82750E+00  7.30874E+00  6.82107E+00  6.38532E+00  5.97586E+00  5.58371E+00  5.20731E+00
   4.84748E+00  4.50590E+00  4.18448E+00  3.88510E+00  3.60953E+00  3.35931E+00  3.13572E+00  2.93980E+00  2.77236E+00  2.63413E+00
   2.52571E+00  2.44764E+00  2.40031E+00  2.38403E+00  2.39901E+00  2.44537E+00  2.52308E+00  2.63180E+00  2.77082E+00  2.93897E+00
   3.13454E+00  3.35524E+00  3.59802E+00  3.85901E+00  4.13347E+00  4.41591E+00  4.70010E+00  4.97926E+00  5.24615E+00  5.49330E+00
   5.71328E+00  5.89905E+00  6.04430E+00  6.14366E+00  6.19294E+00  6.18935E+00  6.13168E+00  6.02035E+00  5.85741E+00  5.64637E+00
   5.39202E+00  5.10021E+00  4.77759E+00  4.43130E+00  4.06868E+00  3.69693E+00  3.32277E+00  2.95236E+00  2.59110E+00  2.24354E+00
   1.91331E+00  1.60308E+00  1.31464E+00  1.04899E+00  8.06456E-01  5.86828E-01  3.89400E-01  2.13090E-01  5.65678E-02 -8.16169E-02
  -2.02951E-01 -3.08928E-01 -4.01031E-01 -4.80698E-01 -5.49261E-01 -6.07908E-01 -6.57692E-01 -6.99567E-01 -7.34413E-01 -7.63021E-01
  -7.86065E-01 -8.04104E-01 -8.17617E-01 -8.27049E-01 -8.32814E-01 -8.35277E-01 -8.34728E-01 -8.31399E-01 -8.25498E-01 -8.17240E-01
  -8.06831E-01 -7.94442E-01 -7.80195E-01 -7.64186E-01 -7.46524E-01 -7.27341E-01 -7.06759E-01 -6.84865E-01 -6.61715E-01 -6.37361E-01
  -6.11880E-01 -5.85364E-01 -5.57888E-01 -5.29492E-01 -5.00199E-01 -4.70049E-01 -4.39107E-01 -4.07446E-01 -3.75107E-01 -3.42106E-01
  -3.08453E-01 -2.74187E-01 -2.39367E-01 -2.04044E-01 -1.68236E-01 -1.31943E-01 -9.51800E-02 -5.79919E-02 -2.04327E-02  1.74655E-02
   5.57002E-02  9.42745E-02  1.33168E-01  1.72333E-01  2.11729E-01  2.51343E-01  2.91186E-01  3.31259E-01  3.71534E-01  4.11967E-01
   4.52533E-01  4.93242E-01  5.34110E-01  5.75138E-01  6.16297E-01  6.57560E-01  6.98931E-01  7.40445E-01
 NY background values follow
     2.768E+01    2.746E+01    2.724E+01    2.702E+01    2.680E+01    2.658E+01    2.636E+01    2.614E+01    2.591E+01    2.569E+01
     2.547E+01    2.525E+01    2.503E+01    2.481E+01    2.459E+01    2.437E+01    2.415E+01    2.393E+01    2.371E+01    2.349E+01
     2.327E+01    2.305E+01    2.284E+01    2.262E+01    2.240E+01    2.218E+01    2.196E+01    2.175E+01    2.153E+01    2.132E+01
     2.110E+01    2.089E+01    2.067E+01    2.046E+01    2.025E+01    2.003E+01    1.982E+01    1.961E+01    1.940E+01    1.919E+01
     1.898E+01    1.877E+01    1.856E+01    1.836E+01    1.815E+01    1.795E+01    1.774E+01    1.754E+01    1.733E+01    1.713E+01
     1.693E+01    1.673E+01    1.653E+01    1.633E+01    1.614E+01    1.594E+01    1.574E+01    1.555E+01    1.536E+01    1.516E+01
     1.497E+01    1.478E+01    1.459E+01    1.440E+01    1.422E+01    1.403E+01    1.385E+01    1.366E+01    1.348E+01    1.330E+01
     1.312E+01    1.294E+01    1.276E+01    1.258E+01    1.241E+01    1.223E+01    1.206E+01    1.189E+01    1.172E+01    1.155E+01
     1.138E+01    1.122E+01    1.105E+01    1.089E+01    1.073E+01    1.057E+01    1.041E+01    1.025E+01    1.009E+01    9.940E+00
     9.787E+00    9.635E+00    9.485E+00    9.337E+00    9.190E+00    9.044E+00    8.900E+00    8.757E+00    8.616E+00    8.477E+00
     8.339E+00    8.202E+00    8.067E+00    7.933E+00    7.801E+00    7.671E+00    7.541E+00    7.414E+00    7.287E+00    7.162E+00
     7.039E+00    6.917E+00    6.796E+00    6.677E+00    6.560E+00    6.444E+00    6.329E+00    6.216E+00    6.104E+00    5.993E+00
     5.884E+00    5.776E+00    5.670E+00    5.565E+00    5.462E+00    5.360E+00    5.259E+00    5.160E+00    5.062E+00    4.965E+00
     4.870E+00    4.777E+00    4.684E+00    4.593E+00    4.504E+00    4.415E+00    4.328E+00    4.243E+00    4.159E+00    4.076E+00
     3.994E+00    3.914E+00    3.836E+00    3.758E+00    3.683E+00    3.608E+00    3.536E+00    3.464E+00    3.394E+00    3.326E+00
     3.259E+00    3.194E+00    3.130E+00    3.068E+00    3.007E+00    2.948E+00    2.890E+00    2.834E+00    2.780E+00    2.727E+00
     2.676E+00    2.627E+00    2.579E+00    2.533E+00    2.488E+00    2.445E+00    2.404E+00    2.365E+00    2.327E+00    2.291E+00
     2.257E+00    2.224E+00    2.193E+00    2.164E+00    2.137E+00    2.112E+00    2.088E+00    2.066E+00    2.046E+00    2.028E+00
     2.012E+00    1.998E+00    1.985E+00    1.974E+00    1.965E+00    1.958E+00    1.952E+00    1.948E+00    1.946E+00    1.945E+00
     1.945E+00    1.947E+00    1.950E+00    1.955E+00    1.961E+00    1.968E+00    1.976E+00    1.985E+00    1.995E+00    2.006E+00
     2.018E+00    2.031E+00    2.045E+00    2.060E+00    2.075E+00    2.091E+00    2.107E+00    2.125E+00    2.142E+00    2.160E+00
     2.179E+00    2.198E+00    2.217E+00    2.237E+00    2.256E+00    2.276E+00    2.296E+00    2.316E+00    2.336E+00    2.356E+00
     2.376E+00    2.396E+00    2.416E+00    2.435E+00    2.454E+00    2.473E+00    2.491E+00    2.509E+00    2.526E+00    2.543E+00
     2.559E+00    2.575E+00    2.590E+00    2.605E+00    2.620E+00    2.634E+00    2.647E+00    2.660E+00    2.672E+00    2.684E+00
     2.695E+00    2.706E+00    2.716E+00    2.725E+00    2.734E+00    2.743E+00    2.750E+00    2.757E+00    2.764E+00    2.770E+00
     2.775E+00    2.780E+00    2.784E+00    2.787E+00    2.790E+00    2.792E+00    2.793E+00    2.794E+00    2.794E+00    2.793E+00
     2.792E+00    2.790E+00    2.787E+00    2.784E+00    2.780E+00    2.775E+00    2.769E+00    2.762E+00    2.755E+00    2.747E+00
     2.738E+00    2.729E+00    2.719E+00    2.707E+00    2.696E+00    2.683E+00    2.669E+00    2.655E+00    2.640E+00    2.625E+00
     2.608E+00    2.591E+00    2.573E+00    2.555E+00    2.536E+00    2.516E+00    2.495E+00    2.474E+00    2.452E+00    2.429E+00
     2.406E+00    2.382E+00    2.357E+00    2.332E+00    2.306E+00    2.279E+00    2.252E+00    2.224E+00    2.196E+00    2.167E+00
     2.137E+00    2.107E+00    2.076E+00    2.045E+00    2.013E+00    1.980E+00    1.947E+00    1.913E+00    1.879E+00    1.845E+00
     1.809E+00    1.774E+00    1.737E+00    1.700E+00    1.663E+00    1.625E+00    1.587E+00    1.548E+00    1.509E+00    1.469E+00
     1.429E+00    1.389E+00    1.348E+00    1.307E+00    1.265E+00    1.223E+00    1.181E+00    1.138E+00    1.095E+00    1.052E+00
     1.009E+00    9.653E-01    9.215E-01    8.775E-01    8.333E-01    7.890E-01    7.446E-01    7.000E-01    6.553E-01    6.106E-01
     5.658E-01    5.210E-01    4.761E-01    4.313E-01    3.864E-01    3.416E-01    2.969E-01    2.522E-01    2.076E-01    1.631E-01
     1.187E-01    7.449E-02    3.043E-02   -1.345E-02   -5.712E-02   -1.006E-01   -1.438E-01   -1.868E-01   -2.295E-01   -2.719E-01
    -3.139E-01   -3.557E-01   -3.971E-01   -4.382E-01   -4.788E-01   -5.191E-01   -5.589E-01   -5.983E-01   -6.373E-01   -6.757E-01
    -7.137E-01   -7.512E-01   -7.882E-01   -8.246E-01   -8.604E-01   -8.957E-01   -9.304E-01   -9.644E-01   -9.979E-01   -1.031E+00
    -1.063E+00   -1.094E+00   -1.125E+00   -1.155E+00   -1.184E+00   -1.213E+00   -1.240E+00   -1.267E+00   -1.294E+00   -1.319E+00
    -1.343E+00   -1.367E+00   -1.390E+00   -1.412E+00   -1.432E+00   -1.452E+00   -1.472E+00   -1.490E+00   -1.507E+00   -1.523E+00
    -1.538E+00   -1.552E+00   -1.565E+00   -1.577E+00   -1.588E+00   -1.597E+00   -1.606E+00   -1.613E+00   -1.620E+00   -1.625E+00
    -1.629E+00   -1.632E+00   -1.634E+00   -1.634E+00   -1.634E+00   -1.633E+00   -1.630E+00   -1.627E+00   -1.622E+00   -1.617E+00
    -1.610E+00   -1.603E+00   -1.594E+00   -1.585E+00   -1.574E+00   -1.563E+00   -1.551E+00   -1.537E+00   -1.523E+00   -1.508E+00
    -1.492E+00   -1.476E+00   -1.458E+00   -1.440E+00   -1.420E+00   -1.400E+00   -1.379E+00   -1.358E+00   -1.335E+00   -1.312E+00
    -1.288E+00   -1.263E+00   -1.238E+00   -1.212E+00   -1.185E+00   -1.157E+00   -1.129E+00   -1.100E+00   -1.071E+00   -1.041E+00
    -1.010E+00   -9.784E-01   -9.463E-01   -9.137E-01   -8.805E-01   -8.467E-01   -8.124E-01   -7.776E-01   -7.422E-01   -7.064E-01
    -6.701E-01   -6.334E-01   -5.962E-01   -5.586E-01   -5.206E-01   -4.822E-01   -4.434E-01   -4.043E-01   -3.648E-01   -3.250E-01
    -2.850E-01   -2.446E-01   -2.040E-01   -1.631E-01   -1.220E-01   -8.072E-02   -3.921E-02    2.485E-03    4.434E-02    8.634E-02
     1.285E-01    1.707E-01    2.130E-01    2.554E-01    2.979E-01    3.404E-01    3.830E-01    4.255E-01    4.680E-01    5.106E-01
     5.530E-01    5.954E-01    6.378E-01    6.800E-01    7.221E-01    7.641E-01    8.060E-01    8.476E-01
 Cr       Conc. = 4.94E+02
