 LCModel (Version 6.3-1L) Copyright: S.W. Provencher.          Ref.: Magn. Reson. Med. 30:672-679 (1993).                
 Slice#3 Row#4 Col#10  PD_24_press_1_raw_act
 36 lines in following concentration table = NCONC+1
    Conc.  %SD /Cr+PCr  Metabolite                                         
    0.000 999%   0.000 Ala                                                 
    0.000 999%   0.000 Asp                                                 
 1.08E+03  23%   0.713 Cr                                                  
  433.285  58%   0.287 PCr                                                 
    0.000 999%   0.000 GABA                                                
    0.000 999%   0.000 Glc                                                 
  140.056 151% 9.3E-02 Gln                                                 
 1.13E+03  21%   0.745 Glu                                                 
  517.266   4%   0.342 GPC                                                 
    0.000 999%   0.000 PCh                                                 
  435.765  16%   0.288 GSH                                                 
 1.10E+03  24%   0.729 Ins                                                 
    0.000 999%   0.000 Lac                                                 
 1.52E+03   7%   1.003 NAA                                                 
  311.994  39%   0.206 NAAG                                                
   31.520  81% 2.1E-02 Scyllo                                              
    0.000 999%   0.000 Tau                                                 
  742.703  19%   0.491 -CrCH2                                              
  517.266   4%   0.342 GPC+PCh                                             
 1.83E+03   5%   1.210 NAA+NAAG                                            
 1.51E+03   4%   1.000 Cr+PCr                                              
 1.27E+03  26%   0.837 Glu+Gln                                             
    0.000 999%   0.000 Lip13a                                              
  824.188  19%   0.545 Lip13b                                              
  978.026  34%   0.647 Lip09                                               
 3.83E+03  13%   2.535 MM09                                                
   37.346 737% 2.5E-02 Lip20                                               
 4.72E+03  11%   3.121 MM20                                                
 2.81E+03  16%   1.856 MM12                                                
    0.000 999%   0.000 MM14                                                
 1.09E+03  27%   0.723 MM17                                                
  824.188  19%   0.545 Lip13a+Lip13b                                       
 3.63E+03  11%   2.402 MM14+Lip13a+Lip13b+MM12                             
 4.81E+03   9%   3.182 MM09+Lip09                                          
 4.75E+03  10%   3.145 MM20+Lip20                                          
   6 lines in following misc. output table
  FWHM = 0.054 ppm    S/N =  11                                            
  Data shift = 0.008 ppm                                                   
  Ph:  48 deg      16.8 deg/ppm                                            
  alphaB,S = 4.4E-01,   9.3E+01                                            
   14 spline knots.   Ns = 7(1)                                            
  (11) 2 infls.   ( 5) 1 extrs.                                            
  498 points on ppm-axis = NY
      4.000000     3.992357     3.984714     3.977070     3.969427     3.961784     3.954141     3.946497     3.938854     3.931211
      3.923568     3.915925     3.908281     3.900638     3.892995     3.885352     3.877708     3.870065     3.862422     3.854779
      3.847136     3.839492     3.831849     3.824206     3.816563     3.808919     3.801276     3.793633     3.785990     3.778347
      3.770703     3.763060     3.755417     3.747774     3.740130     3.732487     3.724844     3.717201     3.709558     3.701914
      3.694271     3.686628     3.678985     3.671341     3.663698     3.656055     3.648412     3.640769     3.633125     3.625482
      3.617839     3.610196     3.602552     3.594909     3.587266     3.579623     3.571980     3.564336     3.556693     3.549050
      3.541407     3.533763     3.526120     3.518477     3.510834     3.503191     3.495547     3.487904     3.480261     3.472618
      3.464974     3.457331     3.449688     3.442045     3.434402     3.426758     3.419115     3.411472     3.403829     3.396185
      3.388542     3.380899     3.373256     3.365613     3.357969     3.350326     3.342683     3.335040     3.327396     3.319753
      3.312110     3.304467     3.296824     3.289180     3.281537     3.273894     3.266251     3.258607     3.250964     3.243321
      3.235678     3.228034     3.220391     3.212748     3.205105     3.197462     3.189818     3.182175     3.174532     3.166889
      3.159245     3.151602     3.143959     3.136316     3.128673     3.121029     3.113386     3.105743     3.098100     3.090456
      3.082813     3.075170     3.067527     3.059884     3.052240     3.044597     3.036954     3.029311     3.021667     3.014024
      3.006381     2.998738     2.991095     2.983451     2.975808     2.968165     2.960522     2.952878     2.945235     2.937592
      2.929949     2.922306     2.914662     2.907019     2.899376     2.891733     2.884089     2.876446     2.868803     2.861160
      2.853517     2.845873     2.838230     2.830587     2.822944     2.815300     2.807657     2.800014     2.792371     2.784728
      2.777084     2.769441     2.761798     2.754155     2.746511     2.738868     2.731225     2.723582     2.715939     2.708295
      2.700652     2.693009     2.685366     2.677722     2.670079     2.662436     2.654793     2.647150     2.639506     2.631863
      2.624220     2.616577     2.608933     2.601290     2.593647     2.586004     2.578361     2.570717     2.563074     2.555431
      2.547788     2.540144     2.532501     2.524858     2.517215     2.509572     2.501928     2.494285     2.486642     2.478999
      2.471355     2.463712     2.456069     2.448426     2.440783     2.433139     2.425496     2.417853     2.410210     2.402566
      2.394923     2.387280     2.379637     2.371994     2.364350     2.356707     2.349064     2.341421     2.333777     2.326134
      2.318491     2.310848     2.303205     2.295561     2.287918     2.280275     2.272632     2.264988     2.257345     2.249702
      2.242059     2.234416     2.226772     2.219129     2.211486     2.203843     2.196199     2.188556     2.180913     2.173270
      2.165627     2.157983     2.150340     2.142697     2.135054     2.127410     2.119767     2.112124     2.104481     2.096838
      2.089194     2.081551     2.073908     2.066265     2.058621     2.050978     2.043335     2.035692     2.028049     2.020405
      2.012762     2.005119     1.997476     1.989833     1.982190     1.974546     1.966903     1.959260     1.951617     1.943974
      1.936331     1.928688     1.921045     1.913402     1.905759     1.898115     1.890472     1.882829     1.875186     1.867543
      1.859900     1.852257     1.844614     1.836971     1.829327     1.821684     1.814041     1.806398     1.798755     1.791112
      1.783469     1.775826     1.768183     1.760540     1.752896     1.745253     1.737610     1.729967     1.722324     1.714681
      1.707038     1.699395     1.691752     1.684108     1.676465     1.668822     1.661179     1.653536     1.645893     1.638250
      1.630607     1.622964     1.615321     1.607677     1.600034     1.592391     1.584748     1.577105     1.569462     1.561819
      1.554176     1.546533     1.538890     1.531246     1.523603     1.515960     1.508317     1.500674     1.493031     1.485388
      1.477745     1.470102     1.462458     1.454815     1.447172     1.439529     1.431886     1.424243     1.416600     1.408957
      1.401314     1.393671     1.386027     1.378384     1.370741     1.363098     1.355455     1.347812     1.340169     1.332526
      1.324883     1.317240     1.309596     1.301953     1.294310     1.286667     1.279024     1.271381     1.263738     1.256095
      1.248452     1.240808     1.233165     1.225522     1.217879     1.210236     1.202593     1.194950     1.187307     1.179664
      1.172021     1.164377     1.156734     1.149091     1.141448     1.133805     1.126162     1.118519     1.110876     1.103233
      1.095590     1.087946     1.080303     1.072660     1.065017     1.057374     1.049731     1.042088     1.034445     1.026802
      1.019158     1.011515     1.003872     0.996229     0.988586     0.980943     0.973300     0.965657     0.958014     0.950371
      0.942727     0.935084     0.927441     0.919798     0.912155     0.904512     0.896869     0.889226     0.881583     0.873940
      0.866296     0.858653     0.851010     0.843367     0.835724     0.828081     0.820438     0.812795     0.805152     0.797508
      0.789865     0.782222     0.774579     0.766936     0.759293     0.751650     0.744007     0.736364     0.728721     0.721077
      0.713434     0.705791     0.698148     0.690505     0.682862     0.675219     0.667576     0.659933     0.652290     0.644646
      0.637003     0.629360     0.621717     0.614074     0.606431     0.598788     0.591145     0.583502     0.575858     0.568215
      0.560572     0.552929     0.545286     0.537643     0.530000     0.522357     0.514714     0.507071     0.499427     0.491784
      0.484141     0.476498     0.468855     0.461212     0.453569     0.445925     0.438282     0.430639     0.422996     0.415353
      0.407710     0.400067     0.392424     0.384780     0.377137     0.369494     0.361851     0.354208     0.346565     0.338922
      0.331278     0.323635     0.315992     0.308349     0.300706     0.293063     0.285420     0.277777     0.270133     0.262490
      0.254847     0.247204     0.239561     0.231918     0.224275     0.216631     0.208988     0.201345
 NY phased data points follow
  -8.02893E-01  2.48291E+00  2.86715E+00  2.75830E+00  2.83217E+00  9.61574E+00  1.33838E+01  2.19393E+01  2.29612E+01  3.05180E+01
   3.07671E+01  3.69361E+01  3.37657E+01  3.36752E+01  3.28939E+01  2.48132E+01  1.87102E+01  2.01063E+01  1.82875E+01  1.44181E+01
   1.18888E+01  1.44309E+01  1.13283E+01  1.21048E+01  1.38317E+01  1.38775E+01  1.40100E+01  1.33443E+01  1.57144E+01  2.36486E+01
   2.09226E+01  2.10217E+01  1.84695E+01  1.67191E+01  1.63878E+01  1.52296E+01  1.28393E+01  1.79664E+01  1.90005E+01  1.66457E+01
   1.10405E+01  1.62220E+01  1.58979E+01  1.78472E+01  2.02145E+01  2.04579E+01  1.97258E+01  2.17363E+01  2.30199E+01  2.28084E+01
   1.79768E+01  1.47543E+01  1.39387E+01  1.72589E+01  9.96150E+00  1.42787E+01  1.65409E+01  1.32803E+01  1.35739E+01  1.52614E+01
   1.27729E+01  7.74498E+00  6.69698E+00  5.54447E+00  3.82265E+00  1.57974E+00  6.45672E-01  5.41877E+00  3.38499E+00  3.24334E+00
   2.46653E+00  6.57579E+00  4.66294E+00  5.55152E+00 -6.21806E-02  4.17899E+00  5.31379E+00  9.89199E-01  1.65307E+00  5.21520E+00
   2.88714E+00  4.61404E+00  3.87902E+00  1.72154E+00  3.79280E+00  5.87966E+00  8.82033E+00  1.04210E+01  6.42667E+00  7.19183E+00
   7.28334E+00  7.03034E+00  7.76800E+00  6.79570E+00  7.33178E+00  9.83943E+00  9.53082E+00  1.27007E+01  1.36634E+01  2.32776E+01
   3.47775E+01  4.77484E+01  5.16957E+01  5.20425E+01  4.96827E+01  4.28293E+01  3.50130E+01  2.77603E+01  2.08731E+01  1.98352E+01
   1.27307E+01  1.01001E+01  1.12073E+01  8.52874E+00  6.99673E+00  1.00424E+01  7.16944E+00  7.00101E+00  8.05560E+00  1.14187E+01
   1.21054E+01  1.69036E+01  2.27380E+01  2.87086E+01  3.77759E+01  4.95843E+01  5.46545E+01  5.52768E+01  4.94576E+01  4.66362E+01
   3.92829E+01  2.87748E+01  1.87081E+01  1.60322E+01  1.08961E+01  1.11654E+01  5.45082E+00  8.96011E+00  4.82423E+00  7.52227E+00
   7.03200E+00  7.42213E+00  4.56358E+00  4.25790E+00  4.90575E+00  7.56291E+00  5.14572E+00  3.96833E+00  2.26119E+00  2.42970E+00
   2.85162E+00  1.25840E-01  6.44051E-01  9.50095E-01 -1.46050E+00  2.21235E+00  2.52004E+00  3.41900E+00  3.42001E+00  2.69426E+00
  -9.73071E-01 -1.76285E+00 -3.49530E+00 -3.27440E+00 -1.65293E+00  2.77078E-01 -3.57745E+00 -4.19621E+00 -7.37456E-01 -4.20584E+00
  -6.10466E+00 -2.59989E+00 -6.15712E+00 -3.15554E+00 -9.50858E+00 -5.05265E+00 -7.07714E+00 -5.52177E+00 -7.13835E+00 -3.63138E+00
  -4.35644E+00 -4.46557E+00 -8.25429E+00 -5.82426E+00 -5.58029E+00 -5.48220E+00 -4.24141E+00 -1.24123E+00  4.11680E-01  2.17609E+00
   3.47830E+00  4.01765E+00  2.18823E+00  1.38339E+00  4.85809E+00 -3.86952E-02  1.97305E+00  8.04998E-01 -4.13618E+00 -2.01672E+00
  -1.12437E+00  2.79542E-02  7.93884E-01 -1.34724E+00 -2.13809E+00 -1.32227E+00  1.30189E+00 -1.85611E+00 -3.91403E+00 -6.42684E+00
  -4.47656E+00 -1.38128E+00 -1.90667E+00  1.04179E+00  2.25348E-01  3.49908E+00  5.12447E+00 -2.99350E+00 -3.37689E-01 -4.42043E+00
  -7.80361E+00 -5.71676E+00 -5.52878E+00 -3.79087E+00 -4.08433E+00 -3.22054E+00  2.44509E+00  2.93152E+00  2.22709E+00  5.34072E+00
   4.77176E+00  1.27454E+00 -7.99691E-02  3.10447E+00  6.75376E+00  6.24271E+00  2.35965E+00  6.87857E+00  2.34746E+00  3.26380E+00
   2.49762E+00  1.23075E+00  2.79055E+00  3.10232E+00  2.59781E-01  7.30966E+00  3.64834E+00  7.00189E+00  7.74299E+00  1.06149E+01
   1.26513E+01  1.82464E+01  1.89074E+01  1.97791E+01  1.91418E+01  2.94371E+01  4.12888E+01  5.19622E+01  6.09622E+01  6.19878E+01
   5.49621E+01  4.67366E+01  3.23486E+01  2.47168E+01  1.49785E+01  1.35419E+01  1.96610E+00 -5.60587E-01 -6.32279E+00 -7.61476E+00
  -4.86650E+00 -6.73405E+00 -9.78704E+00 -8.12627E+00 -1.28979E+01 -9.65950E+00 -5.75457E+00 -8.60053E+00 -9.38611E+00 -8.91719E+00
  -8.86295E+00 -1.06447E+01 -1.00031E+01 -1.37880E+01 -1.32055E+01 -1.11531E+01 -1.15501E+01 -1.25062E+01 -8.42551E+00 -1.13588E+01
  -1.41107E+01 -1.47775E+01 -1.36550E+01 -1.43323E+01 -1.26008E+01 -1.24773E+01 -1.51440E+01 -1.13534E+01 -1.24830E+01 -1.39968E+01
  -1.33573E+01 -9.24594E+00 -1.15905E+01 -6.26499E+00 -9.46253E+00 -6.91372E+00 -9.39275E+00 -7.92693E+00 -7.49312E+00 -1.04677E+01
  -6.10236E+00 -6.24292E+00 -8.29158E+00 -8.42396E+00 -8.73153E+00 -1.11400E+01 -8.13006E+00 -9.96346E+00 -1.06807E+01 -1.27242E+01
  -9.14383E+00 -1.22736E+01 -7.25000E+00 -7.79938E+00 -1.41420E+01 -8.24425E+00 -1.06360E+01 -1.41826E+01 -1.05659E+01 -1.26111E+01
  -1.17756E+01 -1.31915E+01 -1.47374E+01 -1.37905E+01 -1.98862E+01 -1.71456E+01 -1.64902E+01 -1.82855E+01 -1.79138E+01 -1.99997E+01
  -1.98722E+01 -1.99328E+01 -1.68752E+01 -1.58591E+01 -1.79798E+01 -1.30155E+01 -9.41935E+00 -6.36239E+00 -5.41110E+00 -2.31295E-01
   1.95121E+00  5.91747E+00  5.65906E+00  5.48430E+00  6.52926E+00  5.37314E+00  3.09492E+00  7.26058E+00  6.54815E+00  1.05362E+01
   1.25808E+01  1.13260E+01  1.43069E+01  1.60852E+01  1.16902E+01  1.06333E+01  9.67212E+00  1.31854E+01  1.43820E+01  8.88589E+00
   1.25437E+01  1.02686E+01  1.13632E+01  1.11996E+01  9.99307E+00  9.14976E+00  1.18608E+01  6.81935E+00  1.24125E+01  1.18349E+01
   1.54355E+01  1.33035E+01  1.08314E+01  1.17635E+01  1.46302E+01  1.70927E+01  1.56640E+01  1.55538E+01  1.21182E+01  1.67356E+01
   1.87678E+01  1.90720E+01  1.37680E+01  1.85790E+01  1.36938E+01  2.16334E+01  1.54216E+01  1.47250E+01  1.90699E+01  1.92843E+01
   1.68691E+01  1.48290E+01  1.69764E+01  2.06397E+01  1.68180E+01  1.59969E+01  1.79213E+01  1.85989E+01  1.79998E+01  1.24759E+01
   1.05958E+01  1.60518E+01  1.54116E+01  1.57938E+01  1.19787E+01  1.25774E+01  8.94269E+00  1.12053E+01  1.17671E+01  1.02898E+01
   8.77760E+00  8.53877E+00  8.08363E+00  5.52684E+00  8.70570E+00  9.47073E+00  9.46891E+00  4.37225E+00  5.84084E+00  2.39448E+00
   8.73776E+00  7.36472E+00  5.28897E+00  7.50508E+00  5.38589E+00  4.50276E+00  7.39239E+00  4.91825E+00  5.96413E+00  5.00674E+00
   5.73076E+00  2.12642E+00  3.82184E+00  7.19481E+00  5.50270E+00  8.88433E+00  6.40661E+00  4.89288E+00  7.97876E+00  8.70334E+00
   7.05668E+00  4.56245E+00  4.29194E+00  6.73854E+00  7.11474E+00  4.39826E+00  4.36800E+00  2.31449E+00  2.79546E+00  4.37179E+00
   5.62108E+00  7.17449E+00  5.11568E+00  6.16690E+00  3.63175E+00  6.18860E+00  5.35315E+00  5.68825E+00  5.51783E+00  7.96164E+00
   6.91258E+00  2.24008E+00  3.95152E+00  6.93215E+00  5.30916E+00  7.41464E+00  2.46626E+00  8.69935E+00  6.88020E+00  8.18095E+00
   3.21725E+00  5.17000E+00  7.54047E+00  2.08538E+00  6.78321E+00  6.46234E+00  6.85201E-01  3.75290E+00  8.54338E+00  5.16231E+00
   3.98135E+00  2.06121E+00  7.36861E+00  5.45449E+00  6.69223E+00  7.81198E+00  4.67138E+00  3.68452E+00
 NY points of the fit to the data follow
   1.05234E+01  9.10368E+00  7.65631E+00  6.25934E+00  5.60145E+00  7.08938E+00  1.10131E+01  1.69214E+01  2.38483E+01  3.02760E+01
   3.46980E+01  3.62690E+01  3.51517E+01  3.23255E+01  2.86911E+01  2.47919E+01  2.11904E+01  1.82151E+01  1.58661E+01  1.41219E+01
   1.29682E+01  1.22516E+01  1.17487E+01  1.15122E+01  1.17739E+01  1.26003E+01  1.42253E+01  1.65222E+01  1.89308E+01  2.07525E+01
   2.16128E+01  2.14155E+01  2.02162E+01  1.83577E+01  1.63181E+01  1.44485E+01  1.29365E+01  1.18568E+01  1.12574E+01  1.11640E+01
   1.16737E+01  1.27039E+01  1.41166E+01  1.57532E+01  1.73527E+01  1.84278E+01  1.85948E+01  1.78453E+01  1.64786E+01  1.48350E+01
   1.31679E+01  1.17337E+01  1.07437E+01  1.01694E+01  9.94276E+00  1.00811E+01  1.05156E+01  1.10014E+01  1.12627E+01  1.11559E+01
   1.07152E+01  1.00390E+01  9.29099E+00  8.64035E+00  8.22542E+00  8.09192E+00  8.18158E+00  8.42523E+00  8.74995E+00  9.05604E+00
   9.24554E+00  9.26899E+00  9.13822E+00  8.89707E+00  8.60042E+00  8.29712E+00  8.03234E+00  7.81318E+00  7.63503E+00  7.51056E+00
   7.43874E+00  7.36189E+00  7.23508E+00  7.00632E+00  6.63342E+00  6.14599E+00  5.66195E+00  5.31674E+00  5.19043E+00  5.31588E+00
   5.64759E+00  6.08516E+00  6.51344E+00  6.84947E+00  7.09945E+00  7.40707E+00  8.44547E+00  1.17276E+01  1.73800E+01  2.55038E+01
   3.55406E+01  4.52248E+01  5.17192E+01  5.34226E+01  5.05334E+01  4.43624E+01  3.64597E+01  2.83763E+01  2.14287E+01  1.59814E+01
   1.16774E+01  8.58988E+00  6.86682E+00  6.31768E+00  6.29725E+00  6.41278E+00  6.59258E+00  6.84591E+00  7.24972E+00  8.07297E+00
   1.02253E+01  1.47327E+01  2.15478E+01  3.05823E+01  4.07140E+01  4.94808E+01  5.44895E+01  5.48226E+01  5.10683E+01  4.45615E+01
   3.67640E+01  2.89948E+01  2.21215E+01  1.62593E+01  1.13130E+01  7.67505E+00  5.60024E+00  4.86044E+00  4.86161E+00  5.17341E+00
   5.51732E+00  5.72669E+00  5.75127E+00  5.59498E+00  5.28666E+00  4.87474E+00  4.41308E+00  3.93197E+00  3.43911E+00  2.95772E+00
   2.51324E+00  2.13153E+00  1.83576E+00  1.60891E+00  1.39603E+00  1.16653E+00  8.62598E-01  4.91095E-01  1.44238E-01 -1.18261E-01
  -2.37655E-01 -2.54514E-01 -2.91026E-01 -4.55392E-01 -7.68099E-01 -1.19225E+00 -1.64693E+00 -2.05478E+00 -2.40761E+00 -2.76289E+00
  -3.14041E+00 -3.54018E+00 -3.92424E+00 -4.21202E+00 -4.37315E+00 -4.41730E+00 -4.42735E+00 -4.46564E+00 -4.53741E+00 -4.63356E+00
  -4.75115E+00 -4.83537E+00 -4.87368E+00 -4.82134E+00 -4.56616E+00 -4.00650E+00 -3.12391E+00 -2.02340E+00 -8.91661E-01  6.35089E-02
   6.45156E-01  7.14265E-01  3.45956E-01 -3.20938E-01 -1.19284E+00 -2.07289E+00 -2.67570E+00 -2.82309E+00 -2.53320E+00 -1.89445E+00
  -1.07236E+00 -2.97938E-01  1.96786E-01  2.17318E-01 -2.13521E-01 -1.03933E+00 -2.18265E+00 -3.37633E+00 -4.31612E+00 -4.65542E+00
  -4.25572E+00 -3.15055E+00 -1.52739E+00  1.50383E-01  1.30320E+00  1.48617E+00  5.89809E-01 -1.17103E+00 -3.39164E+00 -5.57550E+00
  -7.11618E+00 -7.62031E+00 -7.09043E+00 -5.75199E+00 -3.97086E+00 -2.16556E+00 -6.97752E-01  2.29428E-01  6.63202E-01  8.07816E-01
   9.01143E-01  1.14087E+00  1.63529E+00  2.35388E+00  3.16589E+00  3.83204E+00  4.08281E+00  3.87443E+00  3.35050E+00  2.77624E+00
   2.40572E+00  2.46966E+00  3.07379E+00  4.10264E+00  5.29191E+00  6.38491E+00  7.22983E+00  7.77486E+00  8.19066E+00  8.90542E+00
   1.00566E+01  1.17822E+01  1.44012E+01  1.90969E+01  2.55145E+01  3.34208E+01  4.27108E+01  5.15947E+01  5.73150E+01  5.81165E+01
   5.41554E+01  4.66922E+01  3.72030E+01  2.73218E+01  1.86119E+01  1.16252E+01  5.85189E+00  1.27803E+00 -1.82750E+00 -3.52875E+00
  -4.48287E+00 -5.19630E+00 -5.79759E+00 -6.36257E+00 -6.93520E+00 -7.52523E+00 -8.11945E+00 -8.70487E+00 -9.26036E+00 -9.76690E+00
  -1.02211E+01 -1.06305E+01 -1.10004E+01 -1.13360E+01 -1.16458E+01 -1.19348E+01 -1.21992E+01 -1.24265E+01 -1.26051E+01 -1.27315E+01
  -1.28055E+01 -1.28298E+01 -1.28094E+01 -1.27482E+01 -1.26489E+01 -1.25109E+01 -1.23287E+01 -1.20972E+01 -1.18145E+01 -1.14831E+01
  -1.11081E+01 -1.06989E+01 -1.02685E+01 -9.83219E+00 -9.40446E+00 -8.99973E+00 -8.63241E+00 -8.31672E+00 -8.06440E+00 -7.88520E+00
  -7.78611E+00 -7.77189E+00 -7.84339E+00 -7.99864E+00 -8.23189E+00 -8.53499E+00 -8.89691E+00 -9.30543E+00 -9.74681E+00 -1.02075E+01
  -1.06739E+01 -1.11339E+01 -1.15763E+01 -1.19923E+01 -1.23746E+01 -1.27184E+01 -1.30200E+01 -1.32783E+01 -1.34930E+01 -1.36656E+01
  -1.37976E+01 -1.38919E+01 -1.39506E+01 -1.39767E+01 -1.39720E+01 -1.39381E+01 -1.38750E+01 -1.37809E+01 -1.36513E+01 -1.34779E+01
  -1.32468E+01 -1.29378E+01 -1.25223E+01 -1.19646E+01 -1.12226E+01 -1.02531E+01 -9.01804E+00 -7.49493E+00 -5.68574E+00 -3.62642E+00
  -1.38945E+00  9.18747E-01  3.17037E+00  5.23364E+00  6.99521E+00  8.37887E+00  9.35917E+00  9.96293E+00  1.02617E+01  1.03537E+01
   1.03442E+01  1.03246E+01  1.03598E+01  1.04813E+01  1.06894E+01  1.09599E+01  1.12552E+01  1.15335E+01  1.17583E+01  1.19029E+01
   1.19538E+01  1.19100E+01  1.17821E+01  1.15888E+01  1.13556E+01  1.11102E+01  1.08817E+01  1.06970E+01  1.05801E+01  1.05504E+01
   1.06220E+01  1.08031E+01  1.10962E+01  1.14976E+01  1.19990E+01  1.25870E+01  1.32448E+01  1.39525E+01  1.46889E+01  1.54313E+01
   1.61579E+01  1.68474E+01  1.74808E+01  1.80413E+01  1.85156E+01  1.88933E+01  1.91682E+01  1.93369E+01  1.94001E+01  1.93612E+01
   1.92263E+01  1.90033E+01  1.87021E+01  1.83329E+01  1.79066E+01  1.74337E+01  1.69241E+01  1.63867E+01  1.58295E+01  1.52589E+01
   1.46807E+01  1.40990E+01  1.35173E+01  1.29382E+01  1.23642E+01  1.17968E+01  1.12381E+01  1.06895E+01  1.01530E+01  9.63019E+00
   9.12337E+00  8.63436E+00  8.16536E+00  7.71811E+00  7.29458E+00  6.89612E+00  6.52416E+00  6.17938E+00  5.86246E+00  5.57334E+00
   5.31195E+00  5.07758E+00  4.86953E+00  4.68654E+00  4.52746E+00  4.39069E+00  4.27490E+00  4.17839E+00  4.09976E+00  4.03731E+00
   3.98972E+00  3.95543E+00  3.93329E+00  3.92193E+00  3.92036E+00  3.92737E+00  3.94217E+00  3.96373E+00  3.99146E+00  4.02447E+00
   4.06228E+00  4.10414E+00  4.14969E+00  4.19832E+00  4.24986E+00  4.30380E+00  4.36004E+00  4.41815E+00  4.47808E+00  4.53948E+00
   4.60235E+00  4.66636E+00  4.73153E+00  4.79758E+00  4.86457E+00  4.93226E+00  5.00072E+00  5.06970E+00  5.13931E+00  5.20932E+00
   5.27987E+00  5.35076E+00  5.42210E+00  5.49371E+00  5.56571E+00  5.63794E+00  5.71054E+00  5.78335E+00  5.85650E+00  5.92984E+00
   6.00351E+00  6.07737E+00  6.15160E+00  6.22603E+00  6.30081E+00  6.37580E+00  6.45118E+00  6.52681E+00  6.60286E+00  6.67919E+00
   6.75595E+00  6.83302E+00  6.91057E+00  6.98849E+00  7.06693E+00  7.14576E+00  7.22514E+00  7.30496E+00
 NY background values follow
     7.629E+00    7.614E+00    7.599E+00    7.583E+00    7.567E+00    7.551E+00    7.534E+00    7.517E+00    7.499E+00    7.481E+00
     7.463E+00    7.444E+00    7.424E+00    7.404E+00    7.383E+00    7.362E+00    7.341E+00    7.319E+00    7.296E+00    7.272E+00
     7.248E+00    7.224E+00    7.198E+00    7.172E+00    7.145E+00    7.118E+00    7.090E+00    7.061E+00    7.031E+00    7.001E+00
     6.970E+00    6.938E+00    6.905E+00    6.871E+00    6.837E+00    6.802E+00    6.765E+00    6.728E+00    6.690E+00    6.651E+00
     6.611E+00    6.570E+00    6.528E+00    6.486E+00    6.442E+00    6.397E+00    6.351E+00    6.304E+00    6.256E+00    6.207E+00
     6.158E+00    6.107E+00    6.056E+00    6.003E+00    5.950E+00    5.897E+00    5.842E+00    5.788E+00    5.732E+00    5.676E+00
     5.619E+00    5.562E+00    5.505E+00    5.447E+00    5.388E+00    5.330E+00    5.271E+00    5.212E+00    5.152E+00    5.093E+00
     5.033E+00    4.973E+00    4.914E+00    4.854E+00    4.794E+00    4.734E+00    4.674E+00    4.615E+00    4.555E+00    4.496E+00
     4.437E+00    4.379E+00    4.321E+00    4.263E+00    4.205E+00    4.148E+00    4.091E+00    4.035E+00    3.980E+00    3.925E+00
     3.870E+00    3.817E+00    3.764E+00    3.711E+00    3.660E+00    3.608E+00    3.558E+00    3.507E+00    3.458E+00    3.408E+00
     3.359E+00    3.310E+00    3.262E+00    3.213E+00    3.165E+00    3.117E+00    3.069E+00    3.021E+00    2.973E+00    2.926E+00
     2.878E+00    2.830E+00    2.782E+00    2.733E+00    2.685E+00    2.636E+00    2.587E+00    2.538E+00    2.488E+00    2.438E+00
     2.387E+00    2.336E+00    2.284E+00    2.232E+00    2.179E+00    2.126E+00    2.072E+00    2.017E+00    1.961E+00    1.905E+00
     1.847E+00    1.789E+00    1.730E+00    1.670E+00    1.609E+00    1.546E+00    1.483E+00    1.419E+00    1.353E+00    1.287E+00
     1.219E+00    1.150E+00    1.081E+00    1.010E+00    9.376E-01    8.646E-01    7.905E-01    7.153E-01    6.391E-01    5.618E-01
     4.835E-01    4.041E-01    3.237E-01    2.423E-01    1.599E-01    7.639E-02   -8.098E-03   -9.360E-02   -1.801E-01   -2.676E-01
    -3.561E-01   -4.456E-01   -5.361E-01   -6.275E-01   -7.200E-01   -8.134E-01   -9.078E-01   -1.003E+00   -1.099E+00   -1.197E+00
    -1.295E+00   -1.394E+00   -1.494E+00   -1.595E+00   -1.697E+00   -1.800E+00   -1.904E+00   -2.008E+00   -2.114E+00   -2.220E+00
    -2.328E+00   -2.436E+00   -2.545E+00   -2.655E+00   -2.766E+00   -2.878E+00   -2.991E+00   -3.105E+00   -3.219E+00   -3.335E+00
    -3.451E+00   -3.568E+00   -3.686E+00   -3.805E+00   -3.925E+00   -4.046E+00   -4.168E+00   -4.290E+00   -4.414E+00   -4.538E+00
    -4.663E+00   -4.790E+00   -4.917E+00   -5.045E+00   -5.173E+00   -5.303E+00   -5.434E+00   -5.565E+00   -5.698E+00   -5.831E+00
    -5.965E+00   -6.100E+00   -6.236E+00   -6.373E+00   -6.511E+00   -6.650E+00   -6.789E+00   -6.930E+00   -7.071E+00   -7.214E+00
    -7.357E+00   -7.501E+00   -7.646E+00   -7.792E+00   -7.939E+00   -8.086E+00   -8.235E+00   -8.385E+00   -8.535E+00   -8.686E+00
    -8.838E+00   -8.990E+00   -9.143E+00   -9.296E+00   -9.450E+00   -9.604E+00   -9.758E+00   -9.912E+00   -1.007E+01   -1.022E+01
    -1.038E+01   -1.053E+01   -1.068E+01   -1.084E+01   -1.099E+01   -1.114E+01   -1.130E+01   -1.145E+01   -1.160E+01   -1.175E+01
    -1.190E+01   -1.205E+01   -1.220E+01   -1.234E+01   -1.249E+01   -1.264E+01   -1.278E+01   -1.292E+01   -1.306E+01   -1.320E+01
    -1.334E+01   -1.347E+01   -1.361E+01   -1.374E+01   -1.387E+01   -1.400E+01   -1.413E+01   -1.425E+01   -1.438E+01   -1.450E+01
    -1.462E+01   -1.473E+01   -1.485E+01   -1.496E+01   -1.507E+01   -1.517E+01   -1.528E+01   -1.538E+01   -1.548E+01   -1.557E+01
    -1.567E+01   -1.576E+01   -1.585E+01   -1.593E+01   -1.602E+01   -1.610E+01   -1.618E+01   -1.625E+01   -1.632E+01   -1.639E+01
    -1.646E+01   -1.653E+01   -1.659E+01   -1.665E+01   -1.670E+01   -1.676E+01   -1.681E+01   -1.686E+01   -1.690E+01   -1.694E+01
    -1.698E+01   -1.702E+01   -1.705E+01   -1.708E+01   -1.711E+01   -1.714E+01   -1.716E+01   -1.718E+01   -1.719E+01   -1.720E+01
    -1.721E+01   -1.722E+01   -1.722E+01   -1.722E+01   -1.722E+01   -1.722E+01   -1.721E+01   -1.719E+01   -1.718E+01   -1.716E+01
    -1.714E+01   -1.711E+01   -1.709E+01   -1.705E+01   -1.702E+01   -1.698E+01   -1.694E+01   -1.690E+01   -1.685E+01   -1.681E+01
    -1.675E+01   -1.670E+01   -1.664E+01   -1.658E+01   -1.652E+01   -1.645E+01   -1.638E+01   -1.631E+01   -1.624E+01   -1.616E+01
    -1.608E+01   -1.600E+01   -1.591E+01   -1.582E+01   -1.573E+01   -1.564E+01   -1.554E+01   -1.545E+01   -1.534E+01   -1.524E+01
    -1.513E+01   -1.503E+01   -1.492E+01   -1.480E+01   -1.469E+01   -1.457E+01   -1.445E+01   -1.432E+01   -1.420E+01   -1.407E+01
    -1.394E+01   -1.381E+01   -1.367E+01   -1.354E+01   -1.340E+01   -1.326E+01   -1.311E+01   -1.297E+01   -1.282E+01   -1.267E+01
    -1.252E+01   -1.237E+01   -1.221E+01   -1.205E+01   -1.190E+01   -1.174E+01   -1.158E+01   -1.141E+01   -1.125E+01   -1.108E+01
    -1.092E+01   -1.075E+01   -1.058E+01   -1.041E+01   -1.024E+01   -1.007E+01   -9.896E+00   -9.722E+00   -9.548E+00   -9.372E+00
    -9.196E+00   -9.020E+00   -8.842E+00   -8.665E+00   -8.486E+00   -8.308E+00   -8.129E+00   -7.949E+00   -7.770E+00   -7.590E+00
    -7.410E+00   -7.230E+00   -7.050E+00   -6.870E+00   -6.690E+00   -6.510E+00   -6.331E+00   -6.151E+00   -5.972E+00   -5.794E+00
    -5.616E+00   -5.438E+00   -5.260E+00   -5.084E+00   -4.907E+00   -4.731E+00   -4.556E+00   -4.381E+00   -4.207E+00   -4.034E+00
    -3.861E+00   -3.690E+00   -3.518E+00   -3.348E+00   -3.179E+00   -3.010E+00   -2.842E+00   -2.676E+00   -2.510E+00   -2.345E+00
    -2.182E+00   -2.019E+00   -1.857E+00   -1.697E+00   -1.538E+00   -1.380E+00   -1.223E+00   -1.068E+00   -9.134E-01   -7.606E-01
    -6.091E-01   -4.591E-01   -3.104E-01   -1.633E-01   -1.759E-02    1.265E-01    2.691E-01    4.101E-01    5.494E-01    6.870E-01
     8.230E-01    9.572E-01    1.090E+00    1.220E+00    1.349E+00    1.477E+00    1.602E+00    1.726E+00    1.849E+00    1.970E+00
     2.089E+00    2.207E+00    2.324E+00    2.439E+00    2.553E+00    2.666E+00    2.777E+00    2.888E+00    2.997E+00    3.105E+00
     3.213E+00    3.319E+00    3.424E+00    3.529E+00    3.632E+00    3.735E+00    3.837E+00    3.939E+00    4.039E+00    4.139E+00
     4.239E+00    4.338E+00    4.436E+00    4.534E+00    4.632E+00    4.730E+00    4.827E+00    4.923E+00    5.020E+00    5.116E+00
     5.213E+00    5.309E+00    5.405E+00    5.501E+00    5.597E+00    5.694E+00    5.790E+00    5.887E+00
 Cr       Conc. = 1.08E+03
