 LCModel (Version 6.3-1L) Copyright: S.W. Provencher.          Ref.: Magn. Reson. Med. 30:672-679 (1993).                
 Slice#3 Row#8 Col#12  PD_24_press_1_raw_act
 36 lines in following concentration table = NCONC+1
    Conc.  %SD /Cr+PCr  Metabolite                                         
  277.292  46%   0.383 Ala                                                 
   67.771 209% 9.4E-02 Asp                                                 
  392.589  45%   0.542 Cr                                                  
  331.761  56%   0.458 PCr                                                 
    0.000 999%   0.000 GABA                                                
  104.437  85%   0.144 Glc                                                 
    0.000 999%   0.000 Gln                                                 
  718.651  36%   0.992 Glu                                                 
    0.000 999%   0.000 GPC                                                 
  195.065  15%   0.269 PCh                                                 
  207.823  40%   0.287 GSH                                                 
  883.868  33%   1.220 Ins                                                 
  169.490  79%   0.234 Lac                                                 
  634.111  16%   0.875 NAA                                                 
  161.287  58%   0.223 NAAG                                                
   42.124  56% 5.8E-02 Scyllo                                              
   18.229 758% 2.5E-02 Tau                                                 
  206.942  83%   0.286 -CrCH2                                              
  195.065  15%   0.269 GPC+PCh                                             
  795.398  13%   1.098 NAA+NAAG                                            
  724.350  12%   1.000 Cr+PCr                                              
  718.651  36%   0.992 Glu+Gln                                             
 6.23E+04  11%  85.967 Lip13a                                              
    0.000 999%   0.000 Lip13b                                              
 1.79E+04  15%  24.709 Lip09                                               
 5.55E+03  20%   7.669 MM09                                                
 2.60E+03   8%   3.594 Lip20                                               
    0.000 999%   0.000-MM20                                                
 2.89E+03  24%   3.993 MM12                                                
 1.37E+04  18%  18.922 MM14                                                
 1.08E+04  15%  14.926+MM17                                                
 6.23E+04  11%  85.967 Lip13a+Lip13b                                       
 7.89E+04   7% 108.883 MM14+Lip13a+Lip13b+MM12                             
 2.35E+04  11%  32.377 MM09+Lip09                                          
 2.60E+03   8%   3.594 MM20+Lip20                                          
   6 lines in following misc. output table
  FWHM = 0.076 ppm    S/N =  40                                            
  Data shift = 0.084 ppm                                                   
  Ph:  19 deg     -35.5 deg/ppm                                            
  alphaB,S = 2.1E+00,   2.8E+01                                            
    8 spline knots.   Ns = 9(2)                                            
  (13) 7 infls.   (11) 5 extrs.                                            
  498 points on ppm-axis = NY
      4.000000     3.992357     3.984714     3.977070     3.969427     3.961784     3.954141     3.946497     3.938854     3.931211
      3.923568     3.915925     3.908281     3.900638     3.892995     3.885352     3.877708     3.870065     3.862422     3.854779
      3.847136     3.839492     3.831849     3.824206     3.816563     3.808919     3.801276     3.793633     3.785990     3.778347
      3.770703     3.763060     3.755417     3.747774     3.740130     3.732487     3.724844     3.717201     3.709558     3.701914
      3.694271     3.686628     3.678985     3.671341     3.663698     3.656055     3.648412     3.640769     3.633125     3.625482
      3.617839     3.610196     3.602552     3.594909     3.587266     3.579623     3.571980     3.564336     3.556693     3.549050
      3.541407     3.533763     3.526120     3.518477     3.510834     3.503191     3.495547     3.487904     3.480261     3.472618
      3.464974     3.457331     3.449688     3.442045     3.434402     3.426758     3.419115     3.411472     3.403829     3.396185
      3.388542     3.380899     3.373256     3.365613     3.357969     3.350326     3.342683     3.335040     3.327396     3.319753
      3.312110     3.304467     3.296824     3.289180     3.281537     3.273894     3.266251     3.258607     3.250964     3.243321
      3.235678     3.228034     3.220391     3.212748     3.205105     3.197462     3.189818     3.182175     3.174532     3.166889
      3.159245     3.151602     3.143959     3.136316     3.128673     3.121029     3.113386     3.105743     3.098100     3.090456
      3.082813     3.075170     3.067527     3.059884     3.052240     3.044597     3.036954     3.029311     3.021667     3.014024
      3.006381     2.998738     2.991095     2.983451     2.975808     2.968165     2.960522     2.952878     2.945235     2.937592
      2.929949     2.922306     2.914662     2.907019     2.899376     2.891733     2.884089     2.876446     2.868803     2.861160
      2.853517     2.845873     2.838230     2.830587     2.822944     2.815300     2.807657     2.800014     2.792371     2.784728
      2.777084     2.769441     2.761798     2.754155     2.746511     2.738868     2.731225     2.723582     2.715939     2.708295
      2.700652     2.693009     2.685366     2.677722     2.670079     2.662436     2.654793     2.647150     2.639506     2.631863
      2.624220     2.616577     2.608933     2.601290     2.593647     2.586004     2.578361     2.570717     2.563074     2.555431
      2.547788     2.540144     2.532501     2.524858     2.517215     2.509572     2.501928     2.494285     2.486642     2.478999
      2.471355     2.463712     2.456069     2.448426     2.440783     2.433139     2.425496     2.417853     2.410210     2.402566
      2.394923     2.387280     2.379637     2.371994     2.364350     2.356707     2.349064     2.341421     2.333777     2.326134
      2.318491     2.310848     2.303205     2.295561     2.287918     2.280275     2.272632     2.264988     2.257345     2.249702
      2.242059     2.234416     2.226772     2.219129     2.211486     2.203843     2.196199     2.188556     2.180913     2.173270
      2.165627     2.157983     2.150340     2.142697     2.135054     2.127410     2.119767     2.112124     2.104481     2.096838
      2.089194     2.081551     2.073908     2.066265     2.058621     2.050978     2.043335     2.035692     2.028049     2.020405
      2.012762     2.005119     1.997476     1.989833     1.982190     1.974546     1.966903     1.959260     1.951617     1.943974
      1.936331     1.928688     1.921045     1.913402     1.905759     1.898115     1.890472     1.882829     1.875186     1.867543
      1.859900     1.852257     1.844614     1.836971     1.829327     1.821684     1.814041     1.806398     1.798755     1.791112
      1.783469     1.775826     1.768183     1.760540     1.752896     1.745253     1.737610     1.729967     1.722324     1.714681
      1.707038     1.699395     1.691752     1.684108     1.676465     1.668822     1.661179     1.653536     1.645893     1.638250
      1.630607     1.622964     1.615321     1.607677     1.600034     1.592391     1.584748     1.577105     1.569462     1.561819
      1.554176     1.546533     1.538890     1.531246     1.523603     1.515960     1.508317     1.500674     1.493031     1.485388
      1.477745     1.470102     1.462458     1.454815     1.447172     1.439529     1.431886     1.424243     1.416600     1.408957
      1.401314     1.393671     1.386027     1.378384     1.370741     1.363098     1.355455     1.347812     1.340169     1.332526
      1.324883     1.317240     1.309596     1.301953     1.294310     1.286667     1.279024     1.271381     1.263738     1.256095
      1.248452     1.240808     1.233165     1.225522     1.217879     1.210236     1.202593     1.194950     1.187307     1.179664
      1.172021     1.164377     1.156734     1.149091     1.141448     1.133805     1.126162     1.118519     1.110876     1.103233
      1.095590     1.087946     1.080303     1.072660     1.065017     1.057374     1.049731     1.042088     1.034445     1.026802
      1.019158     1.011515     1.003872     0.996229     0.988586     0.980943     0.973300     0.965657     0.958014     0.950371
      0.942727     0.935084     0.927441     0.919798     0.912155     0.904512     0.896869     0.889226     0.881583     0.873940
      0.866296     0.858653     0.851010     0.843367     0.835724     0.828081     0.820438     0.812795     0.805152     0.797508
      0.789865     0.782222     0.774579     0.766936     0.759293     0.751650     0.744007     0.736364     0.728721     0.721077
      0.713434     0.705791     0.698148     0.690505     0.682862     0.675219     0.667576     0.659933     0.652290     0.644646
      0.637003     0.629360     0.621717     0.614074     0.606431     0.598788     0.591145     0.583502     0.575858     0.568215
      0.560572     0.552929     0.545286     0.537643     0.530000     0.522357     0.514714     0.507071     0.499427     0.491784
      0.484141     0.476498     0.468855     0.461212     0.453569     0.445925     0.438282     0.430639     0.422996     0.415353
      0.407710     0.400067     0.392424     0.384780     0.377137     0.369494     0.361851     0.354208     0.346565     0.338922
      0.331278     0.323635     0.315992     0.308349     0.300706     0.293063     0.285420     0.277777     0.270133     0.262490
      0.254847     0.247204     0.239561     0.231918     0.224275     0.216631     0.208988     0.201345
 NY phased data points follow
   2.65091E+00  2.84613E+00  8.05795E+00  7.68392E+00  7.31273E+00  8.46288E+00  7.28681E+00  5.47976E+00  4.92655E+00  4.99769E+00
   4.09943E+00  2.86417E+00  3.73336E+00  4.54512E+00  2.26878E+00  2.50150E+00  4.90865E+00  1.07244E+00  2.66693E+00  1.14624E+00
   2.53497E+00  2.60894E+00  4.32677E+00  1.86158E+00  3.12754E+00  3.48702E+00  4.46035E+00  1.19001E+00  2.38626E+00  2.77443E-01
   1.98410E+00  2.15821E+00  2.38835E+00  1.94421E+00 -3.42050E+00 -2.33343E+00 -1.41084E+00 -8.81549E-01 -7.04420E-01  1.18574E+00
  -2.37833E-01  2.46860E+00 -2.32803E+00  4.55583E-01  3.43595E-01 -3.71979E+00 -1.21799E+00 -1.91736E+00 -2.42241E+00 -3.31472E+00
  -1.32962E-01 -2.64288E+00 -2.37638E+00 -3.39068E+00 -2.83757E+00 -1.50040E+00 -2.82005E+00 -4.48419E+00 -3.03587E+00 -7.88828E+00
  -3.08329E+00 -4.63120E+00 -4.22253E+00 -5.44937E+00 -4.01248E+00 -3.77011E+00 -9.65026E+00 -5.71576E+00 -3.80017E+00 -6.57984E+00
  -7.15638E+00 -5.09571E+00 -7.81662E+00 -8.29778E+00 -6.81449E+00 -8.42475E+00 -7.12594E+00 -8.16345E+00 -7.34362E+00 -8.98808E+00
  -1.06538E+01 -1.12258E+01 -8.88698E+00 -9.02597E+00 -8.81059E+00 -9.70676E+00 -7.94829E+00 -7.87711E+00 -1.05687E+01 -1.90210E+01
  -1.73472E+01 -2.22453E+01 -1.81732E+01 -1.21940E+01 -6.06585E+00 -6.61983E+00 -5.54967E+00 -6.08386E+00 -6.63924E+00 -6.10328E+00
  -7.71700E+00 -7.93561E+00 -1.16624E+01 -1.46011E+01 -1.62047E+01 -1.78965E+01 -1.18417E+01 -1.61429E+01 -1.49155E+01 -1.58574E+01
  -1.74898E+01 -1.78913E+01 -1.59805E+01 -2.10135E+01 -2.16718E+01 -2.29593E+01 -1.91750E+01 -1.75802E+01 -1.13447E+01 -7.34753E+00
  -1.08568E+01 -1.35378E+01 -1.03071E+01 -1.52549E+01 -1.32887E+01 -1.61399E+01 -1.60763E+01 -1.68304E+01 -1.79468E+01 -2.05987E+01
  -2.11549E+01 -2.23125E+01 -2.03665E+01 -2.05818E+01 -2.11543E+01 -2.20770E+01 -2.06246E+01 -2.19551E+01 -2.19321E+01 -2.49955E+01
  -2.25181E+01 -2.29319E+01 -2.41169E+01 -2.67107E+01 -2.40377E+01 -2.38418E+01 -2.69409E+01 -2.94224E+01 -2.74282E+01 -2.67959E+01
  -2.78968E+01 -2.93384E+01 -2.78557E+01 -3.19500E+01 -2.95253E+01 -3.20391E+01 -2.97583E+01 -3.17107E+01 -3.24363E+01 -3.06287E+01
  -3.42338E+01 -3.41944E+01 -3.56302E+01 -3.21435E+01 -3.63787E+01 -3.75960E+01 -3.93496E+01 -4.15248E+01 -4.07879E+01 -3.83156E+01
  -4.08674E+01 -4.07099E+01 -4.12865E+01 -4.09769E+01 -4.19191E+01 -4.45983E+01 -4.39277E+01 -4.45590E+01 -4.73562E+01 -4.69087E+01
  -4.76287E+01 -5.09307E+01 -4.70704E+01 -5.04206E+01 -4.84977E+01 -4.91108E+01 -4.83264E+01 -4.99466E+01 -4.75439E+01 -5.08980E+01
  -5.10605E+01 -5.29123E+01 -5.19296E+01 -5.24291E+01 -5.32547E+01 -5.38292E+01 -5.18514E+01 -5.08563E+01 -5.14142E+01 -5.48108E+01
  -5.18239E+01 -5.49826E+01 -5.27009E+01 -5.38184E+01 -5.34259E+01 -5.51084E+01 -5.16357E+01 -5.30655E+01 -4.86265E+01 -5.10274E+01
  -5.11339E+01 -5.09605E+01 -4.94264E+01 -5.35670E+01 -5.32198E+01 -5.48636E+01 -5.55086E+01 -5.64478E+01 -5.23683E+01 -5.36651E+01
  -4.85169E+01 -5.11436E+01 -5.11562E+01 -5.09834E+01 -5.11823E+01 -5.37922E+01 -5.41022E+01 -5.34031E+01 -5.25749E+01 -5.44696E+01
  -5.61437E+01 -5.41880E+01 -5.40074E+01 -5.47501E+01 -5.92222E+01 -5.55889E+01 -5.77772E+01 -5.62704E+01 -5.83785E+01 -5.83097E+01
  -5.78959E+01 -5.71252E+01 -5.61186E+01 -5.45227E+01 -5.13233E+01 -4.51176E+01 -4.67618E+01 -4.82123E+01 -4.86939E+01 -4.84761E+01
  -4.51318E+01 -3.78864E+01 -3.21018E+01 -2.66073E+01 -2.70989E+01 -3.24730E+01 -3.15135E+01 -3.55752E+01 -3.60950E+01 -3.82282E+01
  -4.06853E+01 -4.01945E+01 -4.21039E+01 -4.27484E+01 -4.46081E+01 -4.20235E+01 -4.47073E+01 -4.50418E+01 -4.31401E+01 -4.61339E+01
  -4.46140E+01 -4.89296E+01 -4.68875E+01 -4.65296E+01 -4.73874E+01 -4.74119E+01 -4.67957E+01 -4.80519E+01 -4.52140E+01 -4.70215E+01
  -4.81552E+01 -4.51543E+01 -4.51237E+01 -3.85797E+01 -4.07413E+01 -4.16275E+01 -3.81643E+01 -3.38283E+01 -3.27236E+01 -3.18627E+01
  -2.73589E+01 -2.38813E+01 -1.97525E+01 -1.56473E+01 -1.37645E+01 -7.21265E+00 -4.50459E+00 -5.64378E-01  6.26453E+00  8.54380E+00
   1.27907E+01  2.00748E+01  2.59815E+01  2.77252E+01  3.31674E+01  3.68950E+01  4.28110E+01  4.91602E+01  5.55466E+01  5.89951E+01
   6.47023E+01  6.84316E+01  7.09779E+01  7.70016E+01  7.58219E+01  7.83569E+01  8.18863E+01  8.66773E+01  8.68112E+01  9.07254E+01
   9.60798E+01  9.79010E+01  9.81860E+01  9.83576E+01  1.03487E+02  1.06527E+02  1.08622E+02  1.11130E+02  1.18533E+02  1.18777E+02
   1.26569E+02  1.24453E+02  1.32194E+02  1.32828E+02  1.38507E+02  1.39597E+02  1.45746E+02  1.48914E+02  1.52317E+02  1.50705E+02
   1.58269E+02  1.55593E+02  1.57112E+02  1.58716E+02  1.59353E+02  1.61505E+02  1.63912E+02  1.62777E+02  1.67123E+02  1.65191E+02
   1.64856E+02  1.65921E+02  1.65451E+02  1.64135E+02  1.64461E+02  1.64111E+02  1.63334E+02  1.62578E+02  1.60631E+02  1.62118E+02
   1.59118E+02  1.56656E+02  1.56129E+02  1.53261E+02  1.52703E+02  1.53212E+02  1.49622E+02  1.49899E+02  1.50636E+02  1.46248E+02
   1.46119E+02  1.44199E+02  1.39686E+02  1.39894E+02  1.37566E+02  1.36318E+02  1.35001E+02  1.35651E+02  1.32644E+02  1.30010E+02
   1.29560E+02  1.27855E+02  1.24859E+02  1.27383E+02  1.25156E+02  1.21118E+02  1.20207E+02  1.20168E+02  1.19748E+02  1.17350E+02
   1.13171E+02  1.13087E+02  1.13335E+02  1.13833E+02  1.14084E+02  1.11672E+02  1.07354E+02  1.07080E+02  1.08158E+02  1.06692E+02
   1.03240E+02  1.03993E+02  1.02689E+02  1.00575E+02  9.97960E+01  9.86492E+01  9.74373E+01  9.67682E+01  9.37707E+01  9.47491E+01
   9.29941E+01  9.45688E+01  9.20891E+01  9.00398E+01  9.15689E+01  8.86518E+01  8.61218E+01  8.55945E+01  8.25471E+01  8.15972E+01
   7.93440E+01  8.32172E+01  8.21057E+01  7.94909E+01  7.72455E+01  7.66143E+01  7.62849E+01  7.56537E+01  7.17886E+01  7.39930E+01
   7.40259E+01  6.90404E+01  6.92947E+01  6.88221E+01  6.86700E+01  6.47774E+01  6.76019E+01  6.86897E+01  6.55514E+01  6.35416E+01
   6.19757E+01  6.31802E+01  6.09864E+01  6.12001E+01  6.32848E+01  6.25536E+01  6.26957E+01  6.06268E+01  5.77562E+01  5.79150E+01
   5.86947E+01  5.61498E+01  5.88556E+01  5.58060E+01  5.53684E+01  5.46172E+01  5.25822E+01  5.26385E+01  5.27804E+01  5.32308E+01
   5.11564E+01  5.17839E+01  4.85500E+01  5.02260E+01  5.01850E+01  4.86824E+01  4.92001E+01  5.07876E+01  4.63951E+01  4.93329E+01
   4.67518E+01  4.62158E+01  4.63016E+01  4.45110E+01  4.41150E+01  4.36754E+01  4.38048E+01  4.11904E+01  4.33034E+01  4.07677E+01
   4.16576E+01  4.36569E+01  4.32330E+01  3.97557E+01  4.25568E+01  4.28481E+01  3.98229E+01  3.76082E+01  3.99902E+01  3.79463E+01
   4.09206E+01  3.78207E+01  4.06581E+01  3.79048E+01  3.52857E+01  3.53936E+01  3.65290E+01  3.84645E+01
 NY points of the fit to the data follow
   2.97878E+00  4.70830E+00  5.78877E+00  6.90132E+00  8.20779E+00  7.36676E+00  7.76730E+00  6.39347E+00  6.28378E+00  4.84972E+00
   4.67400E+00  3.37211E+00  3.38538E+00  2.89443E+00  3.38292E+00  3.25520E+00  3.29891E+00  2.39096E+00  2.40882E+00  1.39466E+00
   2.16148E+00  2.00124E+00  2.85654E+00  3.27088E+00  3.54198E+00  3.68878E+00  3.52478E+00  3.24641E+00  2.77390E+00  2.16074E+00
   1.78631E+00  9.16708E-01  3.98311E-01 -8.88866E-01 -1.43896E+00 -2.21789E+00 -1.71173E+00 -8.23013E-01  5.52723E-01  1.56154E+00
   1.98562E+00  1.62820E+00  1.08807E+00  2.77731E-01 -2.89958E-01 -1.17317E+00 -1.71164E+00 -2.57308E+00 -2.92945E+00 -3.14561E+00
  -3.07948E+00 -2.80552E+00 -2.50310E+00 -2.58063E+00 -2.60529E+00 -3.09891E+00 -3.32335E+00 -4.01021E+00 -4.50182E+00 -4.87310E+00
  -5.26251E+00 -5.28624E+00 -5.39169E+00 -5.41400E+00 -5.42615E+00 -5.68141E+00 -5.82108E+00 -6.14941E+00 -6.25694E+00 -6.56192E+00
  -6.69727E+00 -7.20443E+00 -7.72982E+00 -7.96265E+00 -8.16205E+00 -8.04988E+00 -7.75636E+00 -8.08286E+00 -8.06005E+00 -9.01326E+00
  -9.42849E+00 -1.03043E+01 -1.06122E+01 -1.11212E+01 -1.10984E+01 -1.11908E+01 -1.09913E+01 -1.11671E+01 -1.17185E+01 -1.47256E+01
  -1.55308E+01 -1.66679E+01 -1.59168E+01 -1.17828E+01 -1.01091E+01 -6.21094E+00 -5.72161E+00 -5.89753E+00 -6.44021E+00 -7.64517E+00
  -8.40481E+00 -9.85690E+00 -1.06953E+01 -1.22840E+01 -1.30430E+01 -1.40404E+01 -1.45633E+01 -1.49040E+01 -1.50341E+01 -1.49306E+01
  -1.49655E+01 -1.51274E+01 -1.69929E+01 -1.96714E+01 -2.13050E+01 -2.16813E+01 -1.95587E+01 -1.59696E+01 -1.23443E+01 -1.01682E+01
  -9.00338E+00 -1.06334E+01 -1.09392E+01 -1.32459E+01 -1.36266E+01 -1.55137E+01 -1.63363E+01 -1.83616E+01 -1.93934E+01 -2.07775E+01
  -2.11140E+01 -2.18249E+01 -2.14357E+01 -2.18372E+01 -2.11556E+01 -2.15914E+01 -2.14226E+01 -2.25024E+01 -2.26378E+01 -2.35936E+01
  -2.36346E+01 -2.42916E+01 -2.44018E+01 -2.51945E+01 -2.56840E+01 -2.66735E+01 -2.71973E+01 -2.78427E+01 -2.79599E+01 -2.81022E+01
  -2.82935E+01 -2.87532E+01 -2.90580E+01 -2.95978E+01 -2.98479E+01 -3.02157E+01 -3.06010E+01 -3.10805E+01 -3.17672E+01 -3.24543E+01
  -3.32852E+01 -3.39500E+01 -3.47396E+01 -3.54542E+01 -3.63680E+01 -3.72307E+01 -3.82597E+01 -3.90323E+01 -3.99112E+01 -4.06519E+01
  -4.13953E+01 -4.22188E+01 -4.28464E+01 -4.35672E+01 -4.41190E+01 -4.48279E+01 -4.54535E+01 -4.62888E+01 -4.68536E+01 -4.74115E+01
  -4.76182E+01 -4.77714E+01 -4.78309E+01 -4.79796E+01 -4.79732E+01 -4.83263E+01 -4.85318E+01 -4.89798E+01 -4.95561E+01 -5.00219E+01
  -5.06649E+01 -5.09962E+01 -5.13424E+01 -5.13944E+01 -5.15159E+01 -5.14375E+01 -5.13140E+01 -5.15109E+01 -5.13889E+01 -5.19733E+01
  -5.23052E+01 -5.32985E+01 -5.42294E+01 -5.47098E+01 -5.50300E+01 -5.46504E+01 -5.37657E+01 -5.34124E+01 -5.20216E+01 -5.26503E+01
  -5.23351E+01 -5.37766E+01 -5.43432E+01 -5.58135E+01 -5.59297E+01 -5.65165E+01 -5.57193E+01 -5.52965E+01 -5.42283E+01 -5.35421E+01
  -5.26495E+01 -5.23822E+01 -5.19012E+01 -5.20421E+01 -5.19234E+01 -5.21051E+01 -5.18526E+01 -5.19042E+01 -5.15786E+01 -5.18407E+01
  -5.21627E+01 -5.28578E+01 -5.37444E+01 -5.45791E+01 -5.53484E+01 -5.57737E+01 -5.58498E+01 -5.56217E+01 -5.51203E+01 -5.47976E+01
  -5.42001E+01 -5.41860E+01 -5.37569E+01 -5.28917E+01 -5.18584E+01 -5.04052E+01 -5.07726E+01 -5.03287E+01 -4.85332E+01 -4.74558E+01
  -4.12487E+01 -3.83399E+01 -3.32690E+01 -3.11646E+01 -3.11716E+01 -3.11065E+01 -3.27329E+01 -3.34434E+01 -3.55299E+01 -3.65666E+01
  -3.87867E+01 -3.99346E+01 -4.15000E+01 -4.23392E+01 -4.31984E+01 -4.38024E+01 -4.43876E+01 -4.46159E+01 -4.48621E+01 -4.48851E+01
  -4.57770E+01 -4.59182E+01 -4.66104E+01 -4.65902E+01 -4.67908E+01 -4.64291E+01 -4.64794E+01 -4.58974E+01 -4.59448E+01 -4.53513E+01
  -4.51432E+01 -4.42717E+01 -4.31026E+01 -4.17747E+01 -4.03020E+01 -3.86631E+01 -3.68667E+01 -3.48840E+01 -3.27045E+01 -3.03089E+01
  -2.76687E+01 -2.47882E+01 -2.16227E+01 -1.81904E+01 -1.44530E+01 -1.04280E+01 -6.10444E+00 -1.51344E+00  3.33443E+00  8.39351E+00
   1.36362E+01  1.89955E+01  2.44280E+01  2.98623E+01  3.52473E+01  4.05132E+01  4.56108E+01  5.04827E+01  5.51027E+01  5.94437E+01
   6.34463E+01  6.70918E+01  7.03827E+01  7.31490E+01  7.60979E+01  7.92442E+01  8.21957E+01  8.57908E+01  8.86702E+01  9.13511E+01
   9.41971E+01  9.57297E+01  9.79663E+01  9.97533E+01  1.02165E+02  1.04773E+02  1.08774E+02  1.11978E+02  1.17063E+02  1.20358E+02
   1.25074E+02  1.28154E+02  1.32348E+02  1.34960E+02  1.38827E+02  1.41542E+02  1.45011E+02  1.47697E+02  1.50644E+02  1.52667E+02
   1.55104E+02  1.55910E+02  1.57725E+02  1.58222E+02  1.59763E+02  1.60549E+02  1.62034E+02  1.62907E+02  1.64265E+02  1.64796E+02
   1.65642E+02  1.65688E+02  1.66004E+02  1.65593E+02  1.65341E+02  1.64499E+02  1.63701E+02  1.62552E+02  1.61589E+02  1.60373E+02
   1.59292E+02  1.58033E+02  1.56845E+02  1.55515E+02  1.54244E+02  1.52714E+02  1.51286E+02  1.49672E+02  1.48137E+02  1.46536E+02
   1.44908E+02  1.43205E+02  1.41500E+02  1.39708E+02  1.37953E+02  1.36150E+02  1.34418E+02  1.32767E+02  1.31194E+02  1.29708E+02
   1.28308E+02  1.26998E+02  1.25767E+02  1.24611E+02  1.23509E+02  1.22451E+02  1.21413E+02  1.20384E+02  1.19340E+02  1.18273E+02
   1.17167E+02  1.16019E+02  1.14822E+02  1.13580E+02  1.12294E+02  1.10977E+02  1.09631E+02  1.08274E+02  1.06912E+02  1.05561E+02
   1.04227E+02  1.02924E+02  1.01652E+02  1.00423E+02  9.92333E+01  9.80889E+01  9.69828E+01  9.59176E+01  9.48832E+01  9.38802E+01
   9.28970E+01  9.19335E+01  9.09781E+01  9.00312E+01  8.90819E+01  8.81318E+01  8.71719E+01  8.62053E+01  8.52244E+01  8.42341E+01
   8.32283E+01  8.22134E+01  8.11847E+01  8.01496E+01  7.91041E+01  7.80564E+01  7.70031E+01  7.59527E+01  7.49020E+01  7.38596E+01
   7.28220E+01  7.17977E+01  7.07829E+01  6.97858E+01  6.88023E+01  6.78401E+01  6.68945E+01  6.59727E+01  6.50698E+01  6.41925E+01
   6.33354E+01  6.25049E+01  6.16950E+01  6.09120E+01  6.01494E+01  5.94134E+01  5.86972E+01  5.80067E+01  5.73349E+01  5.66877E+01
   5.60580E+01  5.54515E+01  5.48609E+01  5.42919E+01  5.37373E+01  5.32026E+01  5.26808E+01  5.21772E+01  5.16848E+01  5.12091E+01
   5.07430E+01  5.02920E+01  4.98490E+01  4.94198E+01  4.89971E+01  4.85866E+01  4.81814E+01  4.77872E+01  4.73969E+01  4.70165E+01
   4.66387E+01  4.62697E+01  4.59023E+01  4.55426E+01  4.51836E+01  4.48313E+01  4.44787E+01  4.41320E+01  4.37842E+01  4.34416E+01
   4.30971E+01  4.27570E+01  4.24143E+01  4.20754E+01  4.17332E+01  4.13943E+01  4.10516E+01  4.07115E+01  4.03671E+01  4.00248E+01
   3.96778E+01  3.93325E+01  3.89820E+01  3.86328E+01  3.82779E+01  3.79240E+01  3.75642E+01  3.72050E+01
 NY background values follow
    -8.773E-01   -9.608E-01   -1.046E+00   -1.132E+00   -1.219E+00   -1.308E+00   -1.399E+00   -1.491E+00   -1.584E+00   -1.678E+00
    -1.775E+00   -1.872E+00   -1.972E+00   -2.072E+00   -2.175E+00   -2.279E+00   -2.384E+00   -2.491E+00   -2.600E+00   -2.711E+00
    -2.823E+00   -2.937E+00   -3.053E+00   -3.171E+00   -3.290E+00   -3.411E+00   -3.534E+00   -3.659E+00   -3.786E+00   -3.914E+00
    -4.045E+00   -4.177E+00   -4.312E+00   -4.448E+00   -4.587E+00   -4.727E+00   -4.870E+00   -5.014E+00   -5.161E+00   -5.310E+00
    -5.461E+00   -5.614E+00   -5.769E+00   -5.927E+00   -6.087E+00   -6.249E+00   -6.413E+00   -6.579E+00   -6.748E+00   -6.920E+00
    -7.093E+00   -7.269E+00   -7.448E+00   -7.628E+00   -7.812E+00   -7.997E+00   -8.185E+00   -8.376E+00   -8.569E+00   -8.765E+00
    -8.964E+00   -9.165E+00   -9.368E+00   -9.574E+00   -9.783E+00   -9.995E+00   -1.021E+01   -1.043E+01   -1.065E+01   -1.087E+01
    -1.109E+01   -1.132E+01   -1.155E+01   -1.179E+01   -1.202E+01   -1.226E+01   -1.251E+01   -1.275E+01   -1.300E+01   -1.325E+01
    -1.351E+01   -1.376E+01   -1.402E+01   -1.429E+01   -1.455E+01   -1.482E+01   -1.510E+01   -1.537E+01   -1.565E+01   -1.593E+01
    -1.622E+01   -1.651E+01   -1.680E+01   -1.710E+01   -1.740E+01   -1.770E+01   -1.800E+01   -1.831E+01   -1.862E+01   -1.894E+01
    -1.926E+01   -1.958E+01   -1.991E+01   -2.024E+01   -2.057E+01   -2.090E+01   -2.124E+01   -2.159E+01   -2.193E+01   -2.228E+01
    -2.263E+01   -2.298E+01   -2.334E+01   -2.370E+01   -2.406E+01   -2.442E+01   -2.479E+01   -2.516E+01   -2.553E+01   -2.590E+01
    -2.628E+01   -2.666E+01   -2.704E+01   -2.742E+01   -2.781E+01   -2.819E+01   -2.858E+01   -2.897E+01   -2.936E+01   -2.976E+01
    -3.015E+01   -3.055E+01   -3.095E+01   -3.135E+01   -3.175E+01   -3.216E+01   -3.256E+01   -3.297E+01   -3.337E+01   -3.378E+01
    -3.419E+01   -3.460E+01   -3.501E+01   -3.542E+01   -3.584E+01   -3.625E+01   -3.667E+01   -3.708E+01   -3.750E+01   -3.791E+01
    -3.833E+01   -3.875E+01   -3.916E+01   -3.958E+01   -4.000E+01   -4.042E+01   -4.084E+01   -4.126E+01   -4.167E+01   -4.209E+01
    -4.251E+01   -4.293E+01   -4.335E+01   -4.377E+01   -4.418E+01   -4.460E+01   -4.502E+01   -4.543E+01   -4.585E+01   -4.626E+01
    -4.668E+01   -4.709E+01   -4.750E+01   -4.792E+01   -4.833E+01   -4.874E+01   -4.915E+01   -4.955E+01   -4.996E+01   -5.036E+01
    -5.077E+01   -5.117E+01   -5.157E+01   -5.197E+01   -5.237E+01   -5.277E+01   -5.316E+01   -5.355E+01   -5.395E+01   -5.434E+01
    -5.472E+01   -5.511E+01   -5.549E+01   -5.587E+01   -5.625E+01   -5.663E+01   -5.701E+01   -5.738E+01   -5.775E+01   -5.812E+01
    -5.848E+01   -5.885E+01   -5.921E+01   -5.956E+01   -5.992E+01   -6.027E+01   -6.062E+01   -6.096E+01   -6.130E+01   -6.164E+01
    -6.198E+01   -6.231E+01   -6.263E+01   -6.296E+01   -6.328E+01   -6.359E+01   -6.390E+01   -6.421E+01   -6.451E+01   -6.481E+01
    -6.510E+01   -6.539E+01   -6.567E+01   -6.595E+01   -6.622E+01   -6.649E+01   -6.675E+01   -6.701E+01   -6.726E+01   -6.750E+01
    -6.774E+01   -6.798E+01   -6.821E+01   -6.843E+01   -6.864E+01   -6.885E+01   -6.905E+01   -6.925E+01   -6.944E+01   -6.962E+01
    -6.980E+01   -6.997E+01   -7.013E+01   -7.029E+01   -7.043E+01   -7.057E+01   -7.071E+01   -7.083E+01   -7.095E+01   -7.106E+01
    -7.116E+01   -7.125E+01   -7.134E+01   -7.141E+01   -7.148E+01   -7.154E+01   -7.160E+01   -7.164E+01   -7.167E+01   -7.170E+01
    -7.171E+01   -7.172E+01   -7.172E+01   -7.171E+01   -7.168E+01   -7.165E+01   -7.161E+01   -7.156E+01   -7.150E+01   -7.143E+01
    -7.135E+01   -7.126E+01   -7.116E+01   -7.105E+01   -7.093E+01   -7.079E+01   -7.065E+01   -7.050E+01   -7.033E+01   -7.015E+01
    -6.997E+01   -6.977E+01   -6.956E+01   -6.933E+01   -6.910E+01   -6.886E+01   -6.860E+01   -6.833E+01   -6.805E+01   -6.775E+01
    -6.745E+01   -6.713E+01   -6.680E+01   -6.645E+01   -6.610E+01   -6.573E+01   -6.535E+01   -6.495E+01   -6.454E+01   -6.412E+01
    -6.369E+01   -6.324E+01   -6.278E+01   -6.231E+01   -6.182E+01   -6.132E+01   -6.082E+01   -6.029E+01   -5.976E+01   -5.922E+01
    -5.867E+01   -5.810E+01   -5.753E+01   -5.694E+01   -5.635E+01   -5.574E+01   -5.513E+01   -5.450E+01   -5.387E+01   -5.323E+01
    -5.258E+01   -5.192E+01   -5.125E+01   -5.058E+01   -4.989E+01   -4.920E+01   -4.851E+01   -4.780E+01   -4.709E+01   -4.637E+01
    -4.565E+01   -4.492E+01   -4.418E+01   -4.344E+01   -4.269E+01   -4.193E+01   -4.118E+01   -4.041E+01   -3.964E+01   -3.887E+01
    -3.810E+01   -3.731E+01   -3.653E+01   -3.574E+01   -3.495E+01   -3.416E+01   -3.336E+01   -3.256E+01   -3.176E+01   -3.095E+01
    -3.015E+01   -2.934E+01   -2.853E+01   -2.772E+01   -2.691E+01   -2.609E+01   -2.528E+01   -2.447E+01   -2.365E+01   -2.284E+01
    -2.203E+01   -2.121E+01   -2.040E+01   -1.959E+01   -1.878E+01   -1.797E+01   -1.717E+01   -1.636E+01   -1.556E+01   -1.476E+01
    -1.396E+01   -1.316E+01   -1.237E+01   -1.158E+01   -1.080E+01   -1.001E+01   -9.236E+00   -8.461E+00   -7.692E+00   -6.926E+00
    -6.166E+00   -5.410E+00   -4.660E+00   -3.915E+00   -3.176E+00   -2.442E+00   -1.715E+00   -9.939E-01   -2.796E-01    4.280E-01
     1.129E+00    1.822E+00    2.508E+00    3.186E+00    3.856E+00    4.519E+00    5.173E+00    5.818E+00    6.454E+00    7.082E+00
     7.701E+00    8.310E+00    8.911E+00    9.503E+00    1.009E+01    1.066E+01    1.123E+01    1.178E+01    1.233E+01    1.287E+01
     1.340E+01    1.392E+01    1.443E+01    1.494E+01    1.543E+01    1.592E+01    1.640E+01    1.687E+01    1.733E+01    1.778E+01
     1.822E+01    1.866E+01    1.908E+01    1.950E+01    1.991E+01    2.031E+01    2.070E+01    2.108E+01    2.146E+01    2.182E+01
     2.218E+01    2.253E+01    2.287E+01    2.320E+01    2.353E+01    2.384E+01    2.415E+01    2.444E+01    2.473E+01    2.502E+01
     2.529E+01    2.555E+01    2.581E+01    2.606E+01    2.630E+01    2.653E+01    2.675E+01    2.696E+01    2.717E+01    2.737E+01
     2.756E+01    2.774E+01    2.791E+01    2.808E+01    2.823E+01    2.838E+01    2.852E+01    2.865E+01    2.878E+01    2.889E+01
     2.900E+01    2.910E+01    2.919E+01    2.927E+01    2.935E+01    2.942E+01    2.947E+01    2.952E+01    2.957E+01    2.960E+01
     2.963E+01    2.965E+01    2.966E+01    2.966E+01    2.966E+01    2.964E+01    2.962E+01    2.959E+01    2.956E+01    2.951E+01
     2.946E+01    2.940E+01    2.933E+01    2.925E+01    2.917E+01    2.908E+01    2.898E+01    2.887E+01    2.875E+01    2.863E+01
     2.850E+01    2.836E+01    2.822E+01    2.806E+01    2.790E+01    2.773E+01    2.755E+01    2.737E+01
 Ala      Conc. = 2.77E+02
