 LCModel (Version 6.3-1L) Copyright: S.W. Provencher.          Ref.: Magn. Reson. Med. 30:672-679 (1993).                
 Slice#1 Row#3 Col#1  PD_24_press_1_raw_act
 36 lines in following concentration table = NCONC+1
    Conc.  %SD /Cr+PCr  Metabolite                                         
    0.000 999%   0.000 Ala                                                 
    6.776  47%   0.262 Asp                                                 
    0.000 999%   0.000 Cr                                                  
   25.875 148%   1.000 PCr                                                 
    4.068  47%   0.157 GABA                                                
    4.066  47%   0.157 Glc                                                 
   18.997 999%   0.734 Gln                                                 
  407.610 100%  15.753 Glu                                                 
   36.575  38%   1.414 GPC                                                 
    0.000 999%   0.000 PCh                                                 
    0.000 999%   0.000 GSH                                                 
  281.764  53%  10.890 Ins                                                 
  613.146  57%  23.697 Lac                                                 
    0.000 999%   0.000 NAA                                                 
    0.000 999%   0.000 NAAG                                                
    1.354  47% 5.2E-02 Scyllo                                              
    6.773  47%   0.262 Tau                                                 
    2.579 150%   0.100 -CrCH2                                              
   36.575  38%   1.414 GPC+PCh                                             
    0.000 999%   0.000 NAA+NAAG                                            
   25.875 148%   1.000 Cr+PCr                                              
  426.607 139%  16.487 Glu+Gln                                             
   44.217 709%   1.709 Lip13a                                              
   99.525  94%   3.846 Lip13b                                              
   59.525 125%   2.301 Lip09                                               
  189.269  44%   7.315 MM09                                                
   23.631 194%   0.913 Lip20                                               
  163.897  72%   6.334 MM20                                                
   57.390  79%   2.218 MM12                                                
   38.633 358%   1.493 MM14                                                
  157.120  47%   6.072 MM17                                                
  143.741 167%   5.555 Lip13a+Lip13b                                       
  239.764 100%   9.266 MM14+Lip13a+Lip13b+MM12                             
  248.794  24%   9.615 MM09+Lip09                                          
  187.528  55%   7.248 MM20+Lip20                                          
   6 lines in following misc. output table
  FWHM = 0.153 ppm    S/N =   1                                            
  Data shift = 0.015 ppm                                                   
  Ph:-122 deg      12.2 deg/ppm                                            
  alphaB,S = 8.5E+01,   2.0E+02                                            
   14 spline knots.   Ns = 8(2)                                            
   2 inflections.     1 extrema                                            
  498 points on ppm-axis = NY
      4.000000     3.992357     3.984714     3.977070     3.969427     3.961784     3.954141     3.946497     3.938854     3.931211
      3.923568     3.915925     3.908281     3.900638     3.892995     3.885352     3.877708     3.870065     3.862422     3.854779
      3.847136     3.839492     3.831849     3.824206     3.816563     3.808919     3.801276     3.793633     3.785990     3.778347
      3.770703     3.763060     3.755417     3.747774     3.740130     3.732487     3.724844     3.717201     3.709558     3.701914
      3.694271     3.686628     3.678985     3.671341     3.663698     3.656055     3.648412     3.640769     3.633125     3.625482
      3.617839     3.610196     3.602552     3.594909     3.587266     3.579623     3.571980     3.564336     3.556693     3.549050
      3.541407     3.533763     3.526120     3.518477     3.510834     3.503191     3.495547     3.487904     3.480261     3.472618
      3.464974     3.457331     3.449688     3.442045     3.434402     3.426758     3.419115     3.411472     3.403829     3.396185
      3.388542     3.380899     3.373256     3.365613     3.357969     3.350326     3.342683     3.335040     3.327396     3.319753
      3.312110     3.304467     3.296824     3.289180     3.281537     3.273894     3.266251     3.258607     3.250964     3.243321
      3.235678     3.228034     3.220391     3.212748     3.205105     3.197462     3.189818     3.182175     3.174532     3.166889
      3.159245     3.151602     3.143959     3.136316     3.128673     3.121029     3.113386     3.105743     3.098100     3.090456
      3.082813     3.075170     3.067527     3.059884     3.052240     3.044597     3.036954     3.029311     3.021667     3.014024
      3.006381     2.998738     2.991095     2.983451     2.975808     2.968165     2.960522     2.952878     2.945235     2.937592
      2.929949     2.922306     2.914662     2.907019     2.899376     2.891733     2.884089     2.876446     2.868803     2.861160
      2.853517     2.845873     2.838230     2.830587     2.822944     2.815300     2.807657     2.800014     2.792371     2.784728
      2.777084     2.769441     2.761798     2.754155     2.746511     2.738868     2.731225     2.723582     2.715939     2.708295
      2.700652     2.693009     2.685366     2.677722     2.670079     2.662436     2.654793     2.647150     2.639506     2.631863
      2.624220     2.616577     2.608933     2.601290     2.593647     2.586004     2.578361     2.570717     2.563074     2.555431
      2.547788     2.540144     2.532501     2.524858     2.517215     2.509572     2.501928     2.494285     2.486642     2.478999
      2.471355     2.463712     2.456069     2.448426     2.440783     2.433139     2.425496     2.417853     2.410210     2.402566
      2.394923     2.387280     2.379637     2.371994     2.364350     2.356707     2.349064     2.341421     2.333777     2.326134
      2.318491     2.310848     2.303205     2.295561     2.287918     2.280275     2.272632     2.264988     2.257345     2.249702
      2.242059     2.234416     2.226772     2.219129     2.211486     2.203843     2.196199     2.188556     2.180913     2.173270
      2.165627     2.157983     2.150340     2.142697     2.135054     2.127410     2.119767     2.112124     2.104481     2.096838
      2.089194     2.081551     2.073908     2.066265     2.058621     2.050978     2.043335     2.035692     2.028049     2.020405
      2.012762     2.005119     1.997476     1.989833     1.982190     1.974546     1.966903     1.959260     1.951617     1.943974
      1.936331     1.928688     1.921045     1.913402     1.905759     1.898115     1.890472     1.882829     1.875186     1.867543
      1.859900     1.852257     1.844614     1.836971     1.829327     1.821684     1.814041     1.806398     1.798755     1.791112
      1.783469     1.775826     1.768183     1.760540     1.752896     1.745253     1.737610     1.729967     1.722324     1.714681
      1.707038     1.699395     1.691752     1.684108     1.676465     1.668822     1.661179     1.653536     1.645893     1.638250
      1.630607     1.622964     1.615321     1.607677     1.600034     1.592391     1.584748     1.577105     1.569462     1.561819
      1.554176     1.546533     1.538890     1.531246     1.523603     1.515960     1.508317     1.500674     1.493031     1.485388
      1.477745     1.470102     1.462458     1.454815     1.447172     1.439529     1.431886     1.424243     1.416600     1.408957
      1.401314     1.393671     1.386027     1.378384     1.370741     1.363098     1.355455     1.347812     1.340169     1.332526
      1.324883     1.317240     1.309596     1.301953     1.294310     1.286667     1.279024     1.271381     1.263738     1.256095
      1.248452     1.240808     1.233165     1.225522     1.217879     1.210236     1.202593     1.194950     1.187307     1.179664
      1.172021     1.164377     1.156734     1.149091     1.141448     1.133805     1.126162     1.118519     1.110876     1.103233
      1.095590     1.087946     1.080303     1.072660     1.065017     1.057374     1.049731     1.042088     1.034445     1.026802
      1.019158     1.011515     1.003872     0.996229     0.988586     0.980943     0.973300     0.965657     0.958014     0.950371
      0.942727     0.935084     0.927441     0.919798     0.912155     0.904512     0.896869     0.889226     0.881583     0.873940
      0.866296     0.858653     0.851010     0.843367     0.835724     0.828081     0.820438     0.812795     0.805152     0.797508
      0.789865     0.782222     0.774579     0.766936     0.759293     0.751650     0.744007     0.736364     0.728721     0.721077
      0.713434     0.705791     0.698148     0.690505     0.682862     0.675219     0.667576     0.659933     0.652290     0.644646
      0.637003     0.629360     0.621717     0.614074     0.606431     0.598788     0.591145     0.583502     0.575858     0.568215
      0.560572     0.552929     0.545286     0.537643     0.530000     0.522357     0.514714     0.507071     0.499427     0.491784
      0.484141     0.476498     0.468855     0.461212     0.453569     0.445925     0.438282     0.430639     0.422996     0.415353
      0.407710     0.400067     0.392424     0.384780     0.377137     0.369494     0.361851     0.354208     0.346565     0.338922
      0.331278     0.323635     0.315992     0.308349     0.300706     0.293063     0.285420     0.277777     0.270133     0.262490
      0.254847     0.247204     0.239561     0.231918     0.224275     0.216631     0.208988     0.201345
 NY phased data points follow
   3.92631E+00  3.40824E+00  3.11841E+00  2.18136E+00  1.97322E+00  2.06582E+00  4.42957E-01  1.26344E+00  4.01468E+00  9.31762E-01
   3.17988E+00  1.05291E+00  1.52857E+00 -9.24051E-02  2.75684E+00  1.68025E+00  2.31479E+00  1.95367E+00 -6.06552E-01 -1.02305E+00
   3.38767E-01  8.10271E-01  5.00349E+00  3.73567E-01  3.09488E+00 -1.57533E+00  1.63566E+00  6.63195E-01 -4.91849E-01  2.58010E+00
   8.92720E-01  9.06580E-01 -1.41459E+00  3.52302E+00  1.94772E-01 -1.00116E+00  5.06560E+00  2.87111E+00 -4.77220E-01  1.46216E+00
   1.68733E+00  1.85137E+00  3.44788E+00  8.42368E-01  2.03959E+00  5.27017E-01 -1.15672E-01  2.46276E+00  3.66901E+00 -1.60633E+00
  -1.53941E+00  1.45655E+00  2.76247E+00 -4.71344E-01  7.54068E-01  2.26635E+00  2.71404E-01  8.25706E-01 -1.30938E+00  4.23686E+00
   1.88446E+00  2.27122E+00  2.39804E-01 -1.64238E+00  1.40993E+00  3.36844E-01  3.13317E+00  2.43756E+00  3.42597E+00  1.58882E-02
   2.02870E+00  8.66431E-01  2.22688E+00 -1.19420E+00 -7.61834E-01 -2.90958E-01 -2.23575E+00 -5.47674E-01 -2.92661E+00  9.36030E-01
  -1.20966E+00  2.19977E+00  1.46976E+00  2.18280E+00 -2.52139E-01 -9.21004E-01  2.55558E+00  1.05739E-01  1.91994E+00 -8.82208E-01
   1.21754E-01 -3.33293E-01 -3.73637E-01  1.28868E+00 -9.91854E-01  5.47020E-01  9.16988E-01  2.13230E+00  2.53236E+00  4.02772E+00
   2.80718E+00  1.21179E+00  2.58486E+00  1.10715E+00  1.67544E+00  1.70132E+00  1.12755E+00  8.30143E-01  2.08576E+00 -8.01486E-01
   1.77568E+00  7.50931E-01  9.51522E-01  7.96430E-01  1.68490E+00  8.80903E-01 -2.40239E+00  1.13910E-01  1.01870E+00  5.47525E-01
   2.20005E+00  3.37422E-01 -3.14235E+00 -1.76639E+00  3.41906E+00 -8.35041E-01  4.60854E-01  1.70770E+00  4.87021E-01  1.06032E+00
  -5.86605E-01 -2.08618E-01  5.19594E-01  1.63774E+00  1.91150E-01 -4.30901E-01 -1.13370E+00  1.76527E+00  9.04773E-01  2.56535E+00
  -2.91758E+00  1.50045E+00 -1.15409E-01  8.43697E-01  2.88276E-01  2.97364E+00  9.08915E-01 -8.94725E-02  1.02498E+00  1.59999E+00
   3.13273E+00  4.64930E-02 -1.25179E+00  7.88925E-01  1.70606E+00  2.94622E-01  1.39629E+00  1.16615E+00  5.13843E+00 -1.46420E+00
  -8.11938E-01 -2.00399E+00  2.83766E+00  7.00796E-01  3.00424E+00  2.03803E+00  4.12092E-01  9.20362E-03 -2.53764E+00 -8.35184E-01
   2.47991E+00 -1.30779E+00  1.69950E-02 -4.17251E-01  2.47831E+00  3.79465E-02  1.95483E+00  1.01102E+00  2.60686E-01  9.51598E-01
  -1.84978E-01  4.26731E-01  1.60088E+00  3.13131E+00  3.52403E+00  2.13831E+00  3.81031E-02  3.37632E-02  1.10859E+00  1.74366E-01
   9.47374E-01 -2.17251E-01 -4.67223E-01  5.72903E-01 -4.27712E-03 -1.54008E+00 -2.41600E+00 -4.29534E-01  8.92525E-01 -3.44570E-01
  -2.74992E-01  4.84088E-01  1.90757E+00  8.36936E-01  6.94397E-01 -2.21679E+00  1.95986E+00  6.24654E-02  7.41273E-02 -6.92806E-01
  -1.75555E+00 -6.71569E-01 -8.08514E-02 -1.83303E+00  6.22396E-01  8.38678E-01  5.60013E-01 -5.83626E-01 -1.85572E+00 -8.78770E-01
  -4.60009E-01  1.05420E+00 -3.80876E-01 -1.00148E+00  1.07588E+00  1.27217E+00  9.77352E-01 -2.97991E+00 -1.13801E+00  1.20329E+00
   2.81724E+00  8.15614E-01  7.48170E-01  2.86419E+00  1.91182E+00  1.22405E+00  1.42425E+00  5.12781E-01 -7.17785E-01  1.18580E+00
   1.02868E+00  1.68659E-03 -1.15585E+00 -1.30763E+00 -5.88393E-01  1.22633E+00  1.14889E+00  1.63866E+00 -2.69744E+00  2.61622E+00
   1.51463E+00 -1.35458E+00  3.46154E+00  7.33233E-01  1.84079E+00  1.44178E+00  2.00533E+00 -1.15315E-01  7.01814E-01  1.41017E+00
  -1.62085E+00 -1.01568E+00  4.33144E+00  1.54658E-01 -1.48881E+00  1.98300E+00  2.12162E+00  2.15237E+00 -4.92025E-01  3.59864E+00
   3.77248E+00  2.25432E+00 -3.08468E+00  1.35842E-02  7.75233E-01 -4.75400E-01 -1.73554E+00 -6.84644E-01  1.77273E+00 -2.97187E-01
  -1.22083E+00 -3.12075E-01  1.02443E+00  4.99077E-01  7.75742E-01  6.97425E-01 -1.09154E-01  2.45721E+00  7.31147E-01  1.28989E+00
   2.86776E+00 -1.45099E+00  2.67150E+00 -6.66030E-01  6.20820E-01  2.65677E+00  4.22159E+00 -2.32513E-01 -4.21892E-01  1.49919E+00
   4.04925E-01  2.71257E+00  3.74039E+00 -1.52229E-01  2.98655E-01  3.73974E-01  3.00236E+00  2.02107E+00 -3.52818E-01  5.42469E+00
   5.21797E-01  1.86948E+00 -1.54789E+00 -1.02340E+00  3.68145E+00  4.70268E+00  3.08909E+00 -9.19318E-01 -1.77149E+00 -1.14591E+00
   3.09146E+00 -2.00712E+00  2.01548E+00  6.26083E+00 -1.04222E+00 -2.67868E+00  9.71913E-01  2.64079E+00  1.95960E+00  6.84615E-01
   2.44300E+00  2.43547E+00  2.78367E+00  3.13017E+00  3.62369E+00  4.91721E+00  1.06813E+00  3.49758E+00 -1.14571E+00 -3.76748E-01
   1.42508E+00  4.10524E-01  4.62418E-01  2.37251E-01  2.72684E+00 -3.14145E-01 -3.43039E-01  7.25405E-01  6.79065E-01  4.14580E+00
   5.16297E+00  2.16073E+00  2.87525E+00  3.01759E+00  3.75829E+00 -6.69273E-01  8.25111E+00 -1.89443E-01  5.61080E-01  8.49432E-01
   2.79085E+00  4.43953E+00  5.03663E+00  1.00473E+00  1.02691E+00  1.88044E+00  2.99942E+00  9.88421E-01  2.42617E+00 -1.10224E+00
  -1.62138E+00 -8.71914E-01  2.03845E+00  2.37163E+00  1.90712E+00  3.79304E+00  7.23150E-01  2.08923E+00  7.69389E-01 -2.05719E-01
  -7.57971E-01  1.31629E+00 -1.77219E-01  1.86203E+00  3.39681E+00  1.94407E+00  2.53251E+00  2.60021E+00  3.59949E+00  3.20124E+00
   4.56604E+00  3.94558E+00  2.42158E-01  2.46778E+00  2.78378E-01  1.84865E+00  8.65303E-01  2.20095E+00 -5.42387E-01  2.57568E+00
   1.33615E+00  9.70347E-01  1.15813E+00  2.26104E+00  2.62922E-01  1.61250E+00  2.44970E+00 -1.19903E+00 -2.62663E-01 -1.94506E+00
   2.98007E+00  3.31960E+00  3.37963E-01  3.31076E+00  3.54103E+00  1.77493E+00  7.10666E-01  2.06483E+00  3.11652E+00  5.09004E+00
   1.70495E+00 -3.70650E-01  3.31472E+00  1.65099E+00  1.48083E+00  2.41524E+00  4.67587E-01  1.25712E+00  1.34801E+00  1.02311E+00
   6.80705E-01 -2.24238E-01  2.05268E+00 -1.31478E+00 -7.43066E-01 -1.44296E+00  1.62773E-01 -2.91952E+00  8.15114E-01  1.01364E+00
  -6.94532E-02  7.15050E-01  8.80710E-01  1.83511E+00 -2.29361E-01  1.33399E-01  4.56606E-01  1.44190E+00 -4.75675E-01  7.84063E-01
  -9.85899E-01  2.26886E+00 -6.33227E-01 -6.71110E-01 -6.70721E-01 -5.33971E-01  4.17505E-01 -8.30726E-01 -1.28906E+00  1.37019E-01
  -8.32997E-01  5.82039E-01 -3.05772E-02  4.40854E-01 -1.02302E+00  2.51628E-01 -4.62221E-01 -2.13681E+00  6.62821E-01 -1.22453E+00
   7.37906E-01 -9.12501E-01 -3.92058E-01 -1.77335E+00 -2.33293E+00 -1.04139E+00  8.13436E-02  6.47596E-01 -2.15903E+00  1.37966E+00
  -1.90734E-02 -1.22860E-01  3.46719E+00 -2.28833E+00  1.05162E+00  1.23306E+00 -3.28923E-01  3.02611E-01 -1.35689E-01 -3.15295E-01
  -7.78420E-01  1.63370E-02 -1.96569E+00 -2.91582E-01  7.94888E-01 -1.74794E+00 -1.52970E-03  1.10571E+00
 NY points of the fit to the data follow
   1.46873E+00  1.35574E+00  1.41162E+00  1.30464E+00  1.30659E+00  1.22086E+00  1.19495E+00  1.14030E+00  1.10848E+00  1.09610E+00
   1.09025E+00  1.09559E+00  1.08144E+00  1.09199E+00  1.05392E+00  1.06379E+00  1.02324E+00  1.04116E+00  1.02174E+00  1.04421E+00
   1.04223E+00  1.05625E+00  1.05963E+00  1.05852E+00  1.07279E+00  1.05349E+00  1.08414E+00  1.04971E+00  1.09599E+00  1.04842E+00
   1.11541E+00  1.08467E+00  1.19201E+00  1.17891E+00  1.30973E+00  1.30028E+00  1.43660E+00  1.41546E+00  1.53880E+00  1.49739E+00
   1.59939E+00  1.53698E+00  1.61301E+00  1.54395E+00  1.60187E+00  1.53788E+00  1.58404E+00  1.52233E+00  1.55235E+00  1.49369E+00
   1.51265E+00  1.45723E+00  1.46822E+00  1.41338E+00  1.40970E+00  1.34601E+00  1.33183E+00  1.26154E+00  1.24617E+00  1.17463E+00
   1.17074E+00  1.10588E+00  1.11760E+00  1.06370E+00  1.08879E+00  1.04310E+00  1.07873E+00  1.04081E+00  1.07886E+00  1.03406E+00
   1.05805E+00  9.96842E-01  1.00308E+00  9.25530E-01  9.20511E-01  8.33454E-01  8.26318E-01  7.37198E-01  7.34918E-01  6.50117E-01
   6.59236E-01  5.76967E-01  5.90203E-01  5.08396E-01  5.21629E-01  4.49449E-01  4.90748E-01  5.12871E-01  5.71094E-01  6.81848E-01
   7.31714E-01  9.05043E-01  9.27704E-01  1.13316E+00  1.11688E+00  1.33308E+00  1.27813E+00  1.49170E+00  1.39977E+00  1.59546E+00
   1.47095E+00  1.63804E+00  1.48786E+00  1.62261E+00  1.45598E+00  1.56006E+00  1.38534E+00  1.45557E+00  1.27883E+00  1.31207E+00
   1.15131E+00  1.16342E+00  1.02283E+00  1.02077E+00  9.00569E-01  8.90464E-01  7.92144E-01  7.88714E-01  7.09040E-01  7.21751E-01
   6.58535E-01  6.93674E-01  6.44916E-01  7.10335E-01  6.58224E-01  7.18648E-01  6.60669E-01  7.12867E-01  6.52091E-01  6.95769E-01
   6.34508E-01  6.68575E-01  6.07628E-01  6.29571E-01  5.70018E-01  5.77901E-01  5.22512E-01  5.17678E-01  4.69400E-01  4.54788E-01
   4.16870E-01  3.98354E-01  3.71676E-01  3.53674E-01  3.36901E-01  3.22949E-01  3.14663E-01  3.08386E-01  3.01611E-01  2.96230E-01
   2.89812E-01  2.85326E-01  2.79196E-01  2.75630E-01  2.69833E-01  2.67144E-01  2.61772E-01  2.59831E-01  2.54890E-01  2.53768E-01
   2.49197E-01  2.48650E-01  2.44265E-01  2.44025E-01  2.39796E-01  2.39658E-01  2.35647E-01  2.35421E-01  2.31852E-01  2.31730E-01
   2.28597E-01  2.28637E-01  2.26056E-01  2.26210E-01  2.24150E-01  2.24259E-01  2.22597E-01  2.22327E-01  2.20898E-01  2.20294E-01
   2.18754E-01  2.18202E-01  2.17339E-01  2.17572E-01  2.18065E-01  2.20746E-01  2.24448E-01  2.31460E-01  2.40139E-01  2.54959E-01
   2.69101E-01  2.81570E-01  3.02387E-01  2.97503E-01  3.12266E-01  2.87693E-01  2.95884E-01  2.64368E-01  2.84923E-01  2.80409E-01
   3.56706E-01  3.51837E-01  4.81839E-01  4.41280E-01  6.01758E-01  4.82209E-01  6.21242E-01  4.18717E-01  5.52275E-01  3.00325E-01
   4.42333E-01  1.77417E-01  3.33376E-01  8.41679E-02  2.49775E-01  2.95554E-02  1.99251E-01  1.81530E-02  1.90720E-01  5.03743E-02
   2.16774E-01  1.10771E-01  2.57168E-01  1.78072E-01  2.84459E-01  2.34162E-01  2.95193E-01  2.74143E-01  3.12356E-01  3.34860E-01
   3.67301E-01  4.31522E-01  4.74140E-01  5.58777E-01  6.05605E-01  6.80827E-01  7.26458E-01  7.66982E-01  8.00393E-01  8.13585E-01
   8.36309E-01  8.28637E-01  8.32348E-01  8.26767E-01  8.32658E-01  8.46209E-01  8.50374E-01  8.86642E-01  8.90830E-01  9.37271E-01
   9.38274E-01  9.85546E-01  9.78046E-01  1.02117E+00  1.00138E+00  1.03645E+00  1.00209E+00  1.03110E+00  9.87687E-01  1.01196E+00
   9.62195E-01  9.82365E-01  9.33064E-01  9.47980E-01  9.05287E-01  9.14708E-01  8.78051E-01  8.77989E-01  8.48237E-01  8.36928E-01
   8.10602E-01  7.90238E-01  7.68457E-01  7.46337E-01  7.28126E-01  7.07269E-01  6.91480E-01  6.74924E-01  6.61142E-01  6.52795E-01
   6.46088E-01  6.46245E-01  6.46235E-01  6.53137E-01  6.60582E-01  6.71594E-01  6.85923E-01  7.04064E-01  7.25907E-01  7.51929E-01
   7.81945E-01  8.16204E-01  8.54220E-01  8.96767E-01  9.41613E-01  9.88937E-01  1.03628E+00  1.08389E+00  1.12893E+00  1.17184E+00
   1.20955E+00  1.24303E+00  1.26957E+00  1.29005E+00  1.30245E+00  1.30786E+00  1.30508E+00  1.29547E+00  1.27857E+00  1.25613E+00
   1.22833E+00  1.19704E+00  1.16294E+00  1.12787E+00  1.09271E+00  1.05913E+00  1.02804E+00  1.00082E+00  9.78274E-01  9.61508E-01
   9.51233E-01  9.48432E-01  9.53917E-01  9.68909E-01  9.94737E-01  1.03370E+00  1.08920E+00  1.16781E+00  1.28319E+00  1.47379E+00
   1.76609E+00  1.90025E+00  2.24104E+00  2.20487E+00  2.49147E+00  2.22135E+00  2.35908E+00  1.87359E+00  2.09769E+00  1.49200E+00
   1.89770E+00  1.21316E+00  1.81032E+00  1.08486E+00  1.84649E+00  1.11960E+00  2.01292E+00  1.32124E+00  2.31548E+00  1.67301E+00
   2.69271E+00  2.08319E+00  3.02637E+00  2.42526E+00  3.20709E+00  2.60719E+00  3.20215E+00  2.61467E+00  3.03704E+00  2.50811E+00
   2.80154E+00  2.36298E+00  2.54632E+00  2.21198E+00  2.30553E+00  2.06629E+00  2.07467E+00  1.84955E+00  1.73933E+00  1.55044E+00
   1.38972E+00  1.24178E+00  1.08284E+00  9.83087E-01  9.13775E-01  8.62057E-01  8.22485E-01  7.92529E-01  7.70609E-01  7.56062E-01
   7.48346E-01  7.47419E-01  7.53117E-01  7.65625E-01  7.84901E-01  8.11185E-01  8.44421E-01  8.84764E-01  9.31998E-01  9.86048E-01
   1.04641E+00  1.11265E+00  1.18387E+00  1.25919E+00  1.33727E+00  1.41676E+00  1.49590E+00  1.57302E+00  1.64609E+00  1.71332E+00
   1.77268E+00  1.82257E+00  1.86129E+00  1.88772E+00  1.90080E+00  1.90013E+00  1.88547E+00  1.85725E+00  1.81604E+00  1.76303E+00
   1.69946E+00  1.62706E+00  1.54744E+00  1.46257E+00  1.37414E+00  1.28401E+00  1.19368E+00  1.10471E+00  1.01817E+00  9.35204E-01
   8.56430E-01  7.82525E-01  7.13681E-01  6.50187E-01  5.91903E-01  5.38841E-01  4.90643E-01  4.47157E-01  4.07914E-01  3.72694E-01
   3.40999E-01  3.12610E-01  2.87048E-01  2.64132E-01  2.43429E-01  2.24811E-01  2.07903E-01  1.92628E-01  1.78664E-01  1.65980E-01
   1.54298E-01  1.43630E-01  1.33729E-01  1.24640E-01  1.16142E-01  1.08301E-01  1.00916E-01  9.40737E-02  8.75870E-02  8.15533E-02
   7.57965E-02  7.04235E-02  6.52666E-02  6.04405E-02  5.57833E-02  5.14142E-02  4.71752E-02  4.31900E-02  3.93049E-02  3.56468E-02
   3.20644E-02  2.86862E-02  2.53631E-02  2.22257E-02  1.91273E-02  1.61999E-02  1.32976E-02  1.05530E-02  7.82149E-03  5.23726E-03
   2.65715E-03  2.15410E-04 -2.23080E-03 -4.54680E-03 -6.87425E-03 -9.07751E-03 -1.12977E-02 -1.33993E-02 -1.55234E-02 -1.75338E-02
  -1.95708E-02 -2.14976E-02 -2.34543E-02 -2.53043E-02 -2.71877E-02 -2.89669E-02 -3.07813E-02 -3.24931E-02 -3.42417E-02 -3.58892E-02
  -3.75741E-02 -3.91577E-02 -4.07778E-02 -4.22950E-02 -4.38462E-02 -4.52904E-02 -4.67623E-02 -4.81178E-02
 NY background values follow
     3.702E-01    3.693E-01    3.684E-01    3.674E-01    3.665E-01    3.656E-01    3.647E-01    3.638E-01    3.628E-01    3.619E-01
     3.610E-01    3.601E-01    3.592E-01    3.583E-01    3.573E-01    3.564E-01    3.555E-01    3.546E-01    3.537E-01    3.527E-01
     3.518E-01    3.509E-01    3.500E-01    3.491E-01    3.482E-01    3.472E-01    3.463E-01    3.454E-01    3.445E-01    3.436E-01
     3.426E-01    3.417E-01    3.408E-01    3.399E-01    3.390E-01    3.381E-01    3.371E-01    3.362E-01    3.353E-01    3.344E-01
     3.335E-01    3.325E-01    3.316E-01    3.307E-01    3.298E-01    3.289E-01    3.280E-01    3.270E-01    3.261E-01    3.252E-01
     3.243E-01    3.234E-01    3.225E-01    3.215E-01    3.206E-01    3.197E-01    3.188E-01    3.179E-01    3.169E-01    3.160E-01
     3.151E-01    3.142E-01    3.133E-01    3.124E-01    3.114E-01    3.105E-01    3.096E-01    3.087E-01    3.078E-01    3.068E-01
     3.059E-01    3.050E-01    3.041E-01    3.032E-01    3.023E-01    3.013E-01    3.004E-01    2.995E-01    2.986E-01    2.977E-01
     2.967E-01    2.958E-01    2.949E-01    2.940E-01    2.931E-01    2.922E-01    2.912E-01    2.903E-01    2.894E-01    2.885E-01
     2.876E-01    2.866E-01    2.857E-01    2.848E-01    2.839E-01    2.830E-01    2.821E-01    2.811E-01    2.802E-01    2.793E-01
     2.784E-01    2.775E-01    2.766E-01    2.756E-01    2.747E-01    2.738E-01    2.729E-01    2.720E-01    2.710E-01    2.701E-01
     2.692E-01    2.683E-01    2.674E-01    2.665E-01    2.655E-01    2.646E-01    2.637E-01    2.628E-01    2.619E-01    2.609E-01
     2.600E-01    2.591E-01    2.582E-01    2.573E-01    2.564E-01    2.554E-01    2.545E-01    2.536E-01    2.527E-01    2.518E-01
     2.508E-01    2.499E-01    2.490E-01    2.481E-01    2.472E-01    2.463E-01    2.453E-01    2.444E-01    2.435E-01    2.426E-01
     2.417E-01    2.408E-01    2.398E-01    2.389E-01    2.380E-01    2.371E-01    2.362E-01    2.352E-01    2.343E-01    2.334E-01
     2.325E-01    2.316E-01    2.307E-01    2.297E-01    2.288E-01    2.279E-01    2.270E-01    2.261E-01    2.251E-01    2.242E-01
     2.233E-01    2.224E-01    2.215E-01    2.206E-01    2.196E-01    2.187E-01    2.178E-01    2.169E-01    2.160E-01    2.150E-01
     2.141E-01    2.132E-01    2.123E-01    2.114E-01    2.105E-01    2.095E-01    2.086E-01    2.077E-01    2.068E-01    2.059E-01
     2.050E-01    2.040E-01    2.031E-01    2.022E-01    2.013E-01    2.004E-01    1.994E-01    1.985E-01    1.976E-01    1.967E-01
     1.958E-01    1.949E-01    1.939E-01    1.930E-01    1.921E-01    1.912E-01    1.903E-01    1.893E-01    1.884E-01    1.875E-01
     1.866E-01    1.857E-01    1.848E-01    1.838E-01    1.829E-01    1.820E-01    1.811E-01    1.802E-01    1.792E-01    1.783E-01
     1.774E-01    1.765E-01    1.756E-01    1.747E-01    1.737E-01    1.728E-01    1.719E-01    1.710E-01    1.701E-01    1.692E-01
     1.682E-01    1.673E-01    1.664E-01    1.655E-01    1.646E-01    1.636E-01    1.627E-01    1.618E-01    1.609E-01    1.600E-01
     1.591E-01    1.581E-01    1.572E-01    1.563E-01    1.554E-01    1.545E-01    1.535E-01    1.526E-01    1.517E-01    1.508E-01
     1.499E-01    1.490E-01    1.480E-01    1.471E-01    1.462E-01    1.453E-01    1.444E-01    1.434E-01    1.425E-01    1.416E-01
     1.407E-01    1.398E-01    1.389E-01    1.379E-01    1.370E-01    1.361E-01    1.352E-01    1.343E-01    1.334E-01    1.324E-01
     1.315E-01    1.306E-01    1.297E-01    1.288E-01    1.278E-01    1.269E-01    1.260E-01    1.251E-01    1.242E-01    1.233E-01
     1.223E-01    1.214E-01    1.205E-01    1.196E-01    1.187E-01    1.177E-01    1.168E-01    1.159E-01    1.150E-01    1.141E-01
     1.132E-01    1.122E-01    1.113E-01    1.104E-01    1.095E-01    1.086E-01    1.077E-01    1.067E-01    1.058E-01    1.049E-01
     1.040E-01    1.031E-01    1.021E-01    1.012E-01    1.003E-01    9.939E-02    9.847E-02    9.755E-02    9.664E-02    9.572E-02
     9.480E-02    9.388E-02    9.296E-02    9.205E-02    9.113E-02    9.021E-02    8.929E-02    8.838E-02    8.746E-02    8.654E-02
     8.562E-02    8.470E-02    8.379E-02    8.287E-02    8.195E-02    8.103E-02    8.011E-02    7.920E-02    7.828E-02    7.736E-02
     7.644E-02    7.552E-02    7.461E-02    7.369E-02    7.277E-02    7.185E-02    7.094E-02    7.002E-02    6.910E-02    6.818E-02
     6.726E-02    6.635E-02    6.543E-02    6.451E-02    6.359E-02    6.267E-02    6.176E-02    6.084E-02    5.992E-02    5.900E-02
     5.808E-02    5.717E-02    5.625E-02    5.533E-02    5.441E-02    5.350E-02    5.258E-02    5.166E-02    5.074E-02    4.982E-02
     4.891E-02    4.799E-02    4.707E-02    4.615E-02    4.523E-02    4.432E-02    4.340E-02    4.248E-02    4.156E-02    4.064E-02
     3.973E-02    3.881E-02    3.789E-02    3.697E-02    3.606E-02    3.514E-02    3.422E-02    3.330E-02    3.238E-02    3.147E-02
     3.055E-02    2.963E-02    2.871E-02    2.779E-02    2.688E-02    2.596E-02    2.504E-02    2.412E-02    2.320E-02    2.229E-02
     2.137E-02    2.045E-02    1.953E-02    1.862E-02    1.770E-02    1.678E-02    1.586E-02    1.494E-02    1.403E-02    1.311E-02
     1.219E-02    1.127E-02    1.035E-02    9.436E-03    8.518E-03    7.600E-03    6.682E-03    5.765E-03    4.847E-03    3.929E-03
     3.011E-03    2.093E-03    1.175E-03    2.570E-04   -6.609E-04   -1.579E-03   -2.497E-03   -3.415E-03   -4.333E-03   -5.250E-03
    -6.168E-03   -7.086E-03   -8.004E-03   -8.922E-03   -9.840E-03   -1.076E-02   -1.168E-02   -1.259E-02   -1.351E-02   -1.443E-02
    -1.535E-02   -1.627E-02   -1.718E-02   -1.810E-02   -1.902E-02   -1.994E-02   -2.086E-02   -2.177E-02   -2.269E-02   -2.361E-02
    -2.453E-02   -2.544E-02   -2.636E-02   -2.728E-02   -2.820E-02   -2.912E-02   -3.003E-02   -3.095E-02   -3.187E-02   -3.279E-02
    -3.371E-02   -3.462E-02   -3.554E-02   -3.646E-02   -3.738E-02   -3.830E-02   -3.921E-02   -4.013E-02   -4.105E-02   -4.197E-02
    -4.289E-02   -4.380E-02   -4.472E-02   -4.564E-02   -4.656E-02   -4.748E-02   -4.839E-02   -4.931E-02   -5.023E-02   -5.115E-02
    -5.206E-02   -5.298E-02   -5.390E-02   -5.482E-02   -5.574E-02   -5.665E-02   -5.757E-02   -5.849E-02   -5.941E-02   -6.033E-02
    -6.124E-02   -6.216E-02   -6.308E-02   -6.400E-02   -6.492E-02   -6.583E-02   -6.675E-02   -6.767E-02   -6.859E-02   -6.951E-02
    -7.042E-02   -7.134E-02   -7.226E-02   -7.318E-02   -7.410E-02   -7.501E-02   -7.593E-02   -7.685E-02   -7.777E-02   -7.869E-02
    -7.960E-02   -8.052E-02   -8.144E-02   -8.236E-02   -8.327E-02   -8.419E-02   -8.511E-02   -8.603E-02
 Asp      Conc. = 6.78E+00
