 LCModel (Version 6.3-1L) Copyright: S.W. Provencher.          Ref.: Magn. Reson. Med. 30:672-679 (1993).                
 Slice#1 Row#1 Col#11  PD_24_press_1_raw_act
 36 lines in following concentration table = NCONC+1
    Conc.  %SD /Cr+PCr  Metabolite                                         
   18.527 242%   0.924 Ala                                                 
    3.255 141%   0.162 Asp                                                 
   20.047 100%   1.000 Cr                                                  
    0.000 999%   0.000 PCr                                                 
    1.805 152% 9.0E-02 GABA                                                
    1.725 160% 8.6E-02 Glc                                                 
    0.000 999%   0.000 Gln                                                 
    0.000 999%   0.000 Glu                                                 
   12.096  65%   0.603 GPC                                                 
    0.000 999%   0.000 PCh                                                 
    0.000 999%   0.000 GSH                                                 
  106.904  86%   5.333 Ins                                                 
  117.713  45%   5.872 Lac                                                 
    0.000 999%   0.000 NAA                                                 
    2.998 867%   0.150 NAAG                                                
    0.699 131% 3.5E-02 Scyllo                                              
    2.992 153%   0.149 Tau                                                 
    3.092 208%   0.154 -CrCH2                                              
   12.096  65%   0.603 GPC+PCh                                             
    2.998 867%   0.150 NAA+NAAG                                            
   20.047 100%   1.000 Cr+PCr                                              
    0.000 999%   0.000 Glu+Gln                                             
 1.04E+03  27%  51.723 Lip13a                                              
    0.000 999%   0.000 Lip13b                                              
  279.204  35%  13.928 Lip09                                               
  385.518  29%  19.231 MM09                                                
  145.882  42%   7.277 Lip20                                               
  200.075  75%   9.981 MM20                                                
  118.872  61%   5.930 MM12                                                
  862.843  21%  43.042 MM14                                                
  288.915  40%  14.412 MM17                                                
 1.04E+03  27%  51.723 Lip13a+Lip13b                                       
 2.02E+03  10% 100.694 MM14+Lip13a+Lip13b+MM12                             
  664.722  12%  33.159 MM09+Lip09                                          
  345.957  39%  17.258 MM20+Lip20                                          
   6 lines in following misc. output table
  FWHM = 0.054 ppm    S/N =   2                                            
  Data shift = 0.023 ppm                                                   
  Ph: -75 deg       8.5 deg/ppm                                            
  alphaB,S = 8.5E+01,   2.6E+01                                            
   14 spline knots.   Ns = 5(1)                                            
   2 inflections.     1 extrema                                            
  498 points on ppm-axis = NY
      4.000000     3.992357     3.984714     3.977070     3.969427     3.961784     3.954141     3.946497     3.938854     3.931211
      3.923568     3.915925     3.908281     3.900638     3.892995     3.885352     3.877708     3.870065     3.862422     3.854779
      3.847136     3.839492     3.831849     3.824206     3.816563     3.808919     3.801276     3.793633     3.785990     3.778347
      3.770703     3.763060     3.755417     3.747774     3.740130     3.732487     3.724844     3.717201     3.709558     3.701914
      3.694271     3.686628     3.678985     3.671341     3.663698     3.656055     3.648412     3.640769     3.633125     3.625482
      3.617839     3.610196     3.602552     3.594909     3.587266     3.579623     3.571980     3.564336     3.556693     3.549050
      3.541407     3.533763     3.526120     3.518477     3.510834     3.503191     3.495547     3.487904     3.480261     3.472618
      3.464974     3.457331     3.449688     3.442045     3.434402     3.426758     3.419115     3.411472     3.403829     3.396185
      3.388542     3.380899     3.373256     3.365613     3.357969     3.350326     3.342683     3.335040     3.327396     3.319753
      3.312110     3.304467     3.296824     3.289180     3.281537     3.273894     3.266251     3.258607     3.250964     3.243321
      3.235678     3.228034     3.220391     3.212748     3.205105     3.197462     3.189818     3.182175     3.174532     3.166889
      3.159245     3.151602     3.143959     3.136316     3.128673     3.121029     3.113386     3.105743     3.098100     3.090456
      3.082813     3.075170     3.067527     3.059884     3.052240     3.044597     3.036954     3.029311     3.021667     3.014024
      3.006381     2.998738     2.991095     2.983451     2.975808     2.968165     2.960522     2.952878     2.945235     2.937592
      2.929949     2.922306     2.914662     2.907019     2.899376     2.891733     2.884089     2.876446     2.868803     2.861160
      2.853517     2.845873     2.838230     2.830587     2.822944     2.815300     2.807657     2.800014     2.792371     2.784728
      2.777084     2.769441     2.761798     2.754155     2.746511     2.738868     2.731225     2.723582     2.715939     2.708295
      2.700652     2.693009     2.685366     2.677722     2.670079     2.662436     2.654793     2.647150     2.639506     2.631863
      2.624220     2.616577     2.608933     2.601290     2.593647     2.586004     2.578361     2.570717     2.563074     2.555431
      2.547788     2.540144     2.532501     2.524858     2.517215     2.509572     2.501928     2.494285     2.486642     2.478999
      2.471355     2.463712     2.456069     2.448426     2.440783     2.433139     2.425496     2.417853     2.410210     2.402566
      2.394923     2.387280     2.379637     2.371994     2.364350     2.356707     2.349064     2.341421     2.333777     2.326134
      2.318491     2.310848     2.303205     2.295561     2.287918     2.280275     2.272632     2.264988     2.257345     2.249702
      2.242059     2.234416     2.226772     2.219129     2.211486     2.203843     2.196199     2.188556     2.180913     2.173270
      2.165627     2.157983     2.150340     2.142697     2.135054     2.127410     2.119767     2.112124     2.104481     2.096838
      2.089194     2.081551     2.073908     2.066265     2.058621     2.050978     2.043335     2.035692     2.028049     2.020405
      2.012762     2.005119     1.997476     1.989833     1.982190     1.974546     1.966903     1.959260     1.951617     1.943974
      1.936331     1.928688     1.921045     1.913402     1.905759     1.898115     1.890472     1.882829     1.875186     1.867543
      1.859900     1.852257     1.844614     1.836971     1.829327     1.821684     1.814041     1.806398     1.798755     1.791112
      1.783469     1.775826     1.768183     1.760540     1.752896     1.745253     1.737610     1.729967     1.722324     1.714681
      1.707038     1.699395     1.691752     1.684108     1.676465     1.668822     1.661179     1.653536     1.645893     1.638250
      1.630607     1.622964     1.615321     1.607677     1.600034     1.592391     1.584748     1.577105     1.569462     1.561819
      1.554176     1.546533     1.538890     1.531246     1.523603     1.515960     1.508317     1.500674     1.493031     1.485388
      1.477745     1.470102     1.462458     1.454815     1.447172     1.439529     1.431886     1.424243     1.416600     1.408957
      1.401314     1.393671     1.386027     1.378384     1.370741     1.363098     1.355455     1.347812     1.340169     1.332526
      1.324883     1.317240     1.309596     1.301953     1.294310     1.286667     1.279024     1.271381     1.263738     1.256095
      1.248452     1.240808     1.233165     1.225522     1.217879     1.210236     1.202593     1.194950     1.187307     1.179664
      1.172021     1.164377     1.156734     1.149091     1.141448     1.133805     1.126162     1.118519     1.110876     1.103233
      1.095590     1.087946     1.080303     1.072660     1.065017     1.057374     1.049731     1.042088     1.034445     1.026802
      1.019158     1.011515     1.003872     0.996229     0.988586     0.980943     0.973300     0.965657     0.958014     0.950371
      0.942727     0.935084     0.927441     0.919798     0.912155     0.904512     0.896869     0.889226     0.881583     0.873940
      0.866296     0.858653     0.851010     0.843367     0.835724     0.828081     0.820438     0.812795     0.805152     0.797508
      0.789865     0.782222     0.774579     0.766936     0.759293     0.751650     0.744007     0.736364     0.728721     0.721077
      0.713434     0.705791     0.698148     0.690505     0.682862     0.675219     0.667576     0.659933     0.652290     0.644646
      0.637003     0.629360     0.621717     0.614074     0.606431     0.598788     0.591145     0.583502     0.575858     0.568215
      0.560572     0.552929     0.545286     0.537643     0.530000     0.522357     0.514714     0.507071     0.499427     0.491784
      0.484141     0.476498     0.468855     0.461212     0.453569     0.445925     0.438282     0.430639     0.422996     0.415353
      0.407710     0.400067     0.392424     0.384780     0.377137     0.369494     0.361851     0.354208     0.346565     0.338922
      0.331278     0.323635     0.315992     0.308349     0.300706     0.293063     0.285420     0.277777     0.270133     0.262490
      0.254847     0.247204     0.239561     0.231918     0.224275     0.216631     0.208988     0.201345
 NY phased data points follow
   3.90619E+00  3.95218E+00  3.53521E+00  1.64564E+00  1.80777E+00  6.25418E+00  1.33633E+00  2.17387E+00  3.13850E+00  2.41736E+00
   1.08040E+00  4.14502E+00  2.88563E+00  3.49279E+00  2.85192E+00  4.47420E+00  5.77347E+00  2.21298E+00  1.68425E+00  2.16039E-01
   3.52587E+00  3.18608E+00  1.69144E+00  2.09880E+00  5.09079E+00  4.15319E+00  4.49516E+00  3.43401E+00  1.22351E+00  1.08777E+00
   3.38133E+00  4.05910E+00 -1.91613E+00  5.87442E+00  3.60279E+00  5.85826E+00  9.20844E-01  4.28863E+00  2.65319E+00  4.04524E+00
   3.06197E+00  3.04987E+00 -4.25325E-02  2.29607E+00  5.77456E+00  3.03846E+00  3.13837E+00  4.47417E+00  5.19754E+00  4.76197E+00
   4.13650E+00  1.87922E-01  1.35168E+00  3.94325E+00 -9.02306E-01  4.26668E+00  4.50820E+00  3.56950E+00  2.93090E+00  1.56222E+00
   9.05547E-01  1.36446E+00  4.44274E+00  4.33571E+00  4.36978E-01  1.69782E+00 -2.69605E-01  1.69957E+00  3.89796E+00  4.54008E-01
   1.71347E+00  2.01576E+00  4.44375E+00  2.97508E+00 -2.79281E-01  8.35247E-01  3.84949E+00  1.85503E+00  1.64674E-03  2.45305E+00
   2.31016E+00  9.53945E-01  2.61174E+00  5.05433E+00  8.68414E-01  2.97249E+00  5.68696E+00  4.12900E+00  1.06250E+00  2.61016E+00
   1.45994E+00  4.51224E+00  2.46087E+00  3.67316E-01  2.97360E+00  2.96583E+00 -3.32224E-02  1.53898E+00  2.81452E+00  4.16339E+00
   2.07581E+00  4.47514E+00  2.48374E+00  1.55104E+00  3.76958E+00  2.64613E+00  3.19641E-01  5.58894E+00  1.75537E+00  4.25405E-01
   3.66167E+00  5.80652E+00  2.24893E+00  2.45230E+00  4.52357E-01  9.24590E-01 -4.00818E-01  7.13435E-01  3.42577E+00  3.30329E+00
   2.82180E+00  9.20227E-01  3.67671E+00  2.19246E+00 -1.29415E+00  4.73451E+00  2.59948E+00  2.40633E+00  4.70414E-01  4.91171E+00
   2.16577E+00  3.32354E+00  3.45073E+00 -3.68219E-01  3.93341E+00  2.51548E+00  2.27841E+00  1.59861E+00  3.98434E+00  1.91502E+00
   2.36085E+00  1.80938E+00  3.26577E+00  2.70165E+00  9.50815E-01 -4.92925E-01  2.97521E+00  1.65910E+00  4.96058E+00 -1.00633E+00
   3.09666E+00  1.33030E+00  3.09224E-01  3.67390E+00  1.34431E+00  1.14888E+00 -3.90730E-01 -4.76645E-01  3.00876E+00  6.03154E-01
  -2.24542E+00 -1.75631E+00  1.35636E+00 -1.18006E-01  1.24704E-01  1.19752E+00  3.24800E+00  3.42551E+00  4.09872E+00  1.69292E+00
   2.01139E+00  5.56609E+00  1.11427E+00  1.74980E+00  2.98229E+00  1.56130E+00 -8.04572E-01  2.88876E+00  2.91039E+00  3.35300E+00
   3.92845E+00  8.64875E-01  4.25025E+00  1.07565E+00  1.96318E-01 -4.96869E-01  2.16717E+00 -7.98307E-01  6.15397E+00  5.02520E-01
   2.41394E+00  2.15079E+00  2.22915E+00  4.74441E+00 -2.32660E-01  1.42956E+00  3.23922E+00  8.97023E-01  2.24074E+00  1.05670E+00
  -5.67748E-01  6.30075E-01 -1.63180E+00  6.14161E-01  1.03906E+00 -1.32172E+00  1.35391E+00  2.74227E+00 -1.90524E-01  3.67013E+00
   1.24834E+00  6.41578E-01  1.95350E+00 -1.86841E-01  4.14383E-01  2.59371E+00  2.39574E+00  2.08007E-01  1.74837E+00  1.32412E+00
   1.87343E+00 -2.12281E-01  2.35677E+00  6.54105E-03  3.58285E+00  1.02688E+00 -1.34868E+00  1.97806E+00  1.37135E-01  1.92805E-01
   2.39201E+00 -1.07955E+00 -1.77001E-01  3.36601E+00  4.32278E-01  2.14252E-01  2.83689E+00  6.75799E-01  2.33358E+00  2.27320E+00
   1.66509E+00  2.23790E+00  2.03372E+00  1.49866E+00  4.59364E-01  6.70849E-01  1.51398E+00  2.38612E-01 -3.30614E+00  3.17465E+00
   1.10759E+00  1.67978E+00  1.61356E+00  1.64504E+00  3.33341E+00  2.46219E+00  1.93387E+00  2.10119E+00 -3.14186E-01  1.42221E+00
   1.83450E+00  9.98400E-01 -1.18508E-02 -1.27087E+00  2.27424E+00  1.59714E+00  3.81218E-01  1.73617E+00  8.98669E-01  1.56299E+00
   3.17485E-01 -1.59092E+00 -8.45932E-01 -2.41210E+00  2.53828E+00  3.84631E-01 -1.24813E+00  1.37338E+00  2.00881E+00  1.04302E+00
   9.00367E-01  1.44009E+00 -1.27249E+00  1.05066E+00  6.61410E-01 -3.68922E-01  1.22758E-01  3.59581E-01  9.51434E-02  2.43379E+00
   3.68474E+00 -4.38097E-01 -3.43186E+00  3.55973E-01  1.50361E+00  1.11045E+00 -7.01159E-01 -3.49752E-01  2.34564E-01  3.14980E+00
  -1.02540E-01 -5.20572E-01  1.72374E+00  1.69489E-01  2.74139E+00  1.23724E+00  2.62458E+00  1.73399E+00  1.54713E+00  5.47504E+00
   2.26296E+00  1.25324E+00  2.09714E+00  2.20854E+00  3.28144E+00  6.91259E+00  3.32518E+00  5.91908E+00  3.46228E+00  4.96081E+00
   5.35576E+00  1.43062E+00  3.99799E+00  1.98124E+00  3.33808E+00  4.38822E+00  5.43073E+00  3.09142E+00  4.47309E+00  3.46554E+00
   5.73032E+00  6.02889E+00  6.98011E+00  7.61762E+00  2.86300E+00  7.29359E+00  4.66270E+00  8.85055E+00  7.90126E+00  7.95352E+00
   7.66543E+00  6.73820E+00  5.43282E+00  6.00843E+00  5.10432E+00  9.77631E+00  7.21436E+00  6.03304E+00  4.03103E+00  4.96160E+00
   3.32234E+00  4.23132E+00  2.96828E+00  3.38395E+00  3.72625E+00  5.48101E+00  4.28844E+00  5.25263E+00  4.38234E+00  3.21789E+00
   6.13996E+00  3.92206E+00  7.72391E+00  1.80640E+00  2.49600E+00  2.86648E+00  4.04180E+00  3.92146E+00  2.50376E+00  3.04836E+00
   1.38577E+00  2.41685E+00  6.22815E-01  1.81308E+00  2.61111E+00  5.53859E-01  1.40058E+00  1.60577E+00  2.76500E+00  1.66588E+00
   6.56926E-01  3.84820E+00  5.65797E+00  3.21846E+00  2.13358E+00  1.31859E+00  7.20760E+00  3.26522E+00  2.45585E+00  2.02286E+00
   3.41246E+00  4.32768E+00  3.99171E+00  2.91464E+00  2.87717E-01  2.51706E+00  2.26262E+00  1.57757E+00  2.72307E+00  3.20711E+00
   6.40359E+00  2.21347E+00  2.00257E+00  3.27135E+00  4.48946E+00  5.30828E+00  2.27117E+00  1.80875E+00  8.25510E-01  2.09966E+00
   3.02430E+00  3.91887E+00  1.42398E+00  5.21657E+00  4.32541E+00 -8.18133E-02  4.27942E-01  6.81640E-01  1.77221E-01 -8.16067E-01
   1.72940E+00 -2.41751E+00 -5.24971E-02 -4.13314E-01 -1.23951E+00 -1.27707E+00 -8.70221E-01  2.08506E+00  1.33481E+00 -4.89387E-01
  -1.29243E+00  1.64456E+00 -6.31525E-02 -4.08894E+00 -1.55278E+00  2.57724E-01 -2.69370E+00  1.90338E+00  4.57055E-01  3.89902E-01
  -4.03788E+00 -3.71522E+00 -1.68811E+00 -1.20261E+00 -2.81318E+00 -5.44682E+00 -2.30864E+00 -1.65947E+00 -4.78214E+00 -4.09205E-01
  -1.53023E+00 -9.09124E-01 -1.42035E+00 -2.90905E+00 -1.83227E+00 -2.06707E+00 -4.12704E+00 -2.27009E+00 -8.68173E-01 -2.55502E+00
  -5.32707E-01 -6.63445E-01 -4.78052E-02 -1.10761E+00 -7.74031E-01 -4.81773E+00 -1.79782E+00 -1.39553E+00 -1.72437E+00  3.96965E-01
  -4.08980E-01 -1.17608E+00 -2.07707E+00 -2.88166E+00 -2.12410E+00 -3.25486E+00 -3.17940E-01 -3.57654E+00 -1.45599E+00 -9.44585E-01
  -2.25823E+00 -6.15855E-01 -1.77862E+00 -6.34885E+00 -9.77845E-01  6.38079E-01 -3.40176E+00 -4.42076E+00 -2.24161E+00 -4.13006E+00
  -2.49556E+00 -2.86017E+00 -1.20419E+00 -5.67688E-01 -2.04340E+00 -1.91424E+00 -2.05116E+00 -3.48116E-01
 NY points of the fit to the data follow
   3.16061E+00  3.11110E+00  3.08880E+00  3.09436E+00  3.10462E+00  3.10447E+00  3.11890E+00  3.17078E+00  3.25217E+00  3.34341E+00
   3.41873E+00  3.45732E+00  3.45238E+00  3.40697E+00  3.33120E+00  3.23572E+00  3.12826E+00  3.02848E+00  2.96618E+00  2.94206E+00
   2.93309E+00  2.92872E+00  2.92323E+00  2.91336E+00  2.89613E+00  2.87004E+00  2.83832E+00  2.80504E+00  2.77678E+00  2.76085E+00
   2.76078E+00  2.77907E+00  2.81601E+00  2.86617E+00  2.91657E+00  2.95052E+00  2.95362E+00  2.92160E+00  2.86131E+00  2.78581E+00
   2.71372E+00  2.66790E+00  2.68039E+00  2.77955E+00  2.95808E+00  3.17010E+00  3.34621E+00  3.42984E+00  3.40236E+00  3.28146E+00
   3.10151E+00  2.89681E+00  2.69727E+00  2.53571E+00  2.45521E+00  2.46945E+00  2.54418E+00  2.64111E+00  2.73128E+00  2.79332E+00
   2.81215E+00  2.78339E+00  2.71848E+00  2.63700E+00  2.55588E+00  2.48815E+00  2.45032E+00  2.45258E+00  2.48651E+00  2.53657E+00
   2.58266E+00  2.61192E+00  2.61816E+00  2.60234E+00  2.57142E+00  2.53197E+00  2.48950E+00  2.44612E+00  2.40682E+00  2.37882E+00
   2.35812E+00  2.33957E+00  2.31394E+00  2.27180E+00  2.20742E+00  2.12551E+00  2.03949E+00  1.96554E+00  1.91741E+00  1.90320E+00
   1.92145E+00  1.96682E+00  2.02991E+00  2.09300E+00  2.13472E+00  2.14486E+00  2.12998E+00  2.12878E+00  2.21607E+00  2.39994E+00
   2.63991E+00  2.87532E+00  3.03862E+00  3.09412E+00  3.03797E+00  2.88668E+00  2.67518E+00  2.43616E+00  2.19933E+00  2.02269E+00
   1.95246E+00  1.93286E+00  1.92336E+00  1.91719E+00  1.91121E+00  1.90474E+00  1.89755E+00  1.89040E+00  1.88429E+00  1.88052E+00
   1.88121E+00  1.89478E+00  1.95287E+00  2.07156E+00  2.22857E+00  2.38877E+00  2.51143E+00  2.56726E+00  2.55019E+00  2.47051E+00
   2.34771E+00  2.20319E+00  2.05339E+00  1.92458E+00  1.85291E+00  1.82693E+00  1.81276E+00  1.80192E+00  1.79236E+00  1.78324E+00
   1.77430E+00  1.76571E+00  1.75764E+00  1.74998E+00  1.74213E+00  1.73368E+00  1.72466E+00  1.71518E+00  1.70519E+00  1.69437E+00
   1.68279E+00  1.67087E+00  1.65899E+00  1.64747E+00  1.63599E+00  1.62378E+00  1.61063E+00  1.59654E+00  1.58159E+00  1.56587E+00
   1.54945E+00  1.53234E+00  1.51508E+00  1.49820E+00  1.48185E+00  1.46584E+00  1.44972E+00  1.43303E+00  1.41595E+00  1.39871E+00
   1.38122E+00  1.36314E+00  1.34436E+00  1.32517E+00  1.30613E+00  1.28735E+00  1.26870E+00  1.25003E+00  1.23157E+00  1.21404E+00
   1.19810E+00  1.18395E+00  1.17138E+00  1.15978E+00  1.14861E+00  1.13743E+00  1.12595E+00  1.11404E+00  1.10140E+00  1.08792E+00
   1.07402E+00  1.06078E+00  1.04887E+00  1.03821E+00  1.02881E+00  1.02077E+00  1.01397E+00  1.00821E+00  1.00327E+00  9.98718E-01
   9.94083E-01  9.89554E-01  9.85403E-01  9.81696E-01  9.78367E-01  9.75544E-01  9.73606E-01  9.72944E-01  9.73674E-01  9.75838E-01
   9.79379E-01  9.84102E-01  9.89750E-01  9.96110E-01  1.00315E+00  1.01082E+00  1.01918E+00  1.02860E+00  1.03955E+00  1.05234E+00
   1.06689E+00  1.08254E+00  1.09828E+00  1.11295E+00  1.12568E+00  1.13596E+00  1.14376E+00  1.14991E+00  1.15581E+00  1.16298E+00
   1.17290E+00  1.18627E+00  1.20263E+00  1.22099E+00  1.24056E+00  1.26088E+00  1.28172E+00  1.30272E+00  1.32394E+00  1.34640E+00
   1.37081E+00  1.39722E+00  1.42545E+00  1.45478E+00  1.48409E+00  1.51233E+00  1.53867E+00  1.56240E+00  1.58284E+00  1.59946E+00
   1.61368E+00  1.63040E+00  1.64983E+00  1.66781E+00  1.67876E+00  1.67680E+00  1.65865E+00  1.62464E+00  1.57737E+00  1.52075E+00
   1.45840E+00  1.39324E+00  1.33028E+00  1.27443E+00  1.22215E+00  1.16980E+00  1.11709E+00  1.06457E+00  1.01299E+00  9.63191E-01
   9.15798E-01  8.71200E-01  8.29422E-01  7.90234E-01  7.53360E-01  7.18616E-01  6.85770E-01  6.54811E-01  6.26226E-01  6.00500E-01
   5.78041E-01  5.59345E-01  5.44813E-01  5.34742E-01  5.29287E-01  5.28526E-01  5.32685E-01  5.42187E-01  5.57467E-01  5.79032E-01
   6.07484E-01  6.43352E-01  6.87177E-01  7.39505E-01  8.00656E-01  8.70851E-01  9.50217E-01  1.03862E+00  1.13569E+00  1.24083E+00
   1.35308E+00  1.47111E+00  1.59334E+00  1.71804E+00  1.84333E+00  1.96732E+00  2.08826E+00  2.20464E+00  2.31534E+00  2.41962E+00
   2.51732E+00  2.60885E+00  2.69526E+00  2.77815E+00  2.85967E+00  2.94235E+00  3.02908E+00  3.12290E+00  3.22694E+00  3.34436E+00
   3.47868E+00  3.63518E+00  3.82153E+00  4.02861E+00  4.23509E+00  4.42402E+00  4.58445E+00  4.71585E+00  4.82557E+00  4.92194E+00
   5.02449E+00  5.15726E+00  5.32865E+00  5.53993E+00  5.77789E+00  6.00339E+00  6.18723E+00  6.32401E+00  6.41622E+00  6.47284E+00
   6.50711E+00  6.55015E+00  6.67602E+00  6.87333E+00  7.00561E+00  6.96427E+00  6.68169E+00  6.15838E+00  5.45798E+00  4.66979E+00
   3.97139E+00  3.53471E+00  3.42400E+00  3.65142E+00  4.15380E+00  4.71252E+00  5.12132E+00  5.33747E+00  5.36613E+00  5.22871E+00
   4.93725E+00  4.54357E+00  4.18978E+00  3.92514E+00  3.70168E+00  3.49740E+00  3.30421E+00  3.11879E+00  2.93998E+00  2.76776E+00
   2.60273E+00  2.44580E+00  2.29804E+00  2.16064E+00  2.03484E+00  1.92187E+00  1.82294E+00  1.73919E+00  1.67166E+00  1.62131E+00
   1.58903E+00  1.57557E+00  1.58153E+00  1.60726E+00  1.65289E+00  1.71823E+00  1.80276E+00  1.90551E+00  2.02506E+00  2.15945E+00
   2.30620E+00  2.46229E+00  2.62422E+00  2.78805E+00  2.94946E+00  3.10392E+00  3.24683E+00  3.37369E+00  3.48028E+00  3.56282E+00
   3.61814E+00  3.64381E+00  3.63828E+00  3.60089E+00  3.53194E+00  3.43260E+00  3.30486E+00  3.15143E+00  2.97559E+00  2.78105E+00
   2.57173E+00  2.35163E+00  2.12469E+00  1.89463E+00  1.66486E+00  1.43839E+00  1.21778E+00  1.00512E+00  8.02016E-01  6.09641E-01
   4.28751E-01  2.59731E-01  1.02646E-01 -4.26994E-02 -1.76697E-01 -2.99885E-01 -4.12906E-01 -5.16473E-01 -6.11335E-01 -6.98242E-01
  -7.77922E-01 -8.51070E-01 -9.18338E-01 -9.80340E-01 -1.03764E+00 -1.09073E+00 -1.14008E+00 -1.18609E+00 -1.22911E+00 -1.26947E+00
  -1.30747E+00 -1.34334E+00 -1.37730E+00 -1.40955E+00 -1.44026E+00 -1.46958E+00 -1.49765E+00 -1.52458E+00 -1.55047E+00 -1.57542E+00
  -1.59951E+00 -1.62282E+00 -1.64541E+00 -1.66733E+00 -1.68865E+00 -1.70939E+00 -1.72962E+00 -1.74938E+00 -1.76869E+00 -1.78758E+00
  -1.80608E+00 -1.82423E+00 -1.84204E+00 -1.85954E+00 -1.87675E+00 -1.89368E+00 -1.91035E+00 -1.92677E+00 -1.94298E+00 -1.95897E+00
  -1.97476E+00 -1.99035E+00 -2.00576E+00 -2.02101E+00 -2.03609E+00 -2.05102E+00 -2.06581E+00 -2.08045E+00 -2.09497E+00 -2.10936E+00
  -2.12364E+00 -2.13781E+00 -2.15186E+00 -2.16581E+00 -2.17967E+00 -2.19343E+00 -2.20711E+00 -2.22070E+00 -2.23420E+00 -2.24763E+00
  -2.26098E+00 -2.27427E+00 -2.28748E+00 -2.30063E+00 -2.31371E+00 -2.32673E+00 -2.33969E+00 -2.35260E+00
 NY background values follow
     2.997E+00    2.986E+00    2.975E+00    2.964E+00    2.953E+00    2.942E+00    2.931E+00    2.920E+00    2.909E+00    2.898E+00
     2.887E+00    2.876E+00    2.865E+00    2.854E+00    2.843E+00    2.832E+00    2.821E+00    2.810E+00    2.799E+00    2.788E+00
     2.777E+00    2.766E+00    2.755E+00    2.744E+00    2.733E+00    2.722E+00    2.711E+00    2.700E+00    2.689E+00    2.678E+00
     2.667E+00    2.656E+00    2.645E+00    2.634E+00    2.623E+00    2.613E+00    2.602E+00    2.591E+00    2.580E+00    2.569E+00
     2.558E+00    2.547E+00    2.536E+00    2.525E+00    2.514E+00    2.503E+00    2.492E+00    2.481E+00    2.470E+00    2.459E+00
     2.448E+00    2.437E+00    2.426E+00    2.415E+00    2.404E+00    2.393E+00    2.382E+00    2.371E+00    2.360E+00    2.349E+00
     2.338E+00    2.327E+00    2.316E+00    2.305E+00    2.294E+00    2.283E+00    2.272E+00    2.261E+00    2.250E+00    2.239E+00
     2.228E+00    2.217E+00    2.206E+00    2.195E+00    2.184E+00    2.173E+00    2.162E+00    2.151E+00    2.140E+00    2.129E+00
     2.118E+00    2.107E+00    2.096E+00    2.085E+00    2.074E+00    2.063E+00    2.052E+00    2.041E+00    2.030E+00    2.019E+00
     2.008E+00    1.997E+00    1.986E+00    1.975E+00    1.964E+00    1.953E+00    1.942E+00    1.931E+00    1.920E+00    1.909E+00
     1.898E+00    1.887E+00    1.876E+00    1.866E+00    1.855E+00    1.844E+00    1.833E+00    1.822E+00    1.811E+00    1.800E+00
     1.789E+00    1.778E+00    1.767E+00    1.756E+00    1.745E+00    1.734E+00    1.723E+00    1.712E+00    1.701E+00    1.690E+00
     1.679E+00    1.668E+00    1.657E+00    1.646E+00    1.635E+00    1.624E+00    1.613E+00    1.602E+00    1.591E+00    1.580E+00
     1.569E+00    1.558E+00    1.547E+00    1.536E+00    1.525E+00    1.514E+00    1.503E+00    1.492E+00    1.481E+00    1.470E+00
     1.459E+00    1.448E+00    1.437E+00    1.426E+00    1.415E+00    1.404E+00    1.393E+00    1.382E+00    1.371E+00    1.360E+00
     1.349E+00    1.338E+00    1.327E+00    1.316E+00    1.305E+00    1.294E+00    1.283E+00    1.272E+00    1.261E+00    1.250E+00
     1.239E+00    1.228E+00    1.217E+00    1.206E+00    1.195E+00    1.184E+00    1.173E+00    1.162E+00    1.151E+00    1.140E+00
     1.129E+00    1.119E+00    1.108E+00    1.097E+00    1.086E+00    1.075E+00    1.064E+00    1.053E+00    1.042E+00    1.031E+00
     1.020E+00    1.009E+00    9.977E-01    9.867E-01    9.757E-01    9.647E-01    9.537E-01    9.427E-01    9.317E-01    9.208E-01
     9.098E-01    8.988E-01    8.878E-01    8.768E-01    8.658E-01    8.548E-01    8.439E-01    8.329E-01    8.219E-01    8.109E-01
     7.999E-01    7.889E-01    7.779E-01    7.670E-01    7.560E-01    7.450E-01    7.340E-01    7.230E-01    7.120E-01    7.011E-01
     6.901E-01    6.791E-01    6.681E-01    6.571E-01    6.461E-01    6.351E-01    6.242E-01    6.132E-01    6.022E-01    5.912E-01
     5.802E-01    5.692E-01    5.582E-01    5.473E-01    5.363E-01    5.253E-01    5.143E-01    5.033E-01    4.923E-01    4.813E-01
     4.704E-01    4.594E-01    4.484E-01    4.374E-01    4.264E-01    4.154E-01    4.044E-01    3.935E-01    3.825E-01    3.715E-01
     3.605E-01    3.495E-01    3.385E-01    3.275E-01    3.166E-01    3.056E-01    2.946E-01    2.836E-01    2.726E-01    2.616E-01
     2.506E-01    2.397E-01    2.287E-01    2.177E-01    2.067E-01    1.957E-01    1.847E-01    1.737E-01    1.628E-01    1.518E-01
     1.408E-01    1.298E-01    1.188E-01    1.078E-01    9.684E-02    8.585E-02    7.487E-02    6.388E-02    5.290E-02    4.191E-02
     3.092E-02    1.994E-02    8.952E-03   -2.033E-03   -1.302E-02   -2.400E-02   -3.499E-02   -4.598E-02   -5.696E-02   -6.795E-02
    -7.893E-02   -8.992E-02   -1.009E-01   -1.119E-01   -1.229E-01   -1.339E-01   -1.448E-01   -1.558E-01   -1.668E-01   -1.778E-01
    -1.888E-01   -1.998E-01   -2.108E-01   -2.217E-01   -2.327E-01   -2.437E-01   -2.547E-01   -2.657E-01   -2.767E-01   -2.877E-01
    -2.986E-01   -3.096E-01   -3.206E-01   -3.316E-01   -3.426E-01   -3.536E-01   -3.646E-01   -3.755E-01   -3.865E-01   -3.975E-01
    -4.085E-01   -4.195E-01   -4.305E-01   -4.415E-01   -4.524E-01   -4.634E-01   -4.744E-01   -4.854E-01   -4.964E-01   -5.074E-01
    -5.184E-01   -5.293E-01   -5.403E-01   -5.513E-01   -5.623E-01   -5.733E-01   -5.843E-01   -5.953E-01   -6.062E-01   -6.172E-01
    -6.282E-01   -6.392E-01   -6.502E-01   -6.612E-01   -6.722E-01   -6.831E-01   -6.941E-01   -7.051E-01   -7.161E-01   -7.271E-01
    -7.381E-01   -7.491E-01   -7.600E-01   -7.710E-01   -7.820E-01   -7.930E-01   -8.040E-01   -8.150E-01   -8.260E-01   -8.369E-01
    -8.479E-01   -8.589E-01   -8.699E-01   -8.809E-01   -8.919E-01   -9.029E-01   -9.138E-01   -9.248E-01   -9.358E-01   -9.468E-01
    -9.578E-01   -9.688E-01   -9.798E-01   -9.907E-01   -1.002E+00   -1.013E+00   -1.024E+00   -1.035E+00   -1.046E+00   -1.057E+00
    -1.068E+00   -1.079E+00   -1.090E+00   -1.101E+00   -1.112E+00   -1.123E+00   -1.134E+00   -1.145E+00   -1.156E+00   -1.167E+00
    -1.177E+00   -1.188E+00   -1.199E+00   -1.210E+00   -1.221E+00   -1.232E+00   -1.243E+00   -1.254E+00   -1.265E+00   -1.276E+00
    -1.287E+00   -1.298E+00   -1.309E+00   -1.320E+00   -1.331E+00   -1.342E+00   -1.353E+00   -1.364E+00   -1.375E+00   -1.386E+00
    -1.397E+00   -1.408E+00   -1.419E+00   -1.430E+00   -1.441E+00   -1.452E+00   -1.463E+00   -1.474E+00   -1.485E+00   -1.496E+00
    -1.507E+00   -1.518E+00   -1.529E+00   -1.540E+00   -1.551E+00   -1.562E+00   -1.573E+00   -1.584E+00   -1.595E+00   -1.606E+00
    -1.617E+00   -1.628E+00   -1.639E+00   -1.650E+00   -1.661E+00   -1.672E+00   -1.683E+00   -1.694E+00   -1.705E+00   -1.716E+00
    -1.727E+00   -1.738E+00   -1.749E+00   -1.760E+00   -1.771E+00   -1.782E+00   -1.793E+00   -1.804E+00   -1.815E+00   -1.826E+00
    -1.837E+00   -1.848E+00   -1.859E+00   -1.870E+00   -1.881E+00   -1.892E+00   -1.903E+00   -1.914E+00   -1.925E+00   -1.936E+00
    -1.946E+00   -1.957E+00   -1.968E+00   -1.979E+00   -1.990E+00   -2.001E+00   -2.012E+00   -2.023E+00   -2.034E+00   -2.045E+00
    -2.056E+00   -2.067E+00   -2.078E+00   -2.089E+00   -2.100E+00   -2.111E+00   -2.122E+00   -2.133E+00   -2.144E+00   -2.155E+00
    -2.166E+00   -2.177E+00   -2.188E+00   -2.199E+00   -2.210E+00   -2.221E+00   -2.232E+00   -2.243E+00   -2.254E+00   -2.265E+00
    -2.276E+00   -2.287E+00   -2.298E+00   -2.309E+00   -2.320E+00   -2.331E+00   -2.342E+00   -2.353E+00   -2.364E+00   -2.375E+00
    -2.386E+00   -2.397E+00   -2.408E+00   -2.419E+00   -2.430E+00   -2.441E+00   -2.452E+00   -2.463E+00
 Ala      Conc. = 1.85E+01
