 LCModel (Version 6.3-1L) Copyright: S.W. Provencher.          Ref.: Magn. Reson. Med. 30:672-679 (1993).                
 Slice#2 Row#7 Col#9  PD_24_press_1_raw_act
 36 lines in following concentration table = NCONC+1
    Conc.  %SD /Cr+PCr  Metabolite                                         
    0.000 999%   0.000 Ala                                                 
   79.234 303% 5.3E-02 Asp                                                 
  187.688 122%   0.125 Cr                                                  
 1.31E+03  18%   0.875 PCr                                                 
    0.000 999%   0.000 GABA                                                
    0.000 999%   0.000 Glc                                                 
  869.383  29%   0.580 Gln                                                 
 1.56E+03  18%   1.042 Glu                                                 
  821.054   3%   0.548 GPC                                                 
    0.000 999%   0.000 PCh                                                 
  424.063  17%   0.283 GSH                                                 
 1.55E+03  16%   1.032 Ins                                                 
   15.774 833% 1.1E-02 Lac                                                 
 2.22E+03   3%   1.480 NAA                                                 
    0.000 999%   0.000 NAAG                                                
  139.725  19% 9.3E-02 Scyllo                                              
    0.000 999%   0.000 Tau                                                 
    0.000 999%   0.000 -CrCH2                                              
  821.054   3%   0.548 GPC+PCh                                             
 2.22E+03   3%   1.480 NAA+NAAG                                            
 1.50E+03   3%   1.000 Cr+PCr                                              
 2.43E+03  16%   1.622 Glu+Gln                                             
 2.94E+03  18%   1.964 Lip13a                                              
    0.000 999%   0.000 Lip13b                                              
  518.115  69%   0.346 Lip09                                               
 1.82E+03  21%   1.214 MM09                                                
  304.755  90%   0.203 Lip20                                               
 3.33E+03  11%   2.226 MM20                                                
  846.080  31%   0.565 MM12                                                
    0.000 999%   0.000 MM14                                                
  881.080  24%   0.588 MM17                                                
 2.94E+03  18%   1.964 Lip13a+Lip13b                                       
 3.79E+03  11%   2.529 MM14+Lip13a+Lip13b+MM12                             
 2.34E+03   9%   1.559 MM09+Lip09                                          
 3.64E+03  10%   2.429 MM20+Lip20                                          
   6 lines in following misc. output table
  FWHM = 0.061 ppm    S/N =  11                                            
  Data shift = 0.000 ppm                                                   
  Ph: -42 deg      -4.8 deg/ppm                                            
  alphaB,S = 8.5E+01,   3.9E+02                                            
   14 spline knots.   Ns = 7(1)                                            
   2 inflections.     1 extrema                                            
  498 points on ppm-axis = NY
      4.000000     3.992357     3.984714     3.977070     3.969427     3.961784     3.954141     3.946497     3.938854     3.931211
      3.923568     3.915925     3.908281     3.900638     3.892995     3.885352     3.877708     3.870065     3.862422     3.854779
      3.847136     3.839492     3.831849     3.824206     3.816563     3.808919     3.801276     3.793633     3.785990     3.778347
      3.770703     3.763060     3.755417     3.747774     3.740130     3.732487     3.724844     3.717201     3.709558     3.701914
      3.694271     3.686628     3.678985     3.671341     3.663698     3.656055     3.648412     3.640769     3.633125     3.625482
      3.617839     3.610196     3.602552     3.594909     3.587266     3.579623     3.571980     3.564336     3.556693     3.549050
      3.541407     3.533763     3.526120     3.518477     3.510834     3.503191     3.495547     3.487904     3.480261     3.472618
      3.464974     3.457331     3.449688     3.442045     3.434402     3.426758     3.419115     3.411472     3.403829     3.396185
      3.388542     3.380899     3.373256     3.365613     3.357969     3.350326     3.342683     3.335040     3.327396     3.319753
      3.312110     3.304467     3.296824     3.289180     3.281537     3.273894     3.266251     3.258607     3.250964     3.243321
      3.235678     3.228034     3.220391     3.212748     3.205105     3.197462     3.189818     3.182175     3.174532     3.166889
      3.159245     3.151602     3.143959     3.136316     3.128673     3.121029     3.113386     3.105743     3.098100     3.090456
      3.082813     3.075170     3.067527     3.059884     3.052240     3.044597     3.036954     3.029311     3.021667     3.014024
      3.006381     2.998738     2.991095     2.983451     2.975808     2.968165     2.960522     2.952878     2.945235     2.937592
      2.929949     2.922306     2.914662     2.907019     2.899376     2.891733     2.884089     2.876446     2.868803     2.861160
      2.853517     2.845873     2.838230     2.830587     2.822944     2.815300     2.807657     2.800014     2.792371     2.784728
      2.777084     2.769441     2.761798     2.754155     2.746511     2.738868     2.731225     2.723582     2.715939     2.708295
      2.700652     2.693009     2.685366     2.677722     2.670079     2.662436     2.654793     2.647150     2.639506     2.631863
      2.624220     2.616577     2.608933     2.601290     2.593647     2.586004     2.578361     2.570717     2.563074     2.555431
      2.547788     2.540144     2.532501     2.524858     2.517215     2.509572     2.501928     2.494285     2.486642     2.478999
      2.471355     2.463712     2.456069     2.448426     2.440783     2.433139     2.425496     2.417853     2.410210     2.402566
      2.394923     2.387280     2.379637     2.371994     2.364350     2.356707     2.349064     2.341421     2.333777     2.326134
      2.318491     2.310848     2.303205     2.295561     2.287918     2.280275     2.272632     2.264988     2.257345     2.249702
      2.242059     2.234416     2.226772     2.219129     2.211486     2.203843     2.196199     2.188556     2.180913     2.173270
      2.165627     2.157983     2.150340     2.142697     2.135054     2.127410     2.119767     2.112124     2.104481     2.096838
      2.089194     2.081551     2.073908     2.066265     2.058621     2.050978     2.043335     2.035692     2.028049     2.020405
      2.012762     2.005119     1.997476     1.989833     1.982190     1.974546     1.966903     1.959260     1.951617     1.943974
      1.936331     1.928688     1.921045     1.913402     1.905759     1.898115     1.890472     1.882829     1.875186     1.867543
      1.859900     1.852257     1.844614     1.836971     1.829327     1.821684     1.814041     1.806398     1.798755     1.791112
      1.783469     1.775826     1.768183     1.760540     1.752896     1.745253     1.737610     1.729967     1.722324     1.714681
      1.707038     1.699395     1.691752     1.684108     1.676465     1.668822     1.661179     1.653536     1.645893     1.638250
      1.630607     1.622964     1.615321     1.607677     1.600034     1.592391     1.584748     1.577105     1.569462     1.561819
      1.554176     1.546533     1.538890     1.531246     1.523603     1.515960     1.508317     1.500674     1.493031     1.485388
      1.477745     1.470102     1.462458     1.454815     1.447172     1.439529     1.431886     1.424243     1.416600     1.408957
      1.401314     1.393671     1.386027     1.378384     1.370741     1.363098     1.355455     1.347812     1.340169     1.332526
      1.324883     1.317240     1.309596     1.301953     1.294310     1.286667     1.279024     1.271381     1.263738     1.256095
      1.248452     1.240808     1.233165     1.225522     1.217879     1.210236     1.202593     1.194950     1.187307     1.179664
      1.172021     1.164377     1.156734     1.149091     1.141448     1.133805     1.126162     1.118519     1.110876     1.103233
      1.095590     1.087946     1.080303     1.072660     1.065017     1.057374     1.049731     1.042088     1.034445     1.026802
      1.019158     1.011515     1.003872     0.996229     0.988586     0.980943     0.973300     0.965657     0.958014     0.950371
      0.942727     0.935084     0.927441     0.919798     0.912155     0.904512     0.896869     0.889226     0.881583     0.873940
      0.866296     0.858653     0.851010     0.843367     0.835724     0.828081     0.820438     0.812795     0.805152     0.797508
      0.789865     0.782222     0.774579     0.766936     0.759293     0.751650     0.744007     0.736364     0.728721     0.721077
      0.713434     0.705791     0.698148     0.690505     0.682862     0.675219     0.667576     0.659933     0.652290     0.644646
      0.637003     0.629360     0.621717     0.614074     0.606431     0.598788     0.591145     0.583502     0.575858     0.568215
      0.560572     0.552929     0.545286     0.537643     0.530000     0.522357     0.514714     0.507071     0.499427     0.491784
      0.484141     0.476498     0.468855     0.461212     0.453569     0.445925     0.438282     0.430639     0.422996     0.415353
      0.407710     0.400067     0.392424     0.384780     0.377137     0.369494     0.361851     0.354208     0.346565     0.338922
      0.331278     0.323635     0.315992     0.308349     0.300706     0.293063     0.285420     0.277777     0.270133     0.262490
      0.254847     0.247204     0.239561     0.231918     0.224275     0.216631     0.208988     0.201345
 NY phased data points follow
  -1.60438E+01 -1.68072E+01 -1.51579E+01 -5.23216E+00 -2.83264E+00 -1.00302E+00  7.72321E+00  1.09722E+01  2.13172E+01  2.62564E+01
   2.83459E+01  2.41509E+01  2.02791E+01  1.91876E+01  1.24947E+01  9.57160E-01 -1.68442E+00 -5.41046E+00 -7.61914E+00 -6.33858E+00
  -8.77157E+00 -1.31870E+01 -1.07181E+01 -4.17246E+00 -6.18856E+00 -9.72133E+00 -1.45083E+00 -1.72229E+00 -4.45550E+00 -8.06396E-01
  -3.33570E+00 -3.20226E+00 -7.87229E+00 -8.51173E+00 -6.98068E+00 -6.72368E+00 -6.78959E+00 -6.08423E+00 -5.40143E+00 -8.38876E+00
  -6.03556E+00 -7.48339E+00 -3.55298E+00  2.99015E-02 -3.07014E+00  9.87577E-01  3.02115E+00  4.11775E+00  1.26280E+00 -8.36754E+00
  -2.65176E+00  4.02706E-01 -8.35041E+00 -4.04711E+00 -7.39767E+00 -9.33782E+00 -6.66678E+00 -2.96656E+00 -3.37891E+00 -8.17460E+00
  -8.27259E+00 -1.22650E+01 -1.04715E+01 -1.45022E+01 -2.00025E+01 -1.40191E+01 -1.39225E+01 -1.64882E+01 -1.77012E+01 -1.44928E+01
  -1.15952E+01 -8.35351E+00 -1.30897E+01 -1.69093E+01 -1.07119E+01 -6.96479E+00 -1.13744E+01 -9.77427E+00 -1.59155E+01 -8.51859E+00
  -1.18676E+01 -8.80812E+00 -6.20329E+00 -3.27548E+00 -7.22772E+00 -9.07322E+00 -9.17348E+00 -6.59754E+00 -1.08935E+01 -2.46096E+00
  -2.13853E+00 -8.39881E+00 -1.04500E+01 -7.22412E+00 -6.30180E+00 -4.30632E+00 -2.64092E+00  7.97161E-01  6.94591E+00  2.33634E+01
   3.19371E+01  5.31877E+01  6.40677E+01  5.85825E+01  5.26030E+01  4.13478E+01  3.14232E+01  2.44374E+01  1.53127E+01  5.93277E+00
   1.77708E+00 -8.09904E+00 -6.72767E+00 -7.59176E+00 -1.02012E+01 -1.02836E+01 -1.38718E+01 -1.15611E+01 -1.17391E+01 -1.61760E+01
  -1.46369E+01 -1.44880E+01 -8.03392E+00  4.15002E+00  1.38444E+01  2.35066E+01  3.07635E+01  3.42538E+01  3.17921E+01  2.50243E+01
   2.28467E+01  1.88575E+01  1.36936E+01  8.21646E+00 -3.65451E+00  3.35875E-01 -6.63295E+00 -9.70517E+00 -9.82687E+00 -9.82345E+00
  -9.96553E+00 -6.38596E+00 -1.34512E+01 -1.05964E+01 -9.13733E+00 -1.22031E+01 -1.19062E+01 -1.01956E+01 -1.21958E+01 -8.64342E+00
  -1.44123E+01 -1.45018E+01 -1.38270E+01 -1.61049E+01 -1.31596E+01 -1.31445E+01 -1.41852E+01 -9.94972E+00 -9.44428E+00 -1.26163E+01
  -1.30089E+01 -1.47200E+01 -1.72040E+01 -1.32679E+01 -1.51412E+01 -1.54248E+01 -1.43679E+01 -1.40202E+01 -1.72077E+01 -1.47623E+01
  -1.48003E+01 -1.51044E+01 -1.18117E+01 -1.51579E+01 -1.39739E+01 -2.12123E+01 -1.96278E+01 -2.03139E+01 -1.76633E+01 -1.68126E+01
  -1.83457E+01 -1.91297E+01 -1.93548E+01 -2.06381E+01 -1.74161E+01 -1.67091E+01 -1.80771E+01 -1.62188E+01 -1.32668E+01 -7.29169E+00
  -7.18877E+00 -6.02882E+00 -3.14824E+00 -6.94824E+00 -1.67625E+00 -1.97371E+00 -1.00730E+01 -5.32751E+00 -1.02677E+01 -8.50992E+00
  -1.01070E+01 -2.24357E+00 -5.16691E+00 -3.58768E+00 -1.95372E+00 -9.71460E+00 -6.89971E+00 -1.22872E+01 -1.04651E+01 -1.24527E+01
  -1.54053E+01 -1.31259E+01 -7.81048E+00 -2.41252E+00 -2.08148E+00  2.67669E+00  2.82809E-01  5.97092E+00 -2.41671E+00 -5.26336E+00
  -7.72837E+00 -7.93462E+00 -8.25513E+00 -6.26770E+00 -8.80702E+00 -4.65114E+00 -7.19554E+00  8.21334E-01 -1.61935E-01 -3.72160E-02
   7.30376E-01 -1.76050E+00 -3.78576E+00 -6.99933E-01  1.72486E+00  2.28184E+00 -2.04994E+00 -1.93998E+00  1.09540E+00 -2.49262E-01
  -4.54892E+00 -3.02701E+00 -2.73245E+00 -1.44843E+00  6.40001E-01  2.51663E+00  1.18596E+00  7.38925E+00  3.46514E+00  8.88173E+00
   7.92213E+00  7.03919E+00  6.57316E+00  9.86904E+00  1.84700E+01  1.61201E+01  1.71178E+01  3.13307E+01  5.68804E+01  7.18944E+01
   7.76746E+01  6.72579E+01  6.13730E+01  5.23891E+01  4.60665E+01  3.62580E+01  2.78508E+01  1.28968E+01  7.05871E+00  6.46375E+00
   2.85820E+00  3.14085E+00  3.21563E+00  6.12104E-03  1.08816E+00  2.25207E+00  7.64523E-01 -2.08103E-01  3.29259E+00 -9.04315E-01
  -2.86426E+00 -3.29163E+00 -4.40463E+00 -4.10483E+00 -1.83356E+00 -4.12934E+00 -5.20903E+00 -5.15170E+00 -6.34485E+00 -3.07740E+00
  -4.13272E+00 -3.00586E+00 -1.13412E-01 -4.89936E+00 -7.79007E-01 -1.39924E+00 -1.98745E+00 -3.31562E+00 -3.25779E+00 -3.56570E-01
  -5.38387E+00 -3.49311E+00  1.83206E+00  1.12733E+00 -5.02067E+00  3.78916E+00 -2.15827E+00  4.02091E-01  4.35337E-01 -4.17014E-01
  -4.32773E+00 -4.39312E+00 -2.28269E+00  2.98884E+00 -5.68090E+00 -5.05021E-01  2.05762E-01  4.93908E-01 -2.12264E+00 -2.13793E+00
  -4.21275E-01  1.52343E+00 -2.00947E+00 -6.07112E-01 -6.69514E+00  2.35758E-02  2.99849E-01 -3.10772E+00  3.82752E-01 -1.12740E+00
  -2.00422E+00  1.41469E+00 -4.40018E+00  3.51431E+00  1.14932E-01 -3.38545E+00 -5.66497E-01 -4.50886E+00 -3.51307E+00  7.65752E-01
  -5.85488E-01 -4.81087E+00 -5.43631E+00 -1.07761E+00  1.03368E+00  9.99100E+00  3.09016E+00  2.76641E+00  7.56357E-01  5.56921E+00
   4.61429E+00  4.48926E+00  4.19211E+00  9.48985E+00  7.40080E+00  1.04627E+01  5.93057E+00  1.47035E+01  6.21219E+00  1.54162E+01
   7.62396E+00  1.02870E+01  1.40096E+01  8.42444E+00  8.04535E+00  1.41590E+01  1.17600E+01  1.11617E+01  9.52261E+00  1.10761E+01
   7.86741E+00  1.00403E+01  8.61724E+00  1.20417E+01  1.31093E+01  1.67431E+01  5.11867E+00  5.75659E+00  9.61967E+00  9.73645E+00
  -2.79567E-01  5.25313E+00  2.04008E+00  9.78358E+00  9.47898E+00  5.58863E+00  5.99535E+00  6.57444E+00  7.06741E+00  1.24041E+01
   7.68933E+00  8.49070E+00  8.91630E+00  6.45750E+00  6.51248E+00  1.06773E+01  6.97163E+00  9.27535E+00  1.28504E+01  9.55077E+00
   9.17128E+00  1.10793E+01  1.63256E+01  1.26424E+01  1.67360E+01  1.50249E+01  1.56311E+01  1.32479E+01  1.13110E+01  1.78016E+01
   1.32911E+01  1.30293E+01  8.16250E+00  9.27305E+00  9.27902E+00  7.78340E+00  7.40415E+00  1.34330E+01  8.74815E+00  1.00356E+01
   4.64741E+00  7.32874E+00  4.99161E+00  6.08201E+00  2.91440E+00  1.57220E+00  6.53293E+00  3.00834E+00  5.76747E-01 -4.12767E-01
   2.29681E+00  3.54618E+00  7.68319E-01  1.35169E+00  8.55811E-01  1.54992E+00  8.81319E-01  8.92224E-01  1.90357E+00 -5.22732E-01
  -2.39428E+00  1.53324E+00 -1.89528E+00 -3.55764E+00  1.84304E+00  2.94279E+00 -9.71846E-01 -2.58467E+00  4.75758E+00 -1.21099E-01
   4.10939E-02 -1.32355E+00 -5.81589E+00  7.18235E-01  3.62918E-01 -9.46163E-01 -2.12515E-01  3.04412E+00 -2.97696E-01 -1.84011E+00
  -3.41996E-01 -3.34646E+00  7.51564E-01 -2.15898E+00 -4.75745E+00  9.05583E-01  3.43271E+00 -9.97148E-01  3.04837E+00 -7.36922E-01
  -1.08537E+00  1.05830E+00 -3.14771E+00  2.05240E+00  6.96147E-02 -3.05680E-01 -2.09323E+00 -5.63225E+00  1.56884E+00  9.37851E-01
  -2.53025E+00  8.96354E-01  4.48264E+00 -1.10107E+00 -1.20375E+00 -2.02154E+00 -4.37368E+00  1.48806E+00  3.40221E+00 -6.28249E-01
   3.30842E+00  2.37393E+00  2.30862E+00  3.09932E+00  4.89163E+00 -1.45123E-02 -3.11885E+00  1.48125E+00
 NY points of the fit to the data follow
  -1.00636E+01 -9.90401E+00 -9.17837E+00 -7.47217E+00 -4.24990E+00  4.35524E-01  6.19653E+00  1.22712E+01  1.75302E+01  2.08394E+01
   2.16012E+01  1.99952E+01  1.67406E+01  1.26215E+01  8.17477E+00  3.69772E+00 -5.90984E-01 -4.40109E+00 -7.33825E+00 -9.00977E+00
  -9.66955E+00 -1.00681E+01 -1.02876E+01 -1.01888E+01 -9.65766E+00 -8.58549E+00 -7.02076E+00 -5.20780E+00 -3.47988E+00 -2.15031E+00
  -1.39829E+00 -1.29435E+00 -1.85222E+00 -2.95193E+00 -4.43769E+00 -6.10797E+00 -7.65900E+00 -8.85473E+00 -9.47984E+00 -9.47147E+00
  -8.77993E+00 -7.36596E+00 -5.42124E+00 -3.22104E+00 -1.16013E+00  2.71957E-01  7.39284E-01  1.76568E-01 -1.18470E+00 -2.94577E+00
  -4.84247E+00 -6.66786E+00 -8.21146E+00 -9.36935E+00 -1.00497E+01 -1.01051E+01 -9.60136E+00 -8.95007E+00 -8.54360E+00 -8.51460E+00
  -8.84757E+00 -9.44973E+00 -1.01524E+01 -1.07954E+01 -1.12383E+01 -1.14240E+01 -1.13810E+01 -1.11284E+01 -1.06983E+01 -1.02027E+01
  -9.76501E+00 -9.49282E+00 -9.42273E+00 -9.51889E+00 -9.71862E+00 -9.95504E+00 -1.01753E+01 -1.03521E+01 -1.04406E+01 -1.03264E+01
  -9.86772E+00 -9.11925E+00 -8.21123E+00 -7.31831E+00 -6.66543E+00 -6.43670E+00 -6.66143E+00 -7.19063E+00 -7.80029E+00 -8.30898E+00
  -8.66612E+00 -8.90389E+00 -9.05618E+00 -9.09915E+00 -8.88990E+00 -7.92881E+00 -4.76098E+00  1.73845E+00  1.16399E+01  2.43014E+01
   3.79294E+01  4.97128E+01  5.69021E+01  5.81525E+01  5.40211E+01  4.62376E+01  3.65322E+01  2.60822E+01  1.56078E+01  5.74691E+00
  -2.71372E+00 -8.76108E+00 -1.14839E+01 -1.19592E+01 -1.19093E+01 -1.17418E+01 -1.15195E+01 -1.12341E+01 -1.08460E+01 -1.02588E+01
  -9.12926E+00 -6.51090E+00 -1.71130E+00  5.20256E+00  1.37052E+01  2.25876E+01  3.00904E+01  3.45549E+01  3.52292E+01  3.25156E+01
   2.74438E+01  2.10151E+01  1.39466E+01  6.77195E+00  7.04558E-02 -5.49621E+00 -9.21559E+00 -1.06578E+01 -1.06872E+01 -1.04203E+01
  -1.01307E+01 -9.87455E+00 -9.67705E+00 -9.60129E+00 -9.67667E+00 -9.88027E+00 -1.01791E+01 -1.05207E+01 -1.08406E+01 -1.11065E+01
  -1.12916E+01 -1.14169E+01 -1.14938E+01 -1.15296E+01 -1.15689E+01 -1.16726E+01 -1.18686E+01 -1.21520E+01 -1.24592E+01 -1.26992E+01
  -1.28075E+01 -1.27587E+01 -1.26044E+01 -1.24525E+01 -1.23975E+01 -1.24687E+01 -1.26355E+01 -1.28487E+01 -1.30892E+01 -1.33948E+01
  -1.38398E+01 -1.43849E+01 -1.49127E+01 -1.53235E+01 -1.55474E+01 -1.56043E+01 -1.55483E+01 -1.54376E+01 -1.53364E+01 -1.52640E+01
  -1.52126E+01 -1.51601E+01 -1.50462E+01 -1.48237E+01 -1.44318E+01 -1.38046E+01 -1.29138E+01 -1.17876E+01 -1.06267E+01 -9.70747E+00
  -9.20773E+00 -9.12064E+00 -9.30000E+00 -9.60111E+00 -9.86999E+00 -9.98110E+00 -9.86636E+00 -9.41528E+00 -8.54029E+00 -7.33821E+00
  -6.00074E+00 -4.79654E+00 -4.03927E+00 -4.01998E+00 -4.81719E+00 -6.33104E+00 -8.28334E+00 -1.02644E+01 -1.18244E+01 -1.25519E+01
  -1.22092E+01 -1.08691E+01 -8.75133E+00 -6.19562E+00 -3.75832E+00 -2.09075E+00 -1.66778E+00 -2.57571E+00 -4.50537E+00 -6.94940E+00
  -9.22962E+00 -1.08262E+01 -1.14645E+01 -1.10745E+01 -9.80954E+00 -7.98683E+00 -6.00569E+00 -4.25270E+00 -2.88187E+00 -1.92636E+00
  -1.31805E+00 -1.00945E+00 -8.86686E-01 -6.93981E-01 -2.64296E-01  3.00998E-01  8.00094E-01  1.07772E+00  1.06502E+00  7.87033E-01
   3.58694E-01 -5.90687E-04 -8.57408E-02  1.54352E-01  6.25066E-01  1.23942E+00  1.97356E+00  2.74497E+00  3.51011E+00  4.26906E+00
   5.00473E+00  5.66167E+00  6.30256E+00  7.72996E+00  1.17058E+01  1.88858E+01  2.91946E+01  4.17695E+01  5.45348E+01  6.46329E+01
   6.97562E+01  6.92838E+01  6.42574E+01  5.63580E+01  4.69692E+01  3.69270E+01  2.68130E+01  1.72699E+01  9.19618E+00  3.79780E+00
   1.50547E+00  5.32964E-01 -4.93321E-02 -4.35830E-01 -7.28248E-01 -1.00696E+00 -1.28350E+00 -1.56335E+00 -1.85112E+00 -2.14255E+00
  -2.42870E+00 -2.70118E+00 -2.94344E+00 -3.13752E+00 -3.28060E+00 -3.38032E+00 -3.44228E+00 -3.46951E+00 -3.46477E+00 -3.43219E+00
  -3.37609E+00 -3.29444E+00 -3.18556E+00 -3.05051E+00 -2.89141E+00 -2.71124E+00 -2.51378E+00 -2.30371E+00 -2.08628E+00 -1.86612E+00
  -1.64833E+00 -1.43863E+00 -1.24267E+00 -1.06599E+00 -9.13671E-01 -7.89775E-01 -6.97271E-01 -6.38111E-01 -6.13240E-01 -6.22498E-01
  -6.64502E-01 -7.36672E-01 -8.35352E-01 -9.56210E-01 -1.09473E+00 -1.24602E+00 -1.40491E+00 -1.56623E+00 -1.72504E+00 -1.87683E+00
  -2.01760E+00 -2.14379E+00 -2.25236E+00 -2.34078E+00 -2.40708E+00 -2.44979E+00 -2.46777E+00 -2.46013E+00 -2.42609E+00 -2.36501E+00
  -2.27632E+00 -2.15948E+00 -2.01382E+00 -1.83848E+00 -1.63250E+00 -1.39482E+00 -1.12429E+00 -8.19633E-01 -4.79294E-01 -1.00984E-01
   3.19102E-01  7.81468E-01  1.28111E+00  1.81113E+00  2.36219E+00  2.92402E+00  3.48897E+00  4.05496E+00  4.62871E+00  5.21902E+00
   5.82993E+00  6.46059E+00  7.10466E+00  7.74986E+00  8.37926E+00  8.97510E+00  9.52185E+00  1.00036E+01  1.04087E+01  1.07333E+01
   1.09744E+01  1.11303E+01  1.12013E+01  1.11914E+01  1.11091E+01  1.09595E+01  1.07449E+01  1.04704E+01  1.01433E+01  9.77198E+00
   9.36580E+00  8.93472E+00  8.48903E+00  8.03905E+00  7.59489E+00  7.16623E+00  6.76224E+00  6.39144E+00  6.06168E+00  5.78000E+00
   5.55263E+00  5.38494E+00  5.28152E+00  5.24613E+00  5.28168E+00  5.39011E+00  5.57229E+00  5.82794E+00  6.15556E+00  6.55221E+00
   7.01340E+00  7.53289E+00  8.10265E+00  8.71288E+00  9.35205E+00  1.00071E+01  1.06636E+01  1.13061E+01  1.19187E+01  1.24856E+01
   1.29917E+01  1.34228E+01  1.37668E+01  1.40139E+01  1.41568E+01  1.41914E+01  1.41168E+01  1.39353E+01  1.36520E+01  1.32748E+01
   1.28138E+01  1.22810E+01  1.16894E+01  1.10526E+01  1.03843E+01  9.69759E+00  9.00474E+00  8.31683E+00  7.64340E+00  6.99242E+00
   6.37014E+00  5.78126E+00  5.22899E+00  4.71521E+00  4.24059E+00  3.80483E+00  3.40685E+00  3.04504E+00  2.71735E+00  2.42151E+00
   2.15508E+00  1.91556E+00  1.70051E+00  1.50763E+00  1.33474E+00  1.17982E+00  1.04099E+00  9.16556E-01  8.04999E-01  7.04983E-01
   6.15324E-01  5.34946E-01  4.62889E-01  3.98300E-01  3.40451E-01  2.88707E-01  2.42498E-01  2.01300E-01  1.64639E-01  1.32108E-01
   1.03365E-01  7.81077E-02  5.60516E-02  3.69237E-02  2.04807E-02  6.51916E-03 -5.13052E-03 -1.46289E-02 -2.21403E-02 -2.78231E-02
  -3.18108E-02 -3.42067E-02 -3.50991E-02 -3.45845E-02 -3.27693E-02 -2.97520E-02 -2.56067E-02 -2.03868E-02 -1.41458E-02 -6.95201E-03
   1.12196E-03  1.00151E-02  1.96913E-02  3.01230E-02  4.12727E-02  5.30851E-02  6.55059E-02  7.84999E-02  9.20485E-02  1.06132E-01
   1.20716E-01  1.35753E-01  1.51206E-01  1.67055E-01  1.83295E-01  1.99905E-01  2.16851E-01  2.34090E-01  2.51598E-01  2.69365E-01
   2.87382E-01  3.05625E-01  3.24052E-01  3.42626E-01  3.61329E-01  3.80152E-01  3.99075E-01  4.18060E-01
 NY background values follow
    -1.768E+01   -1.765E+01   -1.761E+01   -1.758E+01   -1.755E+01   -1.752E+01   -1.749E+01   -1.746E+01   -1.742E+01   -1.739E+01
    -1.736E+01   -1.733E+01   -1.730E+01   -1.727E+01   -1.723E+01   -1.720E+01   -1.717E+01   -1.714E+01   -1.711E+01   -1.707E+01
    -1.704E+01   -1.701E+01   -1.698E+01   -1.695E+01   -1.691E+01   -1.688E+01   -1.685E+01   -1.682E+01   -1.679E+01   -1.675E+01
    -1.672E+01   -1.669E+01   -1.666E+01   -1.663E+01   -1.659E+01   -1.656E+01   -1.653E+01   -1.650E+01   -1.647E+01   -1.643E+01
    -1.640E+01   -1.637E+01   -1.634E+01   -1.631E+01   -1.627E+01   -1.624E+01   -1.621E+01   -1.618E+01   -1.614E+01   -1.611E+01
    -1.608E+01   -1.605E+01   -1.601E+01   -1.598E+01   -1.595E+01   -1.592E+01   -1.589E+01   -1.585E+01   -1.582E+01   -1.579E+01
    -1.576E+01   -1.572E+01   -1.569E+01   -1.566E+01   -1.563E+01   -1.559E+01   -1.556E+01   -1.553E+01   -1.550E+01   -1.546E+01
    -1.543E+01   -1.540E+01   -1.537E+01   -1.533E+01   -1.530E+01   -1.527E+01   -1.524E+01   -1.520E+01   -1.517E+01   -1.514E+01
    -1.510E+01   -1.507E+01   -1.504E+01   -1.501E+01   -1.497E+01   -1.494E+01   -1.491E+01   -1.488E+01   -1.484E+01   -1.481E+01
    -1.478E+01   -1.474E+01   -1.471E+01   -1.468E+01   -1.465E+01   -1.461E+01   -1.458E+01   -1.455E+01   -1.451E+01   -1.448E+01
    -1.445E+01   -1.442E+01   -1.438E+01   -1.435E+01   -1.432E+01   -1.428E+01   -1.425E+01   -1.422E+01   -1.419E+01   -1.415E+01
    -1.412E+01   -1.409E+01   -1.405E+01   -1.402E+01   -1.399E+01   -1.395E+01   -1.392E+01   -1.389E+01   -1.386E+01   -1.382E+01
    -1.379E+01   -1.376E+01   -1.372E+01   -1.369E+01   -1.366E+01   -1.362E+01   -1.359E+01   -1.356E+01   -1.352E+01   -1.349E+01
    -1.346E+01   -1.342E+01   -1.339E+01   -1.336E+01   -1.332E+01   -1.329E+01   -1.326E+01   -1.323E+01   -1.319E+01   -1.316E+01
    -1.313E+01   -1.309E+01   -1.306E+01   -1.303E+01   -1.299E+01   -1.296E+01   -1.293E+01   -1.289E+01   -1.286E+01   -1.283E+01
    -1.279E+01   -1.276E+01   -1.273E+01   -1.269E+01   -1.266E+01   -1.263E+01   -1.259E+01   -1.256E+01   -1.252E+01   -1.249E+01
    -1.246E+01   -1.242E+01   -1.239E+01   -1.236E+01   -1.232E+01   -1.229E+01   -1.226E+01   -1.222E+01   -1.219E+01   -1.216E+01
    -1.212E+01   -1.209E+01   -1.206E+01   -1.202E+01   -1.199E+01   -1.196E+01   -1.192E+01   -1.189E+01   -1.185E+01   -1.182E+01
    -1.179E+01   -1.175E+01   -1.172E+01   -1.169E+01   -1.165E+01   -1.162E+01   -1.159E+01   -1.155E+01   -1.152E+01   -1.148E+01
    -1.145E+01   -1.142E+01   -1.138E+01   -1.135E+01   -1.132E+01   -1.128E+01   -1.125E+01   -1.122E+01   -1.118E+01   -1.115E+01
    -1.111E+01   -1.108E+01   -1.105E+01   -1.101E+01   -1.098E+01   -1.095E+01   -1.091E+01   -1.088E+01   -1.084E+01   -1.081E+01
    -1.078E+01   -1.074E+01   -1.071E+01   -1.067E+01   -1.064E+01   -1.061E+01   -1.057E+01   -1.054E+01   -1.051E+01   -1.047E+01
    -1.044E+01   -1.040E+01   -1.037E+01   -1.034E+01   -1.030E+01   -1.027E+01   -1.023E+01   -1.020E+01   -1.017E+01   -1.013E+01
    -1.010E+01   -1.007E+01   -1.003E+01   -9.997E+00   -9.964E+00   -9.930E+00   -9.896E+00   -9.862E+00   -9.828E+00   -9.794E+00
    -9.760E+00   -9.726E+00   -9.692E+00   -9.658E+00   -9.624E+00   -9.590E+00   -9.556E+00   -9.522E+00   -9.488E+00   -9.454E+00
    -9.420E+00   -9.386E+00   -9.352E+00   -9.318E+00   -9.284E+00   -9.250E+00   -9.216E+00   -9.182E+00   -9.148E+00   -9.114E+00
    -9.080E+00   -9.046E+00   -9.012E+00   -8.978E+00   -8.944E+00   -8.910E+00   -8.876E+00   -8.842E+00   -8.808E+00   -8.774E+00
    -8.740E+00   -8.706E+00   -8.672E+00   -8.638E+00   -8.604E+00   -8.570E+00   -8.535E+00   -8.501E+00   -8.467E+00   -8.433E+00
    -8.399E+00   -8.365E+00   -8.331E+00   -8.297E+00   -8.263E+00   -8.229E+00   -8.195E+00   -8.161E+00   -8.126E+00   -8.092E+00
    -8.058E+00   -8.024E+00   -7.990E+00   -7.956E+00   -7.922E+00   -7.888E+00   -7.854E+00   -7.820E+00   -7.785E+00   -7.751E+00
    -7.717E+00   -7.683E+00   -7.649E+00   -7.615E+00   -7.581E+00   -7.547E+00   -7.512E+00   -7.478E+00   -7.444E+00   -7.410E+00
    -7.376E+00   -7.342E+00   -7.308E+00   -7.274E+00   -7.239E+00   -7.205E+00   -7.171E+00   -7.137E+00   -7.103E+00   -7.069E+00
    -7.035E+00   -7.000E+00   -6.966E+00   -6.932E+00   -6.898E+00   -6.864E+00   -6.830E+00   -6.796E+00   -6.761E+00   -6.727E+00
    -6.693E+00   -6.659E+00   -6.625E+00   -6.591E+00   -6.557E+00   -6.522E+00   -6.488E+00   -6.454E+00   -6.420E+00   -6.386E+00
    -6.352E+00   -6.318E+00   -6.283E+00   -6.249E+00   -6.215E+00   -6.181E+00   -6.147E+00   -6.113E+00   -6.079E+00   -6.044E+00
    -6.010E+00   -5.976E+00   -5.942E+00   -5.908E+00   -5.874E+00   -5.840E+00   -5.806E+00   -5.771E+00   -5.737E+00   -5.703E+00
    -5.669E+00   -5.635E+00   -5.601E+00   -5.567E+00   -5.533E+00   -5.498E+00   -5.464E+00   -5.430E+00   -5.396E+00   -5.362E+00
    -5.328E+00   -5.294E+00   -5.260E+00   -5.225E+00   -5.191E+00   -5.157E+00   -5.123E+00   -5.089E+00   -5.055E+00   -5.021E+00
    -4.987E+00   -4.953E+00   -4.919E+00   -4.885E+00   -4.850E+00   -4.816E+00   -4.782E+00   -4.748E+00   -4.714E+00   -4.680E+00
    -4.646E+00   -4.612E+00   -4.578E+00   -4.544E+00   -4.510E+00   -4.476E+00   -4.442E+00   -4.408E+00   -4.374E+00   -4.339E+00
    -4.305E+00   -4.271E+00   -4.237E+00   -4.203E+00   -4.169E+00   -4.135E+00   -4.101E+00   -4.067E+00   -4.033E+00   -3.999E+00
    -3.965E+00   -3.931E+00   -3.897E+00   -3.863E+00   -3.829E+00   -3.795E+00   -3.761E+00   -3.727E+00   -3.693E+00   -3.659E+00
    -3.625E+00   -3.591E+00   -3.557E+00   -3.523E+00   -3.489E+00   -3.456E+00   -3.422E+00   -3.388E+00   -3.354E+00   -3.320E+00
    -3.286E+00   -3.252E+00   -3.218E+00   -3.184E+00   -3.150E+00   -3.116E+00   -3.082E+00   -3.048E+00   -3.015E+00   -2.981E+00
    -2.947E+00   -2.913E+00   -2.879E+00   -2.845E+00   -2.811E+00   -2.777E+00   -2.744E+00   -2.710E+00   -2.676E+00   -2.642E+00
    -2.608E+00   -2.574E+00   -2.541E+00   -2.507E+00   -2.473E+00   -2.439E+00   -2.405E+00   -2.372E+00   -2.338E+00   -2.304E+00
    -2.270E+00   -2.236E+00   -2.203E+00   -2.169E+00   -2.135E+00   -2.101E+00   -2.068E+00   -2.034E+00   -2.000E+00   -1.966E+00
    -1.933E+00   -1.899E+00   -1.865E+00   -1.832E+00   -1.798E+00   -1.764E+00   -1.731E+00   -1.697E+00   -1.663E+00   -1.630E+00
    -1.596E+00   -1.562E+00   -1.529E+00   -1.495E+00   -1.461E+00   -1.428E+00   -1.394E+00   -1.361E+00   -1.327E+00   -1.293E+00
    -1.260E+00   -1.226E+00   -1.193E+00   -1.159E+00   -1.126E+00   -1.092E+00   -1.058E+00   -1.025E+00
 Asp      Conc. = 7.92E+01
