 LCModel (Version 6.3-1L) Copyright: S.W. Provencher.          Ref.: Magn. Reson. Med. 30:672-679 (1993).                
 Slice#3 Row#7 Col#5  PD_24_press_1_raw_act
 36 lines in following concentration table = NCONC+1
    Conc.  %SD /Cr+PCr  Metabolite                                         
  232.025  58%   0.115 Ala                                                 
    0.000 999%   0.000 Asp                                                 
 1.29E+03  21%   0.640 Cr                                                  
  725.540  38%   0.360 PCr                                                 
    0.000 999%   0.000 GABA                                                
    0.000 999%   0.000 Glc                                                 
  533.805  52%   0.265 Gln                                                 
 1.90E+03  17%   0.945 Glu                                                 
  690.037   4%   0.342 GPC                                                 
    0.000 999%   0.000 PCh                                                 
  391.515  21%   0.194 GSH                                                 
    0.000 999%   0.000 Ins                                                 
   31.137 470% 1.5E-02 Lac                                                 
 2.53E+03   6%   1.256 NAA                                                 
  213.134  81%   0.106 NAAG                                                
   18.710 159% 9.3E-03 Scyllo                                              
    0.000 999%   0.000 Tau                                                 
    0.000 999%   0.000 -CrCH2                                              
  690.037   4%   0.342 GPC+PCh                                             
 2.75E+03   3%   1.362 NAA+NAAG                                            
 2.02E+03   3%   1.000 Cr+PCr                                              
 2.44E+03  19%   1.209 Glu+Gln                                             
  589.839  56%   0.293 Lip13a                                              
    0.000 999%   0.000 Lip13b                                              
    0.000 999%   0.000 Lip09                                               
 1.11E+03  20%   0.550 MM09                                                
  101.495 132% 5.0E-02 Lip20                                               
 2.17E+03  18%   1.078 MM20                                                
  375.183  33%   0.186 MM12                                                
  899.101  36%   0.446 MM14                                                
 1.19E+03  20%   0.592 MM17                                                
  589.839  56%   0.293 Lip13a+Lip13b                                       
 1.86E+03  26%   0.924 MM14+Lip13a+Lip13b+MM12                             
 1.11E+03  20%   0.550 MM09+Lip09                                          
 2.28E+03  18%   1.129 MM20+Lip20                                          
   6 lines in following misc. output table
  FWHM = 0.054 ppm    S/N =  12                                            
  Data shift = 0.008 ppm                                                   
  Ph: -16 deg       0.0 deg/ppm                                            
  alphaB,S = 6.2E-01,   5.1E+01                                            
   14 spline knots.   Ns = 7(1)                                            
  (12) 5 infls.   ( 9) 1 extrs.                                            
  498 points on ppm-axis = NY
      4.000000     3.992357     3.984714     3.977070     3.969427     3.961784     3.954141     3.946497     3.938854     3.931211
      3.923568     3.915925     3.908281     3.900638     3.892995     3.885352     3.877708     3.870065     3.862422     3.854779
      3.847136     3.839492     3.831849     3.824206     3.816563     3.808919     3.801276     3.793633     3.785990     3.778347
      3.770703     3.763060     3.755417     3.747774     3.740130     3.732487     3.724844     3.717201     3.709558     3.701914
      3.694271     3.686628     3.678985     3.671341     3.663698     3.656055     3.648412     3.640769     3.633125     3.625482
      3.617839     3.610196     3.602552     3.594909     3.587266     3.579623     3.571980     3.564336     3.556693     3.549050
      3.541407     3.533763     3.526120     3.518477     3.510834     3.503191     3.495547     3.487904     3.480261     3.472618
      3.464974     3.457331     3.449688     3.442045     3.434402     3.426758     3.419115     3.411472     3.403829     3.396185
      3.388542     3.380899     3.373256     3.365613     3.357969     3.350326     3.342683     3.335040     3.327396     3.319753
      3.312110     3.304467     3.296824     3.289180     3.281537     3.273894     3.266251     3.258607     3.250964     3.243321
      3.235678     3.228034     3.220391     3.212748     3.205105     3.197462     3.189818     3.182175     3.174532     3.166889
      3.159245     3.151602     3.143959     3.136316     3.128673     3.121029     3.113386     3.105743     3.098100     3.090456
      3.082813     3.075170     3.067527     3.059884     3.052240     3.044597     3.036954     3.029311     3.021667     3.014024
      3.006381     2.998738     2.991095     2.983451     2.975808     2.968165     2.960522     2.952878     2.945235     2.937592
      2.929949     2.922306     2.914662     2.907019     2.899376     2.891733     2.884089     2.876446     2.868803     2.861160
      2.853517     2.845873     2.838230     2.830587     2.822944     2.815300     2.807657     2.800014     2.792371     2.784728
      2.777084     2.769441     2.761798     2.754155     2.746511     2.738868     2.731225     2.723582     2.715939     2.708295
      2.700652     2.693009     2.685366     2.677722     2.670079     2.662436     2.654793     2.647150     2.639506     2.631863
      2.624220     2.616577     2.608933     2.601290     2.593647     2.586004     2.578361     2.570717     2.563074     2.555431
      2.547788     2.540144     2.532501     2.524858     2.517215     2.509572     2.501928     2.494285     2.486642     2.478999
      2.471355     2.463712     2.456069     2.448426     2.440783     2.433139     2.425496     2.417853     2.410210     2.402566
      2.394923     2.387280     2.379637     2.371994     2.364350     2.356707     2.349064     2.341421     2.333777     2.326134
      2.318491     2.310848     2.303205     2.295561     2.287918     2.280275     2.272632     2.264988     2.257345     2.249702
      2.242059     2.234416     2.226772     2.219129     2.211486     2.203843     2.196199     2.188556     2.180913     2.173270
      2.165627     2.157983     2.150340     2.142697     2.135054     2.127410     2.119767     2.112124     2.104481     2.096838
      2.089194     2.081551     2.073908     2.066265     2.058621     2.050978     2.043335     2.035692     2.028049     2.020405
      2.012762     2.005119     1.997476     1.989833     1.982190     1.974546     1.966903     1.959260     1.951617     1.943974
      1.936331     1.928688     1.921045     1.913402     1.905759     1.898115     1.890472     1.882829     1.875186     1.867543
      1.859900     1.852257     1.844614     1.836971     1.829327     1.821684     1.814041     1.806398     1.798755     1.791112
      1.783469     1.775826     1.768183     1.760540     1.752896     1.745253     1.737610     1.729967     1.722324     1.714681
      1.707038     1.699395     1.691752     1.684108     1.676465     1.668822     1.661179     1.653536     1.645893     1.638250
      1.630607     1.622964     1.615321     1.607677     1.600034     1.592391     1.584748     1.577105     1.569462     1.561819
      1.554176     1.546533     1.538890     1.531246     1.523603     1.515960     1.508317     1.500674     1.493031     1.485388
      1.477745     1.470102     1.462458     1.454815     1.447172     1.439529     1.431886     1.424243     1.416600     1.408957
      1.401314     1.393671     1.386027     1.378384     1.370741     1.363098     1.355455     1.347812     1.340169     1.332526
      1.324883     1.317240     1.309596     1.301953     1.294310     1.286667     1.279024     1.271381     1.263738     1.256095
      1.248452     1.240808     1.233165     1.225522     1.217879     1.210236     1.202593     1.194950     1.187307     1.179664
      1.172021     1.164377     1.156734     1.149091     1.141448     1.133805     1.126162     1.118519     1.110876     1.103233
      1.095590     1.087946     1.080303     1.072660     1.065017     1.057374     1.049731     1.042088     1.034445     1.026802
      1.019158     1.011515     1.003872     0.996229     0.988586     0.980943     0.973300     0.965657     0.958014     0.950371
      0.942727     0.935084     0.927441     0.919798     0.912155     0.904512     0.896869     0.889226     0.881583     0.873940
      0.866296     0.858653     0.851010     0.843367     0.835724     0.828081     0.820438     0.812795     0.805152     0.797508
      0.789865     0.782222     0.774579     0.766936     0.759293     0.751650     0.744007     0.736364     0.728721     0.721077
      0.713434     0.705791     0.698148     0.690505     0.682862     0.675219     0.667576     0.659933     0.652290     0.644646
      0.637003     0.629360     0.621717     0.614074     0.606431     0.598788     0.591145     0.583502     0.575858     0.568215
      0.560572     0.552929     0.545286     0.537643     0.530000     0.522357     0.514714     0.507071     0.499427     0.491784
      0.484141     0.476498     0.468855     0.461212     0.453569     0.445925     0.438282     0.430639     0.422996     0.415353
      0.407710     0.400067     0.392424     0.384780     0.377137     0.369494     0.361851     0.354208     0.346565     0.338922
      0.331278     0.323635     0.315992     0.308349     0.300706     0.293063     0.285420     0.277777     0.270133     0.262490
      0.254847     0.247204     0.239561     0.231918     0.224275     0.216631     0.208988     0.201345
 NY phased data points follow
   8.16300E+01  8.42731E+01  7.92732E+01  8.45642E+01  8.68548E+01  9.13470E+01  9.31836E+01  9.91094E+01  1.03696E+02  1.07833E+02
   1.15987E+02  1.25786E+02  1.08407E+02  1.10095E+02  1.02173E+02  9.00066E+01  9.32144E+01  8.57119E+01  7.83538E+01  7.06544E+01
   7.19017E+01  7.15134E+01  6.60154E+01  6.63187E+01  6.71143E+01  6.73680E+01  6.78513E+01  6.15089E+01  7.20266E+01  6.80036E+01
   6.80030E+01  6.90182E+01  6.65960E+01  6.18521E+01  7.36852E+01  6.44741E+01  6.49877E+01  5.94105E+01  5.26762E+01  6.12404E+01
   5.72145E+01  5.99117E+01  5.83210E+01  6.34169E+01  5.91901E+01  6.60442E+01  6.27279E+01  5.75036E+01  5.93117E+01  6.07451E+01
   5.83896E+01  5.80253E+01  4.66913E+01  5.14165E+01  4.86005E+01  4.85955E+01  4.56939E+01  4.54679E+01  4.52851E+01  4.55437E+01
   4.24858E+01  4.11791E+01  4.07815E+01  3.86152E+01  3.83664E+01  3.80148E+01  3.71448E+01  3.02954E+01  3.24272E+01  3.32052E+01
   3.02716E+01  3.18034E+01  3.46959E+01  3.51272E+01  3.21018E+01  3.61398E+01  3.32212E+01  3.31461E+01  3.76135E+01  2.92983E+01
   2.82210E+01  3.21907E+01  3.52609E+01  3.47242E+01  3.02125E+01  3.83661E+01  3.37551E+01  3.50932E+01  3.56234E+01  3.55209E+01
   3.08351E+01  3.51395E+01  3.26948E+01  3.58249E+01  3.48118E+01  3.83712E+01  3.79981E+01  3.76700E+01  3.90393E+01  5.31203E+01
   6.41737E+01  7.82197E+01  8.56909E+01  8.90486E+01  8.67164E+01  7.80917E+01  7.71227E+01  6.12869E+01  5.11115E+01  5.00951E+01
   4.16367E+01  3.54446E+01  3.21931E+01  3.11968E+01  2.90291E+01  2.45306E+01  2.80460E+01  2.81573E+01  3.00556E+01  3.27154E+01
   3.55169E+01  3.51957E+01  4.19280E+01  4.34811E+01  5.86429E+01  6.46465E+01  7.10350E+01  8.35165E+01  8.69873E+01  7.31669E+01
   6.73850E+01  5.44803E+01  4.81430E+01  4.01604E+01  3.62260E+01  2.85700E+01  2.76473E+01  2.90153E+01  2.55074E+01  2.37530E+01
   1.99737E+01  2.39458E+01  2.16541E+01  2.19700E+01  1.59505E+01  2.15625E+01  2.30206E+01  2.10313E+01  1.81634E+01  2.01545E+01
   1.57647E+01  1.62889E+01  1.88796E+01  1.71819E+01  1.90377E+01  1.72554E+01  1.69833E+01  1.49574E+01  1.86633E+01  1.85338E+01
   1.37245E+01  9.05516E+00  9.03808E+00  1.12081E+01  7.65181E+00  1.54973E+01  1.58517E+01  1.13013E+01  8.38063E+00  9.62383E+00
   7.79935E+00  8.93727E+00  4.18475E+00  3.05753E+00 -1.74965E+00  4.47660E+00  3.50646E+00  1.24549E+00  6.21947E+00  7.06911E+00
   5.96216E+00  7.29433E+00 -1.30991E+00  7.31124E+00  2.45012E+00  5.90827E+00  3.80365E+00  7.92811E+00  9.07719E+00  1.21592E+01
   1.98685E+01  2.31392E+01  2.20280E+01  2.16820E+01  1.85609E+01  1.94249E+01  1.77469E+01  1.78584E+01  1.94471E+01  1.66015E+01
   1.06866E+01  1.60399E+01  1.54365E+01  1.13131E+01  2.07786E+01  1.08949E+01  1.45887E+01  1.15241E+01  1.04006E+01  1.33455E+01
   1.10720E+01  5.85502E+00  1.43866E+01  1.85829E+01  2.69541E+01  2.21244E+01  2.24910E+01  1.88959E+01  1.95359E+01  2.07987E+01
   1.74859E+01  1.14508E+01  5.65277E+00  9.09121E+00  1.06039E+01  1.71066E+01  1.80098E+01  1.86120E+01  1.91142E+01  1.96761E+01
   1.69139E+01  2.19782E+01  2.01027E+01  2.10023E+01  2.06764E+01  2.52612E+01  1.46080E+01  1.72652E+01  1.25438E+01  2.25629E+01
   1.68395E+01  1.59205E+01  1.68768E+01  1.45968E+01  2.21443E+01  2.15942E+01  2.02996E+01  1.73647E+01  2.65335E+01  2.15309E+01
   2.50022E+01  3.11177E+01  3.00698E+01  3.78762E+01  4.22576E+01  4.89961E+01  5.43174E+01  6.96007E+01  8.83650E+01  1.02528E+02
   1.09823E+02  1.01012E+02  8.53741E+01  7.27066E+01  5.72510E+01  4.84828E+01  3.50552E+01  2.88740E+01  2.50880E+01  2.16956E+01
   2.42105E+01  2.32190E+01  2.24283E+01  2.07760E+01  1.55665E+01  1.57437E+01  2.27620E+01  1.42131E+01  1.69874E+01  1.79797E+01
   1.99546E+01  1.84727E+01  2.05223E+01  1.65637E+01  1.55761E+01  1.51926E+01  1.51887E+01  1.91761E+01  1.80808E+01  1.22624E+01
   2.13816E+01  1.30189E+01  1.56769E+01  1.78162E+01  1.60293E+01  1.62861E+01  1.19684E+01  1.39876E+01  1.73309E+01  1.83126E+01
   2.54615E+01  2.15064E+01  2.26604E+01  1.76824E+01  2.33364E+01  2.68289E+01  2.72217E+01  2.21219E+01  2.91815E+01  2.25637E+01
   2.51859E+01  1.95933E+01  1.96339E+01  1.76120E+01  1.92905E+01  2.35253E+01  1.85141E+01  1.88569E+01  2.39063E+01  2.53238E+01
   2.23374E+01  1.69752E+01  1.69631E+01  2.29448E+01  2.24334E+01  1.50660E+01  1.77235E+01  1.85167E+01  2.03034E+01  1.52038E+01
   1.44490E+01  1.18716E+01  1.83772E+01  1.14455E+01  1.26145E+01  1.83085E+01  1.58674E+01  1.36330E+01  2.03682E+01  1.40949E+01
   1.72095E+01  1.52199E+01  1.80969E+01  1.86443E+01  1.33133E+01  1.61309E+01  1.91321E+01  1.79886E+01  2.20369E+01  1.39189E+01
   1.81990E+01  1.35061E+01  1.26862E+01  1.36221E+01  1.64874E+01  1.44790E+01  1.65274E+01  1.54308E+01  1.17255E+01  1.28023E+01
   1.50012E+01  1.20621E+01  1.61686E+01  1.46096E+01  1.78551E+01  2.08436E+01  1.78867E+01  1.38994E+01  1.63235E+01  1.57639E+01
   1.09245E+01  1.35120E+01  1.37986E+01  1.22769E+01  1.01767E+01  1.35070E+01  1.41475E+01  1.39028E+01  1.66565E+01  1.47670E+01
   9.58041E+00  1.50623E+01  1.12898E+01  1.79585E+01  1.29624E+01  1.38852E+01  1.24231E+01  1.10097E+01  6.39877E+00  8.91464E+00
   1.04325E+01  1.18834E+01  1.11413E+01  1.26011E+01  1.19330E+01  1.24008E+01  1.56896E+01  1.74797E+01  1.46494E+01  1.63920E+01
   9.37514E+00  1.55521E+01  1.41133E+01  1.36221E+01  1.70915E+01  1.44763E+01  1.24756E+01  1.70497E+01  1.53846E+01  1.54025E+01
   1.34650E+01  1.18127E+01  1.22489E+01  1.00879E+01  1.18526E+01  1.55484E+01  1.14707E+01  6.25617E+00  8.19800E+00  5.36777E+00
   9.40701E+00  1.08841E+01  4.83500E+00  6.53825E+00  1.06761E+01  9.59637E+00  5.95903E+00  6.31502E+00  4.00017E+00  6.24195E+00
   2.72544E+00  7.66732E+00  6.38674E+00  4.72200E+00  3.79446E+00  5.24879E+00  6.65123E+00  1.36149E+00  1.06226E+01  1.18199E+01
   3.90513E+00  3.64997E+00  8.00529E+00  6.49924E+00  1.74095E+00  9.31219E+00  2.57302E+00  8.57231E+00  4.44452E+00  7.87884E+00
   7.75484E+00  5.41112E+00  1.02621E+01  8.33108E+00  3.06791E+00  7.13596E+00  4.11770E+00  8.04201E+00  4.04466E+00  1.04902E+01
   6.56409E+00  7.72280E+00  2.02561E+00  5.36687E+00  4.46755E+00  3.50773E+00  7.95096E+00  1.99381E+00  7.54725E+00  3.91196E+00
   5.95224E+00  2.87735E+00  2.76790E+00  5.64920E+00  4.94435E+00  3.73388E+00  5.09676E-01  6.45740E+00  7.01314E+00  4.24857E+00
   5.34156E+00  2.72145E+00  5.15777E+00  5.27227E+00  4.83826E+00  5.95941E+00  1.30593E+00  3.60321E+00  1.08356E+01  3.85925E+00
   3.75871E+00  3.95061E+00  3.25628E+00  8.27080E+00  1.36056E+01  8.72318E+00  4.78998E+00  5.12792E+00
 NY points of the fit to the data follow
   7.71430E+01  7.73278E+01  7.82356E+01  8.02027E+01  8.31490E+01  8.65971E+01  9.03284E+01  9.56070E+01  1.02476E+02  1.09395E+02
   1.14163E+02  1.15002E+02  1.11612E+02  1.05409E+02  9.84582E+01  9.20428E+01  8.65241E+01  8.16452E+01  7.72017E+01  7.33929E+01
   7.07591E+01  6.92334E+01  6.82950E+01  6.79519E+01  6.73286E+01  6.64361E+01  6.59213E+01  6.60568E+01  6.68540E+01  6.81499E+01
   6.95383E+01  7.02568E+01  7.01047E+01  6.91033E+01  6.70380E+01  6.44539E+01  6.21618E+01  6.01969E+01  5.85854E+01  5.80010E+01
   5.80112E+01  5.78486E+01  5.75758E+01  5.74474E+01  5.72454E+01  5.67708E+01  5.61531E+01  5.53670E+01  5.45237E+01  5.39374E+01
   5.34213E+01  5.27531E+01  5.20162E+01  5.12483E+01  5.03336E+01  4.93990E+01  4.85685E+01  4.77337E+01  4.68277E+01  4.59720E+01
   4.52242E+01  4.45547E+01  4.39336E+01  4.33366E+01  4.27764E+01  4.22532E+01  4.17510E+01  4.12630E+01  4.07868E+01  4.03238E+01
   3.98718E+01  3.94290E+01  3.89949E+01  3.85695E+01  3.81528E+01  3.77448E+01  3.73454E+01  3.69563E+01  3.65891E+01  3.62873E+01
   3.60102E+01  3.57066E+01  3.54493E+01  3.52782E+01  3.51665E+01  3.50537E+01  3.48666E+01  3.45462E+01  3.41154E+01  3.36578E+01
   3.32320E+01  3.28765E+01  3.26210E+01  3.24916E+01  3.26204E+01  3.38115E+01  3.82127E+01  4.31170E+01  4.66637E+01  5.25543E+01
   6.24706E+01  7.47029E+01  8.58999E+01  9.21199E+01  9.04544E+01  8.23220E+01  7.17784E+01  6.13991E+01  5.26186E+01  4.56817E+01
   3.93132E+01  3.27237E+01  2.84397E+01  2.70763E+01  2.65510E+01  2.62794E+01  2.61482E+01  2.61587E+01  2.64392E+01  2.76757E+01
   3.18814E+01  3.68384E+01  4.04890E+01  4.62677E+01  5.59666E+01  6.80613E+01  7.93625E+01  8.60169E+01  8.49677E+01  7.74423E+01
   6.74535E+01  5.75241E+01  4.89628E+01  4.19579E+01  3.52247E+01  2.80932E+01  2.30559E+01  2.12073E+01  2.06378E+01  2.06277E+01
   2.08129E+01  2.09226E+01  2.08897E+01  2.07399E+01  2.04638E+01  2.01046E+01  1.97111E+01  1.92729E+01  1.88052E+01  1.83607E+01
   1.79292E+01  1.75619E+01  1.72376E+01  1.68540E+01  1.64261E+01  1.61777E+01  1.59990E+01  1.57605E+01  1.53606E+01  1.46945E+01
   1.41121E+01  1.39083E+01  1.40556E+01  1.42482E+01  1.42224E+01  1.38417E+01  1.31487E+01  1.24024E+01  1.17594E+01  1.11683E+01
   1.07540E+01  1.03899E+01  9.81844E+00  9.12516E+00  8.57040E+00  8.38405E+00  8.53269E+00  8.84863E+00  9.00052E+00  8.84865E+00
   8.59564E+00  8.64800E+00  8.89866E+00  9.20367E+00  9.53145E+00  9.86600E+00  1.04493E+01  1.15060E+01  1.30071E+01  1.45432E+01
   1.55878E+01  1.59903E+01  1.60383E+01  1.58637E+01  1.54926E+01  1.49673E+01  1.44293E+01  1.40869E+01  1.41276E+01  1.47195E+01
   1.56757E+01  1.68015E+01  1.78458E+01  1.81891E+01  1.79728E+01  1.71570E+01  1.56234E+01  1.37092E+01  1.18862E+01  1.08022E+01
   1.03039E+01  1.05749E+01  1.21447E+01  1.47939E+01  1.77057E+01  1.97006E+01  2.01405E+01  1.91502E+01  1.70192E+01  1.37745E+01
   1.03553E+01  7.75111E+00  6.49453E+00  6.93764E+00  8.68430E+00  1.13227E+01  1.41793E+01  1.64928E+01  1.79555E+01  1.87012E+01
   1.92389E+01  1.95020E+01  1.93461E+01  1.91713E+01  1.93471E+01  1.97009E+01  1.99283E+01  2.01336E+01  2.01516E+01  1.98227E+01
   1.91332E+01  1.84116E+01  1.80008E+01  1.80969E+01  1.87431E+01  1.96248E+01  2.05513E+01  2.13708E+01  2.20593E+01  2.28652E+01
   2.36478E+01  2.48224E+01  2.83371E+01  3.69005E+01  4.39033E+01  4.97684E+01  5.91439E+01  7.28108E+01  8.80209E+01  1.00628E+02
   1.05646E+02  1.00267E+02  8.81194E+01  7.41113E+01  6.07436E+01  5.00460E+01  4.16119E+01  3.32527E+01  2.47056E+01  2.04362E+01
   1.90404E+01  1.83275E+01  1.79203E+01  1.77408E+01  1.76528E+01  1.74991E+01  1.72961E+01  1.70480E+01  1.67707E+01  1.64995E+01
   1.62568E+01  1.60318E+01  1.58355E+01  1.56928E+01  1.56019E+01  1.55496E+01  1.55181E+01  1.55107E+01  1.55458E+01  1.56345E+01
   1.57704E+01  1.59597E+01  1.62048E+01  1.65066E+01  1.68571E+01  1.72513E+01  1.76855E+01  1.81543E+01  1.86503E+01  1.91670E+01
   1.96933E+01  2.02173E+01  2.07216E+01  2.11877E+01  2.15974E+01  2.19365E+01  2.21950E+01  2.23648E+01  2.24385E+01  2.24161E+01
   2.23022E+01  2.21041E+01  2.18331E+01  2.15034E+01  2.11305E+01  2.07327E+01  2.03299E+01  1.99439E+01  1.96013E+01  1.93467E+01
   1.92355E+01  1.90719E+01  1.88370E+01  1.87638E+01  1.87970E+01  1.87161E+01  1.83229E+01  1.75113E+01  1.64969E+01  1.55892E+01
   1.47939E+01  1.42498E+01  1.41424E+01  1.45106E+01  1.52302E+01  1.61380E+01  1.70662E+01  1.77370E+01  1.80333E+01  1.80767E+01
   1.79957E+01  1.78763E+01  1.77104E+01  1.74333E+01  1.71044E+01  1.68727E+01  1.66679E+01  1.64401E+01  1.62065E+01  1.59820E+01
   1.57781E+01  1.56226E+01  1.55357E+01  1.55150E+01  1.55357E+01  1.55669E+01  1.55840E+01  1.55630E+01  1.54897E+01  1.53763E+01
   1.52389E+01  1.50885E+01  1.49205E+01  1.47225E+01  1.45144E+01  1.43113E+01  1.41073E+01  1.39005E+01  1.36914E+01  1.34812E+01
   1.32720E+01  1.30660E+01  1.28661E+01  1.26747E+01  1.24944E+01  1.23276E+01  1.21767E+01  1.20444E+01  1.19333E+01  1.18455E+01
   1.17831E+01  1.17478E+01  1.17417E+01  1.17665E+01  1.18234E+01  1.19131E+01  1.20358E+01  1.21913E+01  1.23787E+01  1.25960E+01
   1.28404E+01  1.31079E+01  1.33933E+01  1.36906E+01  1.39929E+01  1.42921E+01  1.45799E+01  1.48470E+01  1.50846E+01  1.52841E+01
   1.54380E+01  1.55395E+01  1.55832E+01  1.55653E+01  1.54844E+01  1.53407E+01  1.51365E+01  1.48758E+01  1.45640E+01  1.42080E+01
   1.38156E+01  1.33954E+01  1.29558E+01  1.25051E+01  1.20510E+01  1.16008E+01  1.11605E+01  1.07355E+01  1.03298E+01  9.94607E+00
   9.58629E+00  9.25152E+00  8.94209E+00  8.65763E+00  8.39712E+00  8.15917E+00  7.94226E+00  7.74480E+00  7.56517E+00  7.40163E+00
   7.25242E+00  7.11595E+00  6.99085E+00  6.87594E+00  6.77010E+00  6.67224E+00  6.58134E+00  6.49662E+00  6.41747E+00  6.34339E+00
   6.27385E+00  6.20830E+00  6.14628E+00  6.08750E+00  6.03176E+00  5.97885E+00  5.92849E+00  5.88039E+00  5.83434E+00  5.79027E+00
   5.74813E+00  5.70779E+00  5.66908E+00  5.63181E+00  5.59592E+00  5.56141E+00  5.52827E+00  5.49637E+00  5.46556E+00  5.43573E+00
   5.40690E+00  5.37910E+00  5.35229E+00  5.32635E+00  5.30116E+00  5.27670E+00  5.25300E+00  5.23010E+00  5.20792E+00  5.18635E+00
   5.16532E+00  5.14484E+00  5.12498E+00  5.10573E+00  5.08700E+00  5.06869E+00  5.05078E+00  5.03331E+00  5.01632E+00  4.99977E+00
   4.98357E+00  4.96765E+00  4.95201E+00  4.93673E+00  4.92181E+00  4.90718E+00  4.89276E+00  4.87850E+00  4.86447E+00  4.85070E+00
   4.83718E+00  4.82381E+00  4.81053E+00  4.79736E+00  4.78434E+00  4.77151E+00  4.75881E+00  4.74617E+00
 NY background values follow
     7.456E+01    7.402E+01    7.348E+01    7.294E+01    7.240E+01    7.186E+01    7.132E+01    7.078E+01    7.024E+01    6.970E+01
     6.916E+01    6.862E+01    6.808E+01    6.754E+01    6.701E+01    6.647E+01    6.593E+01    6.539E+01    6.486E+01    6.432E+01
     6.379E+01    6.325E+01    6.272E+01    6.219E+01    6.165E+01    6.112E+01    6.059E+01    6.007E+01    5.954E+01    5.901E+01
     5.849E+01    5.797E+01    5.744E+01    5.692E+01    5.641E+01    5.589E+01    5.538E+01    5.486E+01    5.435E+01    5.384E+01
     5.333E+01    5.283E+01    5.233E+01    5.182E+01    5.133E+01    5.083E+01    5.033E+01    4.984E+01    4.935E+01    4.887E+01
     4.838E+01    4.790E+01    4.742E+01    4.694E+01    4.647E+01    4.600E+01    4.553E+01    4.506E+01    4.460E+01    4.414E+01
     4.368E+01    4.323E+01    4.278E+01    4.233E+01    4.188E+01    4.144E+01    4.100E+01    4.056E+01    4.013E+01    3.970E+01
     3.927E+01    3.885E+01    3.843E+01    3.801E+01    3.759E+01    3.718E+01    3.678E+01    3.637E+01    3.597E+01    3.558E+01
     3.518E+01    3.479E+01    3.441E+01    3.402E+01    3.364E+01    3.327E+01    3.290E+01    3.253E+01    3.217E+01    3.181E+01
     3.145E+01    3.110E+01    3.075E+01    3.041E+01    3.007E+01    2.973E+01    2.940E+01    2.907E+01    2.874E+01    2.842E+01
     2.810E+01    2.779E+01    2.748E+01    2.717E+01    2.687E+01    2.657E+01    2.628E+01    2.598E+01    2.570E+01    2.541E+01
     2.513E+01    2.485E+01    2.458E+01    2.431E+01    2.404E+01    2.377E+01    2.351E+01    2.326E+01    2.300E+01    2.275E+01
     2.250E+01    2.226E+01    2.202E+01    2.178E+01    2.154E+01    2.131E+01    2.108E+01    2.086E+01    2.063E+01    2.042E+01
     2.020E+01    1.999E+01    1.977E+01    1.957E+01    1.936E+01    1.916E+01    1.896E+01    1.877E+01    1.857E+01    1.838E+01
     1.819E+01    1.801E+01    1.783E+01    1.765E+01    1.747E+01    1.730E+01    1.713E+01    1.696E+01    1.680E+01    1.664E+01
     1.648E+01    1.632E+01    1.617E+01    1.602E+01    1.587E+01    1.573E+01    1.559E+01    1.545E+01    1.531E+01    1.518E+01
     1.505E+01    1.493E+01    1.480E+01    1.468E+01    1.456E+01    1.445E+01    1.434E+01    1.423E+01    1.412E+01    1.402E+01
     1.392E+01    1.382E+01    1.373E+01    1.364E+01    1.355E+01    1.346E+01    1.338E+01    1.330E+01    1.322E+01    1.315E+01
     1.308E+01    1.301E+01    1.295E+01    1.289E+01    1.283E+01    1.277E+01    1.272E+01    1.267E+01    1.262E+01    1.257E+01
     1.253E+01    1.249E+01    1.245E+01    1.242E+01    1.238E+01    1.235E+01    1.232E+01    1.229E+01    1.227E+01    1.224E+01
     1.222E+01    1.220E+01    1.218E+01    1.217E+01    1.215E+01    1.214E+01    1.213E+01    1.212E+01    1.211E+01    1.210E+01
     1.209E+01    1.209E+01    1.208E+01    1.208E+01    1.208E+01    1.208E+01    1.208E+01    1.208E+01    1.208E+01    1.208E+01
     1.208E+01    1.208E+01    1.209E+01    1.209E+01    1.209E+01    1.210E+01    1.210E+01    1.211E+01    1.211E+01    1.212E+01
     1.212E+01    1.213E+01    1.213E+01    1.214E+01    1.214E+01    1.215E+01    1.215E+01    1.216E+01    1.217E+01    1.217E+01
     1.218E+01    1.218E+01    1.219E+01    1.219E+01    1.220E+01    1.220E+01    1.221E+01    1.221E+01    1.222E+01    1.222E+01
     1.222E+01    1.223E+01    1.223E+01    1.224E+01    1.224E+01    1.224E+01    1.224E+01    1.225E+01    1.225E+01    1.225E+01
     1.225E+01    1.225E+01    1.225E+01    1.225E+01    1.225E+01    1.225E+01    1.225E+01    1.225E+01    1.224E+01    1.224E+01
     1.224E+01    1.223E+01    1.223E+01    1.222E+01    1.222E+01    1.221E+01    1.221E+01    1.220E+01    1.219E+01    1.218E+01
     1.217E+01    1.216E+01    1.215E+01    1.214E+01    1.213E+01    1.211E+01    1.210E+01    1.209E+01    1.207E+01    1.206E+01
     1.204E+01    1.203E+01    1.201E+01    1.199E+01    1.197E+01    1.195E+01    1.193E+01    1.191E+01    1.189E+01    1.187E+01
     1.185E+01    1.182E+01    1.180E+01    1.177E+01    1.175E+01    1.172E+01    1.169E+01    1.167E+01    1.164E+01    1.161E+01
     1.158E+01    1.155E+01    1.151E+01    1.148E+01    1.145E+01    1.141E+01    1.138E+01    1.134E+01    1.130E+01    1.127E+01
     1.123E+01    1.119E+01    1.115E+01    1.111E+01    1.107E+01    1.103E+01    1.098E+01    1.094E+01    1.089E+01    1.085E+01
     1.080E+01    1.076E+01    1.071E+01    1.066E+01    1.062E+01    1.057E+01    1.052E+01    1.047E+01    1.042E+01    1.037E+01
     1.031E+01    1.026E+01    1.021E+01    1.016E+01    1.010E+01    1.005E+01    9.995E+00    9.941E+00    9.885E+00    9.830E+00
     9.773E+00    9.717E+00    9.660E+00    9.603E+00    9.545E+00    9.487E+00    9.429E+00    9.370E+00    9.312E+00    9.252E+00
     9.193E+00    9.133E+00    9.073E+00    9.013E+00    8.952E+00    8.892E+00    8.831E+00    8.770E+00    8.709E+00    8.648E+00
     8.587E+00    8.525E+00    8.464E+00    8.403E+00    8.341E+00    8.280E+00    8.219E+00    8.157E+00    8.096E+00    8.035E+00
     7.974E+00    7.914E+00    7.853E+00    7.793E+00    7.733E+00    7.673E+00    7.613E+00    7.554E+00    7.495E+00    7.436E+00
     7.378E+00    7.320E+00    7.262E+00    7.205E+00    7.149E+00    7.092E+00    7.037E+00    6.981E+00    6.927E+00    6.873E+00
     6.819E+00    6.766E+00    6.714E+00    6.662E+00    6.611E+00    6.561E+00    6.511E+00    6.462E+00    6.414E+00    6.366E+00
     6.319E+00    6.273E+00    6.228E+00    6.184E+00    6.140E+00    6.097E+00    6.054E+00    6.012E+00    5.971E+00    5.931E+00
     5.891E+00    5.852E+00    5.814E+00    5.776E+00    5.739E+00    5.703E+00    5.667E+00    5.632E+00    5.597E+00    5.564E+00
     5.530E+00    5.498E+00    5.466E+00    5.435E+00    5.404E+00    5.374E+00    5.344E+00    5.316E+00    5.287E+00    5.260E+00
     5.233E+00    5.206E+00    5.180E+00    5.155E+00    5.130E+00    5.106E+00    5.082E+00    5.059E+00    5.036E+00    5.014E+00
     4.993E+00    4.972E+00    4.952E+00    4.932E+00    4.912E+00    4.893E+00    4.875E+00    4.857E+00    4.840E+00    4.823E+00
     4.806E+00    4.790E+00    4.774E+00    4.759E+00    4.744E+00    4.729E+00    4.715E+00    4.701E+00    4.688E+00    4.675E+00
     4.662E+00    4.649E+00    4.637E+00    4.625E+00    4.613E+00    4.602E+00    4.591E+00    4.580E+00    4.569E+00    4.558E+00
     4.548E+00    4.538E+00    4.528E+00    4.518E+00    4.508E+00    4.499E+00    4.489E+00    4.480E+00    4.471E+00    4.461E+00
     4.452E+00    4.443E+00    4.434E+00    4.425E+00    4.417E+00    4.408E+00    4.399E+00    4.390E+00
 Ala      Conc. = 2.32E+02
