 LCModel (Version 6.3-1L) Copyright: S.W. Provencher.          Ref.: Magn. Reson. Med. 30:672-679 (1993).                
 Slice#1 Row#5 Col#14  PD_24_press_1_raw_act
 36 lines in following concentration table = NCONC+1
    Conc.  %SD /Cr+PCr  Metabolite                                         
   21.276  70%   0.662 Ala                                                 
    6.185  59%   0.192 Asp                                                 
    7.026 255%   0.219 Cr                                                  
   25.113  86%   0.781 PCr                                                 
    3.694  59%   0.115 GABA                                                
    3.725  59%   0.116 Glc                                                 
   10.850 214%   0.338 Gln                                                 
    0.000 999%   0.000 Glu                                                 
   17.499  42%   0.544 GPC                                                 
    0.000 999%   0.000 PCh                                                 
   14.939  79%   0.465 GSH                                                 
   50.739  75%   1.579 Ins                                                 
    1.104 999% 3.4E-02 Lac                                                 
   40.163  44%   1.250 NAA                                                 
    0.000 999%   0.000 NAAG                                                
    1.231  59% 3.8E-02 Scyllo                                              
    6.225  59%   0.194 Tau                                                 
    2.708 143% 8.4E-02 -CrCH2                                              
   17.499  42%   0.544 GPC+PCh                                             
   40.163  44%   1.250 NAA+NAAG                                            
   32.139  46%   1.000 Cr+PCr                                              
   10.850 214%   0.338 Glu+Gln                                             
 2.96E+04  10% 920.092 Lip13a                                              
    0.000 999%   0.000 Lip13b                                              
 1.21E+04  10% 375.226 Lip09                                               
 9.57E+03  17% 297.740 MM09                                                
  248.128 100%   7.720-Lip20                                               
    0.000 999%   0.000 MM20                                                
 4.79E+03  31% 149.125 MM12                                                
    0.000 999%   0.000 MM14                                                
 1.55E+03  31%  48.104 MM17                                                
 2.96E+04  10% 920.092 Lip13a+Lip13b                                       
 3.44E+04   9% 1.1E+03 MM14+Lip13a+Lip13b+MM12                             
 2.16E+04   7% 672.966 MM09+Lip09                                          
  248.128 100%   7.720 MM20+Lip20                                          
   6 lines in following misc. output table
  FWHM = 0.031 ppm    S/N =  27                                            
  Data shift = 0.000 ppm                                                   
  Ph: -78 deg     -20.4 deg/ppm                                            
  alphaB,S = 1.4E+00,   6.0E+00                                            
   14 spline knots.   Ns = 5(1)                                            
  ( 3) 2 infls.   ( 2) 2 extrs.                                            
  498 points on ppm-axis = NY
      4.000000     3.992357     3.984714     3.977070     3.969427     3.961784     3.954141     3.946497     3.938854     3.931211
      3.923568     3.915925     3.908281     3.900638     3.892995     3.885352     3.877708     3.870065     3.862422     3.854779
      3.847136     3.839492     3.831849     3.824206     3.816563     3.808919     3.801276     3.793633     3.785990     3.778347
      3.770703     3.763060     3.755417     3.747774     3.740130     3.732487     3.724844     3.717201     3.709558     3.701914
      3.694271     3.686628     3.678985     3.671341     3.663698     3.656055     3.648412     3.640769     3.633125     3.625482
      3.617839     3.610196     3.602552     3.594909     3.587266     3.579623     3.571980     3.564336     3.556693     3.549050
      3.541407     3.533763     3.526120     3.518477     3.510834     3.503191     3.495547     3.487904     3.480261     3.472618
      3.464974     3.457331     3.449688     3.442045     3.434402     3.426758     3.419115     3.411472     3.403829     3.396185
      3.388542     3.380899     3.373256     3.365613     3.357969     3.350326     3.342683     3.335040     3.327396     3.319753
      3.312110     3.304467     3.296824     3.289180     3.281537     3.273894     3.266251     3.258607     3.250964     3.243321
      3.235678     3.228034     3.220391     3.212748     3.205105     3.197462     3.189818     3.182175     3.174532     3.166889
      3.159245     3.151602     3.143959     3.136316     3.128673     3.121029     3.113386     3.105743     3.098100     3.090456
      3.082813     3.075170     3.067527     3.059884     3.052240     3.044597     3.036954     3.029311     3.021667     3.014024
      3.006381     2.998738     2.991095     2.983451     2.975808     2.968165     2.960522     2.952878     2.945235     2.937592
      2.929949     2.922306     2.914662     2.907019     2.899376     2.891733     2.884089     2.876446     2.868803     2.861160
      2.853517     2.845873     2.838230     2.830587     2.822944     2.815300     2.807657     2.800014     2.792371     2.784728
      2.777084     2.769441     2.761798     2.754155     2.746511     2.738868     2.731225     2.723582     2.715939     2.708295
      2.700652     2.693009     2.685366     2.677722     2.670079     2.662436     2.654793     2.647150     2.639506     2.631863
      2.624220     2.616577     2.608933     2.601290     2.593647     2.586004     2.578361     2.570717     2.563074     2.555431
      2.547788     2.540144     2.532501     2.524858     2.517215     2.509572     2.501928     2.494285     2.486642     2.478999
      2.471355     2.463712     2.456069     2.448426     2.440783     2.433139     2.425496     2.417853     2.410210     2.402566
      2.394923     2.387280     2.379637     2.371994     2.364350     2.356707     2.349064     2.341421     2.333777     2.326134
      2.318491     2.310848     2.303205     2.295561     2.287918     2.280275     2.272632     2.264988     2.257345     2.249702
      2.242059     2.234416     2.226772     2.219129     2.211486     2.203843     2.196199     2.188556     2.180913     2.173270
      2.165627     2.157983     2.150340     2.142697     2.135054     2.127410     2.119767     2.112124     2.104481     2.096838
      2.089194     2.081551     2.073908     2.066265     2.058621     2.050978     2.043335     2.035692     2.028049     2.020405
      2.012762     2.005119     1.997476     1.989833     1.982190     1.974546     1.966903     1.959260     1.951617     1.943974
      1.936331     1.928688     1.921045     1.913402     1.905759     1.898115     1.890472     1.882829     1.875186     1.867543
      1.859900     1.852257     1.844614     1.836971     1.829327     1.821684     1.814041     1.806398     1.798755     1.791112
      1.783469     1.775826     1.768183     1.760540     1.752896     1.745253     1.737610     1.729967     1.722324     1.714681
      1.707038     1.699395     1.691752     1.684108     1.676465     1.668822     1.661179     1.653536     1.645893     1.638250
      1.630607     1.622964     1.615321     1.607677     1.600034     1.592391     1.584748     1.577105     1.569462     1.561819
      1.554176     1.546533     1.538890     1.531246     1.523603     1.515960     1.508317     1.500674     1.493031     1.485388
      1.477745     1.470102     1.462458     1.454815     1.447172     1.439529     1.431886     1.424243     1.416600     1.408957
      1.401314     1.393671     1.386027     1.378384     1.370741     1.363098     1.355455     1.347812     1.340169     1.332526
      1.324883     1.317240     1.309596     1.301953     1.294310     1.286667     1.279024     1.271381     1.263738     1.256095
      1.248452     1.240808     1.233165     1.225522     1.217879     1.210236     1.202593     1.194950     1.187307     1.179664
      1.172021     1.164377     1.156734     1.149091     1.141448     1.133805     1.126162     1.118519     1.110876     1.103233
      1.095590     1.087946     1.080303     1.072660     1.065017     1.057374     1.049731     1.042088     1.034445     1.026802
      1.019158     1.011515     1.003872     0.996229     0.988586     0.980943     0.973300     0.965657     0.958014     0.950371
      0.942727     0.935084     0.927441     0.919798     0.912155     0.904512     0.896869     0.889226     0.881583     0.873940
      0.866296     0.858653     0.851010     0.843367     0.835724     0.828081     0.820438     0.812795     0.805152     0.797508
      0.789865     0.782222     0.774579     0.766936     0.759293     0.751650     0.744007     0.736364     0.728721     0.721077
      0.713434     0.705791     0.698148     0.690505     0.682862     0.675219     0.667576     0.659933     0.652290     0.644646
      0.637003     0.629360     0.621717     0.614074     0.606431     0.598788     0.591145     0.583502     0.575858     0.568215
      0.560572     0.552929     0.545286     0.537643     0.530000     0.522357     0.514714     0.507071     0.499427     0.491784
      0.484141     0.476498     0.468855     0.461212     0.453569     0.445925     0.438282     0.430639     0.422996     0.415353
      0.407710     0.400067     0.392424     0.384780     0.377137     0.369494     0.361851     0.354208     0.346565     0.338922
      0.331278     0.323635     0.315992     0.308349     0.300706     0.293063     0.285420     0.277777     0.270133     0.262490
      0.254847     0.247204     0.239561     0.231918     0.224275     0.216631     0.208988     0.201345
 NY phased data points follow
   1.35021E+01  1.23622E+01  1.02455E+01  1.00125E+01  1.22631E+01  6.48360E+00  8.26017E+00  1.19017E+01  9.29228E+00  1.20760E+01
   1.35723E+01  1.03202E+01  1.24196E+01  1.30852E+01  1.43720E+01  1.08262E+01  1.49485E+01  1.06780E+01  9.65431E+00  1.07154E+01
   1.16511E+01  1.23633E+01  1.14222E+01  7.49630E+00  1.13294E+01  1.02205E+01  9.05287E+00  1.16774E+01  1.16496E+01  1.09339E+01
   9.59652E+00  1.22437E+01  1.51938E+01  1.24193E+01  1.19995E+01  1.18875E+01  1.27210E+01  9.00680E+00  1.22381E+01  9.89350E+00
   1.18109E+01  1.07153E+01  1.18323E+01  7.12035E+00  9.68053E+00  1.30628E+01  1.15947E+01  1.02506E+01  1.24541E+01  1.33310E+01
   1.32825E+01  1.20930E+01  1.32309E+01  1.03761E+01  1.25527E+01  1.22094E+01  1.23799E+01  1.11253E+01  1.27049E+01  1.31593E+01
   1.21193E+01  1.01643E+01  1.49703E+01  1.04838E+01  1.11800E+01  1.12212E+01  1.49708E+01  1.06929E+01  1.36666E+01  1.41020E+01
   7.56562E+00  1.18879E+01  1.00936E+01  1.05918E+01  1.30233E+01  1.35779E+01  1.00976E+01  1.07556E+01  1.15342E+01  1.08884E+01
   1.12487E+01  9.62939E+00  9.74787E+00  1.47450E+01  1.45367E+01  1.18231E+01  1.25878E+01  1.24022E+01  1.45947E+01  1.09130E+01
   1.10512E+01  1.22001E+01  1.13015E+01  1.36360E+01  1.34235E+01  1.39151E+01  1.34250E+01  1.28943E+01  9.78514E+00  8.15249E+00
   9.77436E+00  1.09330E+01  1.12611E+01  1.48556E+01  1.74008E+01  1.57372E+01  1.83907E+01  1.64671E+01  1.31264E+01  1.66529E+01
   1.46989E+01  1.63501E+01  1.40884E+01  1.35224E+01  1.35904E+01  1.20324E+01  1.41824E+01  1.24270E+01  1.42334E+01  1.31700E+01
   1.36567E+01  1.16294E+01  1.23704E+01  1.12056E+01  1.09537E+01  1.07725E+01  1.42913E+01  1.54362E+01  1.43570E+01  1.44671E+01
   1.77399E+01  1.64425E+01  1.51496E+01  1.59136E+01  1.30270E+01  1.40374E+01  1.57559E+01  1.11401E+01  1.44433E+01  1.32454E+01
   1.47101E+01  1.45932E+01  1.30564E+01  1.41658E+01  1.60069E+01  1.49262E+01  1.38387E+01  1.42073E+01  1.28971E+01  1.70138E+01
   1.37268E+01  1.68748E+01  1.54897E+01  1.52660E+01  1.51935E+01  1.20924E+01  1.30553E+01  1.76565E+01  1.74193E+01  1.50757E+01
   1.65292E+01  1.79849E+01  1.90835E+01  1.49802E+01  1.51928E+01  1.80704E+01  1.71569E+01  1.50493E+01  1.71365E+01  1.62583E+01
   1.58531E+01  1.50016E+01  1.59915E+01  1.59410E+01  1.75537E+01  1.80839E+01  1.75860E+01  1.61841E+01  1.51372E+01  1.48872E+01
   1.98303E+01  1.82293E+01  1.85986E+01  1.77061E+01  1.55519E+01  1.63634E+01  2.12488E+01  1.69948E+01  1.94748E+01  1.87520E+01
   1.65171E+01  1.70653E+01  1.69844E+01  1.86001E+01  1.62004E+01  2.01002E+01  1.73235E+01  2.13221E+01  1.99317E+01  1.85192E+01
   2.10001E+01  1.87597E+01  1.73908E+01  1.85783E+01  1.96397E+01  1.98249E+01  1.92879E+01  1.82695E+01  1.69325E+01  1.98484E+01
   1.76521E+01  1.87471E+01  1.84670E+01  1.88863E+01  1.77544E+01  1.72153E+01  2.00294E+01  2.10928E+01  1.90855E+01  1.89796E+01
   2.03250E+01  2.16685E+01  2.09097E+01  2.07124E+01  2.08436E+01  2.12411E+01  2.20713E+01  1.99064E+01  2.05122E+01  1.94759E+01
   2.16433E+01  2.08846E+01  2.10147E+01  2.29328E+01  2.14385E+01  2.34886E+01  2.25967E+01  1.97325E+01  2.18102E+01  2.32481E+01
   2.11751E+01  2.52442E+01  2.14796E+01  2.09746E+01  2.24879E+01  2.51598E+01  2.03185E+01  2.24227E+01  2.30816E+01  2.19867E+01
   2.31489E+01  2.51926E+01  2.64456E+01  2.44879E+01  2.33471E+01  2.39189E+01  2.33240E+01  2.11625E+01  2.09700E+01  2.19735E+01
   2.35090E+01  2.59939E+01  2.60079E+01  2.92365E+01  2.80576E+01  2.94041E+01  2.84085E+01  2.82639E+01  2.91387E+01  2.84833E+01
   2.45700E+01  2.87679E+01  2.70919E+01  2.70070E+01  2.78291E+01  2.84466E+01  2.92082E+01  3.14812E+01  2.96708E+01  2.74136E+01
   2.96945E+01  3.20577E+01  2.84483E+01  2.96166E+01  3.13779E+01  2.98057E+01  3.17922E+01  3.30810E+01  3.35881E+01  3.08951E+01
   3.32399E+01  3.28190E+01  3.37414E+01  3.63932E+01  3.52271E+01  3.25714E+01  3.28831E+01  3.58779E+01  3.52846E+01  3.72617E+01
   3.86217E+01  3.92318E+01  3.80006E+01  3.94917E+01  3.83446E+01  4.05933E+01  4.18441E+01  4.33889E+01  4.12195E+01  4.30181E+01
   4.49814E+01  4.40592E+01  4.28526E+01  4.65799E+01  4.47962E+01  4.58444E+01  4.66060E+01  4.60201E+01  4.92925E+01  5.06691E+01
   5.08565E+01  5.01752E+01  5.18087E+01  5.37289E+01  5.42747E+01  5.15147E+01  5.26300E+01  5.55405E+01  5.77199E+01  5.84629E+01
   5.63077E+01  5.92634E+01  6.14609E+01  5.72542E+01  6.19787E+01  6.38001E+01  6.07898E+01  6.45602E+01  6.76279E+01  6.73033E+01
   7.31049E+01  7.17796E+01  7.74513E+01  7.57101E+01  7.84582E+01  7.81577E+01  8.14922E+01  8.12659E+01  8.40008E+01  8.55049E+01
   8.65991E+01  8.59493E+01  8.97896E+01  9.10164E+01  9.00224E+01  9.41932E+01  9.55099E+01  9.39264E+01  9.80782E+01  9.76642E+01
   1.00113E+02  9.82990E+01  1.01613E+02  1.03879E+02  1.05006E+02  1.05294E+02  1.07477E+02  1.06537E+02  1.08197E+02  1.09243E+02
   1.10155E+02  1.06979E+02  1.10410E+02  1.10476E+02  1.11292E+02  1.11405E+02  1.10965E+02  1.10490E+02  1.10737E+02  1.12641E+02
   1.14914E+02  1.13834E+02  1.12448E+02  1.12772E+02  1.15854E+02  1.15836E+02  1.13548E+02  1.13345E+02  1.12871E+02  1.11922E+02
   1.10270E+02  1.09471E+02  1.11283E+02  1.07791E+02  1.07500E+02  1.08392E+02  1.05291E+02  1.07104E+02  1.02417E+02  1.02023E+02
   1.03465E+02  1.02182E+02  1.01981E+02  9.74805E+01  9.72293E+01  9.59700E+01  9.60121E+01  9.22571E+01  9.09148E+01  9.32436E+01
   8.94211E+01  8.56051E+01  8.52751E+01  8.61144E+01  8.36319E+01  8.19111E+01  7.68155E+01  7.86637E+01  7.42695E+01  7.12261E+01
   7.26316E+01  7.05092E+01  6.91389E+01  6.57942E+01  6.58917E+01  6.09947E+01  5.97500E+01  5.93388E+01  5.79238E+01  5.59187E+01
   5.31810E+01  5.09267E+01  4.84494E+01  4.61395E+01  4.70883E+01  4.26112E+01  4.21523E+01  4.42775E+01  3.72114E+01  3.76136E+01
   3.80919E+01  3.54103E+01  3.49960E+01  3.25171E+01  2.89951E+01  3.10695E+01  2.77941E+01  2.81334E+01  2.57158E+01  2.69921E+01
   2.30070E+01  2.24128E+01  2.43383E+01  2.02793E+01  1.98559E+01  1.91414E+01  1.88240E+01  1.94126E+01  1.56387E+01  1.51869E+01
   1.29715E+01  1.34273E+01  1.46848E+01  1.15230E+01  1.07178E+01  1.08693E+01  8.59291E+00  1.03167E+01  9.63252E+00  7.55852E+00
   6.77024E+00  6.37119E+00  7.17485E+00  5.47136E+00  4.88159E+00  5.60605E+00  5.10600E+00  6.05564E+00  6.06678E+00  4.82869E+00
   5.80780E+00  3.63879E+00  2.31147E+00  3.27941E+00  2.68475E+00  1.77755E+00  2.80080E+00  4.09909E-01  4.37021E-01  1.07436E+00
   2.35234E+00  1.92250E+00  1.72561E+00  9.42924E-01  3.19020E+00  1.04286E+00 -7.35292E-01  1.47685E+00
 NY points of the fit to the data follow
   1.10664E+01  1.09237E+01  1.07752E+01  1.06332E+01  1.03556E+01  1.00464E+01  9.92704E+00  1.00795E+01  1.05069E+01  1.11416E+01
   1.18266E+01  1.23877E+01  1.27053E+01  1.27077E+01  1.23916E+01  1.19201E+01  1.15876E+01  1.13515E+01  1.11810E+01  1.11111E+01
   1.10651E+01  1.10288E+01  1.10540E+01  1.11473E+01  1.12162E+01  1.10755E+01  1.07926E+01  1.06022E+01  1.06220E+01  1.08196E+01
   1.11334E+01  1.14988E+01  1.18453E+01  1.20545E+01  1.20232E+01  1.17944E+01  1.15640E+01  1.15516E+01  1.16193E+01  1.16318E+01
   1.15902E+01  1.14686E+01  1.11894E+01  1.08144E+01  1.05839E+01  1.06793E+01  1.10790E+01  1.16132E+01  1.21051E+01  1.24844E+01
   1.26925E+01  1.26202E+01  1.22732E+01  1.18329E+01  1.14912E+01  1.13062E+01  1.12315E+01  1.12447E+01  1.13516E+01  1.15415E+01
   1.17648E+01  1.19657E+01  1.20981E+01  1.21368E+01  1.20544E+01  1.18826E+01  1.17141E+01  1.15953E+01  1.15598E+01  1.16196E+01
   1.17262E+01  1.18316E+01  1.19229E+01  1.20070E+01  1.20937E+01  1.21712E+01  1.22315E+01  1.22402E+01  1.22126E+01  1.21894E+01
   1.21554E+01  1.20982E+01  1.20789E+01  1.21551E+01  1.22929E+01  1.24221E+01  1.24902E+01  1.24720E+01  1.23820E+01  1.22619E+01
   1.21477E+01  1.20613E+01  1.20533E+01  1.21610E+01  1.23115E+01  1.24224E+01  1.24277E+01  1.20483E+01  1.09505E+01  9.89993E+00
   9.77921E+00  1.07285E+01  1.24127E+01  1.44101E+01  1.62308E+01  1.74757E+01  1.78544E+01  1.71125E+01  1.54296E+01  1.38096E+01
   1.32368E+01  1.31333E+01  1.31190E+01  1.31330E+01  1.31584E+01  1.32006E+01  1.32484E+01  1.32893E+01  1.33204E+01  1.33368E+01
   1.33140E+01  1.31261E+01  1.25154E+01  1.18252E+01  1.16577E+01  1.21970E+01  1.32531E+01  1.45407E+01  1.57523E+01  1.66274E+01
   1.70198E+01  1.68010E+01  1.59947E+01  1.50765E+01  1.47108E+01  1.46413E+01  1.45467E+01  1.43977E+01  1.42437E+01  1.41512E+01
   1.41864E+01  1.43550E+01  1.45809E+01  1.48057E+01  1.49853E+01  1.50911E+01  1.51428E+01  1.51746E+01  1.52088E+01  1.52649E+01
   1.53240E+01  1.53770E+01  1.54232E+01  1.54702E+01  1.55207E+01  1.55788E+01  1.56595E+01  1.57597E+01  1.58529E+01  1.59189E+01
   1.59473E+01  1.59482E+01  1.59495E+01  1.59747E+01  1.60314E+01  1.61188E+01  1.62304E+01  1.63462E+01  1.64346E+01  1.64832E+01
   1.65120E+01  1.65478E+01  1.66162E+01  1.66841E+01  1.67172E+01  1.67291E+01  1.67488E+01  1.67922E+01  1.68467E+01  1.68983E+01
   1.69574E+01  1.70402E+01  1.71417E+01  1.72253E+01  1.72473E+01  1.72304E+01  1.72076E+01  1.72061E+01  1.72447E+01  1.73433E+01
   1.75177E+01  1.77563E+01  1.80189E+01  1.82568E+01  1.83939E+01  1.83928E+01  1.83011E+01  1.81833E+01  1.81009E+01  1.80802E+01
   1.81212E+01  1.82337E+01  1.84297E+01  1.86824E+01  1.89416E+01  1.91627E+01  1.93267E+01  1.94077E+01  1.94188E+01  1.93937E+01
   1.93482E+01  1.93174E+01  1.93295E+01  1.93876E+01  1.94907E+01  1.96330E+01  1.97826E+01  1.99009E+01  2.00121E+01  2.01386E+01
   2.02568E+01  2.03640E+01  2.04830E+01  2.06171E+01  2.07597E+01  2.09075E+01  2.10662E+01  2.12254E+01  2.13417E+01  2.13897E+01
   2.13925E+01  2.13921E+01  2.13927E+01  2.13927E+01  2.14468E+01  2.16009E+01  2.18401E+01  2.21152E+01  2.23733E+01  2.25767E+01
   2.27193E+01  2.27878E+01  2.27790E+01  2.27240E+01  2.27115E+01  2.27884E+01  2.29120E+01  2.30683E+01  2.32697E+01  2.34939E+01
   2.36896E+01  2.38399E+01  2.39616E+01  2.40706E+01  2.41299E+01  2.39085E+01  2.31532E+01  2.24650E+01  2.25237E+01  2.34186E+01
   2.48725E+01  2.65437E+01  2.80647E+01  2.91290E+01  2.95068E+01  2.90212E+01  2.78214E+01  2.66937E+01  2.63754E+01  2.64105E+01
   2.65144E+01  2.66450E+01  2.67948E+01  2.69650E+01  2.71593E+01  2.73776E+01  2.76140E+01  2.78621E+01  2.81208E+01  2.83888E+01
   2.86645E+01  2.89476E+01  2.92412E+01  2.95533E+01  2.98892E+01  3.02487E+01  3.06326E+01  3.10426E+01  3.14774E+01  3.19355E+01
   3.24147E+01  3.29125E+01  3.34288E+01  3.39643E+01  3.45174E+01  3.50857E+01  3.56681E+01  3.62626E+01  3.68660E+01  3.74753E+01
   3.80877E+01  3.86990E+01  3.93062E+01  3.99061E+01  4.04965E+01  4.10753E+01  4.16412E+01  4.21936E+01  4.27327E+01  4.32595E+01
   4.37758E+01  4.42841E+01  4.47877E+01  4.52904E+01  4.57964E+01  4.63101E+01  4.68363E+01  4.73794E+01  4.79433E+01  4.85306E+01
   4.91410E+01  4.97657E+01  5.03758E+01  5.10292E+01  5.19168E+01  5.30670E+01  5.43482E+01  5.56268E+01  5.68232E+01  5.79003E+01
   5.88043E+01  5.94095E+01  5.98161E+01  6.03511E+01  6.13265E+01  6.27522E+01  6.43937E+01  6.61696E+01  6.80186E+01  6.98547E+01
   7.15451E+01  7.29746E+01  7.42283E+01  7.55664E+01  7.70005E+01  7.84828E+01  7.99874E+01  8.14993E+01  8.30092E+01  8.45110E+01
   8.59948E+01  8.74565E+01  8.89053E+01  9.03557E+01  9.18170E+01  9.32799E+01  9.47278E+01  9.61516E+01  9.75420E+01  9.88870E+01
   1.00173E+02  1.01391E+02  1.02548E+02  1.03641E+02  1.04663E+02  1.05606E+02  1.06466E+02  1.07243E+02  1.07937E+02  1.08550E+02
   1.09087E+02  1.09556E+02  1.09964E+02  1.10323E+02  1.10641E+02  1.10930E+02  1.11199E+02  1.11455E+02  1.11704E+02  1.11948E+02
   1.12186E+02  1.12416E+02  1.12629E+02  1.12816E+02  1.12966E+02  1.13062E+02  1.13092E+02  1.13039E+02  1.12891E+02  1.12634E+02
   1.12259E+02  1.11759E+02  1.11132E+02  1.10379E+02  1.09503E+02  1.08512E+02  1.07418E+02  1.06233E+02  1.04972E+02  1.03650E+02
   1.02283E+02  1.00885E+02  9.94689E+01  9.80461E+01  9.66248E+01  9.52109E+01  9.38074E+01  9.24146E+01  9.10303E+01  8.96502E+01
   8.82682E+01  8.68772E+01  8.54691E+01  8.40358E+01  8.25695E+01  8.10630E+01  7.95105E+01  7.79075E+01  7.62509E+01  7.45396E+01
   7.27742E+01  7.09571E+01  6.90920E+01  6.71844E+01  6.52407E+01  6.32684E+01  6.12757E+01  5.92710E+01  5.72631E+01  5.52606E+01
   5.32717E+01  5.13044E+01  4.93658E+01  4.74624E+01  4.55999E+01  4.37830E+01  4.20158E+01  4.03014E+01  3.86420E+01  3.70393E+01
   3.54942E+01  3.40068E+01  3.25770E+01  3.12039E+01  2.98866E+01  2.86235E+01  2.74131E+01  2.62533E+01  2.51423E+01  2.40779E+01
   2.30581E+01  2.20806E+01  2.11434E+01  2.02444E+01  1.93815E+01  1.85527E+01  1.77562E+01  1.69902E+01  1.62529E+01  1.55427E+01
   1.48580E+01  1.41974E+01  1.35594E+01  1.29429E+01  1.23465E+01  1.17692E+01  1.12098E+01  1.06674E+01  1.01410E+01  9.62972E+00
   9.13275E+00  8.64932E+00  8.17872E+00  7.72026E+00  7.27332E+00  6.83730E+00  6.41166E+00  5.99589E+00  5.58949E+00  5.19202E+00
   4.80304E+00  4.42217E+00  4.04902E+00  3.68326E+00  3.32454E+00  2.97257E+00  2.62705E+00  2.28771E+00  1.95429E+00  1.62656E+00
   1.30429E+00  9.87260E-01  6.75271E-01  3.68138E-01  6.56874E-02 -2.32256E-01 -5.25847E-01 -8.15242E-01
 NY background values follow
     1.006E+01    1.007E+01    1.007E+01    1.008E+01    1.009E+01    1.009E+01    1.010E+01    1.011E+01    1.011E+01    1.012E+01
     1.013E+01    1.014E+01    1.014E+01    1.015E+01    1.016E+01    1.016E+01    1.017E+01    1.018E+01    1.019E+01    1.019E+01
     1.020E+01    1.021E+01    1.021E+01    1.022E+01    1.023E+01    1.024E+01    1.025E+01    1.025E+01    1.026E+01    1.027E+01
     1.028E+01    1.029E+01    1.030E+01    1.031E+01    1.031E+01    1.032E+01    1.033E+01    1.034E+01    1.035E+01    1.036E+01
     1.037E+01    1.038E+01    1.039E+01    1.040E+01    1.041E+01    1.042E+01    1.043E+01    1.044E+01    1.046E+01    1.047E+01
     1.048E+01    1.049E+01    1.050E+01    1.051E+01    1.053E+01    1.054E+01    1.055E+01    1.056E+01    1.058E+01    1.059E+01
     1.060E+01    1.062E+01    1.063E+01    1.065E+01    1.066E+01    1.067E+01    1.069E+01    1.070E+01    1.072E+01    1.074E+01
     1.075E+01    1.077E+01    1.078E+01    1.080E+01    1.082E+01    1.083E+01    1.085E+01    1.087E+01    1.089E+01    1.090E+01
     1.092E+01    1.094E+01    1.096E+01    1.098E+01    1.100E+01    1.102E+01    1.104E+01    1.106E+01    1.108E+01    1.110E+01
     1.112E+01    1.115E+01    1.117E+01    1.119E+01    1.121E+01    1.123E+01    1.126E+01    1.128E+01    1.131E+01    1.133E+01
     1.135E+01    1.138E+01    1.141E+01    1.143E+01    1.146E+01    1.148E+01    1.151E+01    1.154E+01    1.157E+01    1.159E+01
     1.162E+01    1.165E+01    1.168E+01    1.171E+01    1.174E+01    1.177E+01    1.180E+01    1.183E+01    1.186E+01    1.190E+01
     1.193E+01    1.196E+01    1.200E+01    1.203E+01    1.206E+01    1.210E+01    1.213E+01    1.217E+01    1.221E+01    1.224E+01
     1.228E+01    1.232E+01    1.236E+01    1.240E+01    1.243E+01    1.247E+01    1.251E+01    1.256E+01    1.260E+01    1.264E+01
     1.268E+01    1.272E+01    1.277E+01    1.281E+01    1.285E+01    1.290E+01    1.294E+01    1.299E+01    1.303E+01    1.308E+01
     1.312E+01    1.317E+01    1.322E+01    1.326E+01    1.331E+01    1.336E+01    1.340E+01    1.345E+01    1.350E+01    1.355E+01
     1.360E+01    1.364E+01    1.369E+01    1.374E+01    1.379E+01    1.384E+01    1.388E+01    1.393E+01    1.398E+01    1.403E+01
     1.408E+01    1.412E+01    1.417E+01    1.422E+01    1.427E+01    1.432E+01    1.436E+01    1.441E+01    1.446E+01    1.450E+01
     1.455E+01    1.460E+01    1.464E+01    1.469E+01    1.473E+01    1.478E+01    1.482E+01    1.487E+01    1.491E+01    1.496E+01
     1.500E+01    1.505E+01    1.509E+01    1.513E+01    1.518E+01    1.522E+01    1.526E+01    1.530E+01    1.534E+01    1.539E+01
     1.543E+01    1.547E+01    1.551E+01    1.555E+01    1.559E+01    1.563E+01    1.567E+01    1.571E+01    1.575E+01    1.579E+01
     1.583E+01    1.586E+01    1.590E+01    1.594E+01    1.598E+01    1.601E+01    1.605E+01    1.609E+01    1.612E+01    1.616E+01
     1.619E+01    1.623E+01    1.626E+01    1.630E+01    1.633E+01    1.637E+01    1.640E+01    1.643E+01    1.647E+01    1.650E+01
     1.653E+01    1.656E+01    1.660E+01    1.663E+01    1.666E+01    1.669E+01    1.672E+01    1.675E+01    1.678E+01    1.680E+01
     1.683E+01    1.686E+01    1.688E+01    1.691E+01    1.693E+01    1.696E+01    1.698E+01    1.700E+01    1.703E+01    1.705E+01
     1.707E+01    1.709E+01    1.711E+01    1.712E+01    1.714E+01    1.716E+01    1.717E+01    1.719E+01    1.720E+01    1.721E+01
     1.722E+01    1.723E+01    1.724E+01    1.725E+01    1.726E+01    1.726E+01    1.727E+01    1.727E+01    1.727E+01    1.727E+01
     1.727E+01    1.727E+01    1.727E+01    1.727E+01    1.726E+01    1.726E+01    1.725E+01    1.724E+01    1.723E+01    1.722E+01
     1.721E+01    1.719E+01    1.718E+01    1.716E+01    1.714E+01    1.712E+01    1.710E+01    1.708E+01    1.706E+01    1.704E+01
     1.701E+01    1.699E+01    1.696E+01    1.693E+01    1.690E+01    1.687E+01    1.684E+01    1.680E+01    1.677E+01    1.673E+01
     1.670E+01    1.666E+01    1.662E+01    1.658E+01    1.654E+01    1.650E+01    1.645E+01    1.641E+01    1.636E+01    1.631E+01
     1.627E+01    1.622E+01    1.617E+01    1.611E+01    1.606E+01    1.601E+01    1.595E+01    1.589E+01    1.584E+01    1.578E+01
     1.572E+01    1.566E+01    1.560E+01    1.553E+01    1.547E+01    1.540E+01    1.534E+01    1.527E+01    1.520E+01    1.513E+01
     1.506E+01    1.499E+01    1.492E+01    1.484E+01    1.477E+01    1.469E+01    1.462E+01    1.454E+01    1.446E+01    1.438E+01
     1.430E+01    1.422E+01    1.414E+01    1.405E+01    1.397E+01    1.388E+01    1.380E+01    1.371E+01    1.362E+01    1.353E+01
     1.344E+01    1.335E+01    1.326E+01    1.317E+01    1.307E+01    1.298E+01    1.288E+01    1.279E+01    1.269E+01    1.259E+01
     1.249E+01    1.239E+01    1.229E+01    1.219E+01    1.209E+01    1.199E+01    1.188E+01    1.178E+01    1.167E+01    1.157E+01
     1.146E+01    1.135E+01    1.124E+01    1.113E+01    1.102E+01    1.091E+01    1.080E+01    1.068E+01    1.057E+01    1.046E+01
     1.034E+01    1.022E+01    1.011E+01    9.990E+00    9.871E+00    9.752E+00    9.632E+00    9.511E+00    9.389E+00    9.266E+00
     9.143E+00    9.019E+00    8.894E+00    8.768E+00    8.641E+00    8.514E+00    8.386E+00    8.257E+00    8.127E+00    7.997E+00
     7.866E+00    7.734E+00    7.601E+00    7.467E+00    7.333E+00    7.198E+00    7.062E+00    6.925E+00    6.788E+00    6.650E+00
     6.511E+00    6.371E+00    6.231E+00    6.090E+00    5.948E+00    5.806E+00    5.662E+00    5.518E+00    5.374E+00    5.229E+00
     5.083E+00    4.936E+00    4.789E+00    4.641E+00    4.493E+00    4.343E+00    4.194E+00    4.043E+00    3.893E+00    3.741E+00
     3.589E+00    3.436E+00    3.283E+00    3.129E+00    2.975E+00    2.820E+00    2.665E+00    2.509E+00    2.353E+00    2.196E+00
     2.038E+00    1.881E+00    1.722E+00    1.563E+00    1.404E+00    1.244E+00    1.084E+00    9.238E-01    7.627E-01    6.013E-01
     4.395E-01    2.772E-01    1.146E-01   -4.839E-02   -2.118E-01   -3.755E-01   -5.395E-01   -7.039E-01   -8.686E-01   -1.034E+00
    -1.199E+00   -1.364E+00   -1.530E+00   -1.696E+00   -1.862E+00   -2.028E+00   -2.195E+00   -2.361E+00   -2.528E+00   -2.695E+00
    -2.862E+00   -3.029E+00   -3.196E+00   -3.364E+00   -3.531E+00   -3.698E+00   -3.865E+00   -4.033E+00   -4.200E+00   -4.367E+00
    -4.534E+00   -4.701E+00   -4.868E+00   -5.035E+00   -5.202E+00   -5.369E+00   -5.535E+00   -5.701E+00   -5.868E+00   -6.033E+00
    -6.199E+00   -6.365E+00   -6.530E+00   -6.695E+00   -6.859E+00   -7.024E+00   -7.188E+00   -7.351E+00
 Ala      Conc. = 2.13E+01
