 LCModel (Version 6.3-1L) Copyright: S.W. Provencher.          Ref.: Magn. Reson. Med. 30:672-679 (1993).                
 Slice#2 Row#10 Col#6  PD_24_press_1_raw_act
 36 lines in following concentration table = NCONC+1
    Conc.  %SD /Cr+PCr  Metabolite                                         
    0.000 999%   0.000 Ala                                                 
    0.000 999%   0.000 Asp                                                 
 1.11E+03  18%   0.618 Cr                                                  
  684.869  30%   0.382 PCr                                                 
    0.000 999%   0.000 GABA                                                
  125.960 133% 7.0E-02 Glc                                                 
  808.899  27%   0.451 Gln                                                 
 2.22E+03  11%   1.238 Glu                                                 
  875.549   3%   0.488 GPC                                                 
    0.000 999%   0.000 PCh                                                 
  609.724  11%   0.340 GSH                                                 
 2.11E+03  11%   1.175 Ins                                                 
    0.000 999%   0.000 Lac                                                 
 2.83E+03   5%   1.578 NAA                                                 
  234.682  58%   0.131 NAAG                                                
  150.745  17% 8.4E-02 Scyllo                                              
    0.000 999%   0.000 Tau                                                 
    0.000 999%   0.000 -CrCH2                                              
  875.549   3%   0.488 GPC+PCh                                             
 3.07E+03   3%   1.709 NAA+NAAG                                            
 1.80E+03   3%   1.000 Cr+PCr                                              
 3.03E+03  11%   1.689 Glu+Gln                                             
 1.38E+03  28%   0.768 Lip13a                                              
    0.000 999%   0.000 Lip13b                                              
    0.000 999%   0.000 Lip09                                               
 1.54E+03  11%   0.858 MM09                                                
  266.615  61%   0.149 Lip20                                               
 3.33E+03  10%   1.855 MM20                                                
  519.170  28%   0.289 MM12                                                
 1.33E+03  24%   0.740 MM14                                                
 1.03E+03  21%   0.572 MM17                                                
 1.38E+03  28%   0.768 Lip13a+Lip13b                                       
 3.23E+03  10%   1.797 MM14+Lip13a+Lip13b+MM12                             
 1.54E+03  11%   0.858 MM09+Lip09                                          
 3.60E+03   9%   2.003 MM20+Lip20                                          
   6 lines in following misc. output table
  FWHM = 0.046 ppm    S/N =  16                                            
  Data shift = 0.015 ppm                                                   
  Ph:  -5 deg      -1.1 deg/ppm                                            
  alphaB,S = 8.5E+01,   1.6E+02                                            
   14 spline knots.   Ns = 7(1)                                            
   2 inflections.     1 extrema                                            
  498 points on ppm-axis = NY
      4.000000     3.992357     3.984714     3.977070     3.969427     3.961784     3.954141     3.946497     3.938854     3.931211
      3.923568     3.915925     3.908281     3.900638     3.892995     3.885352     3.877708     3.870065     3.862422     3.854779
      3.847136     3.839492     3.831849     3.824206     3.816563     3.808919     3.801276     3.793633     3.785990     3.778347
      3.770703     3.763060     3.755417     3.747774     3.740130     3.732487     3.724844     3.717201     3.709558     3.701914
      3.694271     3.686628     3.678985     3.671341     3.663698     3.656055     3.648412     3.640769     3.633125     3.625482
      3.617839     3.610196     3.602552     3.594909     3.587266     3.579623     3.571980     3.564336     3.556693     3.549050
      3.541407     3.533763     3.526120     3.518477     3.510834     3.503191     3.495547     3.487904     3.480261     3.472618
      3.464974     3.457331     3.449688     3.442045     3.434402     3.426758     3.419115     3.411472     3.403829     3.396185
      3.388542     3.380899     3.373256     3.365613     3.357969     3.350326     3.342683     3.335040     3.327396     3.319753
      3.312110     3.304467     3.296824     3.289180     3.281537     3.273894     3.266251     3.258607     3.250964     3.243321
      3.235678     3.228034     3.220391     3.212748     3.205105     3.197462     3.189818     3.182175     3.174532     3.166889
      3.159245     3.151602     3.143959     3.136316     3.128673     3.121029     3.113386     3.105743     3.098100     3.090456
      3.082813     3.075170     3.067527     3.059884     3.052240     3.044597     3.036954     3.029311     3.021667     3.014024
      3.006381     2.998738     2.991095     2.983451     2.975808     2.968165     2.960522     2.952878     2.945235     2.937592
      2.929949     2.922306     2.914662     2.907019     2.899376     2.891733     2.884089     2.876446     2.868803     2.861160
      2.853517     2.845873     2.838230     2.830587     2.822944     2.815300     2.807657     2.800014     2.792371     2.784728
      2.777084     2.769441     2.761798     2.754155     2.746511     2.738868     2.731225     2.723582     2.715939     2.708295
      2.700652     2.693009     2.685366     2.677722     2.670079     2.662436     2.654793     2.647150     2.639506     2.631863
      2.624220     2.616577     2.608933     2.601290     2.593647     2.586004     2.578361     2.570717     2.563074     2.555431
      2.547788     2.540144     2.532501     2.524858     2.517215     2.509572     2.501928     2.494285     2.486642     2.478999
      2.471355     2.463712     2.456069     2.448426     2.440783     2.433139     2.425496     2.417853     2.410210     2.402566
      2.394923     2.387280     2.379637     2.371994     2.364350     2.356707     2.349064     2.341421     2.333777     2.326134
      2.318491     2.310848     2.303205     2.295561     2.287918     2.280275     2.272632     2.264988     2.257345     2.249702
      2.242059     2.234416     2.226772     2.219129     2.211486     2.203843     2.196199     2.188556     2.180913     2.173270
      2.165627     2.157983     2.150340     2.142697     2.135054     2.127410     2.119767     2.112124     2.104481     2.096838
      2.089194     2.081551     2.073908     2.066265     2.058621     2.050978     2.043335     2.035692     2.028049     2.020405
      2.012762     2.005119     1.997476     1.989833     1.982190     1.974546     1.966903     1.959260     1.951617     1.943974
      1.936331     1.928688     1.921045     1.913402     1.905759     1.898115     1.890472     1.882829     1.875186     1.867543
      1.859900     1.852257     1.844614     1.836971     1.829327     1.821684     1.814041     1.806398     1.798755     1.791112
      1.783469     1.775826     1.768183     1.760540     1.752896     1.745253     1.737610     1.729967     1.722324     1.714681
      1.707038     1.699395     1.691752     1.684108     1.676465     1.668822     1.661179     1.653536     1.645893     1.638250
      1.630607     1.622964     1.615321     1.607677     1.600034     1.592391     1.584748     1.577105     1.569462     1.561819
      1.554176     1.546533     1.538890     1.531246     1.523603     1.515960     1.508317     1.500674     1.493031     1.485388
      1.477745     1.470102     1.462458     1.454815     1.447172     1.439529     1.431886     1.424243     1.416600     1.408957
      1.401314     1.393671     1.386027     1.378384     1.370741     1.363098     1.355455     1.347812     1.340169     1.332526
      1.324883     1.317240     1.309596     1.301953     1.294310     1.286667     1.279024     1.271381     1.263738     1.256095
      1.248452     1.240808     1.233165     1.225522     1.217879     1.210236     1.202593     1.194950     1.187307     1.179664
      1.172021     1.164377     1.156734     1.149091     1.141448     1.133805     1.126162     1.118519     1.110876     1.103233
      1.095590     1.087946     1.080303     1.072660     1.065017     1.057374     1.049731     1.042088     1.034445     1.026802
      1.019158     1.011515     1.003872     0.996229     0.988586     0.980943     0.973300     0.965657     0.958014     0.950371
      0.942727     0.935084     0.927441     0.919798     0.912155     0.904512     0.896869     0.889226     0.881583     0.873940
      0.866296     0.858653     0.851010     0.843367     0.835724     0.828081     0.820438     0.812795     0.805152     0.797508
      0.789865     0.782222     0.774579     0.766936     0.759293     0.751650     0.744007     0.736364     0.728721     0.721077
      0.713434     0.705791     0.698148     0.690505     0.682862     0.675219     0.667576     0.659933     0.652290     0.644646
      0.637003     0.629360     0.621717     0.614074     0.606431     0.598788     0.591145     0.583502     0.575858     0.568215
      0.560572     0.552929     0.545286     0.537643     0.530000     0.522357     0.514714     0.507071     0.499427     0.491784
      0.484141     0.476498     0.468855     0.461212     0.453569     0.445925     0.438282     0.430639     0.422996     0.415353
      0.407710     0.400067     0.392424     0.384780     0.377137     0.369494     0.361851     0.354208     0.346565     0.338922
      0.331278     0.323635     0.315992     0.308349     0.300706     0.293063     0.285420     0.277777     0.270133     0.262490
      0.254847     0.247204     0.239561     0.231918     0.224275     0.216631     0.208988     0.201345
 NY phased data points follow
  -1.16817E+01 -1.27794E+01 -6.28365E+00 -3.51491E+00  8.88445E+00  1.13227E+01  1.00486E+01  2.28154E+01  2.92457E+01  3.32962E+01
   3.09921E+01  4.00159E+01  3.67049E+01  3.25912E+01  2.20516E+01  1.18384E+01  7.03672E+00  1.66396E+00 -2.14978E+00 -1.14785E+00
  -1.23041E+00 -1.83491E+00  1.95172E+00  1.89766E+00  3.16445E+00  3.33027E+00  7.04884E+00  8.64073E+00  7.88560E+00  1.06309E+01
   8.81158E+00  6.07642E+00  1.06410E+01  1.03193E+01  4.33604E+00  5.28333E+00  3.83817E+00 -2.17073E+00  2.09789E+00  2.55104E+00
   6.21305E+00  9.61544E+00  4.73742E+00  1.41003E+01  9.53483E+00  7.82495E+00  1.50071E+01  1.51399E+01  1.11489E+01  1.07891E+01
   8.19786E+00  4.51719E+00 -3.09512E+00  4.14105E+00 -2.69579E-02  3.03200E+00 -5.64012E-01  1.72879E+00 -1.25716E+00  8.50967E+00
   2.54892E+00  2.41740E+00 -1.74155E+00 -3.87955E+00 -7.95348E+00 -7.07649E+00 -5.87861E+00 -5.19302E+00 -5.34442E+00 -7.93179E+00
  -1.79303E+00 -8.93506E+00 -4.96308E+00 -3.25895E+00 -1.88801E+00  1.70871E-01 -1.80433E+00 -3.92647E+00 -1.81749E+00 -4.66271E+00
  -6.39544E+00  2.73275E+00 -8.98418E-01 -1.74949E+00 -5.88036E-01 -5.37158E+00 -2.32579E-01 -1.89283E+00 -1.08881E+00  1.83856E+00
  -3.60785E+00 -1.71044E+00 -1.32503E+00 -3.57267E+00  3.62710E+00  3.08589E+00  3.46423E+00  1.21085E+01  2.12160E+01  2.86626E+01
   4.87961E+01  6.00400E+01  6.94843E+01  7.25664E+01  7.06361E+01  5.61791E+01  3.92458E+01  2.56579E+01  1.92400E+01  6.11193E+00
   3.46698E+00  3.56557E+00  2.70657E+00  6.73958E-01 -4.74228E+00 -3.05193E+00 -3.75219E+00 -3.83183E-01 -7.35995E-01 -8.43157E-01
  -9.29859E-01  3.30956E+00  7.63194E+00  2.18280E+01  2.86348E+01  4.52307E+01  5.01589E+01  5.29800E+01  5.48587E+01  5.07986E+01
   3.79563E+01  2.10042E+01  1.57309E+01  8.27449E+00  6.16386E-01 -5.64980E+00 -2.37202E+00 -5.99286E+00 -3.11761E+00 -1.78551E+00
  -3.13514E+00 -3.17856E+00  1.24928E+00 -6.42956E+00 -5.10068E-01 -6.81499E+00 -7.52787E+00 -8.29632E+00 -1.24206E+00 -4.45406E+00
  -5.30600E+00 -4.58086E+00 -5.80676E+00 -6.37095E+00 -8.52390E+00 -4.53923E+00 -4.93941E+00 -4.70854E+00 -7.17137E+00 -5.41533E+00
  -1.03365E+01 -7.25210E+00 -5.64988E+00 -7.28720E+00 -3.08040E+00 -4.36268E+00 -3.86992E+00 -5.13434E+00 -1.05759E+01 -1.38657E+01
  -1.29163E+01 -1.62672E+01 -1.30659E+01 -1.28839E+01 -1.86199E+01 -1.44502E+01 -1.61149E+01 -1.75779E+01 -1.25767E+01 -8.22797E+00
  -1.56073E+01 -1.48225E+01 -2.01696E+01 -1.70559E+01 -2.13393E+01 -1.01827E+01 -1.15436E+01 -1.25249E+01 -5.89399E+00 -6.88109E+00
   1.30773E+00  1.29517E-02  5.28983E+00  3.33788E+00 -2.30148E+00 -4.71661E+00 -1.08412E+01 -5.23445E+00 -1.17648E+01 -4.73022E+00
  -5.99536E+00 -8.05170E+00 -2.47511E+00 -1.27234E+00 -7.74246E+00 -9.23467E-01 -3.19834E+00 -8.46304E+00 -9.99472E+00 -8.85724E+00
  -1.02497E+01 -9.70699E+00 -3.06821E+00  2.12848E+00  1.05401E+01  9.63977E+00  1.27833E+01  1.00055E+01 -2.18162E-01  3.09621E+00
  -9.42399E+00 -1.04305E+01 -1.21804E+01 -4.93026E+00 -4.03471E+00 -1.11728E+00  3.99508E+00  4.56068E+00  5.34739E+00  5.12998E+00
   5.96799E+00  7.81388E+00  7.46079E+00  2.40122E+00  4.30895E+00  9.65979E+00  8.98137E+00  5.34967E+00  3.41348E+00  2.67544E+00
   1.28970E+00 -3.00347E+00  1.26720E+00  4.98016E-01  4.29872E+00  5.61881E-01  6.55079E+00  1.08869E+01  9.84223E+00  1.37456E+01
   1.13341E+01  1.39154E+01  1.58052E+01  2.49098E+01  3.23202E+01  4.56350E+01  5.64482E+01  7.22496E+01  8.49152E+01  1.00421E+02
   1.05345E+02  1.04040E+02  8.46177E+01  6.27684E+01  4.17592E+01  2.62106E+01  2.13002E+01  1.89635E+01  9.29415E+00  1.14499E+01
   7.35707E+00  2.47092E+00  6.15681E+00  5.65135E+00  4.48827E+00  3.91109E+00  2.92853E-01  1.07172E+00  1.57673E+00 -7.47828E-01
  -6.79248E-01 -5.05452E-01  1.80647E+00 -9.58488E-01  1.42950E+00 -3.86538E+00 -2.16318E+00  2.47428E+00  3.55142E+00  3.16573E+00
   1.00119E+00  2.08098E+00  8.83137E-01 -2.62557E+00 -2.17816E+00  6.50127E-01  6.55089E-01  7.17205E-01 -2.12125E-01 -2.74941E+00
  -5.32746E-01  3.85050E+00  4.59204E+00  5.34813E-01  4.23481E+00  1.89748E+00  2.76251E+00  5.29398E+00  3.52348E+00  3.03101E+00
   1.98963E+00 -5.09649E-01  6.44687E+00  6.69295E+00  2.97853E+00  7.39758E+00  7.51963E+00  5.97381E+00  1.54237E+00  3.77837E+00
   4.44665E+00 -5.30132E-02  6.09842E+00  1.91094E+00  3.23051E+00  1.02057E+00  3.73335E+00  7.29079E+00  4.88243E+00 -6.59180E-01
   3.76074E+00  6.77639E+00  4.22530E+00  6.48364E+00  6.97703E+00  5.57134E+00  3.49719E+00  8.73943E-01  3.30297E+00  3.82561E+00
   1.71816E+00  1.82681E-01  7.12424E+00  8.73555E+00  1.15914E+01  8.33758E+00  4.62538E+00  9.01918E+00  5.21900E+00  7.94375E+00
   6.81849E+00  8.27489E+00  5.37528E+00  6.80061E+00  1.10520E+01  4.91517E+00  8.84783E+00  6.12078E+00  2.11670E+00  7.53861E+00
   3.63556E+00  3.66856E+00  3.90008E+00  5.44081E+00  5.97025E+00  3.89916E+00  4.97496E+00  4.12951E+00  7.72355E+00  8.26249E+00
   3.25806E+00  8.07890E+00  9.75799E-01  2.32350E+00  4.31434E-01  3.63935E+00  3.43212E+00  4.17461E+00  4.87280E+00  3.56652E+00
   5.50232E-01 -2.29002E+00  6.92189E+00  5.05083E+00  2.40940E+00  1.01695E+00  3.45942E+00  1.88296E+00  2.76228E+00  5.31964E+00
   3.85578E-01  3.77719E+00  4.23463E+00  1.49726E+00  2.74909E+00  4.61759E+00  8.06318E+00  6.18625E+00  5.48362E+00  5.60171E+00
   4.58787E+00  5.62383E+00  1.51566E+00  3.26517E+00  1.18022E+01  1.01925E+01  4.33050E+00  7.55249E+00  1.18345E+01  5.62737E+00
   1.08994E+01  8.78376E+00  2.64039E+00  5.68421E+00  7.39178E+00 -2.67706E-01  7.63463E+00  2.32281E+00 -2.09709E-01  8.82023E-01
   1.22656E-01 -1.33951E-01  1.43838E-01 -1.21247E+00  3.28941E+00 -7.01061E-01 -1.14726E+00  8.23288E-01  2.05795E+00  6.36012E-01
   2.23726E+00  1.87760E+00 -4.43982E+00 -2.77380E+00 -1.15775E+00  1.37218E+00 -5.40855E+00 -3.82863E+00 -2.32914E+00 -1.21538E+00
  -3.21731E+00 -1.69771E+00 -4.35961E+00 -2.88681E+00 -1.72315E+00 -1.56008E+00 -9.71492E-01 -2.78198E+00  7.36775E-01  1.20553E+00
  -4.95594E+00 -1.70245E+00 -2.78685E+00 -4.51977E+00  5.38826E-01  5.42669E-01  1.26575E+00  7.71147E-01 -6.07383E-01 -6.60331E+00
   7.21928E-01 -6.43900E-01 -1.06727E+00 -1.14363E+00 -4.17638E+00 -9.46101E-01 -1.97757E+00  9.94633E-01 -1.73030E+00  1.07967E+00
   2.10287E-01 -4.93053E+00 -3.22469E+00 -5.32401E+00 -4.26178E+00 -3.76523E+00 -3.09287E+00 -1.85185E+00 -6.42193E-01 -1.88355E+00
  -3.16199E+00 -4.92407E+00 -6.29544E-02 -4.46863E+00 -7.25963E-01 -3.84360E+00 -2.73164E+00 -1.85265E+00 -3.88776E+00 -8.12861E-02
  -9.84661E-01  1.09758E-02 -3.72521E+00 -4.55177E+00 -4.95329E+00  1.31881E+00 -5.09968E-01 -2.05024E+00
 NY points of the fit to the data follow
  -3.13352E+00 -3.19446E+00 -2.38001E+00 -4.47627E-01  2.88002E+00  7.83064E+00  1.37989E+01  2.03467E+01  2.69657E+01  3.27298E+01
   3.63979E+01  3.68879E+01  3.38226E+01  2.78907E+01  2.07036E+01  1.40666E+01  9.00816E+00  5.49879E+00  3.03557E+00  1.20016E+00
  -8.70080E-02 -8.02127E-01 -1.02180E+00 -6.19164E-01  1.69696E-01  1.46385E+00  3.44116E+00  5.97616E+00  8.70134E+00  1.11024E+01
   1.26989E+01  1.30258E+01  1.19022E+01  9.74661E+00  7.10480E+00  4.34178E+00  1.76454E+00 -4.47243E-01 -1.85520E+00 -1.96590E+00
  -7.62195E-01  1.43384E+00  4.10189E+00  6.94903E+00  9.73749E+00  1.20426E+01  1.34110E+01  1.33489E+01  1.15667E+01  8.37048E+00
   4.56108E+00  1.21292E+00 -8.86938E-01 -1.80111E+00 -1.97490E+00 -1.64411E+00 -8.68684E-01  7.97648E-02  8.14162E-01  1.10340E+00
   8.28763E-01 -5.46420E-02 -1.37645E+00 -2.78397E+00 -3.78878E+00 -4.11547E+00 -3.85600E+00 -3.22407E+00 -2.41269E+00 -1.63068E+00
  -1.01782E+00 -6.65980E-01 -6.11908E-01 -8.36278E-01 -1.26703E+00 -1.76817E+00 -2.19886E+00 -2.51655E+00 -2.74096E+00 -2.86788E+00
  -2.68477E+00 -2.33486E+00 -1.94110E+00 -1.48272E+00 -9.98771E-01 -6.43115E-01 -5.82687E-01 -9.36021E-01 -1.70231E+00 -2.64030E+00
  -3.41664E+00 -3.76346E+00 -3.66638E+00 -3.33249E+00 -2.86629E+00 -1.47241E+00  3.11636E+00  1.08121E+01  2.06593E+01  3.26949E+01
   4.64828E+01  6.00468E+01  7.03508E+01  7.42839E+01  6.98484E+01  5.76807E+01  4.14626E+01  2.60884E+01  1.46872E+01  7.29433E+00
   2.19030E+00 -1.63010E+00 -3.56957E+00 -4.17473E+00 -4.39686E+00 -4.48800E+00 -4.49782E+00 -4.40465E+00 -4.13392E+00 -3.36000E+00
  -5.93640E-01  5.01595E+00  1.23579E+01  2.11680E+01  3.13727E+01  4.19764E+01  5.10212E+01  5.61496E+01  5.53543E+01  4.82265E+01
   3.67620E+01  2.45704E+01  1.46779E+01  7.78296E+00  2.80672E+00 -1.26403E+00 -3.84155E+00 -4.45921E+00 -4.05661E+00 -3.20997E+00
  -2.37106E+00 -1.83602E+00 -1.68766E+00 -1.90953E+00 -2.38375E+00 -2.92105E+00 -3.41393E+00 -3.85638E+00 -4.24940E+00 -4.61065E+00
  -4.91478E+00 -5.16026E+00 -5.33633E+00 -5.46218E+00 -5.62970E+00 -5.83118E+00 -6.05565E+00 -6.31343E+00 -6.58825E+00 -6.92588E+00
  -7.25755E+00 -7.42989E+00 -7.36057E+00 -7.13723E+00 -6.97086E+00 -7.08452E+00 -7.57894E+00 -8.33160E+00 -9.10117E+00 -9.77406E+00
  -1.03426E+01 -1.07888E+01 -1.12011E+01 -1.16119E+01 -1.19811E+01 -1.22147E+01 -1.21979E+01 -1.19358E+01 -1.15881E+01 -1.13709E+01
  -1.14447E+01 -1.16374E+01 -1.16412E+01 -1.12722E+01 -1.05302E+01 -9.50774E+00 -8.21855E+00 -6.61107E+00 -4.77448E+00 -3.05467E+00
  -1.94770E+00 -1.74365E+00 -2.33079E+00 -3.38484E+00 -4.48533E+00 -5.27853E+00 -5.54251E+00 -5.09995E+00 -3.97478E+00 -2.34411E+00
  -4.99722E-01  1.16452E+00  2.25660E+00  2.35277E+00  1.44105E+00 -3.89102E-01 -3.03329E+00 -5.99595E+00 -8.49794E+00 -9.72291E+00
  -9.26493E+00 -7.28797E+00 -4.07314E+00 -1.91658E-01  3.44199E+00  5.76970E+00  5.97318E+00  3.90636E+00  7.34561E-02 -4.71507E+00
  -9.10504E+00 -1.19172E+01 -1.26674E+01 -1.13510E+01 -8.39238E+00 -4.45566E+00 -5.49064E-01  2.27753E+00  3.69370E+00  4.04285E+00
   4.01246E+00  3.93713E+00  3.93149E+00  4.22208E+00  4.87752E+00  5.57214E+00  5.89472E+00  5.76343E+00  5.27770E+00  4.51245E+00
   3.57033E+00  2.81365E+00  2.64101E+00  3.18773E+00  4.31861E+00  5.75845E+00  7.23857E+00  8.41758E+00  9.22221E+00  1.00475E+01
   1.11747E+01  1.27673E+01  1.54848E+01  2.20086E+01  3.25832E+01  4.50991E+01  5.89984E+01  7.39874E+01  8.84192E+01  9.94287E+01
   1.03890E+02  9.92249E+01  8.52466E+01  6.55424E+01  4.59942E+01  3.10505E+01  2.11970E+01  1.42842E+01  8.72581E+00  5.39029E+00
   4.06130E+00  3.34636E+00  2.90704E+00  2.66011E+00  2.50453E+00  2.30907E+00  2.03094E+00  1.66313E+00  1.24337E+00  8.35320E-01
   4.81853E-01  1.85189E-01 -5.51245E-02 -2.30582E-01 -3.51148E-01 -4.42071E-01 -5.20347E-01 -5.81326E-01 -6.09612E-01 -5.95573E-01
  -5.40397E-01 -4.42286E-01 -3.03441E-01 -1.30650E-01  6.65436E-02  2.82166E-01  5.15003E-01  7.66366E-01  1.03623E+00  1.32308E+00
   1.62335E+00  1.93208E+00  2.24022E+00  2.53672E+00  2.81164E+00  3.05777E+00  3.27033E+00  3.44588E+00  3.58181E+00  3.67848E+00
   3.73740E+00  3.76064E+00  3.75171E+00  3.71548E+00  3.65773E+00  3.58529E+00  3.50545E+00  3.42527E+00  3.35120E+00  3.28913E+00
   3.24428E+00  3.22101E+00  3.22230E+00  3.24959E+00  3.30301E+00  3.38170E+00  3.48402E+00  3.60748E+00  3.74876E+00  3.90389E+00
   4.06876E+00  4.23951E+00  4.41263E+00  4.58492E+00  4.75349E+00  4.91593E+00  5.07064E+00  5.21692E+00  5.35468E+00  5.48424E+00
   5.60615E+00  5.72122E+00  5.83058E+00  5.93547E+00  6.03687E+00  6.13524E+00  6.23045E+00  6.32194E+00  6.40878E+00  6.48954E+00
   6.56215E+00  6.62393E+00  6.67185E+00  6.70292E+00  6.71428E+00  6.70325E+00  6.66730E+00  6.60425E+00  6.51261E+00  6.39174E+00
   6.24183E+00  6.06376E+00  5.85898E+00  5.62959E+00  5.37848E+00  5.10921E+00  4.82580E+00  4.53241E+00  4.23330E+00  3.93285E+00
   3.63557E+00  3.34598E+00  3.06837E+00  2.80663E+00  2.56431E+00  2.34481E+00  2.15136E+00  1.98693E+00  1.85411E+00  1.75508E+00
   1.69179E+00  1.66609E+00  1.67971E+00  1.73403E+00  1.83000E+00  1.96813E+00  2.14855E+00  2.37096E+00  2.63442E+00  2.93710E+00
   3.27608E+00  3.64741E+00  4.04613E+00  4.46623E+00  4.90053E+00  5.34063E+00  5.77715E+00  6.20009E+00  6.59916E+00  6.96412E+00
   7.28500E+00  7.55245E+00  7.75831E+00  7.89603E+00  7.96104E+00  7.95082E+00  7.86494E+00  7.70507E+00  7.47500E+00  7.18054E+00
   6.82916E+00  6.42949E+00  5.99085E+00  5.52294E+00  5.03552E+00  4.53811E+00  4.03952E+00  3.54756E+00  3.06882E+00  2.60871E+00
   2.17152E+00  1.76046E+00  1.37755E+00  1.02375E+00  6.99085E-01  4.02999E-01  1.34483E-01 -1.07829E-01 -3.25653E-01 -5.20954E-01
  -6.95757E-01 -8.51967E-01 -9.91350E-01 -1.11559E+00 -1.22636E+00 -1.32525E+00 -1.41365E+00 -1.49270E+00 -1.56339E+00 -1.62662E+00
  -1.68331E+00 -1.73426E+00 -1.78012E+00 -1.82136E+00 -1.85838E+00 -1.89165E+00 -1.92163E+00 -1.94870E+00 -1.97312E+00 -1.99505E+00
  -2.01466E+00 -2.03223E+00 -2.04801E+00 -2.06217E+00 -2.07478E+00 -2.08588E+00 -2.09560E+00 -2.10412E+00 -2.11160E+00 -2.11810E+00
  -2.12360E+00 -2.12813E+00 -2.13179E+00 -2.13472E+00 -2.13701E+00 -2.13864E+00 -2.13956E+00 -2.13982E+00 -2.13953E+00 -2.13879E+00
  -2.13762E+00 -2.13595E+00 -2.13376E+00 -2.13111E+00 -2.12810E+00 -2.12479E+00 -2.12115E+00 -2.11711E+00 -2.11268E+00 -2.10794E+00
  -2.10297E+00 -2.09779E+00 -2.09233E+00 -2.08654E+00 -2.08045E+00 -2.07416E+00 -2.06771E+00 -2.06106E+00 -2.05416E+00 -2.04697E+00
  -2.03956E+00 -2.03200E+00 -2.02430E+00 -2.01640E+00 -2.00823E+00 -1.99980E+00 -1.99118E+00 -1.98241E+00
 NY background values follow
    -9.019E+00   -9.006E+00   -8.993E+00   -8.979E+00   -8.966E+00   -8.952E+00   -8.939E+00   -8.926E+00   -8.912E+00   -8.899E+00
    -8.885E+00   -8.872E+00   -8.859E+00   -8.845E+00   -8.832E+00   -8.818E+00   -8.805E+00   -8.792E+00   -8.778E+00   -8.765E+00
    -8.751E+00   -8.738E+00   -8.724E+00   -8.711E+00   -8.698E+00   -8.684E+00   -8.671E+00   -8.657E+00   -8.644E+00   -8.631E+00
    -8.617E+00   -8.604E+00   -8.590E+00   -8.577E+00   -8.564E+00   -8.550E+00   -8.537E+00   -8.523E+00   -8.510E+00   -8.497E+00
    -8.483E+00   -8.470E+00   -8.456E+00   -8.443E+00   -8.430E+00   -8.416E+00   -8.403E+00   -8.389E+00   -8.376E+00   -8.362E+00
    -8.349E+00   -8.336E+00   -8.322E+00   -8.309E+00   -8.295E+00   -8.282E+00   -8.269E+00   -8.255E+00   -8.242E+00   -8.228E+00
    -8.215E+00   -8.202E+00   -8.188E+00   -8.175E+00   -8.161E+00   -8.148E+00   -8.135E+00   -8.121E+00   -8.108E+00   -8.094E+00
    -8.081E+00   -8.068E+00   -8.054E+00   -8.041E+00   -8.027E+00   -8.014E+00   -8.001E+00   -7.987E+00   -7.974E+00   -7.960E+00
    -7.947E+00   -7.934E+00   -7.920E+00   -7.907E+00   -7.893E+00   -7.880E+00   -7.866E+00   -7.853E+00   -7.840E+00   -7.826E+00
    -7.813E+00   -7.799E+00   -7.786E+00   -7.773E+00   -7.759E+00   -7.746E+00   -7.732E+00   -7.719E+00   -7.706E+00   -7.692E+00
    -7.679E+00   -7.665E+00   -7.652E+00   -7.639E+00   -7.625E+00   -7.612E+00   -7.598E+00   -7.585E+00   -7.572E+00   -7.558E+00
    -7.545E+00   -7.531E+00   -7.518E+00   -7.505E+00   -7.491E+00   -7.478E+00   -7.464E+00   -7.451E+00   -7.438E+00   -7.424E+00
    -7.411E+00   -7.397E+00   -7.384E+00   -7.370E+00   -7.357E+00   -7.344E+00   -7.330E+00   -7.317E+00   -7.303E+00   -7.290E+00
    -7.277E+00   -7.263E+00   -7.250E+00   -7.236E+00   -7.223E+00   -7.210E+00   -7.196E+00   -7.183E+00   -7.169E+00   -7.156E+00
    -7.143E+00   -7.129E+00   -7.116E+00   -7.102E+00   -7.089E+00   -7.076E+00   -7.062E+00   -7.049E+00   -7.035E+00   -7.022E+00
    -7.008E+00   -6.995E+00   -6.982E+00   -6.968E+00   -6.955E+00   -6.941E+00   -6.928E+00   -6.915E+00   -6.901E+00   -6.888E+00
    -6.874E+00   -6.861E+00   -6.848E+00   -6.834E+00   -6.821E+00   -6.807E+00   -6.794E+00   -6.780E+00   -6.767E+00   -6.754E+00
    -6.740E+00   -6.727E+00   -6.713E+00   -6.700E+00   -6.687E+00   -6.673E+00   -6.660E+00   -6.646E+00   -6.633E+00   -6.620E+00
    -6.606E+00   -6.593E+00   -6.579E+00   -6.566E+00   -6.552E+00   -6.539E+00   -6.526E+00   -6.512E+00   -6.499E+00   -6.485E+00
    -6.472E+00   -6.458E+00   -6.445E+00   -6.432E+00   -6.418E+00   -6.405E+00   -6.391E+00   -6.378E+00   -6.365E+00   -6.351E+00
    -6.338E+00   -6.324E+00   -6.311E+00   -6.297E+00   -6.284E+00   -6.271E+00   -6.257E+00   -6.244E+00   -6.230E+00   -6.217E+00
    -6.203E+00   -6.190E+00   -6.177E+00   -6.163E+00   -6.150E+00   -6.136E+00   -6.123E+00   -6.110E+00   -6.096E+00   -6.083E+00
    -6.069E+00   -6.056E+00   -6.042E+00   -6.029E+00   -6.016E+00   -6.002E+00   -5.989E+00   -5.975E+00   -5.962E+00   -5.948E+00
    -5.935E+00   -5.922E+00   -5.908E+00   -5.895E+00   -5.881E+00   -5.868E+00   -5.854E+00   -5.841E+00   -5.828E+00   -5.814E+00
    -5.801E+00   -5.787E+00   -5.774E+00   -5.761E+00   -5.747E+00   -5.734E+00   -5.720E+00   -5.707E+00   -5.693E+00   -5.680E+00
    -5.667E+00   -5.653E+00   -5.640E+00   -5.626E+00   -5.613E+00   -5.599E+00   -5.586E+00   -5.573E+00   -5.559E+00   -5.546E+00
    -5.532E+00   -5.519E+00   -5.505E+00   -5.492E+00   -5.479E+00   -5.465E+00   -5.452E+00   -5.438E+00   -5.425E+00   -5.412E+00
    -5.398E+00   -5.385E+00   -5.371E+00   -5.358E+00   -5.344E+00   -5.331E+00   -5.318E+00   -5.304E+00   -5.291E+00   -5.277E+00
    -5.264E+00   -5.250E+00   -5.237E+00   -5.224E+00   -5.210E+00   -5.197E+00   -5.183E+00   -5.170E+00   -5.156E+00   -5.143E+00
    -5.130E+00   -5.116E+00   -5.103E+00   -5.089E+00   -5.076E+00   -5.063E+00   -5.049E+00   -5.036E+00   -5.022E+00   -5.009E+00
    -4.995E+00   -4.982E+00   -4.969E+00   -4.955E+00   -4.942E+00   -4.928E+00   -4.915E+00   -4.901E+00   -4.888E+00   -4.875E+00
    -4.861E+00   -4.848E+00   -4.834E+00   -4.821E+00   -4.808E+00   -4.794E+00   -4.781E+00   -4.767E+00   -4.754E+00   -4.740E+00
    -4.727E+00   -4.714E+00   -4.700E+00   -4.687E+00   -4.673E+00   -4.660E+00   -4.647E+00   -4.633E+00   -4.620E+00   -4.606E+00
    -4.593E+00   -4.579E+00   -4.566E+00   -4.553E+00   -4.539E+00   -4.526E+00   -4.512E+00   -4.499E+00   -4.485E+00   -4.472E+00
    -4.459E+00   -4.445E+00   -4.432E+00   -4.418E+00   -4.405E+00   -4.392E+00   -4.378E+00   -4.365E+00   -4.351E+00   -4.338E+00
    -4.324E+00   -4.311E+00   -4.298E+00   -4.284E+00   -4.271E+00   -4.257E+00   -4.244E+00   -4.231E+00   -4.217E+00   -4.204E+00
    -4.190E+00   -4.177E+00   -4.163E+00   -4.150E+00   -4.137E+00   -4.123E+00   -4.110E+00   -4.096E+00   -4.083E+00   -4.070E+00
    -4.056E+00   -4.043E+00   -4.029E+00   -4.016E+00   -4.002E+00   -3.989E+00   -3.976E+00   -3.962E+00   -3.949E+00   -3.935E+00
    -3.922E+00   -3.909E+00   -3.895E+00   -3.882E+00   -3.868E+00   -3.855E+00   -3.841E+00   -3.828E+00   -3.815E+00   -3.801E+00
    -3.788E+00   -3.774E+00   -3.761E+00   -3.748E+00   -3.734E+00   -3.721E+00   -3.707E+00   -3.694E+00   -3.681E+00   -3.667E+00
    -3.654E+00   -3.640E+00   -3.627E+00   -3.613E+00   -3.600E+00   -3.587E+00   -3.573E+00   -3.560E+00   -3.546E+00   -3.533E+00
    -3.520E+00   -3.506E+00   -3.493E+00   -3.479E+00   -3.466E+00   -3.452E+00   -3.439E+00   -3.426E+00   -3.412E+00   -3.399E+00
    -3.385E+00   -3.372E+00   -3.359E+00   -3.345E+00   -3.332E+00   -3.318E+00   -3.305E+00   -3.291E+00   -3.278E+00   -3.265E+00
    -3.251E+00   -3.238E+00   -3.224E+00   -3.211E+00   -3.198E+00   -3.184E+00   -3.171E+00   -3.157E+00   -3.144E+00   -3.130E+00
    -3.117E+00   -3.104E+00   -3.090E+00   -3.077E+00   -3.063E+00   -3.050E+00   -3.037E+00   -3.023E+00   -3.010E+00   -2.996E+00
    -2.983E+00   -2.969E+00   -2.956E+00   -2.943E+00   -2.929E+00   -2.916E+00   -2.902E+00   -2.889E+00   -2.876E+00   -2.862E+00
    -2.849E+00   -2.835E+00   -2.822E+00   -2.809E+00   -2.795E+00   -2.782E+00   -2.768E+00   -2.755E+00   -2.741E+00   -2.728E+00
    -2.715E+00   -2.701E+00   -2.688E+00   -2.674E+00   -2.661E+00   -2.648E+00   -2.634E+00   -2.621E+00   -2.607E+00   -2.594E+00
    -2.580E+00   -2.567E+00   -2.554E+00   -2.540E+00   -2.527E+00   -2.513E+00   -2.500E+00   -2.487E+00   -2.473E+00   -2.460E+00
    -2.446E+00   -2.433E+00   -2.419E+00   -2.406E+00   -2.393E+00   -2.379E+00   -2.366E+00   -2.352E+00
 Cr       Conc. = 1.11E+03
