 LCModel (Version 6.3-1L) Copyright: S.W. Provencher.          Ref.: Magn. Reson. Med. 30:672-679 (1993).                
 Slice#2 Row#12 Col#10  PD_24_press_1_raw_act
 36 lines in following concentration table = NCONC+1
    Conc.  %SD /Cr+PCr  Metabolite                                         
    0.000 999%   0.000 Ala                                                 
    0.000 999%   0.000 Asp                                                 
    0.000 999%   0.000 Cr                                                  
 1.09E+03   4%   1.000 PCr                                                 
    0.000 999%   0.000 GABA                                                
   71.666 165% 6.6E-02 Glc                                                 
  501.193  38%   0.459 Gln                                                 
 1.01E+03  21%   0.926 Glu                                                 
  439.894   4%   0.403 GPC                                                 
    0.000 999%   0.000 PCh                                                 
  219.587  24%   0.201 GSH                                                 
  808.239  21%   0.741 Ins                                                 
  123.955  81%   0.114 Lac                                                 
 1.85E+03   3%   1.694 NAA                                                 
    0.000 999%   0.000 NAAG                                                
  119.615  17%   0.110 Scyllo                                              
    7.935 999% 7.3E-03 Tau                                                 
  196.099  36%   0.180 -CrCH2                                              
  439.894   4%   0.403 GPC+PCh                                             
 1.85E+03   3%   1.694 NAA+NAAG                                            
 1.09E+03   4%   1.000 Cr+PCr                                              
 1.51E+03  22%   1.385 Glu+Gln                                             
  919.355  40%   0.842 Lip13a                                              
    0.000 999%   0.000 Lip13b                                              
  112.566 141%   0.103 Lip09                                               
 1.08E+03  17%   0.990 MM09                                                
  198.487  53%   0.182 Lip20                                               
 2.39E+03  10%   2.186 MM20                                                
  380.819  38%   0.349 MM12                                                
 1.24E+03  22%   1.140 MM14                                                
  401.878  30%   0.368 MM17                                                
  919.355  40%   0.842 Lip13a+Lip13b                                       
 2.54E+03   8%   2.331 MM14+Lip13a+Lip13b+MM12                             
 1.19E+03   9%   1.093 MM09+Lip09                                          
 2.58E+03   9%   2.368 MM20+Lip20                                          
   6 lines in following misc. output table
  FWHM = 0.069 ppm    S/N =  13                                            
  Data shift = 0.000 ppm                                                   
  Ph: -67 deg     -18.7 deg/ppm                                            
  alphaB,S = 8.5E+01,   7.4E+01                                            
   14 spline knots.   Ns = 9(1)                                            
   2 inflections.     1 extrema                                            
  498 points on ppm-axis = NY
      4.000000     3.992357     3.984714     3.977070     3.969427     3.961784     3.954141     3.946497     3.938854     3.931211
      3.923568     3.915925     3.908281     3.900638     3.892995     3.885352     3.877708     3.870065     3.862422     3.854779
      3.847136     3.839492     3.831849     3.824206     3.816563     3.808919     3.801276     3.793633     3.785990     3.778347
      3.770703     3.763060     3.755417     3.747774     3.740130     3.732487     3.724844     3.717201     3.709558     3.701914
      3.694271     3.686628     3.678985     3.671341     3.663698     3.656055     3.648412     3.640769     3.633125     3.625482
      3.617839     3.610196     3.602552     3.594909     3.587266     3.579623     3.571980     3.564336     3.556693     3.549050
      3.541407     3.533763     3.526120     3.518477     3.510834     3.503191     3.495547     3.487904     3.480261     3.472618
      3.464974     3.457331     3.449688     3.442045     3.434402     3.426758     3.419115     3.411472     3.403829     3.396185
      3.388542     3.380899     3.373256     3.365613     3.357969     3.350326     3.342683     3.335040     3.327396     3.319753
      3.312110     3.304467     3.296824     3.289180     3.281537     3.273894     3.266251     3.258607     3.250964     3.243321
      3.235678     3.228034     3.220391     3.212748     3.205105     3.197462     3.189818     3.182175     3.174532     3.166889
      3.159245     3.151602     3.143959     3.136316     3.128673     3.121029     3.113386     3.105743     3.098100     3.090456
      3.082813     3.075170     3.067527     3.059884     3.052240     3.044597     3.036954     3.029311     3.021667     3.014024
      3.006381     2.998738     2.991095     2.983451     2.975808     2.968165     2.960522     2.952878     2.945235     2.937592
      2.929949     2.922306     2.914662     2.907019     2.899376     2.891733     2.884089     2.876446     2.868803     2.861160
      2.853517     2.845873     2.838230     2.830587     2.822944     2.815300     2.807657     2.800014     2.792371     2.784728
      2.777084     2.769441     2.761798     2.754155     2.746511     2.738868     2.731225     2.723582     2.715939     2.708295
      2.700652     2.693009     2.685366     2.677722     2.670079     2.662436     2.654793     2.647150     2.639506     2.631863
      2.624220     2.616577     2.608933     2.601290     2.593647     2.586004     2.578361     2.570717     2.563074     2.555431
      2.547788     2.540144     2.532501     2.524858     2.517215     2.509572     2.501928     2.494285     2.486642     2.478999
      2.471355     2.463712     2.456069     2.448426     2.440783     2.433139     2.425496     2.417853     2.410210     2.402566
      2.394923     2.387280     2.379637     2.371994     2.364350     2.356707     2.349064     2.341421     2.333777     2.326134
      2.318491     2.310848     2.303205     2.295561     2.287918     2.280275     2.272632     2.264988     2.257345     2.249702
      2.242059     2.234416     2.226772     2.219129     2.211486     2.203843     2.196199     2.188556     2.180913     2.173270
      2.165627     2.157983     2.150340     2.142697     2.135054     2.127410     2.119767     2.112124     2.104481     2.096838
      2.089194     2.081551     2.073908     2.066265     2.058621     2.050978     2.043335     2.035692     2.028049     2.020405
      2.012762     2.005119     1.997476     1.989833     1.982190     1.974546     1.966903     1.959260     1.951617     1.943974
      1.936331     1.928688     1.921045     1.913402     1.905759     1.898115     1.890472     1.882829     1.875186     1.867543
      1.859900     1.852257     1.844614     1.836971     1.829327     1.821684     1.814041     1.806398     1.798755     1.791112
      1.783469     1.775826     1.768183     1.760540     1.752896     1.745253     1.737610     1.729967     1.722324     1.714681
      1.707038     1.699395     1.691752     1.684108     1.676465     1.668822     1.661179     1.653536     1.645893     1.638250
      1.630607     1.622964     1.615321     1.607677     1.600034     1.592391     1.584748     1.577105     1.569462     1.561819
      1.554176     1.546533     1.538890     1.531246     1.523603     1.515960     1.508317     1.500674     1.493031     1.485388
      1.477745     1.470102     1.462458     1.454815     1.447172     1.439529     1.431886     1.424243     1.416600     1.408957
      1.401314     1.393671     1.386027     1.378384     1.370741     1.363098     1.355455     1.347812     1.340169     1.332526
      1.324883     1.317240     1.309596     1.301953     1.294310     1.286667     1.279024     1.271381     1.263738     1.256095
      1.248452     1.240808     1.233165     1.225522     1.217879     1.210236     1.202593     1.194950     1.187307     1.179664
      1.172021     1.164377     1.156734     1.149091     1.141448     1.133805     1.126162     1.118519     1.110876     1.103233
      1.095590     1.087946     1.080303     1.072660     1.065017     1.057374     1.049731     1.042088     1.034445     1.026802
      1.019158     1.011515     1.003872     0.996229     0.988586     0.980943     0.973300     0.965657     0.958014     0.950371
      0.942727     0.935084     0.927441     0.919798     0.912155     0.904512     0.896869     0.889226     0.881583     0.873940
      0.866296     0.858653     0.851010     0.843367     0.835724     0.828081     0.820438     0.812795     0.805152     0.797508
      0.789865     0.782222     0.774579     0.766936     0.759293     0.751650     0.744007     0.736364     0.728721     0.721077
      0.713434     0.705791     0.698148     0.690505     0.682862     0.675219     0.667576     0.659933     0.652290     0.644646
      0.637003     0.629360     0.621717     0.614074     0.606431     0.598788     0.591145     0.583502     0.575858     0.568215
      0.560572     0.552929     0.545286     0.537643     0.530000     0.522357     0.514714     0.507071     0.499427     0.491784
      0.484141     0.476498     0.468855     0.461212     0.453569     0.445925     0.438282     0.430639     0.422996     0.415353
      0.407710     0.400067     0.392424     0.384780     0.377137     0.369494     0.361851     0.354208     0.346565     0.338922
      0.331278     0.323635     0.315992     0.308349     0.300706     0.293063     0.285420     0.277777     0.270133     0.262490
      0.254847     0.247204     0.239561     0.231918     0.224275     0.216631     0.208988     0.201345
 NY phased data points follow
  -1.16885E+01 -9.93837E+00 -1.10568E+01 -8.59736E+00 -5.36596E+00 -4.59313E+00 -3.44248E+00  5.94087E+00  3.97032E+00  6.92448E+00
   7.73806E+00  1.02612E+01  9.54702E+00  6.38066E+00  4.70820E+00  2.58400E+00 -2.72430E-01 -7.41011E+00 -6.48853E+00 -3.97889E+00
  -7.95409E+00 -9.57053E+00 -7.92045E+00 -7.96554E+00 -4.26854E+00 -8.31525E+00 -6.30326E+00 -5.65134E+00 -3.46685E+00 -4.02060E+00
  -3.17836E+00 -3.15300E+00 -2.45507E+00 -5.37798E+00 -6.46225E+00 -6.13955E+00 -4.47966E+00 -1.72932E+00 -6.12444E+00 -6.34878E+00
  -7.00386E+00 -3.19455E+00 -1.97896E+00 -2.78746E+00 -1.25126E+00 -1.39489E-01  1.59110E-01 -2.58708E+00 -2.55555E+00 -6.79146E-01
  -1.34728E+00 -2.78402E+00 -3.79293E+00 -6.49266E+00 -3.63902E+00 -2.94040E+00 -3.58665E+00 -6.32525E+00 -4.59540E-01 -6.06946E+00
  -8.54796E+00 -7.01829E+00 -7.41304E+00 -8.02083E+00 -9.60427E+00 -8.55939E+00 -8.16161E+00 -1.01744E+01 -6.53598E+00 -1.01609E+01
  -8.66651E+00 -9.39194E+00 -6.13706E+00 -6.42536E+00 -4.38977E+00 -6.30977E+00 -5.04300E+00 -8.86980E+00 -4.79890E+00 -6.58288E+00
  -6.66346E+00 -4.31475E+00 -2.99540E+00 -6.36317E+00 -5.59732E+00 -1.67771E+00 -3.90433E+00 -5.15800E+00 -4.71430E+00 -4.58953E+00
  -4.40081E+00 -1.75109E+00 -3.81787E+00 -3.63130E+00 -3.91265E+00 -2.63120E+00 -3.99581E-01  3.32244E-01  4.34082E+00  1.08348E+01
   1.87549E+01  2.11678E+01  2.76652E+01  2.45074E+01  2.29148E+01  2.24301E+01  2.17526E+01  1.15678E+01  1.10653E+01  3.16708E+00
   2.33361E+00 -2.52326E+00 -1.16308E+00 -4.47624E+00 -4.66993E+00 -3.36107E+00 -7.24304E+00 -6.22124E+00 -3.85947E+00 -5.19781E+00
   4.04626E-01 -6.82838E-01  3.78717E+00  8.88403E+00  1.19488E+01  1.41615E+01  2.05772E+01  2.34590E+01  2.35269E+01  2.19305E+01
   2.38935E+01  1.95820E+01  1.37492E+01  7.65346E+00  6.30164E+00  1.49057E+00 -1.76607E+00 -2.89636E+00 -2.80070E+00 -5.93736E+00
  -3.42040E+00 -5.40205E+00 -2.00384E+00 -5.47928E+00 -3.43010E+00 -4.67364E+00 -5.33923E+00 -4.79610E+00 -3.77876E+00 -2.85516E+00
  -1.57469E+00 -3.51372E+00 -4.68120E+00 -1.36858E+00 -2.76787E+00 -6.70172E+00 -2.52132E+00 -4.21031E+00 -6.43368E+00 -5.34319E+00
  -5.96271E+00 -6.94961E+00 -3.39446E+00 -8.40897E+00 -5.94354E+00 -4.67096E+00 -6.25228E+00 -5.03383E+00 -6.26760E+00 -8.29439E+00
  -1.09964E+01 -1.10183E+01 -1.07682E+01 -9.83551E+00 -1.12490E+01 -1.29930E+01 -1.35915E+01 -1.04709E+01 -1.18527E+01 -1.00100E+01
  -8.66502E+00 -8.19837E+00 -9.70905E+00 -8.68196E+00 -8.17937E+00 -1.15627E+01 -9.11665E+00 -8.78861E+00 -6.37829E+00 -7.02034E+00
  -7.33509E+00 -5.20937E+00 -3.47728E+00 -2.17523E+00 -5.96958E-01 -4.90713E+00 -5.37888E+00 -2.45181E+00 -4.48117E+00 -3.01757E+00
  -2.77695E+00 -2.63580E+00 -1.60606E+00 -4.16154E+00 -1.10358E+00 -1.40048E+00 -1.63032E+00 -3.49779E+00 -3.10625E+00 -3.49211E+00
  -2.04466E+00 -1.50332E+00  6.26362E-01  4.80415E-01  2.47872E+00  3.05629E+00  2.25616E+00  3.20492E+00  5.40154E-01  5.90210E-01
   1.28086E+00 -1.07181E+00 -2.79666E+00 -3.55701E-01 -2.26480E+00 -2.12112E+00 -2.84054E-01  2.08462E+00  8.37310E-01  2.37811E+00
   4.34601E+00  3.83740E+00  6.40192E+00  4.78792E+00  6.31663E+00  3.04124E+00  3.01453E+00  2.14778E+00  6.36659E-01 -2.95526E+00
   2.90289E+00  1.79658E+00  2.82985E+00 -1.98343E+00  1.99748E+00  3.42648E+00  5.44716E+00  3.89044E+00  1.14936E+00  5.95190E+00
   4.68534E+00  6.19298E+00  6.57804E+00  1.51681E+01  1.54973E+01  2.21560E+01  2.98676E+01  3.67128E+01  4.66781E+01  4.96996E+01
   4.96657E+01  5.19332E+01  4.83768E+01  4.45452E+01  4.01913E+01  3.09748E+01  2.33058E+01  1.57102E+01  1.42919E+01  8.44444E+00
   5.62288E+00  2.88202E+00  6.58479E+00  2.02069E-01  3.81128E+00  1.60234E+00  1.34157E+00  6.06130E-01  1.99480E+00  2.23366E+00
   7.04475E-01  9.18158E-01 -7.70200E-01  2.54682E+00 -1.89986E+00  1.29552E+00 -5.32868E-01 -1.66417E+00 -2.48141E+00 -2.90046E-01
  -3.74211E-01 -8.99668E-01 -1.19340E+00  1.72466E+00 -3.46338E+00  4.27265E-02 -1.60050E+00 -3.53026E-01  1.24052E-01 -1.86995E+00
   1.16217E+00 -4.72277E-01  8.84096E-01 -1.36771E+00  3.15520E+00  1.87816E+00  3.93382E+00  4.85729E+00  1.64862E+00 -1.71201E-01
   5.20776E+00  7.52367E-01  1.61514E+00  2.44187E+00  3.28387E+00  2.82984E+00  4.49950E+00  4.00498E-01  3.70853E+00  6.02289E-01
   1.51041E+00 -2.17996E+00  2.56269E+00  3.46552E+00  2.07388E+00  4.93680E+00  5.25473E+00  4.43168E+00  4.49325E+00  2.58661E+00
   6.30594E+00  4.97180E+00  4.63960E+00  6.89938E+00  5.44702E+00  7.20050E+00  7.97742E+00  8.06614E+00  6.30227E+00  7.45279E+00
   7.18613E+00  9.12170E+00  8.87421E+00  9.11384E+00  9.08785E+00  8.39140E+00  9.47448E+00  7.33285E+00  9.81754E+00  5.31452E+00
   5.85787E+00  7.32691E+00  7.21017E+00  3.30791E+00  8.03878E+00  7.53730E+00  6.05934E+00  5.62200E+00  7.63278E+00  7.71191E+00
   3.90740E+00  5.18847E+00  3.09693E+00  7.10499E+00  3.44558E+00  4.76460E+00  5.07734E+00  5.01605E+00  6.05647E+00  2.91480E+00
   7.05772E+00  4.69117E+00  5.16148E+00  3.78209E+00  5.32350E+00  3.73548E+00  5.48008E+00  4.96666E+00  2.32646E+00  3.84435E+00
   3.09641E+00  1.07445E+00  2.03746E+00  1.57533E+00  8.52038E-01  3.36167E+00  2.60073E+00 -4.87935E-01  3.36325E+00 -1.09976E+00
  -1.80723E-01  2.14233E+00  2.27498E+00  5.11737E+00  4.01732E+00  6.43422E+00  4.29622E+00  5.63150E+00  3.87199E+00  8.46278E+00
   4.30511E+00  6.73717E+00  7.85481E+00  1.01195E+01  7.03599E+00  8.96932E+00  8.08599E+00  8.70143E+00  9.91634E+00  1.08806E+01
   6.82745E+00  1.03770E+01  1.11927E+01  7.38155E+00  8.24762E+00  9.44365E+00  8.48381E+00  5.00333E+00  5.44363E+00  7.30425E+00
   4.93566E+00  4.45326E+00  3.47257E+00  6.29393E+00  4.20247E+00  4.98160E+00  3.91705E+00  1.32216E+00  1.03209E+00  3.06406E+00
   2.66787E+00  1.53547E+00  2.46012E+00  8.80759E-01  4.25378E+00  3.12410E-01  6.44001E-01  9.88182E-01  3.13567E+00  4.27244E-01
   5.24263E+00  3.82944E+00  3.75310E+00 -1.93131E-02  2.07101E+00  1.16826E+00  2.67874E+00  8.74622E-01  9.87007E-01  1.13794E+00
  -1.62610E+00  1.29862E+00  5.12040E+00  3.32755E+00  5.09731E-01 -1.20294E-01  6.62335E-01  3.77178E+00  3.08846E+00  2.12808E+00
   3.97258E+00  2.86737E+00  2.63574E+00  2.87761E+00  6.62664E-01  1.97629E+00  7.04885E-01 -6.49060E-01 -5.35617E-01  8.59298E-02
   4.38360E-01  5.61718E-01  1.04285E+00 -2.93219E-01  3.94819E-01  9.25707E-01  1.46908E+00  4.43033E-01  2.36316E+00  2.56778E+00
   4.23566E+00 -1.68175E-01 -1.20241E+00  5.54216E-01 -1.35956E-01 -8.81603E-01  2.05134E+00  1.58549E+00  4.18750E+00  1.73919E+00
  -3.64150E-01  2.06675E-01 -6.67067E-01  1.84109E+00  2.04640E+00  2.02256E+00  2.47724E+00  2.12081E+00
 NY points of the fit to the data follow
  -9.30463E+00 -9.21953E+00 -8.39863E+00 -7.16467E+00 -5.54785E+00 -3.31376E+00 -4.20982E-01  2.78358E+00  5.46161E+00  7.16465E+00
   7.84697E+00  7.89567E+00  7.63355E+00  6.60331E+00  4.44605E+00  1.83341E+00 -4.91062E-01 -2.21318E+00 -3.51496E+00 -4.64508E+00
  -5.71473E+00 -6.32927E+00 -6.59573E+00 -6.71811E+00 -6.70765E+00 -6.50867E+00 -6.04393E+00 -5.30705E+00 -4.46457E+00 -3.65467E+00
  -3.01194E+00 -2.57950E+00 -2.32052E+00 -2.35965E+00 -2.77624E+00 -3.45402E+00 -4.24092E+00 -4.96362E+00 -5.45930E+00 -5.67695E+00
  -5.63877E+00 -5.31461E+00 -4.71123E+00 -3.87747E+00 -2.97049E+00 -2.22405E+00 -1.82738E+00 -1.80582E+00 -2.00188E+00 -2.34115E+00
  -2.90706E+00 -3.69144E+00 -4.52427E+00 -5.19588E+00 -5.61938E+00 -5.84905E+00 -5.95359E+00 -5.96141E+00 -5.91686E+00 -5.92137E+00
  -6.03043E+00 -6.19535E+00 -6.39475E+00 -6.61191E+00 -6.83165E+00 -7.03058E+00 -7.14407E+00 -7.13930E+00 -7.03006E+00 -6.86946E+00
  -6.70451E+00 -6.57764E+00 -6.49620E+00 -6.45224E+00 -6.44718E+00 -6.50258E+00 -6.61213E+00 -6.72056E+00 -6.71577E+00 -6.52697E+00
  -6.26994E+00 -5.93988E+00 -5.43589E+00 -4.76923E+00 -4.08829E+00 -3.62605E+00 -3.45824E+00 -3.53026E+00 -3.70439E+00 -3.93976E+00
  -4.38852E+00 -5.10073E+00 -5.81622E+00 -6.17985E+00 -5.62639E+00 -3.86200E+00 -1.51762E+00  1.58591E+00  6.06649E+00  1.17192E+01
   1.75196E+01  2.19483E+01  2.43620E+01  2.49290E+01  2.43962E+01  2.30132E+01  1.98754E+01  1.47941E+01  9.29905E+00  4.73187E+00
   1.43881E+00 -1.03416E+00 -3.09322E+00 -4.67595E+00 -5.33815E+00 -5.57704E+00 -5.69025E+00 -5.71215E+00 -5.48965E+00 -4.50184E+00
  -2.51778E+00 -9.32405E-02  3.00533E+00  7.20748E+00  1.23316E+01  1.74306E+01  2.11674E+01  2.30687E+01  2.33857E+01  2.28341E+01
   2.15052E+01  1.84993E+01  1.37964E+01  8.87995E+00  4.88566E+00  2.02960E+00 -1.21345E-01 -1.92388E+00 -3.23897E+00 -3.69106E+00
  -3.79356E+00 -3.79140E+00 -3.76662E+00 -3.76592E+00 -3.80269E+00 -3.88439E+00 -4.01802E+00 -4.17789E+00 -4.33508E+00 -4.48216E+00
  -4.61193E+00 -4.71893E+00 -4.81290E+00 -4.91926E+00 -5.03835E+00 -5.15452E+00 -5.28102E+00 -5.42491E+00 -5.60279E+00 -5.77623E+00
  -5.87019E+00 -5.87539E+00 -5.85338E+00 -5.89982E+00 -6.02300E+00 -6.14787E+00 -6.25342E+00 -6.38948E+00 -6.64657E+00 -7.03692E+00
  -7.43275E+00 -7.76668E+00 -8.07281E+00 -8.37250E+00 -8.60197E+00 -8.69189E+00 -8.67523E+00 -8.64695E+00 -8.67177E+00 -8.69745E+00
  -8.60567E+00 -8.40101E+00 -8.22315E+00 -8.10674E+00 -7.93480E+00 -7.54839E+00 -6.94054E+00 -6.25376E+00 -5.62473E+00 -5.06984E+00
  -4.58771E+00 -4.14963E+00 -3.81247E+00 -3.64379E+00 -3.60880E+00 -3.62803E+00 -3.56532E+00 -3.35448E+00 -3.01018E+00 -2.56780E+00
  -2.08247E+00 -1.65430E+00 -1.39061E+00 -1.33126E+00 -1.57523E+00 -2.18286E+00 -2.98444E+00 -3.77352E+00 -4.35419E+00 -4.68828E+00
  -4.74299E+00 -4.38968E+00 -3.60718E+00 -2.53324E+00 -1.52302E+00 -9.28017E-01 -7.74770E-01 -9.48298E-01 -1.40620E+00 -2.15784E+00
  -3.08958E+00 -3.88678E+00 -4.19086E+00 -3.98805E+00 -3.47952E+00 -2.77163E+00 -1.85543E+00 -7.90872E-01  1.87847E-01  8.97048E-01
   1.36368E+00  1.67974E+00  1.94355E+00  2.18067E+00  2.38848E+00  2.60591E+00  2.86025E+00  3.05377E+00  3.12826E+00  3.12860E+00
   3.11423E+00  3.10765E+00  3.13253E+00  3.21835E+00  3.38293E+00  3.64350E+00  4.01386E+00  4.48519E+00  5.02005E+00  5.56225E+00
   6.13958E+00  7.10474E+00  9.30833E+00  1.29223E+01  1.71005E+01  2.23122E+01  2.91911E+01  3.72680E+01  4.48202E+01  4.98395E+01
   5.17649E+01  5.11465E+01  4.91442E+01  4.57879E+01  3.97720E+01  3.14106E+01  2.31241E+01  1.65442E+01  1.18024E+01  8.15344E+00
   5.11471E+00  2.97393E+00  2.12399E+00  1.72884E+00  1.45190E+00  1.23673E+00  1.06367E+00  8.94396E-01  7.16665E-01  5.32105E-01
   3.52866E-01  1.90270E-01  4.75448E-02 -7.95123E-02 -1.86669E-01 -2.65446E-01 -3.17707E-01 -3.49782E-01 -3.64775E-01 -3.61940E-01
  -3.40298E-01 -3.00160E-01 -2.43405E-01 -1.69176E-01 -7.76833E-02  3.00699E-02  1.52627E-01  2.87762E-01  4.32887E-01  5.85204E-01
   7.41635E-01  8.99192E-01  1.05430E+00  1.20327E+00  1.34301E+00  1.47126E+00  1.58618E+00  1.68630E+00  1.77092E+00  1.84055E+00
   1.89677E+00  1.94214E+00  1.97977E+00  2.01329E+00  2.04682E+00  2.08495E+00  2.13232E+00  2.19353E+00  2.27274E+00  2.37353E+00
   2.49872E+00  2.65048E+00  2.83012E+00  3.03799E+00  3.27331E+00  3.53429E+00  3.81825E+00  4.12180E+00  4.44092E+00  4.77100E+00
   5.10697E+00  5.44362E+00  5.77587E+00  6.09913E+00  6.40947E+00  6.70404E+00  6.98169E+00  7.24489E+00  7.50331E+00  7.76490E+00
   7.99862E+00  8.18188E+00  8.33119E+00  8.43162E+00  8.43448E+00  8.28546E+00  7.99018E+00  7.63661E+00  7.28365E+00  6.95222E+00
   6.65122E+00  6.40870E+00  6.30700E+00  6.36488E+00  6.50624E+00  6.64193E+00  6.73414E+00  6.80432E+00  6.84937E+00  6.79043E+00
   6.59423E+00  6.32198E+00  6.03367E+00  5.74967E+00  5.46340E+00  5.16515E+00  4.88167E+00  4.62511E+00  4.38289E+00  4.15047E+00
   3.92710E+00  3.71344E+00  3.51071E+00  3.32041E+00  3.14406E+00  2.98313E+00  2.83905E+00  2.71318E+00  2.60677E+00  2.52097E+00
   2.45678E+00  2.41517E+00  2.39710E+00  2.40358E+00  2.43564E+00  2.49434E+00  2.58076E+00  2.69601E+00  2.84125E+00  3.01759E+00
   3.22595E+00  3.46696E+00  3.74079E+00  4.04710E+00  4.38478E+00  4.75186E+00  5.14525E+00  5.56064E+00  5.99246E+00  6.43389E+00
   6.87693E+00  7.31254E+00  7.73082E+00  8.12137E+00  8.47374E+00  8.77789E+00  9.02465E+00  9.20614E+00  9.31617E+00  9.35065E+00
   9.30785E+00  9.18849E+00  8.99570E+00  8.73487E+00  8.41328E+00  8.03989E+00  7.62477E+00  7.17868E+00  6.71248E+00  6.23670E+00
   5.76112E+00  5.29452E+00  4.84439E+00  4.41682E+00  4.01639E+00  3.64625E+00  3.30821E+00  3.00296E+00  2.73022E+00  2.48888E+00
   2.27725E+00  2.09319E+00  1.93435E+00  1.79831E+00  1.68263E+00  1.58498E+00  1.50309E+00  1.43494E+00  1.37868E+00  1.33272E+00
   1.29564E+00  1.26620E+00  1.24330E+00  1.22602E+00  1.21358E+00  1.20537E+00  1.20082E+00  1.19942E+00  1.20076E+00  1.20450E+00
   1.21035E+00  1.21810E+00  1.22752E+00  1.23840E+00  1.25057E+00  1.26391E+00  1.27832E+00  1.29370E+00  1.30995E+00  1.32695E+00
   1.34464E+00  1.36298E+00  1.38193E+00  1.40143E+00  1.42142E+00  1.44185E+00  1.46268E+00  1.48392E+00  1.50554E+00  1.52750E+00
   1.54976E+00  1.57229E+00  1.59509E+00  1.61818E+00  1.64152E+00  1.66510E+00  1.68887E+00  1.71284E+00  1.73702E+00  1.76142E+00
   1.78601E+00  1.81076E+00  1.83567E+00  1.86075E+00  1.88602E+00  1.91148E+00  1.93710E+00  1.96287E+00  1.98880E+00  2.01492E+00
   2.04124E+00  2.06776E+00  2.09446E+00  2.12135E+00  2.14846E+00  2.17583E+00  2.20347E+00  2.23140E+00
 NY background values follow
    -1.044E+01   -1.041E+01   -1.039E+01   -1.036E+01   -1.034E+01   -1.031E+01   -1.028E+01   -1.026E+01   -1.023E+01   -1.021E+01
    -1.018E+01   -1.016E+01   -1.013E+01   -1.011E+01   -1.008E+01   -1.006E+01   -1.003E+01   -1.001E+01   -9.982E+00   -9.956E+00
    -9.931E+00   -9.906E+00   -9.880E+00   -9.855E+00   -9.829E+00   -9.804E+00   -9.779E+00   -9.753E+00   -9.728E+00   -9.702E+00
    -9.677E+00   -9.651E+00   -9.626E+00   -9.600E+00   -9.575E+00   -9.549E+00   -9.524E+00   -9.498E+00   -9.473E+00   -9.447E+00
    -9.422E+00   -9.396E+00   -9.371E+00   -9.345E+00   -9.319E+00   -9.294E+00   -9.268E+00   -9.243E+00   -9.217E+00   -9.191E+00
    -9.166E+00   -9.140E+00   -9.114E+00   -9.089E+00   -9.063E+00   -9.037E+00   -9.012E+00   -8.986E+00   -8.960E+00   -8.934E+00
    -8.909E+00   -8.883E+00   -8.857E+00   -8.831E+00   -8.806E+00   -8.780E+00   -8.754E+00   -8.728E+00   -8.702E+00   -8.677E+00
    -8.651E+00   -8.625E+00   -8.599E+00   -8.573E+00   -8.547E+00   -8.521E+00   -8.496E+00   -8.470E+00   -8.444E+00   -8.418E+00
    -8.392E+00   -8.366E+00   -8.340E+00   -8.314E+00   -8.288E+00   -8.262E+00   -8.236E+00   -8.210E+00   -8.184E+00   -8.158E+00
    -8.132E+00   -8.106E+00   -8.080E+00   -8.054E+00   -8.028E+00   -8.002E+00   -7.976E+00   -7.950E+00   -7.924E+00   -7.898E+00
    -7.872E+00   -7.846E+00   -7.820E+00   -7.793E+00   -7.767E+00   -7.741E+00   -7.715E+00   -7.689E+00   -7.663E+00   -7.637E+00
    -7.611E+00   -7.584E+00   -7.558E+00   -7.532E+00   -7.506E+00   -7.480E+00   -7.453E+00   -7.427E+00   -7.401E+00   -7.375E+00
    -7.349E+00   -7.322E+00   -7.296E+00   -7.270E+00   -7.244E+00   -7.217E+00   -7.191E+00   -7.165E+00   -7.139E+00   -7.112E+00
    -7.086E+00   -7.060E+00   -7.033E+00   -7.007E+00   -6.981E+00   -6.954E+00   -6.928E+00   -6.902E+00   -6.875E+00   -6.849E+00
    -6.823E+00   -6.796E+00   -6.770E+00   -6.744E+00   -6.717E+00   -6.691E+00   -6.665E+00   -6.638E+00   -6.612E+00   -6.585E+00
    -6.559E+00   -6.532E+00   -6.506E+00   -6.480E+00   -6.453E+00   -6.427E+00   -6.400E+00   -6.374E+00   -6.347E+00   -6.321E+00
    -6.295E+00   -6.268E+00   -6.242E+00   -6.215E+00   -6.189E+00   -6.162E+00   -6.136E+00   -6.109E+00   -6.083E+00   -6.056E+00
    -6.030E+00   -6.003E+00   -5.977E+00   -5.950E+00   -5.924E+00   -5.897E+00   -5.870E+00   -5.844E+00   -5.817E+00   -5.791E+00
    -5.764E+00   -5.738E+00   -5.711E+00   -5.685E+00   -5.658E+00   -5.631E+00   -5.605E+00   -5.578E+00   -5.552E+00   -5.525E+00
    -5.498E+00   -5.472E+00   -5.445E+00   -5.419E+00   -5.392E+00   -5.365E+00   -5.339E+00   -5.312E+00   -5.285E+00   -5.259E+00
    -5.232E+00   -5.206E+00   -5.179E+00   -5.152E+00   -5.126E+00   -5.099E+00   -5.072E+00   -5.046E+00   -5.019E+00   -4.992E+00
    -4.966E+00   -4.939E+00   -4.912E+00   -4.886E+00   -4.859E+00   -4.832E+00   -4.806E+00   -4.779E+00   -4.752E+00   -4.725E+00
    -4.699E+00   -4.672E+00   -4.645E+00   -4.619E+00   -4.592E+00   -4.565E+00   -4.538E+00   -4.512E+00   -4.485E+00   -4.458E+00
    -4.432E+00   -4.405E+00   -4.378E+00   -4.351E+00   -4.325E+00   -4.298E+00   -4.271E+00   -4.244E+00   -4.218E+00   -4.191E+00
    -4.164E+00   -4.137E+00   -4.111E+00   -4.084E+00   -4.057E+00   -4.030E+00   -4.004E+00   -3.977E+00   -3.950E+00   -3.923E+00
    -3.897E+00   -3.870E+00   -3.843E+00   -3.816E+00   -3.790E+00   -3.763E+00   -3.736E+00   -3.709E+00   -3.683E+00   -3.656E+00
    -3.629E+00   -3.602E+00   -3.575E+00   -3.549E+00   -3.522E+00   -3.495E+00   -3.468E+00   -3.442E+00   -3.415E+00   -3.388E+00
    -3.361E+00   -3.334E+00   -3.308E+00   -3.281E+00   -3.254E+00   -3.227E+00   -3.200E+00   -3.174E+00   -3.147E+00   -3.120E+00
    -3.093E+00   -3.066E+00   -3.040E+00   -3.013E+00   -2.986E+00   -2.959E+00   -2.933E+00   -2.906E+00   -2.879E+00   -2.852E+00
    -2.825E+00   -2.799E+00   -2.772E+00   -2.745E+00   -2.718E+00   -2.691E+00   -2.665E+00   -2.638E+00   -2.611E+00   -2.584E+00
    -2.557E+00   -2.531E+00   -2.504E+00   -2.477E+00   -2.450E+00   -2.424E+00   -2.397E+00   -2.370E+00   -2.343E+00   -2.316E+00
    -2.290E+00   -2.263E+00   -2.236E+00   -2.209E+00   -2.182E+00   -2.156E+00   -2.129E+00   -2.102E+00   -2.075E+00   -2.049E+00
    -2.022E+00   -1.995E+00   -1.968E+00   -1.942E+00   -1.915E+00   -1.888E+00   -1.861E+00   -1.834E+00   -1.808E+00   -1.781E+00
    -1.754E+00   -1.727E+00   -1.701E+00   -1.674E+00   -1.647E+00   -1.620E+00   -1.594E+00   -1.567E+00   -1.540E+00   -1.513E+00
    -1.487E+00   -1.460E+00   -1.433E+00   -1.407E+00   -1.380E+00   -1.353E+00   -1.326E+00   -1.300E+00   -1.273E+00   -1.246E+00
    -1.219E+00   -1.193E+00   -1.166E+00   -1.139E+00   -1.113E+00   -1.086E+00   -1.059E+00   -1.033E+00   -1.006E+00   -9.792E-01
    -9.525E-01   -9.258E-01   -8.991E-01   -8.725E-01   -8.458E-01   -8.191E-01   -7.924E-01   -7.658E-01   -7.391E-01   -7.124E-01
    -6.858E-01   -6.591E-01   -6.325E-01   -6.058E-01   -5.792E-01   -5.526E-01   -5.259E-01   -4.993E-01   -4.727E-01   -4.460E-01
    -4.194E-01   -3.928E-01   -3.662E-01   -3.396E-01   -3.130E-01   -2.864E-01   -2.598E-01   -2.332E-01   -2.066E-01   -1.800E-01
    -1.534E-01   -1.268E-01   -1.003E-01   -7.369E-02   -4.712E-02   -2.056E-02    6.000E-03    3.255E-02    5.910E-02    8.565E-02
     1.122E-01    1.387E-01    1.653E-01    1.918E-01    2.183E-01    2.448E-01    2.713E-01    2.978E-01    3.243E-01    3.508E-01
     3.773E-01    4.038E-01    4.303E-01    4.568E-01    4.833E-01    5.097E-01    5.362E-01    5.626E-01    5.891E-01    6.155E-01
     6.420E-01    6.684E-01    6.949E-01    7.213E-01    7.477E-01    7.741E-01    8.005E-01    8.269E-01    8.533E-01    8.797E-01
     9.061E-01    9.325E-01    9.589E-01    9.853E-01    1.012E+00    1.038E+00    1.064E+00    1.091E+00    1.117E+00    1.143E+00
     1.170E+00    1.196E+00    1.222E+00    1.249E+00    1.275E+00    1.301E+00    1.328E+00    1.354E+00    1.380E+00    1.406E+00
     1.433E+00    1.459E+00    1.485E+00    1.511E+00    1.538E+00    1.564E+00    1.590E+00    1.616E+00    1.643E+00    1.669E+00
     1.695E+00    1.721E+00    1.747E+00    1.774E+00    1.800E+00    1.826E+00    1.852E+00    1.878E+00    1.904E+00    1.930E+00
     1.957E+00    1.983E+00    2.009E+00    2.035E+00    2.061E+00    2.087E+00    2.113E+00    2.139E+00    2.165E+00    2.191E+00
     2.217E+00    2.244E+00    2.270E+00    2.296E+00    2.322E+00    2.348E+00    2.374E+00    2.400E+00    2.426E+00    2.452E+00
     2.478E+00    2.504E+00    2.530E+00    2.555E+00    2.581E+00    2.607E+00    2.633E+00    2.659E+00
 PCr      Conc. = 1.09E+03
