 LCModel (Version 6.3-1L) Copyright: S.W. Provencher.          Ref.: Magn. Reson. Med. 30:672-679 (1993).                
 Slice#1 Row#11 Col#1  PD_24_press_1_raw_act
 36 lines in following concentration table = NCONC+1
    Conc.  %SD /Cr+PCr  Metabolite                                         
    0.000 999%   0.000 Ala                                                 
    7.863 174%   0.195 Asp                                                 
    0.000 999%   0.000 Cr                                                  
   40.428  45%   1.000 PCr                                                 
    4.438 185%   0.110 GABA                                                
    6.829 121%   0.169 Glc                                                 
   34.567 198%   0.855 Gln                                                 
   27.709 271%   0.685 Glu                                                 
    0.000 999%   0.000 GPC                                                 
   29.243  24%   0.723 PCh                                                 
   12.229 199%   0.302 GSH                                                 
  171.408  48%   4.240 Ins                                                 
    0.000 999%   0.000 Lac                                                 
   28.906  75%   0.715 NAA                                                 
   10.590 203%   0.262 NAAG                                                
    3.800  71% 9.4E-02 Scyllo                                              
   12.726 107%   0.315 Tau                                                 
   48.693  45%   1.204 -CrCH2                                              
   29.243  24%   0.723 GPC+PCh                                             
   39.496  55%   0.977 NAA+NAAG                                            
   40.428  45%   1.000 Cr+PCr                                              
   62.276 158%   1.540 Glu+Gln                                             
  114.678 149%   2.837 Lip13a                                              
   18.673 451%   0.462 Lip13b                                              
   35.606  83%   0.881 Lip09                                               
 5.23E-03 999% 1.3E-04 MM09                                                
   20.002  83%   0.495 Lip20                                               
    0.000 999%   0.000 MM20                                                
 1.43E-03 999% 3.5E-05 MM12                                                
 1.61E-02 999% 4.0E-04 MM14                                                
 3.34E-03 999% 8.3E-05 MM17                                                
  133.351  83%   3.298 Lip13a+Lip13b                                       
  133.369  83%   3.299 MM14+Lip13a+Lip13b+MM12                             
   35.611  83%   0.881 MM09+Lip09                                          
   20.002  83%   0.495 MM20+Lip20                                          
   6 lines in following misc. output table
  FWHM = 0.054 ppm    S/N =   1                                            
  Data shift = 0.023 ppm                                                   
  Ph:-127 deg      -8.6 deg/ppm                                            
  alphaB,S = 1.4E+00,   1.8E+01                                            
   14 spline knots.   Ns = 5(1)                                            
  ( 5) 2 infls.   ( 5) 1 extrs.                                            
  498 points on ppm-axis = NY
      4.000000     3.992357     3.984714     3.977070     3.969427     3.961784     3.954141     3.946497     3.938854     3.931211
      3.923568     3.915925     3.908281     3.900638     3.892995     3.885352     3.877708     3.870065     3.862422     3.854779
      3.847136     3.839492     3.831849     3.824206     3.816563     3.808919     3.801276     3.793633     3.785990     3.778347
      3.770703     3.763060     3.755417     3.747774     3.740130     3.732487     3.724844     3.717201     3.709558     3.701914
      3.694271     3.686628     3.678985     3.671341     3.663698     3.656055     3.648412     3.640769     3.633125     3.625482
      3.617839     3.610196     3.602552     3.594909     3.587266     3.579623     3.571980     3.564336     3.556693     3.549050
      3.541407     3.533763     3.526120     3.518477     3.510834     3.503191     3.495547     3.487904     3.480261     3.472618
      3.464974     3.457331     3.449688     3.442045     3.434402     3.426758     3.419115     3.411472     3.403829     3.396185
      3.388542     3.380899     3.373256     3.365613     3.357969     3.350326     3.342683     3.335040     3.327396     3.319753
      3.312110     3.304467     3.296824     3.289180     3.281537     3.273894     3.266251     3.258607     3.250964     3.243321
      3.235678     3.228034     3.220391     3.212748     3.205105     3.197462     3.189818     3.182175     3.174532     3.166889
      3.159245     3.151602     3.143959     3.136316     3.128673     3.121029     3.113386     3.105743     3.098100     3.090456
      3.082813     3.075170     3.067527     3.059884     3.052240     3.044597     3.036954     3.029311     3.021667     3.014024
      3.006381     2.998738     2.991095     2.983451     2.975808     2.968165     2.960522     2.952878     2.945235     2.937592
      2.929949     2.922306     2.914662     2.907019     2.899376     2.891733     2.884089     2.876446     2.868803     2.861160
      2.853517     2.845873     2.838230     2.830587     2.822944     2.815300     2.807657     2.800014     2.792371     2.784728
      2.777084     2.769441     2.761798     2.754155     2.746511     2.738868     2.731225     2.723582     2.715939     2.708295
      2.700652     2.693009     2.685366     2.677722     2.670079     2.662436     2.654793     2.647150     2.639506     2.631863
      2.624220     2.616577     2.608933     2.601290     2.593647     2.586004     2.578361     2.570717     2.563074     2.555431
      2.547788     2.540144     2.532501     2.524858     2.517215     2.509572     2.501928     2.494285     2.486642     2.478999
      2.471355     2.463712     2.456069     2.448426     2.440783     2.433139     2.425496     2.417853     2.410210     2.402566
      2.394923     2.387280     2.379637     2.371994     2.364350     2.356707     2.349064     2.341421     2.333777     2.326134
      2.318491     2.310848     2.303205     2.295561     2.287918     2.280275     2.272632     2.264988     2.257345     2.249702
      2.242059     2.234416     2.226772     2.219129     2.211486     2.203843     2.196199     2.188556     2.180913     2.173270
      2.165627     2.157983     2.150340     2.142697     2.135054     2.127410     2.119767     2.112124     2.104481     2.096838
      2.089194     2.081551     2.073908     2.066265     2.058621     2.050978     2.043335     2.035692     2.028049     2.020405
      2.012762     2.005119     1.997476     1.989833     1.982190     1.974546     1.966903     1.959260     1.951617     1.943974
      1.936331     1.928688     1.921045     1.913402     1.905759     1.898115     1.890472     1.882829     1.875186     1.867543
      1.859900     1.852257     1.844614     1.836971     1.829327     1.821684     1.814041     1.806398     1.798755     1.791112
      1.783469     1.775826     1.768183     1.760540     1.752896     1.745253     1.737610     1.729967     1.722324     1.714681
      1.707038     1.699395     1.691752     1.684108     1.676465     1.668822     1.661179     1.653536     1.645893     1.638250
      1.630607     1.622964     1.615321     1.607677     1.600034     1.592391     1.584748     1.577105     1.569462     1.561819
      1.554176     1.546533     1.538890     1.531246     1.523603     1.515960     1.508317     1.500674     1.493031     1.485388
      1.477745     1.470102     1.462458     1.454815     1.447172     1.439529     1.431886     1.424243     1.416600     1.408957
      1.401314     1.393671     1.386027     1.378384     1.370741     1.363098     1.355455     1.347812     1.340169     1.332526
      1.324883     1.317240     1.309596     1.301953     1.294310     1.286667     1.279024     1.271381     1.263738     1.256095
      1.248452     1.240808     1.233165     1.225522     1.217879     1.210236     1.202593     1.194950     1.187307     1.179664
      1.172021     1.164377     1.156734     1.149091     1.141448     1.133805     1.126162     1.118519     1.110876     1.103233
      1.095590     1.087946     1.080303     1.072660     1.065017     1.057374     1.049731     1.042088     1.034445     1.026802
      1.019158     1.011515     1.003872     0.996229     0.988586     0.980943     0.973300     0.965657     0.958014     0.950371
      0.942727     0.935084     0.927441     0.919798     0.912155     0.904512     0.896869     0.889226     0.881583     0.873940
      0.866296     0.858653     0.851010     0.843367     0.835724     0.828081     0.820438     0.812795     0.805152     0.797508
      0.789865     0.782222     0.774579     0.766936     0.759293     0.751650     0.744007     0.736364     0.728721     0.721077
      0.713434     0.705791     0.698148     0.690505     0.682862     0.675219     0.667576     0.659933     0.652290     0.644646
      0.637003     0.629360     0.621717     0.614074     0.606431     0.598788     0.591145     0.583502     0.575858     0.568215
      0.560572     0.552929     0.545286     0.537643     0.530000     0.522357     0.514714     0.507071     0.499427     0.491784
      0.484141     0.476498     0.468855     0.461212     0.453569     0.445925     0.438282     0.430639     0.422996     0.415353
      0.407710     0.400067     0.392424     0.384780     0.377137     0.369494     0.361851     0.354208     0.346565     0.338922
      0.331278     0.323635     0.315992     0.308349     0.300706     0.293063     0.285420     0.277777     0.270133     0.262490
      0.254847     0.247204     0.239561     0.231918     0.224275     0.216631     0.208988     0.201345
 NY phased data points follow
  -2.10399E+01 -2.09646E+01 -1.88510E+01 -2.16932E+01 -2.00645E+01 -1.91949E+01 -2.05295E+01 -1.90818E+01 -1.97707E+01 -1.81478E+01
  -1.98663E+01 -1.98671E+01 -1.67360E+01 -1.88019E+01 -2.19485E+01 -1.93391E+01 -1.88206E+01 -1.90326E+01 -1.82261E+01 -1.98701E+01
  -2.10850E+01 -1.85993E+01 -1.89208E+01 -1.68757E+01 -1.68038E+01 -1.69074E+01 -1.78491E+01 -1.55338E+01 -1.62121E+01 -1.53910E+01
  -1.41553E+01 -1.69991E+01 -1.39701E+01 -1.47656E+01 -1.53229E+01 -1.76486E+01 -1.62216E+01 -1.68870E+01 -1.42056E+01 -1.43635E+01
  -1.62724E+01 -1.63854E+01 -1.19702E+01 -1.22555E+01 -1.24415E+01 -1.40947E+01 -1.41077E+01 -1.55490E+01 -1.36229E+01 -1.19979E+01
  -1.55238E+01 -1.18133E+01 -1.22494E+01 -1.35563E+01 -1.37076E+01 -1.22913E+01 -1.38295E+01 -1.16785E+01 -1.23872E+01 -1.53185E+01
  -1.45537E+01 -1.42221E+01 -1.30487E+01 -1.37501E+01 -1.67133E+01 -1.59524E+01 -1.21519E+01 -1.30831E+01 -1.30175E+01 -1.15274E+01
  -1.38256E+01 -1.15030E+01 -8.34449E+00 -1.10428E+01 -1.03350E+01 -1.08316E+01 -9.44046E+00 -1.06188E+01 -1.23502E+01 -9.34257E+00
  -1.10454E+01 -1.13341E+01 -1.15526E+01 -1.08030E+01 -1.09700E+01 -9.32490E+00 -1.22522E+01 -1.20838E+01 -8.82122E+00 -1.23058E+01
  -1.04233E+01 -1.09702E+01 -9.92997E+00 -1.09379E+01 -1.06273E+01 -1.04442E+01 -1.18975E+01 -1.12262E+01 -1.32517E+01 -9.55671E+00
  -8.06468E+00 -8.38182E+00 -7.10117E+00 -9.52201E+00 -8.57794E+00 -9.05909E+00 -1.23117E+01 -1.03480E+01 -1.07088E+01 -1.18205E+01
  -9.35984E+00 -1.19891E+01 -1.04803E+01 -1.18832E+01 -8.42708E+00 -9.18892E+00 -1.12659E+01 -1.02299E+01 -8.63495E+00 -1.12640E+01
  -1.02743E+01 -1.07776E+01 -1.05384E+01 -7.96670E+00 -7.89663E+00 -8.61494E+00 -8.52020E+00 -6.04622E+00 -7.73101E+00 -7.09402E+00
  -9.21879E+00 -9.38790E+00 -1.14677E+01 -9.19350E+00 -8.32820E+00 -9.44194E+00 -9.48456E+00 -7.24983E+00 -6.66267E+00 -6.72062E+00
  -9.03175E+00 -9.67850E+00 -1.00155E+01 -8.44307E+00 -8.23697E+00 -9.37211E+00 -9.80084E+00 -8.28849E+00 -8.63749E+00 -1.11541E+01
  -1.05472E+01 -7.11683E+00 -8.33624E+00 -8.73469E+00 -9.88091E+00 -6.16655E+00 -8.10199E+00 -7.40561E+00 -1.03220E+01 -9.59341E+00
  -8.89103E+00 -6.10434E+00 -5.41894E+00 -9.85587E+00 -9.15169E+00 -8.06531E+00 -6.67250E+00 -9.76540E+00 -7.54910E+00 -6.75518E+00
  -5.71565E+00 -8.17549E+00 -8.74269E+00 -9.72792E+00 -8.38643E+00 -8.66991E+00 -7.70728E+00 -9.55795E+00 -7.69943E+00 -4.91284E+00
  -6.99554E+00 -6.89709E+00 -7.17873E+00 -7.30476E+00 -6.90404E+00 -7.53796E+00 -5.19717E+00 -7.22099E+00 -7.22642E+00 -7.68750E+00
  -7.39909E+00 -5.79410E+00 -6.01558E+00 -8.59825E+00 -6.01876E+00 -7.14749E+00 -8.40889E+00 -6.90425E+00 -7.81662E+00 -6.77911E+00
  -5.29362E+00 -7.19325E+00 -5.46410E+00 -7.27013E+00 -6.67404E+00 -6.89965E+00 -8.07069E+00 -9.43357E+00 -5.95059E+00 -6.32958E+00
  -4.57273E+00 -5.85942E+00 -6.58983E+00 -9.37798E+00 -3.21985E+00 -5.79111E+00 -4.01620E+00 -8.78549E+00 -5.92880E+00 -5.59612E+00
  -6.12556E+00 -6.19213E+00 -6.20857E+00 -5.60002E+00 -5.01934E+00 -7.62708E+00 -1.58531E+00 -5.17039E+00 -6.92513E+00 -3.88071E+00
  -4.83863E+00 -4.90268E+00 -4.16804E+00 -5.57506E+00 -5.97605E+00 -5.17638E+00 -6.89607E+00 -7.17478E+00 -6.21536E+00 -4.91002E+00
  -6.41299E+00 -7.74528E+00 -4.37147E+00 -6.36435E+00 -8.82448E+00 -5.46870E+00 -3.89901E+00 -3.94911E+00 -5.09495E+00 -5.27120E+00
  -8.53770E+00 -7.38322E+00 -3.18575E+00 -4.82698E+00 -1.63776E+00 -5.06180E+00 -1.90065E+00 -2.46567E+00 -5.97947E+00 -3.03398E+00
  -4.79346E+00 -5.28881E+00 -4.98042E+00 -7.28767E+00 -5.00208E+00 -6.48578E+00 -4.13586E+00 -5.38247E+00 -4.39521E+00 -4.95468E+00
  -6.50901E+00 -3.64914E+00 -6.42036E+00 -4.19954E+00 -5.08108E+00 -3.78391E+00 -3.76805E+00 -5.39609E+00 -5.61851E+00 -6.27955E+00
  -3.92153E+00 -2.95599E+00 -2.73872E+00 -6.65618E+00 -5.59422E+00 -4.37616E+00 -5.14720E+00 -4.65943E+00 -2.30025E+00 -3.83604E+00
  -4.90260E+00 -3.87440E+00 -2.01022E+00 -3.88209E+00 -6.85004E+00 -3.91289E+00 -2.44384E+00 -4.83771E+00 -3.94792E+00 -3.72416E+00
  -3.55364E+00 -2.67392E+00 -3.37106E+00 -2.47257E+00 -4.76836E+00 -4.12470E+00 -2.48675E+00 -2.46802E+00 -1.14957E+00 -2.94990E+00
  -3.56845E+00 -3.14138E+00 -3.02593E+00 -2.01060E+00 -3.41218E+00 -2.18219E+00 -5.87516E-01 -3.08911E+00 -2.74082E+00 -1.69777E+00
  -1.09448E+00 -3.00892E+00 -1.15087E+00 -3.62254E+00 -2.95338E+00  1.56974E-01 -1.86283E+00 -3.81748E-01 -4.84795E+00 -2.80881E+00
  -3.03888E+00 -5.22776E+00 -4.25663E+00 -1.60079E+00 -4.63457E+00 -2.58558E+00 -5.48295E+00 -3.49053E+00 -6.33570E+00 -3.91684E+00
  -5.21697E+00 -3.23152E+00 -1.54246E+00 -2.18687E+00 -1.42401E+00 -1.36530E+00 -2.47590E+00 -1.55631E+00 -1.49720E+00 -9.67803E-01
  -2.99006E+00 -3.20271E+00 -1.89300E+00 -1.92624E+00 -2.22170E+00 -3.51585E+00 -3.11237E+00 -5.84795E+00 -1.32893E+00 -3.08894E+00
  -1.51404E+00 -2.65797E+00 -2.41009E+00 -1.97744E+00 -1.97662E+00 -3.49307E+00 -2.59860E+00 -2.90170E+00 -4.44061E+00 -3.07434E+00
  -2.64481E+00 -3.26313E+00 -3.18362E+00 -3.28232E+00 -1.16734E+00 -3.26650E+00 -5.04906E+00 -2.20532E+00 -1.17072E+00  8.66851E-01
  -3.00076E+00  9.55254E-02 -2.66748E+00 -1.65713E+00 -2.94196E+00 -2.32155E+00 -6.63556E-01 -1.18779E+00 -3.11815E+00 -5.49498E+00
  -3.59982E+00 -2.64946E+00 -2.30160E+00 -2.21818E+00 -4.50535E-01 -2.22276E+00 -3.14447E+00 -2.51762E+00 -1.32488E+00 -2.01200E+00
  -1.32334E+00 -3.41929E+00 -3.90967E+00 -1.74765E+00 -2.37265E+00 -2.24286E+00 -2.35379E-01  1.48548E+00 -2.78714E+00 -1.37108E+00
  -2.11907E+00 -2.77357E+00 -3.00431E-01 -2.60024E+00 -2.21022E+00 -2.73228E+00 -2.75182E+00 -1.53482E+00 -5.06238E+00 -1.78154E+00
  -4.13772E+00 -2.79058E+00 -9.03325E-01 -1.91626E+00 -4.06306E+00 -6.95289E-01 -2.65957E+00 -2.24977E+00 -3.64123E+00 -3.73282E+00
  -3.15889E+00 -4.48396E-01 -1.92509E+00 -1.14361E+00 -1.22545E+00 -3.01956E+00 -2.15537E-01 -4.68018E+00 -1.16067E+00 -1.79833E+00
  -2.49994E+00 -1.90722E+00 -1.99099E+00 -1.58013E+00 -1.32527E+00 -4.19582E+00 -3.20645E+00 -1.39062E+00 -4.92378E-01  9.45931E-01
   2.98258E-01 -2.96325E+00 -3.05347E-01  2.81504E-01 -1.44250E+00 -2.37200E+00 -1.68481E+00 -1.51049E+00  1.00348E+00 -7.00724E-01
  -2.00703E+00 -3.48684E+00 -1.71729E+00 -4.95063E-01 -2.40947E+00 -8.99685E-01 -6.51404E-01  3.80873E-01  3.99148E-01 -3.02957E+00
  -4.15444E-02 -1.17586E+00 -3.90484E-01 -7.49808E-01 -3.35284E+00 -3.83757E-02 -1.07634E+00 -1.63739E-01  4.18638E-01 -1.91521E+00
  -2.86559E+00 -1.19125E+00 -2.46026E+00 -1.62508E+00 -7.99302E-01 -1.12842E+00 -2.48983E+00 -3.36524E-01 -2.16646E+00 -2.67615E+00
  -6.40033E-01  5.59091E-01 -2.54462E+00 -7.42966E-01 -3.09342E+00 -4.25219E+00 -1.70170E+00 -1.36246E+00
 NY points of the fit to the data follow
  -1.89848E+01 -1.89324E+01 -1.88649E+01 -1.88203E+01 -1.88164E+01 -1.87961E+01 -1.87213E+01 -1.86048E+01 -1.84722E+01 -1.83319E+01
  -1.81786E+01 -1.80214E+01 -1.78859E+01 -1.77815E+01 -1.76994E+01 -1.76202E+01 -1.75284E+01 -1.74256E+01 -1.73147E+01 -1.72022E+01
  -1.70899E+01 -1.69817E+01 -1.68867E+01 -1.68079E+01 -1.67238E+01 -1.65895E+01 -1.64018E+01 -1.61926E+01 -1.59921E+01 -1.58233E+01
  -1.57020E+01 -1.56371E+01 -1.56160E+01 -1.56197E+01 -1.56486E+01 -1.56879E+01 -1.57044E+01 -1.56821E+01 -1.56289E+01 -1.55528E+01
  -1.54364E+01 -1.52191E+01 -1.48260E+01 -1.43081E+01 -1.38682E+01 -1.36686E+01 -1.37096E+01 -1.39040E+01 -1.41800E+01 -1.44906E+01
  -1.47548E+01 -1.48736E+01 -1.48150E+01 -1.46220E+01 -1.43510E+01 -1.40536E+01 -1.37749E+01 -1.35613E+01 -1.34448E+01 -1.34204E+01
  -1.34638E+01 -1.35402E+01 -1.36027E+01 -1.36158E+01 -1.35568E+01 -1.34342E+01 -1.32661E+01 -1.30707E+01 -1.28898E+01 -1.27589E+01
  -1.26764E+01 -1.26194E+01 -1.25777E+01 -1.25562E+01 -1.25522E+01 -1.25494E+01 -1.25342E+01 -1.24999E+01 -1.24503E+01 -1.23898E+01
  -1.23174E+01 -1.22361E+01 -1.21759E+01 -1.21719E+01 -1.22105E+01 -1.22424E+01 -1.22300E+01 -1.21635E+01 -1.20465E+01 -1.18848E+01
  -1.16930E+01 -1.14943E+01 -1.13290E+01 -1.12209E+01 -1.11528E+01 -1.10894E+01 -1.09936E+01 -1.08024E+01 -1.03313E+01 -9.47096E+00
  -8.57844E+00 -8.07089E+00 -8.03177E+00 -8.32280E+00 -8.82658E+00 -9.50662E+00 -1.02482E+01 -1.08285E+01 -1.11099E+01 -1.11238E+01
  -1.10103E+01 -1.08921E+01 -1.07866E+01 -1.06904E+01 -1.06009E+01 -1.05162E+01 -1.04315E+01 -1.03412E+01 -1.02414E+01 -1.01261E+01
  -9.98027E+00 -9.75232E+00 -9.35062E+00 -8.86903E+00 -8.52612E+00 -8.41859E+00 -8.49815E+00 -8.68929E+00 -8.96136E+00 -9.28439E+00
  -9.57657E+00 -9.75706E+00 -9.81000E+00 -9.77779E+00 -9.72044E+00 -9.65339E+00 -9.57194E+00 -9.47658E+00 -9.37602E+00 -9.28031E+00
  -9.19633E+00 -9.12699E+00 -9.07201E+00 -9.02875E+00 -8.99074E+00 -8.95163E+00 -8.90971E+00 -8.86606E+00 -8.82197E+00 -8.77837E+00
  -8.73480E+00 -8.68912E+00 -8.63975E+00 -8.58754E+00 -8.53505E+00 -8.48680E+00 -8.44568E+00 -8.40829E+00 -8.36922E+00 -8.32563E+00
  -8.27704E+00 -8.22629E+00 -8.17492E+00 -8.12379E+00 -8.07558E+00 -8.03300E+00 -7.99474E+00 -7.95630E+00 -7.91492E+00 -7.87213E+00
  -7.83181E+00 -7.79691E+00 -7.76404E+00 -7.72613E+00 -7.68250E+00 -7.63774E+00 -7.59631E+00 -7.55626E+00 -7.51298E+00 -7.46425E+00
  -7.41397E+00 -7.36711E+00 -7.32324E+00 -7.27486E+00 -7.21685E+00 -7.15142E+00 -7.08389E+00 -7.01989E+00 -6.96730E+00 -6.93390E+00
  -6.91942E+00 -6.92024E+00 -6.93071E+00 -6.94069E+00 -6.93058E+00 -6.88508E+00 -6.80308E+00 -6.69562E+00 -6.58037E+00 -6.47549E+00
  -6.39284E+00 -6.34347E+00 -6.33856E+00 -6.37699E+00 -6.45057E+00 -6.54770E+00 -6.62635E+00 -6.63960E+00 -6.58097E+00 -6.46888E+00
  -6.32006E+00 -6.14638E+00 -5.98506E+00 -5.88156E+00 -5.84970E+00 -5.87234E+00 -5.92625E+00 -5.99421E+00 -6.05323E+00 -6.06772E+00
  -6.02169E+00 -5.93427E+00 -5.83267E+00 -5.73555E+00 -5.65216E+00 -5.59460E+00 -5.57430E+00 -5.58335E+00 -5.59522E+00 -5.58922E+00
  -5.56653E+00 -5.53992E+00 -5.50207E+00 -5.44100E+00 -5.36960E+00 -5.30895E+00 -5.26447E+00 -5.23861E+00 -5.23899E+00 -5.25793E+00
  -5.27469E+00 -5.27413E+00 -5.25266E+00 -5.20961E+00 -5.14770E+00 -5.07221E+00 -4.98948E+00 -4.90500E+00 -4.82032E+00 -4.73075E+00
  -4.61984E+00 -4.47149E+00 -4.32084E+00 -4.21296E+00 -4.12936E+00 -3.98128E+00 -3.78549E+00 -3.68784E+00 -3.75998E+00 -3.94403E+00
  -4.16328E+00 -4.39663E+00 -4.64301E+00 -4.86023E+00 -4.98688E+00 -5.01012E+00 -4.96483E+00 -4.90239E+00 -4.84425E+00 -4.78789E+00
  -4.73294E+00 -4.68106E+00 -4.63401E+00 -4.59321E+00 -4.55887E+00 -4.53002E+00 -4.50508E+00 -4.48137E+00 -4.45615E+00 -4.42810E+00
  -4.39749E+00 -4.36519E+00 -4.33231E+00 -4.29999E+00 -4.26886E+00 -4.23907E+00 -4.21044E+00 -4.18220E+00 -4.15383E+00 -4.12551E+00
  -4.09753E+00 -4.06992E+00 -4.04268E+00 -4.01605E+00 -3.99027E+00 -3.96490E+00 -3.93926E+00 -3.91300E+00 -3.88617E+00 -3.85904E+00
  -3.83179E+00 -3.80451E+00 -3.77741E+00 -3.75066E+00 -3.72424E+00 -3.69805E+00 -3.67193E+00 -3.64582E+00 -3.61968E+00 -3.59353E+00
  -3.56734E+00 -3.54112E+00 -3.51485E+00 -3.48850E+00 -3.46206E+00 -3.43550E+00 -3.40880E+00 -3.38195E+00 -3.35492E+00 -3.32769E+00
  -3.30023E+00 -3.27251E+00 -3.24450E+00 -3.21616E+00 -3.18746E+00 -3.15837E+00 -3.12884E+00 -3.09885E+00 -3.06836E+00 -3.03733E+00
  -3.00575E+00 -2.97359E+00 -2.94084E+00 -2.90749E+00 -2.87356E+00 -2.83907E+00 -2.80404E+00 -2.76850E+00 -2.73250E+00 -2.69609E+00
  -2.65930E+00 -2.62218E+00 -2.58480E+00 -2.54725E+00 -2.50972E+00 -2.47251E+00 -2.43614E+00 -2.40137E+00 -2.36924E+00 -2.34108E+00
  -2.31840E+00 -2.30277E+00 -2.29558E+00 -2.29781E+00 -2.30980E+00 -2.33111E+00 -2.36051E+00 -2.39606E+00 -2.43535E+00 -2.47581E+00
  -2.51501E+00 -2.55092E+00 -2.58212E+00 -2.60780E+00 -2.62771E+00 -2.64207E+00 -2.65138E+00 -2.65626E+00 -2.65736E+00 -2.65526E+00
  -2.65046E+00 -2.64332E+00 -2.63414E+00 -2.62313E+00 -2.61047E+00 -2.59631E+00 -2.58078E+00 -2.56399E+00 -2.54607E+00 -2.52713E+00
  -2.50729E+00 -2.48663E+00 -2.46525E+00 -2.44326E+00 -2.42072E+00 -2.39775E+00 -2.37441E+00 -2.35081E+00 -2.32704E+00 -2.30322E+00
  -2.27947E+00 -2.25593E+00 -2.23277E+00 -2.21013E+00 -2.18822E+00 -2.16721E+00 -2.14731E+00 -2.12871E+00 -2.11158E+00 -2.09608E+00
  -2.08234E+00 -2.07047E+00 -2.06050E+00 -2.05243E+00 -2.04622E+00 -2.04174E+00 -2.03884E+00 -2.03731E+00 -2.03692E+00 -2.03736E+00
  -2.03836E+00 -2.03962E+00 -2.04083E+00 -2.04173E+00 -2.04207E+00 -2.04163E+00 -2.04024E+00 -2.03778E+00 -2.03417E+00 -2.02935E+00
  -2.02333E+00 -2.01614E+00 -2.00784E+00 -1.99851E+00 -1.98825E+00 -1.97715E+00 -1.96532E+00 -1.95287E+00 -1.93991E+00 -1.92653E+00
  -1.91281E+00 -1.89883E+00 -1.88466E+00 -1.87036E+00 -1.85597E+00 -1.84154E+00 -1.82710E+00 -1.81267E+00 -1.79828E+00 -1.78394E+00
  -1.76967E+00 -1.75547E+00 -1.74135E+00 -1.72732E+00 -1.71337E+00 -1.69951E+00 -1.68575E+00 -1.67208E+00 -1.65850E+00 -1.64501E+00
  -1.63161E+00 -1.61830E+00 -1.60508E+00 -1.59194E+00 -1.57889E+00 -1.56592E+00 -1.55303E+00 -1.54022E+00 -1.52749E+00 -1.51483E+00
  -1.50225E+00 -1.48975E+00 -1.47731E+00 -1.46495E+00 -1.45265E+00 -1.44042E+00 -1.42826E+00 -1.41617E+00 -1.40414E+00 -1.39217E+00
  -1.38026E+00 -1.36841E+00 -1.35662E+00 -1.34488E+00 -1.33320E+00 -1.32158E+00 -1.31001E+00 -1.29849E+00 -1.28702E+00 -1.27560E+00
  -1.26423E+00 -1.25291E+00 -1.24162E+00 -1.23038E+00 -1.21918E+00 -1.20802E+00 -1.19690E+00 -1.18580E+00 -1.17474E+00 -1.16371E+00
  -1.15271E+00 -1.14172E+00 -1.13076E+00 -1.11981E+00 -1.10887E+00 -1.09793E+00 -1.08699E+00 -1.07604E+00
 NY background values follow
    -1.913E+01   -1.904E+01   -1.895E+01   -1.887E+01   -1.878E+01   -1.869E+01   -1.861E+01   -1.852E+01   -1.843E+01   -1.835E+01
    -1.826E+01   -1.817E+01   -1.808E+01   -1.800E+01   -1.791E+01   -1.782E+01   -1.774E+01   -1.765E+01   -1.757E+01   -1.748E+01
    -1.739E+01   -1.731E+01   -1.722E+01   -1.713E+01   -1.705E+01   -1.696E+01   -1.688E+01   -1.679E+01   -1.671E+01   -1.662E+01
    -1.654E+01   -1.645E+01   -1.637E+01   -1.628E+01   -1.620E+01   -1.611E+01   -1.603E+01   -1.595E+01   -1.586E+01   -1.578E+01
    -1.570E+01   -1.561E+01   -1.553E+01   -1.545E+01   -1.537E+01   -1.528E+01   -1.520E+01   -1.512E+01   -1.504E+01   -1.496E+01
    -1.488E+01   -1.480E+01   -1.472E+01   -1.464E+01   -1.456E+01   -1.448E+01   -1.440E+01   -1.432E+01   -1.424E+01   -1.417E+01
    -1.409E+01   -1.401E+01   -1.393E+01   -1.386E+01   -1.378E+01   -1.370E+01   -1.363E+01   -1.355E+01   -1.348E+01   -1.340E+01
    -1.333E+01   -1.325E+01   -1.318E+01   -1.310E+01   -1.303E+01   -1.296E+01   -1.289E+01   -1.281E+01   -1.274E+01   -1.267E+01
    -1.260E+01   -1.253E+01   -1.246E+01   -1.239E+01   -1.232E+01   -1.225E+01   -1.218E+01   -1.211E+01   -1.204E+01   -1.198E+01
    -1.191E+01   -1.184E+01   -1.178E+01   -1.171E+01   -1.164E+01   -1.158E+01   -1.151E+01   -1.145E+01   -1.138E+01   -1.132E+01
    -1.126E+01   -1.119E+01   -1.113E+01   -1.107E+01   -1.101E+01   -1.095E+01   -1.089E+01   -1.083E+01   -1.077E+01   -1.071E+01
    -1.065E+01   -1.059E+01   -1.053E+01   -1.047E+01   -1.041E+01   -1.035E+01   -1.030E+01   -1.024E+01   -1.018E+01   -1.013E+01
    -1.007E+01   -1.002E+01   -9.961E+00   -9.906E+00   -9.851E+00   -9.797E+00   -9.744E+00   -9.690E+00   -9.637E+00   -9.585E+00
    -9.532E+00   -9.481E+00   -9.429E+00   -9.378E+00   -9.327E+00   -9.276E+00   -9.226E+00   -9.176E+00   -9.126E+00   -9.077E+00
    -9.028E+00   -8.980E+00   -8.931E+00   -8.884E+00   -8.836E+00   -8.789E+00   -8.742E+00   -8.695E+00   -8.648E+00   -8.602E+00
    -8.557E+00   -8.511E+00   -8.466E+00   -8.421E+00   -8.376E+00   -8.332E+00   -8.288E+00   -8.244E+00   -8.201E+00   -8.158E+00
    -8.115E+00   -8.072E+00   -8.030E+00   -7.987E+00   -7.946E+00   -7.904E+00   -7.863E+00   -7.822E+00   -7.781E+00   -7.740E+00
    -7.700E+00   -7.660E+00   -7.620E+00   -7.580E+00   -7.541E+00   -7.502E+00   -7.463E+00   -7.424E+00   -7.386E+00   -7.347E+00
    -7.309E+00   -7.272E+00   -7.234E+00   -7.197E+00   -7.160E+00   -7.123E+00   -7.086E+00   -7.049E+00   -7.013E+00   -6.977E+00
    -6.941E+00   -6.905E+00   -6.870E+00   -6.834E+00   -6.799E+00   -6.764E+00   -6.730E+00   -6.695E+00   -6.661E+00   -6.626E+00
    -6.592E+00   -6.558E+00   -6.525E+00   -6.491E+00   -6.458E+00   -6.425E+00   -6.392E+00   -6.359E+00   -6.326E+00   -6.294E+00
    -6.261E+00   -6.229E+00   -6.197E+00   -6.165E+00   -6.133E+00   -6.102E+00   -6.070E+00   -6.039E+00   -6.008E+00   -5.977E+00
    -5.946E+00   -5.915E+00   -5.884E+00   -5.854E+00   -5.823E+00   -5.793E+00   -5.763E+00   -5.733E+00   -5.703E+00   -5.673E+00
    -5.643E+00   -5.614E+00   -5.584E+00   -5.555E+00   -5.526E+00   -5.497E+00   -5.468E+00   -5.439E+00   -5.410E+00   -5.382E+00
    -5.353E+00   -5.325E+00   -5.297E+00   -5.268E+00   -5.240E+00   -5.212E+00   -5.185E+00   -5.157E+00   -5.129E+00   -5.102E+00
    -5.074E+00   -5.047E+00   -5.020E+00   -4.993E+00   -4.966E+00   -4.939E+00   -4.912E+00   -4.886E+00   -4.859E+00   -4.833E+00
    -4.806E+00   -4.780E+00   -4.754E+00   -4.728E+00   -4.702E+00   -4.676E+00   -4.650E+00   -4.625E+00   -4.599E+00   -4.574E+00
    -4.548E+00   -4.523E+00   -4.498E+00   -4.473E+00   -4.448E+00   -4.423E+00   -4.398E+00   -4.374E+00   -4.349E+00   -4.324E+00
    -4.300E+00   -4.276E+00   -4.252E+00   -4.227E+00   -4.203E+00   -4.180E+00   -4.156E+00   -4.132E+00   -4.109E+00   -4.085E+00
    -4.062E+00   -4.038E+00   -4.015E+00   -3.992E+00   -3.969E+00   -3.946E+00   -3.924E+00   -3.901E+00   -3.879E+00   -3.856E+00
    -3.834E+00   -3.812E+00   -3.790E+00   -3.768E+00   -3.746E+00   -3.724E+00   -3.702E+00   -3.681E+00   -3.659E+00   -3.638E+00
    -3.617E+00   -3.596E+00   -3.575E+00   -3.554E+00   -3.533E+00   -3.513E+00   -3.492E+00   -3.472E+00   -3.452E+00   -3.431E+00
    -3.411E+00   -3.391E+00   -3.372E+00   -3.352E+00   -3.332E+00   -3.313E+00   -3.293E+00   -3.274E+00   -3.255E+00   -3.236E+00
    -3.217E+00   -3.198E+00   -3.179E+00   -3.161E+00   -3.142E+00   -3.124E+00   -3.105E+00   -3.087E+00   -3.069E+00   -3.051E+00
    -3.033E+00   -3.015E+00   -2.997E+00   -2.979E+00   -2.961E+00   -2.944E+00   -2.926E+00   -2.909E+00   -2.892E+00   -2.874E+00
    -2.857E+00   -2.840E+00   -2.823E+00   -2.806E+00   -2.789E+00   -2.773E+00   -2.756E+00   -2.739E+00   -2.723E+00   -2.706E+00
    -2.690E+00   -2.673E+00   -2.657E+00   -2.641E+00   -2.625E+00   -2.609E+00   -2.593E+00   -2.577E+00   -2.561E+00   -2.545E+00
    -2.530E+00   -2.514E+00   -2.498E+00   -2.483E+00   -2.467E+00   -2.452E+00   -2.437E+00   -2.421E+00   -2.406E+00   -2.391E+00
    -2.376E+00   -2.361E+00   -2.346E+00   -2.331E+00   -2.316E+00   -2.301E+00   -2.287E+00   -2.272E+00   -2.257E+00   -2.243E+00
    -2.228E+00   -2.214E+00   -2.200E+00   -2.185E+00   -2.171E+00   -2.157E+00   -2.143E+00   -2.128E+00   -2.114E+00   -2.100E+00
    -2.087E+00   -2.073E+00   -2.059E+00   -2.045E+00   -2.031E+00   -2.018E+00   -2.004E+00   -1.990E+00   -1.977E+00   -1.964E+00
    -1.950E+00   -1.937E+00   -1.923E+00   -1.910E+00   -1.897E+00   -1.884E+00   -1.871E+00   -1.858E+00   -1.845E+00   -1.832E+00
    -1.819E+00   -1.806E+00   -1.793E+00   -1.780E+00   -1.768E+00   -1.755E+00   -1.742E+00   -1.730E+00   -1.717E+00   -1.705E+00
    -1.692E+00   -1.680E+00   -1.668E+00   -1.656E+00   -1.643E+00   -1.631E+00   -1.619E+00   -1.607E+00   -1.595E+00   -1.583E+00
    -1.571E+00   -1.559E+00   -1.547E+00   -1.536E+00   -1.524E+00   -1.512E+00   -1.501E+00   -1.489E+00   -1.477E+00   -1.466E+00
    -1.454E+00   -1.443E+00   -1.432E+00   -1.420E+00   -1.409E+00   -1.398E+00   -1.387E+00   -1.376E+00   -1.364E+00   -1.353E+00
    -1.342E+00   -1.332E+00   -1.321E+00   -1.310E+00   -1.299E+00   -1.288E+00   -1.277E+00   -1.267E+00   -1.256E+00   -1.246E+00
    -1.235E+00   -1.225E+00   -1.214E+00   -1.204E+00   -1.193E+00   -1.183E+00   -1.173E+00   -1.163E+00   -1.152E+00   -1.142E+00
    -1.132E+00   -1.122E+00   -1.112E+00   -1.102E+00   -1.092E+00   -1.082E+00   -1.072E+00   -1.063E+00   -1.053E+00   -1.043E+00
    -1.034E+00   -1.024E+00   -1.014E+00   -1.005E+00   -9.953E-01   -9.859E-01   -9.765E-01   -9.671E-01
 Asp      Conc. = 7.86E+00
