 LCModel (Version 6.3-1L) Copyright: S.W. Provencher.          Ref.: Magn. Reson. Med. 30:672-679 (1993).                
 Slice#3 Row#5 Col#12  PD_24_press_1_raw_act
 36 lines in following concentration table = NCONC+1
    Conc.  %SD /Cr+PCr  Metabolite                                         
   59.839 121%   0.835 Ala                                                 
   21.709  77%   0.303 Asp                                                 
   71.644  46%   1.000 Cr                                                  
    0.000 999%   0.000 PCr                                                 
   12.041  84%   0.168 GABA                                                
   11.769  86%   0.164 Glc                                                 
  230.675  60%   3.220 Gln                                                 
    0.000 999%   0.000 Glu                                                 
    0.000 999%   0.000 GPC                                                 
   35.843  34%   0.500 PCh                                                 
   94.855  49%   1.324 GSH                                                 
    0.000 999%   0.000 Ins                                                 
  381.085  27%   5.319 Lac                                                 
  196.633  24%   2.745 NAA                                                 
   39.699 116%   0.554 NAAG                                                
    4.992  67% 7.0E-02 Scyllo                                              
   21.499  78%   0.300 Tau                                                 
    8.833 174%   0.123 -CrCH2                                              
   35.843  34%   0.500 GPC+PCh                                             
  236.332  21%   3.299 NAA+NAAG                                            
   71.644  46%   1.000 Cr+PCr                                              
  230.675  60%   3.220 Glu+Gln                                             
    0.000 999%   0.000 Lip13a                                              
 1.39E+05   3% 1.9E+03 Lip13b                                              
 2.82E+03  32%  39.343 Lip09                                               
 2.72E+03  21%  37.944 MM09                                                
  752.006  76%  10.496 Lip20                                               
 3.06E+03  21%  42.654 MM20                                                
  757.558  74%  10.574 MM12                                                
 4.47E+03  30%  62.377 MM14                                                
 2.08E+03  36%  29.077 MM17                                                
 1.39E+05   3% 1.9E+03 Lip13a+Lip13b                                       
 1.45E+05   3% 2.0E+03 MM14+Lip13a+Lip13b+MM12                             
 5.54E+03  19%  77.287 MM09+Lip09                                          
 3.81E+03  13%  53.150 MM20+Lip20                                          
   6 lines in following misc. output table
  FWHM = 0.061 ppm    S/N =  71                                            
  Data shift =-0.069 ppm                                                   
  Ph:-179 deg     -73.7 deg/ppm                                            
  alphaB,S = 1.0E+00,   6.8E+00                                            
   14 spline knots.   Ns = 5(1)                                            
  ( 4) 2 infls.   ( 1) 1 extrs.                                            
  498 points on ppm-axis = NY
      4.000000     3.992357     3.984714     3.977070     3.969427     3.961784     3.954141     3.946497     3.938854     3.931211
      3.923568     3.915925     3.908281     3.900638     3.892995     3.885352     3.877708     3.870065     3.862422     3.854779
      3.847136     3.839492     3.831849     3.824206     3.816563     3.808919     3.801276     3.793633     3.785990     3.778347
      3.770703     3.763060     3.755417     3.747774     3.740130     3.732487     3.724844     3.717201     3.709558     3.701914
      3.694271     3.686628     3.678985     3.671341     3.663698     3.656055     3.648412     3.640769     3.633125     3.625482
      3.617839     3.610196     3.602552     3.594909     3.587266     3.579623     3.571980     3.564336     3.556693     3.549050
      3.541407     3.533763     3.526120     3.518477     3.510834     3.503191     3.495547     3.487904     3.480261     3.472618
      3.464974     3.457331     3.449688     3.442045     3.434402     3.426758     3.419115     3.411472     3.403829     3.396185
      3.388542     3.380899     3.373256     3.365613     3.357969     3.350326     3.342683     3.335040     3.327396     3.319753
      3.312110     3.304467     3.296824     3.289180     3.281537     3.273894     3.266251     3.258607     3.250964     3.243321
      3.235678     3.228034     3.220391     3.212748     3.205105     3.197462     3.189818     3.182175     3.174532     3.166889
      3.159245     3.151602     3.143959     3.136316     3.128673     3.121029     3.113386     3.105743     3.098100     3.090456
      3.082813     3.075170     3.067527     3.059884     3.052240     3.044597     3.036954     3.029311     3.021667     3.014024
      3.006381     2.998738     2.991095     2.983451     2.975808     2.968165     2.960522     2.952878     2.945235     2.937592
      2.929949     2.922306     2.914662     2.907019     2.899376     2.891733     2.884089     2.876446     2.868803     2.861160
      2.853517     2.845873     2.838230     2.830587     2.822944     2.815300     2.807657     2.800014     2.792371     2.784728
      2.777084     2.769441     2.761798     2.754155     2.746511     2.738868     2.731225     2.723582     2.715939     2.708295
      2.700652     2.693009     2.685366     2.677722     2.670079     2.662436     2.654793     2.647150     2.639506     2.631863
      2.624220     2.616577     2.608933     2.601290     2.593647     2.586004     2.578361     2.570717     2.563074     2.555431
      2.547788     2.540144     2.532501     2.524858     2.517215     2.509572     2.501928     2.494285     2.486642     2.478999
      2.471355     2.463712     2.456069     2.448426     2.440783     2.433139     2.425496     2.417853     2.410210     2.402566
      2.394923     2.387280     2.379637     2.371994     2.364350     2.356707     2.349064     2.341421     2.333777     2.326134
      2.318491     2.310848     2.303205     2.295561     2.287918     2.280275     2.272632     2.264988     2.257345     2.249702
      2.242059     2.234416     2.226772     2.219129     2.211486     2.203843     2.196199     2.188556     2.180913     2.173270
      2.165627     2.157983     2.150340     2.142697     2.135054     2.127410     2.119767     2.112124     2.104481     2.096838
      2.089194     2.081551     2.073908     2.066265     2.058621     2.050978     2.043335     2.035692     2.028049     2.020405
      2.012762     2.005119     1.997476     1.989833     1.982190     1.974546     1.966903     1.959260     1.951617     1.943974
      1.936331     1.928688     1.921045     1.913402     1.905759     1.898115     1.890472     1.882829     1.875186     1.867543
      1.859900     1.852257     1.844614     1.836971     1.829327     1.821684     1.814041     1.806398     1.798755     1.791112
      1.783469     1.775826     1.768183     1.760540     1.752896     1.745253     1.737610     1.729967     1.722324     1.714681
      1.707038     1.699395     1.691752     1.684108     1.676465     1.668822     1.661179     1.653536     1.645893     1.638250
      1.630607     1.622964     1.615321     1.607677     1.600034     1.592391     1.584748     1.577105     1.569462     1.561819
      1.554176     1.546533     1.538890     1.531246     1.523603     1.515960     1.508317     1.500674     1.493031     1.485388
      1.477745     1.470102     1.462458     1.454815     1.447172     1.439529     1.431886     1.424243     1.416600     1.408957
      1.401314     1.393671     1.386027     1.378384     1.370741     1.363098     1.355455     1.347812     1.340169     1.332526
      1.324883     1.317240     1.309596     1.301953     1.294310     1.286667     1.279024     1.271381     1.263738     1.256095
      1.248452     1.240808     1.233165     1.225522     1.217879     1.210236     1.202593     1.194950     1.187307     1.179664
      1.172021     1.164377     1.156734     1.149091     1.141448     1.133805     1.126162     1.118519     1.110876     1.103233
      1.095590     1.087946     1.080303     1.072660     1.065017     1.057374     1.049731     1.042088     1.034445     1.026802
      1.019158     1.011515     1.003872     0.996229     0.988586     0.980943     0.973300     0.965657     0.958014     0.950371
      0.942727     0.935084     0.927441     0.919798     0.912155     0.904512     0.896869     0.889226     0.881583     0.873940
      0.866296     0.858653     0.851010     0.843367     0.835724     0.828081     0.820438     0.812795     0.805152     0.797508
      0.789865     0.782222     0.774579     0.766936     0.759293     0.751650     0.744007     0.736364     0.728721     0.721077
      0.713434     0.705791     0.698148     0.690505     0.682862     0.675219     0.667576     0.659933     0.652290     0.644646
      0.637003     0.629360     0.621717     0.614074     0.606431     0.598788     0.591145     0.583502     0.575858     0.568215
      0.560572     0.552929     0.545286     0.537643     0.530000     0.522357     0.514714     0.507071     0.499427     0.491784
      0.484141     0.476498     0.468855     0.461212     0.453569     0.445925     0.438282     0.430639     0.422996     0.415353
      0.407710     0.400067     0.392424     0.384780     0.377137     0.369494     0.361851     0.354208     0.346565     0.338922
      0.331278     0.323635     0.315992     0.308349     0.300706     0.293063     0.285420     0.277777     0.270133     0.262490
      0.254847     0.247204     0.239561     0.231918     0.224275     0.216631     0.208988     0.201345
 NY phased data points follow
   3.39619E+01  3.51422E+01  3.69340E+01  3.70137E+01  3.42186E+01  3.74750E+01  3.37969E+01  3.78586E+01  3.58367E+01  3.74481E+01
   3.49592E+01  3.84271E+01  3.64882E+01  3.95717E+01  3.78044E+01  4.26975E+01  4.21297E+01  4.28053E+01  4.34247E+01  4.47289E+01
   4.17186E+01  4.67518E+01  4.50213E+01  4.21145E+01  4.05327E+01  4.11690E+01  4.44763E+01  4.68787E+01  4.12841E+01  4.76737E+01
   4.67172E+01  4.53852E+01  4.80194E+01  5.15931E+01  4.87875E+01  5.08958E+01  5.11879E+01  5.03867E+01  4.49164E+01  5.22890E+01
   5.14507E+01  5.19508E+01  5.15700E+01  5.24519E+01  4.90812E+01  5.21193E+01  5.30936E+01  5.44260E+01  4.85812E+01  5.66996E+01
   5.46840E+01  5.46595E+01  5.25802E+01  5.68533E+01  5.68886E+01  5.91152E+01  5.67157E+01  6.04456E+01  5.75141E+01  6.06459E+01
   5.86125E+01  5.69954E+01  5.89635E+01  6.21157E+01  6.23938E+01  6.24288E+01  6.18918E+01  6.26482E+01  6.31715E+01  6.34159E+01
   5.72753E+01  6.34141E+01  6.10284E+01  6.81212E+01  6.54068E+01  6.68034E+01  6.32879E+01  6.60420E+01  6.65952E+01  7.05105E+01
   6.64765E+01  6.72563E+01  6.81033E+01  6.93405E+01  6.97770E+01  7.44807E+01  7.26487E+01  7.46484E+01  7.01138E+01  7.51435E+01
   7.39546E+01  7.56900E+01  7.33123E+01  7.23131E+01  7.34080E+01  7.68897E+01  7.66351E+01  8.16855E+01  8.07502E+01  7.84810E+01
   7.89886E+01  7.73546E+01  8.12134E+01  8.12712E+01  7.83253E+01  8.07890E+01  7.83793E+01  7.97805E+01  8.49990E+01  8.64761E+01
   8.79840E+01  8.84444E+01  8.97543E+01  8.57572E+01  8.41953E+01  8.58674E+01  8.71536E+01  8.59933E+01  8.59099E+01  8.60478E+01
   8.46451E+01  8.46365E+01  8.99359E+01  9.06331E+01  8.95117E+01  9.30802E+01  9.19221E+01  9.09146E+01  8.82399E+01  9.37614E+01
   9.17883E+01  9.64034E+01  9.52632E+01  9.48891E+01  1.00599E+02  9.92502E+01  9.80301E+01  9.91491E+01  9.42421E+01  9.81994E+01
   9.47393E+01  9.83241E+01  9.70089E+01  9.47039E+01  9.57569E+01  9.60275E+01  9.75437E+01  9.80429E+01  9.88358E+01  9.88066E+01
   1.01713E+02  9.96591E+01  9.64883E+01  9.84994E+01  1.02280E+02  1.02331E+02  1.01065E+02  1.03968E+02  1.02336E+02  1.06946E+02
   1.04293E+02  1.02122E+02  1.07233E+02  1.03664E+02  1.06489E+02  1.08946E+02  1.07970E+02  1.10577E+02  1.10761E+02  1.07279E+02
   1.06211E+02  1.12352E+02  1.12259E+02  1.12714E+02  1.09366E+02  1.12787E+02  1.11633E+02  1.13365E+02  1.13332E+02  1.16187E+02
   1.12378E+02  1.17345E+02  1.15862E+02  1.15414E+02  1.16108E+02  1.19664E+02  1.18507E+02  1.18824E+02  1.22018E+02  1.23588E+02
   1.21339E+02  1.24573E+02  1.25027E+02  1.27311E+02  1.28033E+02  1.26451E+02  1.29589E+02  1.29483E+02  1.32186E+02  1.31412E+02
   1.30125E+02  1.35094E+02  1.36067E+02  1.34987E+02  1.38958E+02  1.37237E+02  1.38897E+02  1.41949E+02  1.42719E+02  1.43934E+02
   1.42490E+02  1.48243E+02  1.45245E+02  1.50883E+02  1.46972E+02  1.53714E+02  1.54549E+02  1.54861E+02  1.55319E+02  1.58453E+02
   1.57889E+02  1.61911E+02  1.62978E+02  1.63513E+02  1.65528E+02  1.67480E+02  1.67985E+02  1.67532E+02  1.70757E+02  1.72352E+02
   1.72383E+02  1.71109E+02  1.71926E+02  1.72306E+02  1.72656E+02  1.75730E+02  1.75288E+02  1.75345E+02  1.76654E+02  1.78949E+02
   1.82511E+02  1.81323E+02  1.82210E+02  1.83086E+02  1.81677E+02  1.86220E+02  1.86813E+02  1.86026E+02  1.87203E+02  1.94322E+02
   1.88838E+02  1.93096E+02  1.97491E+02  1.99552E+02  2.00118E+02  2.03288E+02  1.99958E+02  1.95372E+02  2.02968E+02  2.06326E+02
   2.07583E+02  2.10443E+02  2.05878E+02  2.05816E+02  2.08426E+02  2.10224E+02  2.11924E+02  2.15601E+02  2.12653E+02  2.20339E+02
   2.14420E+02  2.14841E+02  2.12113E+02  2.11801E+02  2.08556E+02  2.12425E+02  2.11403E+02  2.05959E+02  2.08299E+02  2.09333E+02
   2.13208E+02  2.09145E+02  2.11941E+02  2.14401E+02  2.15762E+02  2.15982E+02  2.18543E+02  2.18703E+02  2.18358E+02  2.22075E+02
   2.22874E+02  2.25992E+02  2.27461E+02  2.31403E+02  2.29622E+02  2.33335E+02  2.35668E+02  2.38132E+02  2.40316E+02  2.42876E+02
   2.44760E+02  2.45760E+02  2.48977E+02  2.53648E+02  2.56201E+02  2.61319E+02  2.62421E+02  2.65451E+02  2.68254E+02  2.72068E+02
   2.75256E+02  2.80232E+02  2.82947E+02  2.88580E+02  2.91584E+02  2.93513E+02  2.97906E+02  3.02989E+02  3.06749E+02  3.12181E+02
   3.19399E+02  3.26060E+02  3.27646E+02  3.36211E+02  3.40059E+02  3.48517E+02  3.52697E+02  3.59194E+02  3.64233E+02  3.73283E+02
   3.78723E+02  3.87979E+02  3.97050E+02  4.01214E+02  4.14003E+02  4.19069E+02  4.31925E+02  4.38240E+02  4.52112E+02  4.57256E+02
   4.70202E+02  4.81248E+02  4.92953E+02  5.04482E+02  5.15577E+02  5.27781E+02  5.36561E+02  5.44163E+02  5.55133E+02  5.60388E+02
   5.63176E+02  5.69099E+02  5.71142E+02  5.74985E+02  5.71535E+02  5.74761E+02  5.74043E+02  5.75281E+02  5.72052E+02  5.64671E+02
   5.62847E+02  5.52934E+02  5.45798E+02  5.35344E+02  5.25002E+02  5.11219E+02  5.00235E+02  4.87803E+02  4.75964E+02  4.59918E+02
   4.50058E+02  4.37216E+02  4.28870E+02  4.14470E+02  4.05129E+02  3.97389E+02  3.84310E+02  3.77985E+02  3.71378E+02  3.60348E+02
   3.59651E+02  3.47940E+02  3.40786E+02  3.32490E+02  3.26055E+02  3.18900E+02  3.12566E+02  3.12767E+02  3.03057E+02  3.01912E+02
   2.92918E+02  2.89430E+02  2.83850E+02  2.77269E+02  2.76856E+02  2.68873E+02  2.66784E+02  2.62547E+02  2.61042E+02  2.54657E+02
   2.50236E+02  2.45307E+02  2.43356E+02  2.41128E+02  2.32706E+02  2.35307E+02  2.31938E+02  2.27601E+02  2.21045E+02  2.18939E+02
   2.16540E+02  2.15579E+02  2.12435E+02  2.11317E+02  2.10574E+02  2.06407E+02  2.01214E+02  2.01737E+02  1.99548E+02  1.97043E+02
   1.95658E+02  1.89827E+02  1.88975E+02  1.87188E+02  1.85918E+02  1.84671E+02  1.80697E+02  1.80613E+02  1.78916E+02  1.73693E+02
   1.76727E+02  1.71345E+02  1.70551E+02  1.68611E+02  1.68712E+02  1.64522E+02  1.63635E+02  1.62551E+02  1.59236E+02  1.59981E+02
   1.56851E+02  1.55165E+02  1.55217E+02  1.56277E+02  1.52842E+02  1.47522E+02  1.49647E+02  1.48098E+02  1.45168E+02  1.47361E+02
   1.43049E+02  1.40711E+02  1.44001E+02  1.39258E+02  1.36617E+02  1.39143E+02  1.38887E+02  1.35396E+02  1.34968E+02  1.34408E+02
   1.31570E+02  1.32758E+02  1.30032E+02  1.29823E+02  1.30077E+02  1.26210E+02  1.27903E+02  1.26262E+02  1.24876E+02  1.20533E+02
   1.21681E+02  1.20537E+02  1.23481E+02  1.22199E+02  1.23434E+02  1.14958E+02  1.18939E+02  1.16564E+02  1.15174E+02  1.10706E+02
   1.16366E+02  1.13153E+02  1.15191E+02  1.12814E+02  1.10228E+02  1.12033E+02  1.09524E+02  1.07227E+02  1.07882E+02  1.04557E+02
   1.05605E+02  1.05890E+02  1.05294E+02  1.01836E+02  1.04961E+02  1.02457E+02  1.01592E+02  1.02300E+02
 NY points of the fit to the data follow
   3.45794E+01  3.47771E+01  3.48496E+01  3.48495E+01  3.52002E+01  3.57886E+01  3.61109E+01  3.61818E+01  3.64920E+01  3.72794E+01
   3.80984E+01  3.86793E+01  3.91267E+01  3.95097E+01  3.99051E+01  4.06476E+01  4.17806E+01  4.24948E+01  4.21263E+01  4.19483E+01
   4.21614E+01  4.25478E+01  4.29847E+01  4.32831E+01  4.34450E+01  4.33943E+01  4.33878E+01  4.39888E+01  4.50894E+01  4.60964E+01
   4.67379E+01  4.70487E+01  4.75312E+01  4.83301E+01  4.95737E+01  5.11046E+01  5.15065E+01  5.09753E+01  5.04837E+01  5.03316E+01
   5.03741E+01  5.05236E+01  5.09434E+01  5.16429E+01  5.23176E+01  5.27016E+01  5.30372E+01  5.34475E+01  5.38351E+01  5.42054E+01
   5.46206E+01  5.50482E+01  5.55109E+01  5.59917E+01  5.64433E+01  5.68879E+01  5.73373E+01  5.77906E+01  5.82901E+01  5.87810E+01
   5.92353E+01  5.96876E+01  6.01389E+01  6.06042E+01  6.10869E+01  6.15702E+01  6.20553E+01  6.25312E+01  6.29972E+01  6.34694E+01
   6.39450E+01  6.44079E+01  6.48796E+01  6.53792E+01  6.58932E+01  6.63613E+01  6.68291E+01  6.73066E+01  6.77621E+01  6.82396E+01
   6.87668E+01  6.92082E+01  6.95513E+01  6.99988E+01  7.05300E+01  7.10353E+01  7.15284E+01  7.20281E+01  7.24963E+01  7.29657E+01
   7.34995E+01  7.40314E+01  7.43596E+01  7.45643E+01  7.48595E+01  7.52241E+01  7.56402E+01  7.60306E+01  7.63131E+01  7.63047E+01
   7.63819E+01  7.74335E+01  7.90835E+01  8.03108E+01  8.10542E+01  8.16684E+01  8.22712E+01  8.30676E+01  8.45813E+01  8.62632E+01
   8.59383E+01  8.44828E+01  8.41448E+01  8.42836E+01  8.45402E+01  8.48770E+01  8.52600E+01  8.56467E+01  8.60403E+01  8.64505E+01
   8.68598E+01  8.72602E+01  8.75476E+01  8.77388E+01  8.84313E+01  8.96583E+01  9.07433E+01  9.14758E+01  9.21074E+01  9.27430E+01
   9.35371E+01  9.48025E+01  9.62817E+01  9.66179E+01  9.56273E+01  9.52281E+01  9.52924E+01  9.55950E+01  9.60483E+01  9.63451E+01
   9.63481E+01  9.65091E+01  9.69134E+01  9.74413E+01  9.81161E+01  9.87852E+01  9.93142E+01  9.97588E+01  9.99907E+01  1.00285E+02
   1.00645E+02  1.01008E+02  1.01346E+02  1.01719E+02  1.02143E+02  1.02562E+02  1.03001E+02  1.03467E+02  1.03894E+02  1.04269E+02
   1.04681E+02  1.05173E+02  1.05702E+02  1.06236E+02  1.06730E+02  1.07160E+02  1.07577E+02  1.08047E+02  1.08655E+02  1.09294E+02
   1.09936E+02  1.10507E+02  1.10987E+02  1.11491E+02  1.11989E+02  1.12551E+02  1.13237E+02  1.13965E+02  1.14626E+02  1.15200E+02
   1.15767E+02  1.16434E+02  1.17229E+02  1.18137E+02  1.18954E+02  1.19587E+02  1.20236E+02  1.21085E+02  1.22220E+02  1.23404E+02
   1.24390E+02  1.25309E+02  1.26245E+02  1.27220E+02  1.28271E+02  1.29184E+02  1.29954E+02  1.30679E+02  1.31453E+02  1.32411E+02
   1.33477E+02  1.34578E+02  1.35969E+02  1.37475E+02  1.39129E+02  1.40692E+02  1.41647E+02  1.42018E+02  1.42599E+02  1.43686E+02
   1.44675E+02  1.45308E+02  1.46079E+02  1.46876E+02  1.47764E+02  1.49462E+02  1.51828E+02  1.53416E+02  1.54499E+02  1.55681E+02
   1.57023E+02  1.58312E+02  1.59539E+02  1.60755E+02  1.61972E+02  1.63180E+02  1.64415E+02  1.65661E+02  1.66791E+02  1.67804E+02
   1.68903E+02  1.70107E+02  1.71126E+02  1.72024E+02  1.73176E+02  1.74478E+02  1.75712E+02  1.77242E+02  1.79046E+02  1.80388E+02
   1.81362E+02  1.82744E+02  1.84488E+02  1.85731E+02  1.86709E+02  1.87814E+02  1.88718E+02  1.89407E+02  1.90599E+02  1.92090E+02
   1.93507E+02  1.94793E+02  1.96067E+02  1.97506E+02  1.98883E+02  1.99867E+02  2.00094E+02  2.00906E+02  2.03431E+02  2.06151E+02
   2.07863E+02  2.08705E+02  2.08749E+02  2.08910E+02  2.10073E+02  2.12423E+02  2.13539E+02  2.10638E+02  2.08055E+02  2.07631E+02
   2.07766E+02  2.08064E+02  2.08451E+02  2.08897E+02  2.09385E+02  2.09922E+02  2.10521E+02  2.11156E+02  2.11819E+02  2.12527E+02
   2.13281E+02  2.14076E+02  2.14917E+02  2.15826E+02  2.16804E+02  2.17843E+02  2.18945E+02  2.20123E+02  2.21381E+02  2.22720E+02
   2.24151E+02  2.25679E+02  2.27300E+02  2.29029E+02  2.30874E+02  2.32836E+02  2.34923E+02  2.37141E+02  2.39478E+02  2.41938E+02
   2.44527E+02  2.47239E+02  2.50068E+02  2.53006E+02  2.56049E+02  2.59195E+02  2.62428E+02  2.65740E+02  2.69130E+02  2.72593E+02
   2.76131E+02  2.79748E+02  2.83449E+02  2.87245E+02  2.91147E+02  2.95172E+02  2.99334E+02  3.03652E+02  3.08144E+02  3.12826E+02
   3.17713E+02  3.22816E+02  3.28144E+02  3.33839E+02  3.39948E+02  3.46175E+02  3.52405E+02  3.58858E+02  3.65646E+02  3.72732E+02
   3.80064E+02  3.87624E+02  3.95430E+02  4.03400E+02  4.11962E+02  4.21241E+02  4.30783E+02  4.40545E+02  4.50560E+02  4.61022E+02
   4.71938E+02  4.82615E+02  4.92730E+02  5.03410E+02  5.15342E+02  5.26790E+02  5.36067E+02  5.44086E+02  5.51784E+02  5.58806E+02
   5.64478E+02  5.68987E+02  5.72638E+02  5.73660E+02  5.73215E+02  5.74674E+02  5.75003E+02  5.73324E+02  5.70101E+02  5.66785E+02
   5.63463E+02  5.56304E+02  5.45031E+02  5.33868E+02  5.22687E+02  5.11194E+02  4.99405E+02  4.87409E+02  4.75318E+02  4.63246E+02
   4.51300E+02  4.39573E+02  4.28147E+02  4.17089E+02  4.06453E+02  3.96277E+02  3.86590E+02  3.77405E+02  3.68724E+02  3.60539E+02
   3.52833E+02  3.45580E+02  3.38750E+02  3.32305E+02  3.26204E+02  3.20405E+02  3.14866E+02  3.09546E+02  3.04408E+02  2.99418E+02
   2.94547E+02  2.89775E+02  2.85086E+02  2.80471E+02  2.75929E+02  2.71461E+02  2.67074E+02  2.62778E+02  2.58586E+02  2.54508E+02
   2.50556E+02  2.46739E+02  2.43063E+02  2.39531E+02  2.36144E+02  2.32898E+02  2.29787E+02  2.26801E+02  2.23929E+02  2.21159E+02
   2.18479E+02  2.15875E+02  2.13334E+02  2.10847E+02  2.08402E+02  2.05993E+02  2.03614E+02  2.01260E+02  1.98928E+02  1.96619E+02
   1.94333E+02  1.92072E+02  1.89839E+02  1.87635E+02  1.85466E+02  1.83335E+02  1.81244E+02  1.79197E+02  1.77196E+02  1.75243E+02
   1.73340E+02  1.71487E+02  1.69684E+02  1.67931E+02  1.66228E+02  1.64572E+02  1.62962E+02  1.61397E+02  1.59875E+02  1.58392E+02
   1.56948E+02  1.55540E+02  1.54166E+02  1.52823E+02  1.51511E+02  1.50226E+02  1.48966E+02  1.47731E+02  1.46519E+02  1.45328E+02
   1.44156E+02  1.43003E+02  1.41867E+02  1.40748E+02  1.39644E+02  1.38554E+02  1.37478E+02  1.36415E+02  1.35364E+02  1.34325E+02
   1.33296E+02  1.32278E+02  1.31270E+02  1.30272E+02  1.29283E+02  1.28302E+02  1.27330E+02  1.26366E+02  1.25410E+02  1.24462E+02
   1.23521E+02  1.22587E+02  1.21660E+02  1.20740E+02  1.19826E+02  1.18919E+02  1.18018E+02  1.17123E+02  1.16235E+02  1.15352E+02
   1.14475E+02  1.13604E+02  1.12739E+02  1.11879E+02  1.11025E+02  1.10176E+02  1.09333E+02  1.08495E+02  1.07663E+02  1.06836E+02
   1.06014E+02  1.05197E+02  1.04386E+02  1.03580E+02  1.02780E+02  1.01985E+02  1.01194E+02  1.00410E+02
 NY background values follow
     5.792E+01    5.828E+01    5.864E+01    5.899E+01    5.935E+01    5.970E+01    6.006E+01    6.042E+01    6.077E+01    6.113E+01
     6.149E+01    6.185E+01    6.221E+01    6.257E+01    6.293E+01    6.329E+01    6.365E+01    6.402E+01    6.438E+01    6.475E+01
     6.512E+01    6.549E+01    6.586E+01    6.623E+01    6.661E+01    6.698E+01    6.736E+01    6.774E+01    6.812E+01    6.850E+01
     6.889E+01    6.927E+01    6.966E+01    7.006E+01    7.045E+01    7.085E+01    7.125E+01    7.165E+01    7.205E+01    7.246E+01
     7.287E+01    7.329E+01    7.370E+01    7.412E+01    7.455E+01    7.497E+01    7.540E+01    7.584E+01    7.627E+01    7.671E+01
     7.716E+01    7.760E+01    7.805E+01    7.850E+01    7.895E+01    7.941E+01    7.987E+01    8.032E+01    8.078E+01    8.125E+01
     8.171E+01    8.217E+01    8.264E+01    8.310E+01    8.357E+01    8.404E+01    8.450E+01    8.497E+01    8.544E+01    8.591E+01
     8.637E+01    8.684E+01    8.730E+01    8.777E+01    8.823E+01    8.869E+01    8.915E+01    8.961E+01    9.007E+01    9.052E+01
     9.098E+01    9.143E+01    9.187E+01    9.232E+01    9.276E+01    9.320E+01    9.363E+01    9.406E+01    9.449E+01    9.491E+01
     9.533E+01    9.575E+01    9.616E+01    9.657E+01    9.697E+01    9.737E+01    9.776E+01    9.815E+01    9.854E+01    9.892E+01
     9.930E+01    9.968E+01    1.001E+02    1.004E+02    1.008E+02    1.012E+02    1.015E+02    1.019E+02    1.022E+02    1.026E+02
     1.029E+02    1.033E+02    1.036E+02    1.040E+02    1.043E+02    1.047E+02    1.050E+02    1.053E+02    1.057E+02    1.060E+02
     1.064E+02    1.067E+02    1.070E+02    1.074E+02    1.077E+02    1.080E+02    1.084E+02    1.087E+02    1.090E+02    1.094E+02
     1.097E+02    1.100E+02    1.104E+02    1.107E+02    1.110E+02    1.114E+02    1.117E+02    1.121E+02    1.124E+02    1.127E+02
     1.131E+02    1.134E+02    1.138E+02    1.141E+02    1.145E+02    1.149E+02    1.152E+02    1.156E+02    1.160E+02    1.164E+02
     1.168E+02    1.171E+02    1.175E+02    1.179E+02    1.184E+02    1.188E+02    1.192E+02    1.196E+02    1.201E+02    1.205E+02
     1.210E+02    1.214E+02    1.219E+02    1.224E+02    1.229E+02    1.234E+02    1.239E+02    1.244E+02    1.249E+02    1.255E+02
     1.260E+02    1.266E+02    1.271E+02    1.277E+02    1.283E+02    1.289E+02    1.296E+02    1.302E+02    1.309E+02    1.315E+02
     1.322E+02    1.329E+02    1.336E+02    1.343E+02    1.351E+02    1.358E+02    1.366E+02    1.373E+02    1.381E+02    1.389E+02
     1.397E+02    1.405E+02    1.414E+02    1.422E+02    1.430E+02    1.439E+02    1.448E+02    1.456E+02    1.465E+02    1.473E+02
     1.482E+02    1.491E+02    1.500E+02    1.509E+02    1.518E+02    1.527E+02    1.535E+02    1.544E+02    1.553E+02    1.562E+02
     1.571E+02    1.580E+02    1.589E+02    1.597E+02    1.606E+02    1.615E+02    1.623E+02    1.632E+02    1.641E+02    1.649E+02
     1.657E+02    1.666E+02    1.674E+02    1.682E+02    1.690E+02    1.698E+02    1.706E+02    1.713E+02    1.721E+02    1.728E+02
     1.736E+02    1.743E+02    1.750E+02    1.757E+02    1.764E+02    1.770E+02    1.777E+02    1.783E+02    1.790E+02    1.796E+02
     1.802E+02    1.808E+02    1.814E+02    1.820E+02    1.826E+02    1.831E+02    1.837E+02    1.842E+02    1.848E+02    1.853E+02
     1.858E+02    1.863E+02    1.868E+02    1.873E+02    1.877E+02    1.882E+02    1.887E+02    1.891E+02    1.895E+02    1.900E+02
     1.904E+02    1.908E+02    1.912E+02    1.916E+02    1.919E+02    1.923E+02    1.927E+02    1.930E+02    1.934E+02    1.937E+02
     1.941E+02    1.944E+02    1.947E+02    1.950E+02    1.953E+02    1.956E+02    1.959E+02    1.962E+02    1.964E+02    1.967E+02
     1.969E+02    1.972E+02    1.974E+02    1.977E+02    1.979E+02    1.981E+02    1.983E+02    1.985E+02    1.987E+02    1.989E+02
     1.991E+02    1.993E+02    1.994E+02    1.996E+02    1.997E+02    1.999E+02    2.000E+02    2.001E+02    2.003E+02    2.004E+02
     2.005E+02    2.006E+02    2.007E+02    2.008E+02    2.008E+02    2.009E+02    2.010E+02    2.010E+02    2.011E+02    2.011E+02
     2.012E+02    2.012E+02    2.012E+02    2.012E+02    2.012E+02    2.012E+02    2.012E+02    2.012E+02    2.012E+02    2.012E+02
     2.012E+02    2.011E+02    2.011E+02    2.010E+02    2.010E+02    2.009E+02    2.008E+02    2.008E+02    2.007E+02    2.006E+02
     2.005E+02    2.004E+02    2.003E+02    2.002E+02    2.000E+02    1.999E+02    1.998E+02    1.996E+02    1.995E+02    1.993E+02
     1.992E+02    1.990E+02    1.988E+02    1.986E+02    1.985E+02    1.983E+02    1.981E+02    1.979E+02    1.976E+02    1.974E+02
     1.972E+02    1.970E+02    1.967E+02    1.965E+02    1.962E+02    1.960E+02    1.957E+02    1.954E+02    1.952E+02    1.949E+02
     1.946E+02    1.943E+02    1.940E+02    1.937E+02    1.934E+02    1.930E+02    1.927E+02    1.924E+02    1.920E+02    1.917E+02
     1.913E+02    1.910E+02    1.906E+02    1.902E+02    1.899E+02    1.895E+02    1.891E+02    1.887E+02    1.883E+02    1.879E+02
     1.875E+02    1.870E+02    1.866E+02    1.862E+02    1.857E+02    1.853E+02    1.848E+02    1.844E+02    1.839E+02    1.835E+02
     1.830E+02    1.825E+02    1.820E+02    1.815E+02    1.810E+02    1.805E+02    1.800E+02    1.795E+02    1.790E+02    1.784E+02
     1.779E+02    1.774E+02    1.768E+02    1.763E+02    1.757E+02    1.751E+02    1.746E+02    1.740E+02    1.734E+02    1.728E+02
     1.722E+02    1.716E+02    1.710E+02    1.704E+02    1.698E+02    1.692E+02    1.685E+02    1.679E+02    1.673E+02    1.666E+02
     1.660E+02    1.653E+02    1.647E+02    1.640E+02    1.634E+02    1.627E+02    1.620E+02    1.614E+02    1.607E+02    1.600E+02
     1.593E+02    1.586E+02    1.579E+02    1.573E+02    1.566E+02    1.559E+02    1.552E+02    1.544E+02    1.537E+02    1.530E+02
     1.523E+02    1.516E+02    1.509E+02    1.501E+02    1.494E+02    1.487E+02    1.480E+02    1.472E+02    1.465E+02    1.458E+02
     1.450E+02    1.443E+02    1.436E+02    1.428E+02    1.421E+02    1.413E+02    1.406E+02    1.398E+02    1.391E+02    1.384E+02
     1.376E+02    1.369E+02    1.361E+02    1.354E+02    1.346E+02    1.339E+02    1.331E+02    1.324E+02    1.316E+02    1.309E+02
     1.301E+02    1.294E+02    1.286E+02    1.279E+02    1.271E+02    1.264E+02    1.256E+02    1.249E+02    1.241E+02    1.234E+02
     1.227E+02    1.219E+02    1.212E+02    1.204E+02    1.197E+02    1.190E+02    1.182E+02    1.175E+02    1.168E+02    1.160E+02
     1.153E+02    1.146E+02    1.139E+02    1.131E+02    1.124E+02    1.117E+02    1.110E+02    1.103E+02
 Ala      Conc. = 5.98E+01
