 LCModel (Version 6.3-1L) Copyright: S.W. Provencher.          Ref.: Magn. Reson. Med. 30:672-679 (1993).                
 Slice#2 Row#7 Col#5  PD_24_press_1_raw_act
 36 lines in following concentration table = NCONC+1
    Conc.  %SD /Cr+PCr  Metabolite                                         
   75.860 230% 4.2E-02 Ala                                                 
   62.630 502% 3.4E-02 Asp                                                 
  346.222  94%   0.190 Cr                                                  
 1.48E+03  22%   0.810 PCr                                                 
    0.000 999%   0.000 GABA                                                
  203.565 112%   0.111 Glc                                                 
  875.372  41%   0.479 Gln                                                 
 2.09E+03  19%   1.145 Glu                                                 
  878.679  21%   0.481 GPC                                                 
   62.146 315% 3.4E-02 PCh                                                 
  273.680  40%   0.150 GSH                                                 
 1.70E+03  23%   0.933 Ins                                                 
    0.000 999%   0.000 Lac                                                 
 3.09E+03   6%   1.691 NAA                                                 
  292.399  69%   0.160 NAAG                                                
  324.324  13%   0.178 Scyllo                                              
  477.894  67%   0.262 Tau                                                 
  296.120  53%   0.162 -CrCH2                                              
  940.825   4%   0.515 GPC+PCh                                             
 3.38E+03   3%   1.851 NAA+NAAG                                            
 1.83E+03   4%   1.000 Cr+PCr                                              
 2.97E+03  20%   1.624 Glu+Gln                                             
 2.05E+03  30%   1.122 Lip13a                                              
    0.000 999%   0.000 Lip13b                                              
    0.000 999%   0.000 Lip09                                               
 1.51E+03  16%   0.828 MM09                                                
  245.840 104%   0.135 Lip20                                               
 2.29E+03  22%   1.252 MM20                                                
  564.991  34%   0.309 MM12                                                
 2.69E+03  19%   1.475 MM14                                                
 1.74E+03  21%   0.954 MM17                                                
 2.05E+03  30%   1.122 Lip13a+Lip13b                                       
 5.31E+03  12%   2.907 MM14+Lip13a+Lip13b+MM12                             
 1.51E+03  16%   0.828 MM09+Lip09                                          
 2.53E+03  20%   1.386 MM20+Lip20                                          
   6 lines in following misc. output table
  FWHM = 0.054 ppm    S/N =  12                                            
  Data shift = 0.008 ppm                                                   
  Ph: -73 deg     -18.7 deg/ppm                                            
  alphaB,S = 1.3E+00,   2.4E+01                                            
   14 spline knots.   Ns = 8(1)                                            
  (14) 9 infls.   (15) 1 extrs.                                            
  498 points on ppm-axis = NY
      4.000000     3.992357     3.984714     3.977070     3.969427     3.961784     3.954141     3.946497     3.938854     3.931211
      3.923568     3.915925     3.908281     3.900638     3.892995     3.885352     3.877708     3.870065     3.862422     3.854779
      3.847136     3.839492     3.831849     3.824206     3.816563     3.808919     3.801276     3.793633     3.785990     3.778347
      3.770703     3.763060     3.755417     3.747774     3.740130     3.732487     3.724844     3.717201     3.709558     3.701914
      3.694271     3.686628     3.678985     3.671341     3.663698     3.656055     3.648412     3.640769     3.633125     3.625482
      3.617839     3.610196     3.602552     3.594909     3.587266     3.579623     3.571980     3.564336     3.556693     3.549050
      3.541407     3.533763     3.526120     3.518477     3.510834     3.503191     3.495547     3.487904     3.480261     3.472618
      3.464974     3.457331     3.449688     3.442045     3.434402     3.426758     3.419115     3.411472     3.403829     3.396185
      3.388542     3.380899     3.373256     3.365613     3.357969     3.350326     3.342683     3.335040     3.327396     3.319753
      3.312110     3.304467     3.296824     3.289180     3.281537     3.273894     3.266251     3.258607     3.250964     3.243321
      3.235678     3.228034     3.220391     3.212748     3.205105     3.197462     3.189818     3.182175     3.174532     3.166889
      3.159245     3.151602     3.143959     3.136316     3.128673     3.121029     3.113386     3.105743     3.098100     3.090456
      3.082813     3.075170     3.067527     3.059884     3.052240     3.044597     3.036954     3.029311     3.021667     3.014024
      3.006381     2.998738     2.991095     2.983451     2.975808     2.968165     2.960522     2.952878     2.945235     2.937592
      2.929949     2.922306     2.914662     2.907019     2.899376     2.891733     2.884089     2.876446     2.868803     2.861160
      2.853517     2.845873     2.838230     2.830587     2.822944     2.815300     2.807657     2.800014     2.792371     2.784728
      2.777084     2.769441     2.761798     2.754155     2.746511     2.738868     2.731225     2.723582     2.715939     2.708295
      2.700652     2.693009     2.685366     2.677722     2.670079     2.662436     2.654793     2.647150     2.639506     2.631863
      2.624220     2.616577     2.608933     2.601290     2.593647     2.586004     2.578361     2.570717     2.563074     2.555431
      2.547788     2.540144     2.532501     2.524858     2.517215     2.509572     2.501928     2.494285     2.486642     2.478999
      2.471355     2.463712     2.456069     2.448426     2.440783     2.433139     2.425496     2.417853     2.410210     2.402566
      2.394923     2.387280     2.379637     2.371994     2.364350     2.356707     2.349064     2.341421     2.333777     2.326134
      2.318491     2.310848     2.303205     2.295561     2.287918     2.280275     2.272632     2.264988     2.257345     2.249702
      2.242059     2.234416     2.226772     2.219129     2.211486     2.203843     2.196199     2.188556     2.180913     2.173270
      2.165627     2.157983     2.150340     2.142697     2.135054     2.127410     2.119767     2.112124     2.104481     2.096838
      2.089194     2.081551     2.073908     2.066265     2.058621     2.050978     2.043335     2.035692     2.028049     2.020405
      2.012762     2.005119     1.997476     1.989833     1.982190     1.974546     1.966903     1.959260     1.951617     1.943974
      1.936331     1.928688     1.921045     1.913402     1.905759     1.898115     1.890472     1.882829     1.875186     1.867543
      1.859900     1.852257     1.844614     1.836971     1.829327     1.821684     1.814041     1.806398     1.798755     1.791112
      1.783469     1.775826     1.768183     1.760540     1.752896     1.745253     1.737610     1.729967     1.722324     1.714681
      1.707038     1.699395     1.691752     1.684108     1.676465     1.668822     1.661179     1.653536     1.645893     1.638250
      1.630607     1.622964     1.615321     1.607677     1.600034     1.592391     1.584748     1.577105     1.569462     1.561819
      1.554176     1.546533     1.538890     1.531246     1.523603     1.515960     1.508317     1.500674     1.493031     1.485388
      1.477745     1.470102     1.462458     1.454815     1.447172     1.439529     1.431886     1.424243     1.416600     1.408957
      1.401314     1.393671     1.386027     1.378384     1.370741     1.363098     1.355455     1.347812     1.340169     1.332526
      1.324883     1.317240     1.309596     1.301953     1.294310     1.286667     1.279024     1.271381     1.263738     1.256095
      1.248452     1.240808     1.233165     1.225522     1.217879     1.210236     1.202593     1.194950     1.187307     1.179664
      1.172021     1.164377     1.156734     1.149091     1.141448     1.133805     1.126162     1.118519     1.110876     1.103233
      1.095590     1.087946     1.080303     1.072660     1.065017     1.057374     1.049731     1.042088     1.034445     1.026802
      1.019158     1.011515     1.003872     0.996229     0.988586     0.980943     0.973300     0.965657     0.958014     0.950371
      0.942727     0.935084     0.927441     0.919798     0.912155     0.904512     0.896869     0.889226     0.881583     0.873940
      0.866296     0.858653     0.851010     0.843367     0.835724     0.828081     0.820438     0.812795     0.805152     0.797508
      0.789865     0.782222     0.774579     0.766936     0.759293     0.751650     0.744007     0.736364     0.728721     0.721077
      0.713434     0.705791     0.698148     0.690505     0.682862     0.675219     0.667576     0.659933     0.652290     0.644646
      0.637003     0.629360     0.621717     0.614074     0.606431     0.598788     0.591145     0.583502     0.575858     0.568215
      0.560572     0.552929     0.545286     0.537643     0.530000     0.522357     0.514714     0.507071     0.499427     0.491784
      0.484141     0.476498     0.468855     0.461212     0.453569     0.445925     0.438282     0.430639     0.422996     0.415353
      0.407710     0.400067     0.392424     0.384780     0.377137     0.369494     0.361851     0.354208     0.346565     0.338922
      0.331278     0.323635     0.315992     0.308349     0.300706     0.293063     0.285420     0.277777     0.270133     0.262490
      0.254847     0.247204     0.239561     0.231918     0.224275     0.216631     0.208988     0.201345
 NY phased data points follow
  -5.51450E+01 -5.94174E+01 -4.95102E+01 -4.95953E+01 -3.89021E+01 -4.37236E+01 -2.94363E+01 -3.47160E+01 -2.15922E+01 -2.46601E+01
  -1.62499E+01 -3.05144E+01 -3.10764E+01 -3.38976E+01 -3.88909E+01 -4.37079E+01 -3.95555E+01 -5.29316E+01 -4.88016E+01 -5.84066E+01
  -4.79221E+01 -5.73820E+01 -4.96370E+01 -5.37987E+01 -4.11120E+01 -4.97977E+01 -4.42465E+01 -4.73631E+01 -3.30950E+01 -4.69578E+01
  -3.62119E+01 -4.42387E+01 -4.14326E+01 -4.03957E+01 -3.19656E+01 -4.56930E+01 -3.33425E+01 -4.53079E+01 -3.75354E+01 -4.18399E+01
  -3.32141E+01 -4.04735E+01 -2.79018E+01 -2.97664E+01 -2.42106E+01 -2.95581E+01 -2.30760E+01 -3.35676E+01 -2.83713E+01 -3.42281E+01
  -3.02171E+01 -4.02066E+01 -3.45184E+01 -3.52221E+01 -2.95116E+01 -3.83672E+01 -3.32850E+01 -3.79864E+01 -4.08346E+01 -3.64011E+01
  -3.61381E+01 -3.98719E+01 -3.37015E+01 -4.57018E+01 -3.88149E+01 -4.04629E+01 -3.36509E+01 -4.15501E+01 -3.56782E+01 -4.09548E+01
  -3.16633E+01 -3.50433E+01 -2.94003E+01 -3.20916E+01 -2.75367E+01 -3.00103E+01 -2.92489E+01 -3.08216E+01 -2.63980E+01 -2.76694E+01
  -2.20087E+01 -2.62912E+01 -2.17357E+01 -2.47898E+01 -1.80750E+01 -2.01862E+01 -2.03418E+01 -2.34139E+01 -1.55536E+01 -1.93822E+01
  -9.45894E+00 -1.70036E+01 -1.27058E+01 -1.23650E+01 -7.53305E+00 -8.82895E+00 -9.68530E-01 -3.44599E+00  6.73734E+00  1.87340E+01
   3.37524E+01  4.37556E+01  5.06234E+01  4.98624E+01  3.55242E+01  2.40100E+01  1.68729E+01  1.39203E+00 -1.57346E+00 -7.37583E+00
  -1.08152E+01 -2.07892E+01 -1.88816E+01 -1.94380E+01 -1.50968E+01 -2.25141E+01 -1.77354E+01 -1.46856E+01 -1.54442E+01 -9.14489E+00
  -3.79589E+00 -4.16137E+00 -1.98670E-01  5.36705E+00  1.91027E+01  2.35756E+01  2.96471E+01  3.05030E+01  3.51042E+01  1.59350E+01
   1.09655E+01 -2.76603E+00 -5.30219E+00 -1.12431E+01 -1.05105E+01 -1.58643E+01 -1.00148E+01 -1.48310E+01 -1.65947E+01 -1.83302E+01
  -1.27685E+01 -1.39559E+01 -1.44021E+01 -1.51070E+01 -2.17335E+01 -1.54103E+01 -1.87545E+01 -1.80233E+01 -1.64914E+01 -2.04682E+01
  -1.40603E+01 -1.69672E+01 -9.28244E+00 -1.77500E+01 -1.45726E+01 -1.71434E+01 -8.59289E+00 -2.14815E+01 -1.18861E+01 -1.50050E+01
  -1.42475E+01 -2.02309E+01 -1.84150E+01 -2.02919E+01 -1.16870E+01 -1.74957E+01 -1.40606E+01 -2.00995E+01 -1.58683E+01 -1.57988E+01
  -1.56655E+01 -1.87708E+01 -1.60014E+01 -2.24792E+01 -2.50694E+01 -2.24142E+01 -1.65389E+01 -2.53411E+01 -1.52527E+01 -1.94602E+01
  -1.24141E+01 -2.30191E+01 -2.13379E+01 -2.08591E+01 -1.44727E+01 -1.70643E+01 -1.29228E+01 -1.11506E+01 -2.41684E+00 -7.08435E+00
  -7.15576E+00 -4.14240E+00  1.50174E-01 -3.91646E+00 -4.67045E+00  8.91775E-01 -7.11047E+00 -5.90052E+00 -7.34985E+00 -6.58326E+00
  -4.68858E+00 -1.16031E+00 -1.52823E+00 -4.96310E+00 -2.27096E+00 -5.74061E-01 -3.90406E+00 -8.29283E+00 -5.32942E+00 -1.08112E+01
  -5.92516E+00 -5.62805E+00  2.67710E+00  6.22203E-01  5.63429E+00  6.16015E+00  8.51133E+00  3.19795E+00  3.24001E+00  4.02591E+00
   2.90611E+00 -8.14258E+00 -7.95477E+00 -7.21341E+00 -2.32301E+00 -1.53848E+00  3.44000E+00  1.32206E-01  5.68463E+00  1.90233E+00
   3.31325E+00  6.51966E+00  8.09906E+00  5.52395E+00  9.60036E+00  5.62307E+00  2.39711E+00  3.51947E+00  1.54430E+00  8.14109E+00
   4.59738E+00  1.32034E+00 -3.31944E-01  2.42753E+00  2.23732E+00  7.25824E+00  7.82409E+00  7.24887E+00  1.41442E+01  1.07526E+01
   2.16108E+01  1.93123E+01  2.99681E+01  2.95009E+01  4.31764E+01  5.16115E+01  5.94963E+01  6.77099E+01  8.47287E+01  1.01120E+02
   1.07424E+02  9.80580E+01  8.58791E+01  7.00111E+01  6.10425E+01  5.07028E+01  4.06699E+01  2.62883E+01  2.53879E+01  1.95254E+01
   1.76206E+01  1.82935E+01  1.57727E+01  1.30638E+01  1.13792E+01  1.11826E+01  1.28146E+01  5.89046E+00  1.11190E+01  4.11533E+00
   1.22980E+01  1.19532E+01  7.28878E+00  1.18870E+01  8.52568E+00  1.04849E+01  1.04581E+01  9.03826E+00  8.80899E+00  1.24927E+01
   1.43607E+01  1.33398E+01  1.09129E+01  9.92107E+00  1.26340E+01  7.55756E+00  7.94332E+00  8.78872E+00  5.80308E+00  1.39967E+01
   1.64871E+01  1.23882E+01  2.02527E+01  1.77515E+01  2.30114E+01  2.14672E+01  2.39119E+01  1.63052E+01  2.11547E+01  2.32365E+01
   2.57130E+01  1.98081E+01  1.93599E+01  2.13452E+01  2.18334E+01  2.45302E+01  1.85232E+01  2.40443E+01  1.95436E+01  2.41300E+01
   2.55547E+01  2.16576E+01  1.90364E+01  2.58505E+01  2.28422E+01  2.07790E+01  2.09292E+01  2.55630E+01  2.53356E+01  2.26252E+01
   2.42808E+01  2.29074E+01  2.34401E+01  2.01678E+01  2.29961E+01  2.49559E+01  2.24713E+01  2.07219E+01  2.22282E+01  2.57066E+01
   2.21625E+01  2.41995E+01  1.98579E+01  3.14547E+01  2.91749E+01  2.61655E+01  2.49968E+01  2.81962E+01  2.83981E+01  2.28876E+01
   2.44213E+01  2.22927E+01  1.90256E+01  1.98499E+01  2.54132E+01  1.70881E+01  2.07285E+01  1.93750E+01  1.52324E+01  1.72926E+01
   1.58599E+01  2.10843E+01  1.76730E+01  1.63284E+01  1.94772E+01  2.02696E+01  2.26294E+01  1.39757E+01  1.58223E+01  1.68548E+01
   1.77384E+01  1.71970E+01  1.55474E+01  2.07605E+01  1.70363E+01  1.58205E+01  1.52678E+01  1.90116E+01  2.34001E+01  1.62775E+01
   1.79981E+01  1.81727E+01  1.94776E+01  2.00936E+01  1.71458E+01  1.64559E+01  1.43404E+01  1.82237E+01  1.03225E+01  9.54656E+00
   1.48484E+01  9.34954E+00  9.92695E+00  1.22513E+01  1.76484E+01  1.42713E+01  1.61864E+01  1.72818E+01  2.40395E+01  2.12405E+01
   1.80112E+01  1.63897E+01  1.48752E+01  1.92947E+01  1.75896E+01  1.92043E+01  2.11845E+01  2.26061E+01  1.84357E+01  2.00972E+01
   1.73958E+01  2.03291E+01  1.98831E+01  1.36607E+01  1.64851E+01  1.78081E+01  1.58781E+01  1.16577E+01  1.17515E+01  1.43065E+01
   7.08847E+00  1.14366E+01  7.85568E+00  1.09532E+01  8.32548E+00  1.21165E+01  5.85274E+00  5.44364E+00  4.27826E+00  5.47371E+00
   5.54406E+00  5.76640E+00  5.55038E+00  5.17058E+00  5.96847E+00  3.88127E+00  2.61865E+00 -1.98603E+00  8.91759E+00  1.03119E+01
   7.19359E-01  9.72367E-01  4.32614E+00  8.56983E+00  5.12607E+00  6.28844E+00  7.30688E+00  5.16868E+00  5.19966E+00  6.39185E+00
   4.09686E+00  3.30866E+00  5.14869E+00  7.08966E+00  5.49156E+00  5.92791E+00  2.22859E+00  6.23705E+00  3.87957E+00  9.18401E+00
   7.21819E+00  8.55402E+00  7.61431E+00  5.25404E+00  3.68905E+00  4.36748E+00  9.23169E+00  7.90756E+00  9.41318E+00  6.72057E+00
   8.45028E+00 -6.21964E-01  8.91178E+00  8.01762E+00  7.00194E+00  2.13350E+00  6.87748E+00  3.19027E+00  8.44260E+00  4.07652E+00
   3.99646E+00  8.16910E+00  6.45283E+00  8.00913E+00  8.51360E+00  3.15882E+00  9.96790E+00  5.70786E+00  8.25110E+00  5.81496E+00
   2.38478E+00  4.03918E+00  2.20597E+00  7.30749E+00  5.33931E+00  8.56226E+00  1.05028E+01  7.51964E+00
 NY points of the fit to the data follow
  -5.36805E+01 -5.08861E+01 -4.87462E+01 -4.57423E+01 -4.29442E+01 -3.93164E+01 -3.39812E+01 -2.87159E+01 -2.46712E+01 -2.29772E+01
  -2.42219E+01 -2.78640E+01 -3.13679E+01 -3.50199E+01 -3.84392E+01 -4.10495E+01 -4.29496E+01 -4.48531E+01 -4.68656E+01 -4.76221E+01
  -4.82776E+01 -4.85220E+01 -4.79126E+01 -4.74473E+01 -4.67847E+01 -4.62296E+01 -4.56869E+01 -4.46712E+01 -4.33488E+01 -4.17017E+01
  -3.98977E+01 -3.84029E+01 -3.76837E+01 -3.72271E+01 -3.73279E+01 -3.82353E+01 -3.97847E+01 -4.09375E+01 -4.09656E+01 -4.03289E+01
  -3.92855E+01 -3.80104E+01 -3.66010E+01 -3.49649E+01 -3.29410E+01 -3.08150E+01 -2.94423E+01 -2.94745E+01 -3.07364E+01 -3.25520E+01
  -3.41982E+01 -3.55599E+01 -3.64987E+01 -3.67818E+01 -3.69142E+01 -3.69938E+01 -3.68249E+01 -3.62440E+01 -3.53994E+01 -3.46981E+01
  -3.45647E+01 -3.48468E+01 -3.52901E+01 -3.55635E+01 -3.55396E+01 -3.52127E+01 -3.46691E+01 -3.39517E+01 -3.31229E+01 -3.24774E+01
  -3.19081E+01 -3.14931E+01 -3.11659E+01 -3.07628E+01 -3.02391E+01 -2.98794E+01 -2.98025E+01 -3.00324E+01 -3.03046E+01 -2.90871E+01
  -2.77924E+01 -2.69673E+01 -2.58699E+01 -2.45956E+01 -2.23270E+01 -1.93428E+01 -1.68769E+01 -1.56454E+01 -1.58826E+01 -1.78421E+01
  -1.98353E+01 -2.09051E+01 -2.17279E+01 -2.05289E+01 -1.36699E+01 -7.80384E+00 -3.65426E+00  9.99100E-01  7.48386E+00  1.93042E+01
   3.41068E+01  4.58486E+01  5.08766E+01  4.79669E+01  3.67568E+01  2.44896E+01  1.43798E+01  4.74100E+00 -3.71536E+00 -9.12904E+00
  -1.30257E+01 -1.80984E+01 -2.15390E+01 -2.26461E+01 -2.29418E+01 -2.28819E+01 -2.25284E+01 -2.15430E+01 -1.75659E+01 -1.12965E+01
  -7.92874E+00 -4.30448E+00 -5.14014E-01  5.72781E+00  1.59184E+01  2.58887E+01  3.18994E+01  3.22847E+01  2.67169E+01  1.74644E+01
   1.02275E+01  3.95640E+00 -2.14523E+00 -6.75072E+00 -9.49024E+00 -1.27292E+01 -1.63772E+01 -1.75718E+01 -1.76158E+01 -1.73275E+01
  -1.69071E+01 -1.65220E+01 -1.62999E+01 -1.61908E+01 -1.61080E+01 -1.60269E+01 -1.59829E+01 -1.59515E+01 -1.59087E+01 -1.58541E+01
  -1.57830E+01 -1.57195E+01 -1.57362E+01 -1.59229E+01 -1.59622E+01 -1.58725E+01 -1.56167E+01 -1.52879E+01 -1.54643E+01 -1.58657E+01
  -1.62076E+01 -1.62985E+01 -1.59579E+01 -1.53507E+01 -1.49865E+01 -1.50148E+01 -1.53110E+01 -1.58828E+01 -1.65187E+01 -1.68693E+01
  -1.68558E+01 -1.68602E+01 -1.69462E+01 -1.74451E+01 -1.79680E+01 -1.79968E+01 -1.75554E+01 -1.69367E+01 -1.64540E+01 -1.63395E+01
  -1.61778E+01 -1.56880E+01 -1.49681E+01 -1.41350E+01 -1.34902E+01 -1.28191E+01 -1.19192E+01 -1.07250E+01 -9.33282E+00 -7.79090E+00
  -6.75244E+00 -6.14339E+00 -5.83508E+00 -5.70447E+00 -5.64236E+00 -5.48037E+00 -5.01916E+00 -4.59283E+00 -3.99802E+00 -3.22319E+00
  -2.35798E+00 -1.55161E+00 -1.18305E+00 -8.22761E-01 -1.01679E+00 -2.15878E+00 -3.80122E+00 -5.58922E+00 -6.78056E+00 -7.07962E+00
  -7.24814E+00 -6.50387E+00 -4.83380E+00 -2.60570E+00 -1.76580E-02  1.98692E+00  2.89365E+00  2.63024E+00  1.07758E+00 -1.34819E+00
  -4.07206E+00 -6.67352E+00 -7.93852E+00 -7.56909E+00 -5.70890E+00 -2.97678E+00 -4.67966E-01  1.60859E+00  3.23501E+00  4.45818E+00
   4.95144E+00  5.22109E+00  5.64144E+00  5.86601E+00  5.86239E+00  5.92443E+00  6.29157E+00  6.96490E+00  7.59298E+00  7.54714E+00
   7.06126E+00  6.47950E+00  5.93601E+00  5.75352E+00  6.23178E+00  7.30635E+00  8.46442E+00  9.74622E+00  1.15541E+01  1.29986E+01
   1.43442E+01  1.73868E+01  2.69793E+01  3.75203E+01  4.47721E+01  5.18619E+01  5.86358E+01  7.00087E+01  8.52692E+01  9.82937E+01
   1.04278E+02  1.01243E+02  8.83679E+01  7.27024E+01  6.02417E+01  4.81665E+01  3.71734E+01  2.98046E+01  2.51205E+01  1.89435E+01
   1.36032E+01  1.17225E+01  1.10295E+01  1.06482E+01  1.04100E+01  1.02949E+01  1.01216E+01  9.89342E+00  9.67805E+00  9.46856E+00
   9.26845E+00  9.12418E+00  9.04538E+00  9.00292E+00  8.98139E+00  8.98813E+00  9.03756E+00  9.12472E+00  9.23657E+00  9.39502E+00
   9.62509E+00  9.91580E+00  1.02609E+01  1.06626E+01  1.11183E+01  1.16287E+01  1.21908E+01  1.28016E+01  1.34629E+01  1.41729E+01
   1.49244E+01  1.57039E+01  1.64950E+01  1.72811E+01  1.80470E+01  1.87742E+01  1.94446E+01  2.00476E+01  2.05751E+01  2.10164E+01
   2.13672E+01  2.16289E+01  2.18051E+01  2.19037E+01  2.19371E+01  2.19205E+01  2.18714E+01  2.18109E+01  2.17682E+01  2.17771E+01
   2.17578E+01  2.17169E+01  2.17339E+01  2.18014E+01  2.19496E+01  2.21111E+01  2.21870E+01  2.22371E+01  2.23066E+01  2.23338E+01
   2.24404E+01  2.26255E+01  2.28647E+01  2.32311E+01  2.37000E+01  2.41647E+01  2.45262E+01  2.47557E+01  2.48518E+01  2.48702E+01
   2.48120E+01  2.46749E+01  2.44992E+01  2.43213E+01  2.41046E+01  2.38402E+01  2.35868E+01  2.33426E+01  2.31027E+01  2.28663E+01
   2.26336E+01  2.24045E+01  2.21784E+01  2.19542E+01  2.17298E+01  2.15030E+01  2.12711E+01  2.10316E+01  2.07821E+01  2.05205E+01
   2.02448E+01  1.99537E+01  1.96464E+01  1.93230E+01  1.89842E+01  1.86313E+01  1.82661E+01  1.78910E+01  1.75091E+01  1.71237E+01
   1.67385E+01  1.63575E+01  1.59844E+01  1.56235E+01  1.52788E+01  1.49544E+01  1.46543E+01  1.43822E+01  1.41418E+01  1.39366E+01
   1.37702E+01  1.36460E+01  1.35670E+01  1.35360E+01  1.35556E+01  1.36281E+01  1.37551E+01  1.39376E+01  1.41753E+01  1.44670E+01
   1.48100E+01  1.52002E+01  1.56315E+01  1.60962E+01  1.65844E+01  1.70847E+01  1.75842E+01  1.80688E+01  1.85240E+01  1.89347E+01
   1.92867E+01  1.95670E+01  1.97645E+01  1.98704E+01  1.98789E+01  1.97873E+01  1.95960E+01  1.93092E+01  1.89336E+01  1.84788E+01
   1.79563E+01  1.73791E+01  1.67608E+01  1.61155E+01  1.54565E+01  1.47965E+01  1.41462E+01  1.35152E+01  1.29109E+01  1.23393E+01
   1.18042E+01  1.13080E+01  1.08514E+01  1.04341E+01  1.00549E+01  9.71192E+00  9.40257E+00  9.12412E+00  8.87359E+00  8.64821E+00
   8.44522E+00  8.26213E+00  8.09645E+00  7.94604E+00  7.80890E+00  7.68346E+00  7.56825E+00  7.46206E+00  7.36369E+00  7.27219E+00
   7.18673E+00  7.10675E+00  7.03163E+00  6.96089E+00  6.89399E+00  6.83059E+00  6.77034E+00  6.71309E+00  6.65854E+00  6.60649E+00
   6.55665E+00  6.50892E+00  6.46317E+00  6.41935E+00  6.37727E+00  6.33681E+00  6.29778E+00  6.26017E+00  6.22388E+00  6.18892E+00
   6.15509E+00  6.12235E+00  6.09057E+00  6.05981E+00  6.02998E+00  6.00110E+00  5.97298E+00  5.94563E+00  5.91894E+00  5.89302E+00
   5.86777E+00  5.84319E+00  5.81912E+00  5.79561E+00  5.77259E+00  5.75015E+00  5.72819E+00  5.70669E+00  5.68553E+00  5.66476E+00
   5.64436E+00  5.62438E+00  5.60470E+00  5.58534E+00  5.56617E+00  5.54729E+00  5.52866E+00  5.51033E+00  5.49216E+00  5.47417E+00
   5.45628E+00  5.43860E+00  5.42106E+00  5.40371E+00  5.38640E+00  5.36918E+00  5.35199E+00  5.33495E+00
 NY background values follow
    -6.220E+01   -6.187E+01   -6.154E+01   -6.120E+01   -6.087E+01   -6.053E+01   -6.020E+01   -5.987E+01   -5.953E+01   -5.920E+01
    -5.887E+01   -5.853E+01   -5.820E+01   -5.786E+01   -5.753E+01   -5.720E+01   -5.686E+01   -5.653E+01   -5.620E+01   -5.587E+01
    -5.553E+01   -5.520E+01   -5.487E+01   -5.454E+01   -5.420E+01   -5.387E+01   -5.354E+01   -5.321E+01   -5.288E+01   -5.254E+01
    -5.221E+01   -5.188E+01   -5.155E+01   -5.122E+01   -5.089E+01   -5.056E+01   -5.023E+01   -4.990E+01   -4.958E+01   -4.925E+01
    -4.892E+01   -4.859E+01   -4.826E+01   -4.794E+01   -4.761E+01   -4.728E+01   -4.696E+01   -4.663E+01   -4.631E+01   -4.598E+01
    -4.566E+01   -4.533E+01   -4.501E+01   -4.469E+01   -4.437E+01   -4.404E+01   -4.372E+01   -4.340E+01   -4.308E+01   -4.276E+01
    -4.244E+01   -4.213E+01   -4.181E+01   -4.149E+01   -4.117E+01   -4.086E+01   -4.054E+01   -4.023E+01   -3.992E+01   -3.960E+01
    -3.929E+01   -3.898E+01   -3.867E+01   -3.836E+01   -3.805E+01   -3.774E+01   -3.743E+01   -3.713E+01   -3.682E+01   -3.652E+01
    -3.621E+01   -3.591E+01   -3.561E+01   -3.531E+01   -3.501E+01   -3.471E+01   -3.441E+01   -3.411E+01   -3.382E+01   -3.352E+01
    -3.323E+01   -3.293E+01   -3.264E+01   -3.235E+01   -3.206E+01   -3.177E+01   -3.148E+01   -3.120E+01   -3.091E+01   -3.063E+01
    -3.034E+01   -3.006E+01   -2.978E+01   -2.950E+01   -2.922E+01   -2.894E+01   -2.867E+01   -2.839E+01   -2.811E+01   -2.784E+01
    -2.757E+01   -2.730E+01   -2.703E+01   -2.676E+01   -2.649E+01   -2.622E+01   -2.595E+01   -2.569E+01   -2.542E+01   -2.516E+01
    -2.490E+01   -2.464E+01   -2.438E+01   -2.412E+01   -2.386E+01   -2.361E+01   -2.335E+01   -2.310E+01   -2.284E+01   -2.259E+01
    -2.234E+01   -2.209E+01   -2.184E+01   -2.159E+01   -2.134E+01   -2.110E+01   -2.085E+01   -2.061E+01   -2.037E+01   -2.013E+01
    -1.989E+01   -1.965E+01   -1.941E+01   -1.917E+01   -1.893E+01   -1.870E+01   -1.847E+01   -1.823E+01   -1.800E+01   -1.777E+01
    -1.754E+01   -1.731E+01   -1.708E+01   -1.686E+01   -1.663E+01   -1.640E+01   -1.618E+01   -1.596E+01   -1.574E+01   -1.551E+01
    -1.529E+01   -1.508E+01   -1.486E+01   -1.464E+01   -1.442E+01   -1.421E+01   -1.399E+01   -1.378E+01   -1.357E+01   -1.336E+01
    -1.314E+01   -1.293E+01   -1.273E+01   -1.252E+01   -1.231E+01   -1.210E+01   -1.190E+01   -1.169E+01   -1.149E+01   -1.129E+01
    -1.109E+01   -1.088E+01   -1.068E+01   -1.049E+01   -1.029E+01   -1.009E+01   -9.892E+00   -9.696E+00   -9.501E+00   -9.307E+00
    -9.114E+00   -8.922E+00   -8.731E+00   -8.540E+00   -8.351E+00   -8.163E+00   -7.975E+00   -7.789E+00   -7.603E+00   -7.419E+00
    -7.235E+00   -7.053E+00   -6.871E+00   -6.691E+00   -6.511E+00   -6.333E+00   -6.156E+00   -5.979E+00   -5.804E+00   -5.630E+00
    -5.457E+00   -5.285E+00   -5.114E+00   -4.944E+00   -4.776E+00   -4.608E+00   -4.442E+00   -4.276E+00   -4.112E+00   -3.949E+00
    -3.788E+00   -3.627E+00   -3.467E+00   -3.309E+00   -3.152E+00   -2.996E+00   -2.842E+00   -2.688E+00   -2.536E+00   -2.385E+00
    -2.235E+00   -2.087E+00   -1.940E+00   -1.793E+00   -1.649E+00   -1.505E+00   -1.363E+00   -1.221E+00   -1.082E+00   -9.429E-01
    -8.054E-01   -6.692E-01   -5.342E-01   -4.005E-01   -2.680E-01   -1.367E-01   -6.718E-03    1.221E-01    2.496E-01    3.759E-01
     5.009E-01    6.247E-01    7.473E-01    8.686E-01    9.887E-01    1.107E+00    1.225E+00    1.341E+00    1.456E+00    1.570E+00
     1.683E+00    1.794E+00    1.904E+00    2.013E+00    2.120E+00    2.227E+00    2.332E+00    2.435E+00    2.538E+00    2.639E+00
     2.739E+00    2.837E+00    2.935E+00    3.031E+00    3.126E+00    3.219E+00    3.312E+00    3.403E+00    3.493E+00    3.581E+00
     3.669E+00    3.755E+00    3.839E+00    3.923E+00    4.005E+00    4.086E+00    4.166E+00    4.245E+00    4.322E+00    4.398E+00
     4.473E+00    4.547E+00    4.619E+00    4.691E+00    4.761E+00    4.830E+00    4.897E+00    4.964E+00    5.029E+00    5.093E+00
     5.155E+00    5.217E+00    5.277E+00    5.336E+00    5.394E+00    5.451E+00    5.507E+00    5.561E+00    5.614E+00    5.666E+00
     5.717E+00    5.766E+00    5.815E+00    5.862E+00    5.908E+00    5.953E+00    5.997E+00    6.039E+00    6.081E+00    6.121E+00
     6.160E+00    6.198E+00    6.235E+00    6.270E+00    6.305E+00    6.338E+00    6.371E+00    6.402E+00    6.432E+00    6.461E+00
     6.489E+00    6.516E+00    6.542E+00    6.567E+00    6.590E+00    6.613E+00    6.635E+00    6.656E+00    6.675E+00    6.694E+00
     6.711E+00    6.728E+00    6.744E+00    6.758E+00    6.772E+00    6.785E+00    6.797E+00    6.807E+00    6.817E+00    6.826E+00
     6.834E+00    6.841E+00    6.848E+00    6.853E+00    6.857E+00    6.861E+00    6.863E+00    6.865E+00    6.866E+00    6.866E+00
     6.865E+00    6.863E+00    6.861E+00    6.857E+00    6.853E+00    6.848E+00    6.843E+00    6.836E+00    6.829E+00    6.821E+00
     6.812E+00    6.803E+00    6.793E+00    6.782E+00    6.771E+00    6.759E+00    6.746E+00    6.733E+00    6.719E+00    6.705E+00
     6.690E+00    6.675E+00    6.659E+00    6.643E+00    6.626E+00    6.609E+00    6.591E+00    6.573E+00    6.554E+00    6.536E+00
     6.516E+00    6.497E+00    6.477E+00    6.456E+00    6.436E+00    6.415E+00    6.394E+00    6.372E+00    6.351E+00    6.329E+00
     6.307E+00    6.285E+00    6.262E+00    6.240E+00    6.217E+00    6.194E+00    6.172E+00    6.149E+00    6.126E+00    6.103E+00
     6.079E+00    6.056E+00    6.033E+00    6.010E+00    5.987E+00    5.963E+00    5.940E+00    5.917E+00    5.894E+00    5.871E+00
     5.848E+00    5.825E+00    5.802E+00    5.779E+00    5.756E+00    5.733E+00    5.711E+00    5.688E+00    5.666E+00    5.644E+00
     5.622E+00    5.600E+00    5.578E+00    5.557E+00    5.535E+00    5.514E+00    5.493E+00    5.472E+00    5.452E+00    5.432E+00
     5.412E+00    5.392E+00    5.372E+00    5.353E+00    5.334E+00    5.315E+00    5.297E+00    5.279E+00    5.261E+00    5.244E+00
     5.227E+00    5.210E+00    5.194E+00    5.178E+00    5.162E+00    5.147E+00    5.132E+00    5.117E+00    5.103E+00    5.089E+00
     5.075E+00    5.061E+00    5.048E+00    5.035E+00    5.023E+00    5.010E+00    4.998E+00    4.986E+00    4.974E+00    4.963E+00
     4.951E+00    4.940E+00    4.929E+00    4.919E+00    4.908E+00    4.897E+00    4.887E+00    4.877E+00    4.867E+00    4.857E+00
     4.847E+00    4.837E+00    4.827E+00    4.817E+00    4.808E+00    4.798E+00    4.788E+00    4.779E+00    4.769E+00    4.760E+00
     4.750E+00    4.741E+00    4.731E+00    4.721E+00    4.712E+00    4.702E+00    4.692E+00    4.682E+00
 Ala      Conc. = 7.59E+01
