 LCModel (Version 6.3-1L) Copyright: S.W. Provencher.          Ref.: Magn. Reson. Med. 30:672-679 (1993).                
 Slice#2 Row#9 Col#6  PD_24_press_1_raw_act
 36 lines in following concentration table = NCONC+1
    Conc.  %SD /Cr+PCr  Metabolite                                         
  145.082  85%   0.109 Ala                                                 
    0.000 999%   0.000 Asp                                                 
  560.111  25%   0.422 Cr                                                  
  765.912  19%   0.578 PCr                                                 
    0.000 999%   0.000 GABA                                                
   20.856 830% 1.6E-02 Glc                                                 
  772.062  34%   0.582 Gln                                                 
 1.66E+03  19%   1.252 Glu                                                 
  602.048  11%   0.454 GPC                                                 
  125.628  48% 9.5E-02 PCh                                                 
  327.282  27%   0.247 GSH                                                 
 1.14E+03  25%   0.862 Ins                                                 
  305.509  46%   0.230 Lac                                                 
 2.49E+03   4%   1.880 NAA                                                 
    0.000 999%   0.000 NAAG                                                
  179.646  18%   0.135 Scyllo                                              
  467.211  48%   0.352 Tau                                                 
  228.110  49%   0.172 -CrCH2                                              
  727.676   4%   0.549 GPC+PCh                                             
 2.49E+03   4%   1.880 NAA+NAAG                                            
 1.33E+03   5%   1.000 Cr+PCr                                              
 2.43E+03  18%   1.835 Glu+Gln                                             
  441.333  72%   0.333 Lip13a                                              
    0.000 999%   0.000 Lip13b                                              
    0.000 999%   0.000 Lip09                                               
 1.58E+03  12%   1.192 MM09                                                
  124.684  93% 9.4E-02 Lip20                                               
 4.30E+03  10%   3.239 MM20                                                
  552.626  34%   0.417 MM12                                                
 1.90E+03  18%   1.431 MM14                                                
 1.31E+03  19%   0.987 MM17                                                
  441.333  72%   0.333 Lip13a+Lip13b                                       
 2.89E+03  12%   2.180 MM14+Lip13a+Lip13b+MM12                             
 1.58E+03  12%   1.192 MM09+Lip09                                          
 4.42E+03   9%   3.333 MM20+Lip20                                          
   6 lines in following misc. output table
  FWHM = 0.054 ppm    S/N =  11                                            
  Data shift = 0.008 ppm                                                   
  Ph: -46 deg     -17.9 deg/ppm                                            
  alphaB,S = 6.2E+00,   3.9E-01                                            
   14 spline knots.   Ns = 7(1)                                            
  10 inflections.    13 extrema                                            
  498 points on ppm-axis = NY
      4.000000     3.992357     3.984714     3.977070     3.969427     3.961784     3.954141     3.946497     3.938854     3.931211
      3.923568     3.915925     3.908281     3.900638     3.892995     3.885352     3.877708     3.870065     3.862422     3.854779
      3.847136     3.839492     3.831849     3.824206     3.816563     3.808919     3.801276     3.793633     3.785990     3.778347
      3.770703     3.763060     3.755417     3.747774     3.740130     3.732487     3.724844     3.717201     3.709558     3.701914
      3.694271     3.686628     3.678985     3.671341     3.663698     3.656055     3.648412     3.640769     3.633125     3.625482
      3.617839     3.610196     3.602552     3.594909     3.587266     3.579623     3.571980     3.564336     3.556693     3.549050
      3.541407     3.533763     3.526120     3.518477     3.510834     3.503191     3.495547     3.487904     3.480261     3.472618
      3.464974     3.457331     3.449688     3.442045     3.434402     3.426758     3.419115     3.411472     3.403829     3.396185
      3.388542     3.380899     3.373256     3.365613     3.357969     3.350326     3.342683     3.335040     3.327396     3.319753
      3.312110     3.304467     3.296824     3.289180     3.281537     3.273894     3.266251     3.258607     3.250964     3.243321
      3.235678     3.228034     3.220391     3.212748     3.205105     3.197462     3.189818     3.182175     3.174532     3.166889
      3.159245     3.151602     3.143959     3.136316     3.128673     3.121029     3.113386     3.105743     3.098100     3.090456
      3.082813     3.075170     3.067527     3.059884     3.052240     3.044597     3.036954     3.029311     3.021667     3.014024
      3.006381     2.998738     2.991095     2.983451     2.975808     2.968165     2.960522     2.952878     2.945235     2.937592
      2.929949     2.922306     2.914662     2.907019     2.899376     2.891733     2.884089     2.876446     2.868803     2.861160
      2.853517     2.845873     2.838230     2.830587     2.822944     2.815300     2.807657     2.800014     2.792371     2.784728
      2.777084     2.769441     2.761798     2.754155     2.746511     2.738868     2.731225     2.723582     2.715939     2.708295
      2.700652     2.693009     2.685366     2.677722     2.670079     2.662436     2.654793     2.647150     2.639506     2.631863
      2.624220     2.616577     2.608933     2.601290     2.593647     2.586004     2.578361     2.570717     2.563074     2.555431
      2.547788     2.540144     2.532501     2.524858     2.517215     2.509572     2.501928     2.494285     2.486642     2.478999
      2.471355     2.463712     2.456069     2.448426     2.440783     2.433139     2.425496     2.417853     2.410210     2.402566
      2.394923     2.387280     2.379637     2.371994     2.364350     2.356707     2.349064     2.341421     2.333777     2.326134
      2.318491     2.310848     2.303205     2.295561     2.287918     2.280275     2.272632     2.264988     2.257345     2.249702
      2.242059     2.234416     2.226772     2.219129     2.211486     2.203843     2.196199     2.188556     2.180913     2.173270
      2.165627     2.157983     2.150340     2.142697     2.135054     2.127410     2.119767     2.112124     2.104481     2.096838
      2.089194     2.081551     2.073908     2.066265     2.058621     2.050978     2.043335     2.035692     2.028049     2.020405
      2.012762     2.005119     1.997476     1.989833     1.982190     1.974546     1.966903     1.959260     1.951617     1.943974
      1.936331     1.928688     1.921045     1.913402     1.905759     1.898115     1.890472     1.882829     1.875186     1.867543
      1.859900     1.852257     1.844614     1.836971     1.829327     1.821684     1.814041     1.806398     1.798755     1.791112
      1.783469     1.775826     1.768183     1.760540     1.752896     1.745253     1.737610     1.729967     1.722324     1.714681
      1.707038     1.699395     1.691752     1.684108     1.676465     1.668822     1.661179     1.653536     1.645893     1.638250
      1.630607     1.622964     1.615321     1.607677     1.600034     1.592391     1.584748     1.577105     1.569462     1.561819
      1.554176     1.546533     1.538890     1.531246     1.523603     1.515960     1.508317     1.500674     1.493031     1.485388
      1.477745     1.470102     1.462458     1.454815     1.447172     1.439529     1.431886     1.424243     1.416600     1.408957
      1.401314     1.393671     1.386027     1.378384     1.370741     1.363098     1.355455     1.347812     1.340169     1.332526
      1.324883     1.317240     1.309596     1.301953     1.294310     1.286667     1.279024     1.271381     1.263738     1.256095
      1.248452     1.240808     1.233165     1.225522     1.217879     1.210236     1.202593     1.194950     1.187307     1.179664
      1.172021     1.164377     1.156734     1.149091     1.141448     1.133805     1.126162     1.118519     1.110876     1.103233
      1.095590     1.087946     1.080303     1.072660     1.065017     1.057374     1.049731     1.042088     1.034445     1.026802
      1.019158     1.011515     1.003872     0.996229     0.988586     0.980943     0.973300     0.965657     0.958014     0.950371
      0.942727     0.935084     0.927441     0.919798     0.912155     0.904512     0.896869     0.889226     0.881583     0.873940
      0.866296     0.858653     0.851010     0.843367     0.835724     0.828081     0.820438     0.812795     0.805152     0.797508
      0.789865     0.782222     0.774579     0.766936     0.759293     0.751650     0.744007     0.736364     0.728721     0.721077
      0.713434     0.705791     0.698148     0.690505     0.682862     0.675219     0.667576     0.659933     0.652290     0.644646
      0.637003     0.629360     0.621717     0.614074     0.606431     0.598788     0.591145     0.583502     0.575858     0.568215
      0.560572     0.552929     0.545286     0.537643     0.530000     0.522357     0.514714     0.507071     0.499427     0.491784
      0.484141     0.476498     0.468855     0.461212     0.453569     0.445925     0.438282     0.430639     0.422996     0.415353
      0.407710     0.400067     0.392424     0.384780     0.377137     0.369494     0.361851     0.354208     0.346565     0.338922
      0.331278     0.323635     0.315992     0.308349     0.300706     0.293063     0.285420     0.277777     0.270133     0.262490
      0.254847     0.247204     0.239561     0.231918     0.224275     0.216631     0.208988     0.201345
 NY phased data points follow
  -3.07789E+01 -2.19150E+01 -2.65461E+01 -1.70825E+01 -2.00446E+01 -7.03574E+00 -1.29703E+01 -2.35186E-02 -4.02476E+00  1.34607E+01
   4.21766E+00  1.36258E+01  4.67358E+00  1.53012E+01 -4.35409E+00  1.26692E-01 -1.53146E+01 -1.04743E+01 -1.54199E+01 -1.62175E+01
  -2.27641E+01 -1.45670E+01 -1.77559E+01 -6.92665E+00 -1.49692E+01 -3.00297E+00 -1.33741E+01 -5.63863E+00 -1.59383E+01 -5.71636E+00
  -7.17247E+00 -5.54493E+00 -9.97070E+00 -6.48323E+00 -1.66438E+01 -8.06335E+00 -1.34879E+01 -7.01201E+00 -1.87285E+01 -4.43646E+00
  -1.29436E+01 -1.18490E+00 -6.90641E+00 -2.37577E+00 -8.15325E+00  3.05651E+00 -9.37524E+00  7.94609E+00 -5.34865E+00  4.95666E-01
  -5.58638E+00 -3.20254E+00 -9.88875E+00 -9.47301E+00 -1.06062E+01 -8.19098E+00 -9.40527E+00 -8.72344E+00 -7.68831E+00 -6.50884E+00
  -1.03978E+01 -5.41070E+00 -1.57689E+01 -1.08583E+01 -1.66470E+01 -1.51750E+01 -1.44604E+01 -8.38395E+00 -1.69714E+01 -8.48660E+00
  -2.04147E+01 -1.18331E+01 -1.66010E+01 -3.91653E+00 -1.03724E+01 -6.33082E+00 -1.06410E+01 -6.09929E+00 -8.40903E+00 -1.11502E+01
  -9.38041E+00 -7.71567E+00 -1.10174E+01 -5.31135E+00 -1.21416E+01 -1.09780E+00 -1.31532E+01  1.09133E+00 -6.90520E+00  3.98165E+00
  -6.02585E+00  5.29063E-01 -7.51059E+00  1.43337E-01 -9.70561E-01  5.54015E+00  1.92435E+00  6.54027E+00  6.19376E+00  2.17742E+01
   2.52603E+01  4.57328E+01  4.96356E+01  5.75892E+01  5.19479E+01  4.57036E+01  2.64002E+01  2.87231E+01  1.33496E+01  1.49217E+01
  -6.16426E-01  8.06103E-01 -8.52123E-01 -1.80388E+00 -8.27914E+00 -8.09810E+00 -8.59415E+00 -3.42446E+00 -8.65658E+00 -1.26517E+00
  -6.89207E+00  1.00114E+00  3.77500E+00  6.83784E+00  1.39389E+01  2.06578E+01  2.86766E+01  3.61996E+01  3.18217E+01  3.55002E+01
   2.96028E+01  2.05500E+01  9.39507E+00  8.30922E+00 -2.57704E+00  5.22213E+00 -4.08009E+00 -1.41182E+00 -8.19037E+00 -3.14666E+00
  -1.00318E+01 -1.58660E+00 -1.09449E+01  2.48148E+00 -1.17854E+01 -4.28676E+00 -1.12320E+01 -8.62864E+00 -7.58339E+00 -1.92667E+00
  -8.59070E+00 -7.20769E+00 -5.64020E+00  6.28168E-02 -9.54884E+00 -6.15652E+00 -9.37050E+00 -5.23171E+00 -7.19734E+00 -6.35594E+00
  -6.50570E+00 -1.06309E+01 -1.07270E+01 -1.64252E+00 -8.18058E+00 -2.00743E+00 -3.06022E+00 -2.44880E+00 -1.31089E+01 -4.15273E+00
  -1.52070E+01 -1.02446E+01 -1.41860E+01 -8.52692E+00 -1.21282E+01 -1.59640E+01 -1.46770E+01 -1.06872E+01 -1.27391E+01 -1.20682E+01
  -7.65276E+00 -1.28414E+01 -1.39191E+01 -1.54031E+01 -1.13997E+01 -1.51923E+01 -1.06472E+01 -2.98077E+00 -8.49572E+00  2.42138E+00
  -7.15286E+00  5.13444E+00  2.30077E+00  5.45929E+00  2.29712E+00  4.14846E+00 -2.46314E+00 -5.76323E-01 -2.25309E+00 -3.82558E+00
  -1.98847E+00 -2.82269E+00 -4.43294E+00  4.47671E+00 -5.48630E+00  2.43509E+00  1.08196E+00  5.98288E+00 -2.12066E+00 -7.12236E+00
  -5.27923E+00 -6.47670E+00 -2.30918E+00  6.64734E+00  6.65583E+00  1.38934E+01  7.99200E+00  1.32462E+01  6.68850E+00  6.47428E+00
   2.80702E+00  1.47929E+00 -6.84051E+00 -9.32989E-01 -3.63609E+00  7.41462E+00  2.16328E-01  9.94761E+00  1.04543E+01  1.03972E+01
   3.93701E+00  1.43704E+01  7.71336E+00  7.12626E+00  7.48058E+00  7.45022E+00  9.77389E+00  1.37275E+01  2.82027E+00  1.16291E+01
   6.06842E+00  7.07718E+00  1.44643E+00  9.69276E+00  3.90947E+00  1.53688E+01  5.08146E+00  1.19876E+01  1.48383E+01  9.63817E+00
   1.10043E+01  1.64421E+01  2.08331E+01  2.54010E+01  3.15463E+01  4.24899E+01  4.57953E+01  4.74658E+01  5.96067E+01  7.36026E+01
   8.94183E+01  9.43635E+01  8.07012E+01  6.69642E+01  4.56801E+01  4.29699E+01  2.71176E+01  3.22245E+01  2.29106E+01  1.73301E+01
   1.15133E+01  1.59421E+01  8.63500E+00  1.37653E+01  1.24281E+01  1.10977E+01  6.22651E+00  6.95175E+00  5.70966E+00  1.15316E+01
   5.16976E+00  1.00387E+01  3.60904E+00  5.05840E+00  6.45927E+00  5.89595E+00 -6.10150E-01  2.80138E+00  3.88183E+00  8.48274E+00
   6.34908E+00  1.01257E+01  6.11387E+00  7.89884E+00  7.98141E+00  1.02794E+01  9.85068E+00  4.87510E+00  7.15145E+00  6.58469E+00
   7.72324E+00  6.18501E+00  6.73872E+00  1.41123E+01  6.06980E+00  1.07522E+01  4.10998E+00  1.04960E+01  1.17932E+01  1.19079E+01
   6.59175E+00  1.45044E+01  5.55567E+00  1.34173E+01  1.07852E+01  1.15103E+01  1.18373E+01  1.20544E+01  1.06301E+01  1.03568E+01
   1.09526E+01  1.11965E+01  8.27192E+00  1.70602E+01  7.49681E+00  9.96829E+00  1.16690E+01  1.22796E+01  1.32410E+01  1.23743E+01
   6.78864E+00  1.10875E+01  1.06832E+01  1.27337E+01  1.31306E+01  1.75214E+01  1.33497E+01  1.20564E+01  1.39499E+01  1.73271E+01
   1.33889E+01  1.25139E+01  6.58791E+00  9.05611E+00  1.12375E+01  1.89041E+01  1.27552E+01  1.39813E+01  1.22827E+01  6.60556E+00
   7.49552E+00  6.30521E+00  4.65770E+00  1.14122E+01  8.93162E+00  1.76398E+01  9.79401E+00  1.25515E+01  7.25086E+00  1.23531E+01
   7.75382E+00  1.43704E+01  8.85513E+00  3.71823E+00  7.59467E+00  8.03778E+00  6.96632E+00  9.31049E+00  1.14437E+01  1.04945E+01
   1.20708E+01  7.01100E+00  1.26068E+01  1.16474E+01  7.60164E+00  1.07795E+01  1.13526E+01  1.02140E+01  7.03656E+00  1.29101E+01
   3.48257E+00  9.79482E+00  7.69552E+00  1.60200E+01  6.73844E+00  8.60690E+00  8.03564E+00  8.24462E+00  5.53637E+00  7.93003E+00
   9.69763E+00  7.82166E+00  7.36257E+00  1.33006E+01  1.03925E+01  9.66942E+00  8.90124E+00  2.06416E+01  1.59435E+01  1.29499E+01
   1.34906E+01  1.50502E+01  1.13728E+01  1.17884E+01  1.26179E+01  1.12221E+01  1.83293E+01  9.35213E+00  1.02673E+01  1.57899E+01
   1.36988E+01  1.24115E+01  9.53489E+00  1.54816E+01  9.00094E+00  1.74335E+01  9.11379E+00  1.27429E+01  6.17138E+00  8.98253E+00
   1.16722E+01  1.32613E+01  6.99984E+00  8.66350E+00  9.75866E+00  8.27679E+00  1.07852E+01  6.91821E+00  6.52795E+00  1.12150E+01
   9.60719E+00  8.84724E+00  1.03358E+01  7.46579E+00  2.44893E+00  6.10839E+00  8.89263E+00  3.96451E+00  4.84771E+00  7.50950E+00
   4.31366E+00  7.61900E+00  7.07251E+00  8.17180E+00  5.27496E+00  1.21257E+01  7.41730E+00  4.47815E+00  8.19302E+00  1.02886E+01
   7.11962E+00  6.30306E+00  8.95158E+00  4.62246E+00  9.06244E+00  8.86437E+00  4.75503E+00  8.03053E+00  5.95461E+00  7.95832E+00
   1.66661E+00  6.20498E+00  6.49635E+00  2.09802E+00  3.98978E+00  4.16959E+00  7.36332E+00  6.52279E+00  6.18892E+00  7.35084E+00
   6.38060E+00  1.10328E+01  4.73707E+00  6.90034E+00  6.22095E+00  6.28161E+00  5.44225E+00  7.52795E+00  6.28081E+00  4.52766E+00
   3.43764E+00  4.02695E+00  4.63571E+00  7.79219E+00  6.74457E+00  4.30751E+00  5.77838E+00  5.25499E+00  6.67789E+00  1.35886E+00
   7.75197E+00  5.45911E+00  7.44998E+00  5.05345E+00  5.66505E+00  7.60705E+00  4.30973E+00  7.44491E+00
 NY points of the fit to the data follow
  -1.72781E+01 -1.73411E+01 -1.65941E+01 -1.65566E+01 -1.10579E+01 -1.08269E+01 -8.83781E+00 -4.57462E+00 -5.42240E+00  6.78618E+00
   3.60857E+00  1.53874E+01  4.92186E+00  1.16205E+01 -4.69525E+00  3.19762E+00 -1.01983E+01 -3.08446E+00 -7.87112E+00 -1.07169E+01
  -1.19710E+01 -1.16550E+01 -1.29882E+01 -1.00752E+01 -1.38434E+01 -9.48012E+00 -1.32903E+01 -8.13064E+00 -1.07874E+01 -5.75923E+00
  -8.29980E+00 -4.05283E+00 -6.49305E+00 -4.78900E+00 -6.00254E+00 -6.91067E+00 -8.02317E+00 -9.47205E+00 -1.31725E+01 -1.04083E+01
  -1.20511E+01 -8.71373E+00 -9.66521E+00 -7.12122E+00 -7.22484E+00 -4.36853E+00 -4.01850E+00 -2.35476E+00 -3.30456E+00 -4.62843E+00
  -7.01615E+00 -9.04679E+00 -9.66316E+00 -9.95410E+00 -9.92250E+00 -1.07382E+01 -1.10468E+01 -9.97640E+00 -1.03436E+01 -8.82303E+00
  -9.49731E+00 -8.67464E+00 -1.04196E+01 -9.67434E+00 -1.19473E+01 -9.80145E+00 -1.15281E+01 -9.31746E+00 -1.10857E+01 -8.37101E+00
  -1.05904E+01 -7.96939E+00 -1.01446E+01 -8.13077E+00 -9.25616E+00 -8.47837E+00 -8.55274E+00 -9.38767E+00 -9.46088E+00 -1.08984E+01
  -9.31339E+00 -8.66725E+00 -9.67452E+00 -5.01362E+00 -9.49327E+00 -9.68731E-01 -6.26153E+00  1.90924E+00 -6.01000E+00  3.24079E-01
  -9.24964E+00 -4.00537E+00 -9.72760E+00 -7.02823E+00 -7.53732E+00 -5.84652E+00  3.02057E+00  4.90824E+00  1.19673E+01  1.71672E+01
   2.59321E+01  4.23656E+01  4.91890E+01  6.11389E+01  5.16356E+01  4.85145E+01  2.73453E+01  2.56310E+01  7.98461E+00  1.36099E+01
   4.09128E+00 -1.85329E+00 -4.54900E+00 -6.19120E+00 -6.38335E+00 -6.76206E+00 -6.89889E+00 -7.06933E+00 -6.81134E+00 -6.16442E+00
  -2.66582E+00  5.38631E-01  5.07347E+00  6.95405E+00  1.19363E+01  1.90833E+01  2.63485E+01  3.56844E+01  3.52775E+01  3.65147E+01
   2.50572E+01  2.18673E+01  9.83672E+00  1.06276E+01  2.79087E+00  3.58045E+00 -3.86805E+00 -4.17712E+00 -5.52762E+00 -3.83191E+00
  -4.60090E+00 -3.41015E+00 -4.67702E+00 -3.54229E+00 -5.08446E+00 -4.30720E+00 -5.18799E+00 -5.06762E+00 -5.35002E+00 -5.63677E+00
  -5.80481E+00 -5.95187E+00 -6.07492E+00 -6.14094E+00 -6.40921E+00 -6.65275E+00 -6.46723E+00 -6.88353E+00 -6.33511E+00 -7.21335E+00
  -7.38449E+00 -7.99847E+00 -7.92587E+00 -7.50365E+00 -7.14748E+00 -6.76502E+00 -7.39397E+00 -7.46336E+00 -9.03234E+00 -8.78334E+00
  -9.68924E+00 -9.39640E+00 -9.62843E+00 -1.02867E+01 -1.06429E+01 -1.14526E+01 -1.07029E+01 -1.11658E+01 -9.83425E+00 -1.03782E+01
  -9.63904E+00 -1.06949E+01 -9.32828E+00 -1.00686E+01 -8.47739E+00 -8.48249E+00 -7.85832E+00 -7.24388E+00 -6.04795E+00 -4.54287E+00
  -3.24552E+00 -2.59348E+00 -3.18773E+00 -2.73947E+00 -4.38583E+00 -3.07841E+00 -4.15883E+00 -2.56925E+00 -3.05032E+00 -1.06061E+00
  -9.43905E-01  6.75856E-01  1.08247E+00  1.75067E+00  6.73372E-01  2.13353E+00 -2.25372E+00 -1.07017E+00 -6.50577E+00 -4.16260E+00
  -7.36268E+00 -3.47372E+00 -5.56693E+00  6.41435E-01 -5.06359E-01  5.85230E+00  3.75175E+00  6.12499E+00  2.91597E+00  3.10513E+00
  -3.86697E+00 -2.40842E+00 -7.67017E+00 -4.32361E+00 -4.88233E+00 -1.83682E+00  1.39001E+00  4.28113E+00  5.44827E+00  6.16418E+00
   6.02929E+00  7.29848E+00  7.33251E+00  8.03017E+00  7.09549E+00  9.23637E+00  7.53994E+00  9.89657E+00  8.84498E+00  1.08958E+01
   9.60607E+00  1.00993E+01  9.10738E+00  8.81621E+00  1.04904E+01  9.98330E+00  1.24780E+01  1.27389E+01  1.43699E+01  1.43472E+01
   1.50690E+01  1.61794E+01  1.82090E+01  2.42724E+01  3.67500E+01  3.53680E+01  4.67307E+01  4.85467E+01  6.40125E+01  7.82109E+01
   8.72209E+01  9.24791E+01  7.94016E+01  6.92872E+01  4.47185E+01  4.40599E+01  2.24537E+01  3.30967E+01  1.69918E+01  1.21030E+01
   8.92084E+00  8.89388E+00  7.60686E+00  7.38602E+00  7.18631E+00  7.09040E+00  6.85597E+00  6.57867E+00  6.36266E+00  5.94126E+00
   5.78047E+00  5.53073E+00  5.42800E+00  5.19351E+00  5.25887E+00  5.17627E+00  5.29100E+00  5.32314E+00  5.42485E+00  5.59655E+00
   5.78102E+00  5.99230E+00  6.23720E+00  6.50723E+00  6.79529E+00  7.11089E+00  7.41136E+00  7.75138E+00  8.05484E+00  8.36836E+00
   8.65136E+00  8.92341E+00  9.15880E+00  9.37177E+00  9.54345E+00  9.68567E+00  9.78542E+00  9.85641E+00  9.89175E+00  9.90909E+00
   9.89954E+00  9.89131E+00  9.86179E+00  9.85396E+00  9.84100E+00  9.86597E+00  9.90320E+00  9.99723E+00  1.01291E+01  1.03668E+01
   1.07200E+01  1.09308E+01  1.08092E+01  1.15707E+01  1.11054E+01  1.23477E+01  1.12642E+01  1.20915E+01  1.05393E+01  1.16505E+01
   9.74842E+00  1.15635E+01  1.00554E+01  1.21748E+01  1.17118E+01  1.32206E+01  1.31319E+01  1.44494E+01  1.37324E+01  1.44138E+01
   1.42299E+01  1.43747E+01  1.36387E+01  1.44184E+01  1.26232E+01  1.44827E+01  1.17598E+01  1.26454E+01  9.22682E+00  1.02805E+01
   6.04690E+00  8.77281E+00  5.51767E+00  9.45607E+00  8.21569E+00  1.12490E+01  1.00603E+01  1.30317E+01  1.04252E+01  1.21434E+01
   1.01063E+01  1.07711E+01  1.06211E+01  9.92235E+00  9.56075E+00  9.32565E+00  9.12280E+00  8.95765E+00  8.79413E+00  8.65539E+00
   8.51331E+00  8.39461E+00  8.27372E+00  8.17876E+00  8.08557E+00  8.02261E+00  7.96606E+00  7.94404E+00  7.93287E+00  7.96042E+00
   8.00311E+00  8.08822E+00  8.19190E+00  8.34060E+00  8.51020E+00  8.72640E+00  8.96456E+00  9.24913E+00  9.55444E+00  9.90333E+00
   1.02689E+01  1.06722E+01  1.10845E+01  1.15246E+01  1.19620E+01  1.24132E+01  1.28464E+01  1.32766E+01  1.36708E+01  1.40435E+01
   1.43620E+01  1.46415E+01  1.48513E+01  1.50084E+01  1.50853E+01  1.51022E+01  1.50357E+01  1.49097E+01  1.47048E+01  1.44487E+01
   1.41255E+01  1.37652E+01  1.33545E+01  1.29246E+01  1.24631E+01  1.20008E+01  1.15247E+01  1.10643E+01  1.06048E+01  1.01734E+01
   9.75351E+00  9.36968E+00  9.00309E+00  8.67616E+00  8.36842E+00  8.10045E+00  7.85063E+00  7.63824E+00  7.44112E+00  7.27787E+00
   7.12623E+00  7.00448E+00  6.89050E+00  6.80256E+00  6.71886E+00  6.65782E+00  6.59809E+00  6.55819E+00  6.51717E+00  6.49369E+00
   6.46724E+00  6.45656E+00  6.44154E+00  6.44086E+00  6.43476E+00  6.44190E+00  6.44288E+00  6.45626E+00  6.46290E+00  6.48124E+00
   6.49241E+00  6.51476E+00  6.52965E+00  6.55531E+00  6.57327E+00  6.60162E+00  6.62211E+00  6.65270E+00  6.67535E+00  6.70784E+00
   6.73228E+00  6.76632E+00  6.79229E+00  6.82769E+00  6.85502E+00  6.89160E+00  6.92007E+00  6.95760E+00  6.98708E+00  7.02551E+00
   7.05590E+00  7.09509E+00  7.12625E+00  7.16611E+00  7.19801E+00  7.23853E+00  7.27111E+00  7.31217E+00  7.34533E+00  7.38690E+00
   7.42066E+00  7.46275E+00  7.49708E+00  7.53961E+00  7.57445E+00  7.61746E+00  7.65287E+00  7.69638E+00  7.73234E+00  7.77631E+00
   7.81284E+00  7.85737E+00  7.89457E+00  7.93970E+00  7.97759E+00  8.02338E+00  8.06209E+00  8.10875E+00
 NY background values follow
    -1.854E+01   -1.847E+01   -1.840E+01   -1.834E+01   -1.827E+01   -1.820E+01   -1.813E+01   -1.806E+01   -1.800E+01   -1.793E+01
    -1.786E+01   -1.779E+01   -1.772E+01   -1.766E+01   -1.759E+01   -1.752E+01   -1.745E+01   -1.738E+01   -1.732E+01   -1.725E+01
    -1.718E+01   -1.711E+01   -1.704E+01   -1.698E+01   -1.691E+01   -1.684E+01   -1.677E+01   -1.670E+01   -1.664E+01   -1.657E+01
    -1.650E+01   -1.643E+01   -1.636E+01   -1.630E+01   -1.623E+01   -1.616E+01   -1.609E+01   -1.602E+01   -1.595E+01   -1.589E+01
    -1.582E+01   -1.575E+01   -1.568E+01   -1.561E+01   -1.555E+01   -1.548E+01   -1.541E+01   -1.534E+01   -1.527E+01   -1.520E+01
    -1.514E+01   -1.507E+01   -1.500E+01   -1.493E+01   -1.486E+01   -1.480E+01   -1.473E+01   -1.466E+01   -1.459E+01   -1.452E+01
    -1.446E+01   -1.439E+01   -1.432E+01   -1.425E+01   -1.418E+01   -1.412E+01   -1.405E+01   -1.398E+01   -1.391E+01   -1.384E+01
    -1.378E+01   -1.371E+01   -1.364E+01   -1.357E+01   -1.350E+01   -1.344E+01   -1.337E+01   -1.330E+01   -1.323E+01   -1.317E+01
    -1.310E+01   -1.303E+01   -1.296E+01   -1.290E+01   -1.283E+01   -1.276E+01   -1.269E+01   -1.263E+01   -1.256E+01   -1.249E+01
    -1.242E+01   -1.236E+01   -1.229E+01   -1.222E+01   -1.216E+01   -1.209E+01   -1.202E+01   -1.195E+01   -1.189E+01   -1.182E+01
    -1.175E+01   -1.169E+01   -1.162E+01   -1.155E+01   -1.149E+01   -1.142E+01   -1.135E+01   -1.129E+01   -1.122E+01   -1.115E+01
    -1.109E+01   -1.102E+01   -1.095E+01   -1.089E+01   -1.082E+01   -1.076E+01   -1.069E+01   -1.062E+01   -1.056E+01   -1.049E+01
    -1.042E+01   -1.036E+01   -1.029E+01   -1.023E+01   -1.016E+01   -1.010E+01   -1.003E+01   -9.964E+00   -9.899E+00   -9.833E+00
    -9.767E+00   -9.702E+00   -9.637E+00   -9.571E+00   -9.506E+00   -9.441E+00   -9.376E+00   -9.311E+00   -9.246E+00   -9.181E+00
    -9.116E+00   -9.051E+00   -8.986E+00   -8.922E+00   -8.857E+00   -8.792E+00   -8.728E+00   -8.663E+00   -8.599E+00   -8.535E+00
    -8.470E+00   -8.406E+00   -8.342E+00   -8.278E+00   -8.214E+00   -8.150E+00   -8.086E+00   -8.022E+00   -7.959E+00   -7.895E+00
    -7.832E+00   -7.768E+00   -7.705E+00   -7.641E+00   -7.578E+00   -7.515E+00   -7.452E+00   -7.389E+00   -7.326E+00   -7.263E+00
    -7.200E+00   -7.137E+00   -7.075E+00   -7.012E+00   -6.950E+00   -6.887E+00   -6.825E+00   -6.763E+00   -6.701E+00   -6.639E+00
    -6.577E+00   -6.515E+00   -6.453E+00   -6.391E+00   -6.330E+00   -6.268E+00   -6.207E+00   -6.145E+00   -6.084E+00   -6.023E+00
    -5.962E+00   -5.901E+00   -5.840E+00   -5.779E+00   -5.718E+00   -5.658E+00   -5.597E+00   -5.537E+00   -5.476E+00   -5.416E+00
    -5.356E+00   -5.296E+00   -5.236E+00   -5.176E+00   -5.116E+00   -5.057E+00   -4.997E+00   -4.938E+00   -4.878E+00   -4.819E+00
    -4.760E+00   -4.701E+00   -4.642E+00   -4.583E+00   -4.524E+00   -4.466E+00   -4.407E+00   -4.349E+00   -4.290E+00   -4.232E+00
    -4.174E+00   -4.116E+00   -4.058E+00   -4.000E+00   -3.943E+00   -3.885E+00   -3.828E+00   -3.770E+00   -3.713E+00   -3.656E+00
    -3.599E+00   -3.542E+00   -3.485E+00   -3.429E+00   -3.372E+00   -3.315E+00   -3.259E+00   -3.203E+00   -3.147E+00   -3.091E+00
    -3.035E+00   -2.979E+00   -2.923E+00   -2.868E+00   -2.812E+00   -2.757E+00   -2.701E+00   -2.646E+00   -2.591E+00   -2.536E+00
    -2.481E+00   -2.427E+00   -2.372E+00   -2.317E+00   -2.263E+00   -2.209E+00   -2.154E+00   -2.100E+00   -2.046E+00   -1.992E+00
    -1.939E+00   -1.885E+00   -1.831E+00   -1.778E+00   -1.724E+00   -1.671E+00   -1.618E+00   -1.565E+00   -1.512E+00   -1.459E+00
    -1.406E+00   -1.354E+00   -1.301E+00   -1.249E+00   -1.196E+00   -1.144E+00   -1.092E+00   -1.040E+00   -9.878E-01   -9.360E-01
    -8.842E-01   -8.326E-01   -7.810E-01   -7.296E-01   -6.782E-01   -6.270E-01   -5.758E-01   -5.248E-01   -4.738E-01   -4.230E-01
    -3.722E-01   -3.215E-01   -2.710E-01   -2.205E-01   -1.701E-01   -1.198E-01   -6.963E-02   -1.953E-02    3.047E-02    8.038E-02
     1.302E-01    1.799E-01    2.295E-01    2.791E-01    3.285E-01    3.779E-01    4.272E-01    4.763E-01    5.254E-01    5.744E-01
     6.233E-01    6.721E-01    7.209E-01    7.695E-01    8.181E-01    8.665E-01    9.149E-01    9.632E-01    1.011E+00    1.060E+00
     1.108E+00    1.155E+00    1.203E+00    1.251E+00    1.299E+00    1.346E+00    1.394E+00    1.441E+00    1.489E+00    1.536E+00
     1.583E+00    1.630E+00    1.677E+00    1.724E+00    1.771E+00    1.818E+00    1.865E+00    1.911E+00    1.958E+00    2.005E+00
     2.051E+00    2.097E+00    2.144E+00    2.190E+00    2.236E+00    2.282E+00    2.328E+00    2.374E+00    2.420E+00    2.465E+00
     2.511E+00    2.557E+00    2.602E+00    2.648E+00    2.693E+00    2.738E+00    2.784E+00    2.829E+00    2.874E+00    2.919E+00
     2.964E+00    3.009E+00    3.054E+00    3.099E+00    3.143E+00    3.188E+00    3.233E+00    3.277E+00    3.322E+00    3.366E+00
     3.410E+00    3.455E+00    3.499E+00    3.543E+00    3.587E+00    3.631E+00    3.675E+00    3.719E+00    3.763E+00    3.807E+00
     3.851E+00    3.894E+00    3.938E+00    3.982E+00    4.025E+00    4.069E+00    4.112E+00    4.155E+00    4.199E+00    4.242E+00
     4.285E+00    4.328E+00    4.371E+00    4.414E+00    4.457E+00    4.500E+00    4.543E+00    4.586E+00    4.629E+00    4.672E+00
     4.714E+00    4.757E+00    4.800E+00    4.842E+00    4.885E+00    4.927E+00    4.970E+00    5.012E+00    5.054E+00    5.097E+00
     5.139E+00    5.181E+00    5.223E+00    5.265E+00    5.308E+00    5.350E+00    5.392E+00    5.434E+00    5.476E+00    5.517E+00
     5.559E+00    5.601E+00    5.643E+00    5.685E+00    5.726E+00    5.768E+00    5.810E+00    5.851E+00    5.893E+00    5.934E+00
     5.976E+00    6.017E+00    6.058E+00    6.100E+00    6.141E+00    6.182E+00    6.224E+00    6.265E+00    6.306E+00    6.347E+00
     6.388E+00    6.430E+00    6.471E+00    6.512E+00    6.553E+00    6.594E+00    6.635E+00    6.675E+00    6.716E+00    6.757E+00
     6.798E+00    6.839E+00    6.880E+00    6.920E+00    6.961E+00    7.002E+00    7.042E+00    7.083E+00    7.124E+00    7.164E+00
     7.205E+00    7.245E+00    7.286E+00    7.326E+00    7.367E+00    7.407E+00    7.448E+00    7.488E+00    7.529E+00    7.569E+00
     7.609E+00    7.650E+00    7.690E+00    7.730E+00    7.770E+00    7.811E+00    7.851E+00    7.891E+00    7.931E+00    7.971E+00
     8.012E+00    8.052E+00    8.092E+00    8.132E+00    8.172E+00    8.212E+00    8.252E+00    8.292E+00    8.332E+00    8.372E+00
     8.412E+00    8.452E+00    8.492E+00    8.532E+00    8.572E+00    8.612E+00    8.652E+00    8.692E+00
 Ala      Conc. = 1.45E+02
