 LCModel (Version 6.3-1L) Copyright: S.W. Provencher.          Ref.: Magn. Reson. Med. 30:672-679 (1993).                
 Slice#1 Row#1 Col#3  PD_24_press_1_raw_act
 36 lines in following concentration table = NCONC+1
    Conc.  %SD /Cr+PCr  Metabolite                                         
    0.000 999%   0.000 Ala                                                 
    5.521  96% 6.8E-02 Asp                                                 
    0.000 999%   0.000 Cr                                                  
   81.611  24%   1.000 PCr                                                 
    3.299  96% 4.0E-02 GABA                                                
    3.442  92% 4.2E-02 Glc                                                 
    0.000 999%   0.000 Gln                                                 
  212.068  51%   2.599 Glu                                                 
   10.122  76%   0.124 GPC                                                 
    0.000 999%   0.000 PCh                                                 
   30.961  98%   0.379 GSH                                                 
  341.569  27%   4.185 Ins                                                 
    0.000 999%   0.000 Lac                                                 
    0.000 999%   0.000 NAA                                                 
    0.000 999%   0.000 NAAG                                                
    1.155  92% 1.4E-02 Scyllo                                              
    5.809  91% 7.1E-02 Tau                                                 
    0.000 999%   0.000 -CrCH2                                              
   10.122  76%   0.124 GPC+PCh                                             
    0.000 999%   0.000 NAA+NAAG                                            
   81.611  24%   1.000 Cr+PCr                                              
  212.068  51%   2.599 Glu+Gln                                             
    0.000 999%   0.000 Lip13a                                              
    0.000 999%   0.000 Lip13b                                              
   20.632 198%   0.253 Lip09                                               
   32.802 174%   0.402 MM09                                                
    0.000 999%   0.000 Lip20                                               
    0.000 999%   0.000 MM20                                                
    0.000 999%   0.000 MM12                                                
    0.000 999%   0.000 MM14                                                
   36.425 185%   0.446 MM17                                                
    0.000 999%   0.000 Lip13a+Lip13b                                       
    0.000 999%   0.000 MM14+Lip13a+Lip13b+MM12                             
   53.434  97%   0.655 MM09+Lip09                                          
    0.000 999%   0.000 MM20+Lip20                                          
   6 lines in following misc. output table
  FWHM = 0.054 ppm    S/N =   1                                            
  Data shift = 0.015 ppm                                                   
  Ph: -66 deg      -9.9 deg/ppm                                            
  alphaB,S = 8.5E+01,   2.6E+01                                            
   14 spline knots.   Ns = 5(1)                                            
   2 inflections.     1 extrema                                            
  498 points on ppm-axis = NY
      4.000000     3.992357     3.984714     3.977070     3.969427     3.961784     3.954141     3.946497     3.938854     3.931211
      3.923568     3.915925     3.908281     3.900638     3.892995     3.885352     3.877708     3.870065     3.862422     3.854779
      3.847136     3.839492     3.831849     3.824206     3.816563     3.808919     3.801276     3.793633     3.785990     3.778347
      3.770703     3.763060     3.755417     3.747774     3.740130     3.732487     3.724844     3.717201     3.709558     3.701914
      3.694271     3.686628     3.678985     3.671341     3.663698     3.656055     3.648412     3.640769     3.633125     3.625482
      3.617839     3.610196     3.602552     3.594909     3.587266     3.579623     3.571980     3.564336     3.556693     3.549050
      3.541407     3.533763     3.526120     3.518477     3.510834     3.503191     3.495547     3.487904     3.480261     3.472618
      3.464974     3.457331     3.449688     3.442045     3.434402     3.426758     3.419115     3.411472     3.403829     3.396185
      3.388542     3.380899     3.373256     3.365613     3.357969     3.350326     3.342683     3.335040     3.327396     3.319753
      3.312110     3.304467     3.296824     3.289180     3.281537     3.273894     3.266251     3.258607     3.250964     3.243321
      3.235678     3.228034     3.220391     3.212748     3.205105     3.197462     3.189818     3.182175     3.174532     3.166889
      3.159245     3.151602     3.143959     3.136316     3.128673     3.121029     3.113386     3.105743     3.098100     3.090456
      3.082813     3.075170     3.067527     3.059884     3.052240     3.044597     3.036954     3.029311     3.021667     3.014024
      3.006381     2.998738     2.991095     2.983451     2.975808     2.968165     2.960522     2.952878     2.945235     2.937592
      2.929949     2.922306     2.914662     2.907019     2.899376     2.891733     2.884089     2.876446     2.868803     2.861160
      2.853517     2.845873     2.838230     2.830587     2.822944     2.815300     2.807657     2.800014     2.792371     2.784728
      2.777084     2.769441     2.761798     2.754155     2.746511     2.738868     2.731225     2.723582     2.715939     2.708295
      2.700652     2.693009     2.685366     2.677722     2.670079     2.662436     2.654793     2.647150     2.639506     2.631863
      2.624220     2.616577     2.608933     2.601290     2.593647     2.586004     2.578361     2.570717     2.563074     2.555431
      2.547788     2.540144     2.532501     2.524858     2.517215     2.509572     2.501928     2.494285     2.486642     2.478999
      2.471355     2.463712     2.456069     2.448426     2.440783     2.433139     2.425496     2.417853     2.410210     2.402566
      2.394923     2.387280     2.379637     2.371994     2.364350     2.356707     2.349064     2.341421     2.333777     2.326134
      2.318491     2.310848     2.303205     2.295561     2.287918     2.280275     2.272632     2.264988     2.257345     2.249702
      2.242059     2.234416     2.226772     2.219129     2.211486     2.203843     2.196199     2.188556     2.180913     2.173270
      2.165627     2.157983     2.150340     2.142697     2.135054     2.127410     2.119767     2.112124     2.104481     2.096838
      2.089194     2.081551     2.073908     2.066265     2.058621     2.050978     2.043335     2.035692     2.028049     2.020405
      2.012762     2.005119     1.997476     1.989833     1.982190     1.974546     1.966903     1.959260     1.951617     1.943974
      1.936331     1.928688     1.921045     1.913402     1.905759     1.898115     1.890472     1.882829     1.875186     1.867543
      1.859900     1.852257     1.844614     1.836971     1.829327     1.821684     1.814041     1.806398     1.798755     1.791112
      1.783469     1.775826     1.768183     1.760540     1.752896     1.745253     1.737610     1.729967     1.722324     1.714681
      1.707038     1.699395     1.691752     1.684108     1.676465     1.668822     1.661179     1.653536     1.645893     1.638250
      1.630607     1.622964     1.615321     1.607677     1.600034     1.592391     1.584748     1.577105     1.569462     1.561819
      1.554176     1.546533     1.538890     1.531246     1.523603     1.515960     1.508317     1.500674     1.493031     1.485388
      1.477745     1.470102     1.462458     1.454815     1.447172     1.439529     1.431886     1.424243     1.416600     1.408957
      1.401314     1.393671     1.386027     1.378384     1.370741     1.363098     1.355455     1.347812     1.340169     1.332526
      1.324883     1.317240     1.309596     1.301953     1.294310     1.286667     1.279024     1.271381     1.263738     1.256095
      1.248452     1.240808     1.233165     1.225522     1.217879     1.210236     1.202593     1.194950     1.187307     1.179664
      1.172021     1.164377     1.156734     1.149091     1.141448     1.133805     1.126162     1.118519     1.110876     1.103233
      1.095590     1.087946     1.080303     1.072660     1.065017     1.057374     1.049731     1.042088     1.034445     1.026802
      1.019158     1.011515     1.003872     0.996229     0.988586     0.980943     0.973300     0.965657     0.958014     0.950371
      0.942727     0.935084     0.927441     0.919798     0.912155     0.904512     0.896869     0.889226     0.881583     0.873940
      0.866296     0.858653     0.851010     0.843367     0.835724     0.828081     0.820438     0.812795     0.805152     0.797508
      0.789865     0.782222     0.774579     0.766936     0.759293     0.751650     0.744007     0.736364     0.728721     0.721077
      0.713434     0.705791     0.698148     0.690505     0.682862     0.675219     0.667576     0.659933     0.652290     0.644646
      0.637003     0.629360     0.621717     0.614074     0.606431     0.598788     0.591145     0.583502     0.575858     0.568215
      0.560572     0.552929     0.545286     0.537643     0.530000     0.522357     0.514714     0.507071     0.499427     0.491784
      0.484141     0.476498     0.468855     0.461212     0.453569     0.445925     0.438282     0.430639     0.422996     0.415353
      0.407710     0.400067     0.392424     0.384780     0.377137     0.369494     0.361851     0.354208     0.346565     0.338922
      0.331278     0.323635     0.315992     0.308349     0.300706     0.293063     0.285420     0.277777     0.270133     0.262490
      0.254847     0.247204     0.239561     0.231918     0.224275     0.216631     0.208988     0.201345
 NY phased data points follow
  -2.80436E+00  1.37971E+00  1.89235E+00 -2.88210E-01  4.68097E+00 -2.07753E-01  2.94237E+00  6.71592E+00  1.87508E+00  3.84702E+00
   4.94743E+00  2.63195E+00  4.87645E+00  3.28087E+00  8.07807E-01  2.79869E-01 -6.78588E-01  2.59336E+00  1.89714E+00  2.61524E+00
  -1.60357E+00  1.58474E+00 -1.75669E+00  1.86257E+00  1.37625E+00  2.03108E-01  3.54633E+00  4.58635E-01  3.94536E+00  2.89254E-01
  -4.85074E-01  1.99430E+00  1.88010E+00  1.03322E+00  1.53873E+00  2.43391E+00  1.92278E+00  1.15598E+00  2.32215E+00  2.83164E+00
   1.81914E+00  3.02006E+00  4.29723E+00 -2.41194E-01  3.74011E-01  2.40719E+00  2.36889E+00  3.79784E+00 -2.65020E-01  8.39652E-01
   2.34995E+00  7.62331E-01  2.02546E+00  8.31600E-01  3.39572E+00  5.38712E-01  2.26202E+00  3.79697E+00  1.66892E+00  3.22287E+00
   1.73253E+00  2.41882E+00  1.30552E+00  2.14622E-01  3.15093E+00  2.59548E+00  2.84502E+00  1.66215E+00  6.00431E-01  4.07642E+00
   1.20721E+00  2.27464E+00 -9.67565E-02  4.73753E-01  6.75934E-01  7.85541E-01  1.27489E+00 -2.15166E-01  5.24243E-01  2.02781E+00
   1.01632E-01  2.46035E+00 -5.67236E-01  2.11414E-01  2.78767E+00  8.04532E-01 -8.64664E-01 -9.54759E-01  5.44658E-01 -7.58733E-01
   6.35341E-01  1.77474E+00  1.12789E+00  1.45793E+00  1.64176E+00 -1.77977E+00  4.14096E+00 -3.44686E-01  1.62064E+00  6.84509E-01
  -1.10425E-02 -2.70847E-02 -8.82965E-03  1.17511E+00 -7.07987E-01  6.61007E-01  3.67398E+00 -3.80404E-01  6.03041E-01 -1.15055E-01
   2.57653E+00 -4.10640E-01 -2.57455E-01  2.13227E+00  1.51977E+00  3.15113E+00 -5.21376E-01  2.24721E+00 -2.06191E+00  9.67793E-01
   8.37809E-01  2.33927E+00 -1.16886E+00  1.76349E+00 -6.88243E-01 -1.24112E+00  3.79111E+00  3.08034E+00  3.32302E+00 -6.38690E-01
   4.53539E+00 -1.55257E+00  1.70519E+00 -3.57480E-01  3.54514E+00  2.03074E-01 -5.93036E-01  5.80461E-01 -6.01574E-02  1.69983E+00
   1.20469E+00  9.50767E-01 -3.91953E-01  1.12520E+00 -2.17038E+00  1.74320E+00  7.76134E-01  1.38294E+00 -2.91453E-01 -1.28222E+00
  -4.15621E+00  9.33219E-01  1.44868E+00  7.84904E-01  1.72048E+00  7.02787E-01  2.97248E+00  2.44599E-02  1.33733E+00 -1.68649E-01
   2.56540E+00  1.87230E-01  2.08236E-01 -1.22971E+00  1.66118E+00 -5.84337E-01 -1.26940E+00 -8.10584E-01 -1.72511E+00 -1.12652E+00
   1.96000E+00 -8.39629E-01  6.29945E-01 -3.42263E+00  7.35462E-01  1.88475E+00  1.65513E+00  1.08378E+00 -2.12319E+00 -2.31421E+00
  -2.97505E+00  5.88840E-01  6.59192E-01 -2.08984E+00  5.54110E-01 -9.29566E-01  1.73044E-02  2.66068E+00  4.06419E-01 -1.44776E+00
   1.73876E+00 -2.45708E+00  6.64119E-01 -4.21556E+00  2.21145E-01 -8.33364E-01  3.08545E+00 -8.34121E-01 -8.51410E-01 -4.23964E-02
   1.12754E+00  8.56244E-01  3.24845E-01 -2.73356E+00  3.79184E-01  1.43851E-01  3.77076E+00 -6.86677E-01  9.19794E-01  1.59143E+00
   1.20363E+00  8.11479E-01 -1.67845E-01  1.61696E+00  2.04249E+00 -1.27537E-01  1.82881E+00  2.30592E+00  4.31393E-01 -9.00875E-01
   5.74348E-01  2.57691E-01 -3.13321E+00 -1.22552E+00  9.85619E-01 -1.29893E+00  2.07122E+00 -1.44164E+00  2.05592E-01  1.08934E+00
   7.79884E-02  3.54926E+00  1.18319E+00  3.75872E-01  5.36059E-01  3.49321E+00  2.90484E+00  4.57263E+00  1.20984E+00 -1.05975E+00
  -8.96936E-01 -7.19951E-01  7.05668E-01  8.89251E-02  2.13524E+00  3.37129E+00  7.61662E-01 -4.93555E-01  1.03634E+00 -5.69735E-02
   1.35563E+00  2.86687E+00  1.51704E-01  1.76633E+00 -3.38470E-01 -1.01929E+00  1.62385E-01  5.51165E-01 -1.89184E-01  1.83773E+00
  -2.74392E+00  2.60521E-01 -1.49684E+00  3.75358E+00  2.33438E-02  3.85244E-01 -6.76881E-01  1.32253E+00  1.00005E+00 -6.74035E-02
   8.92203E-01  1.89907E+00 -2.16987E+00  4.03468E-01 -3.66981E-01 -5.88942E-02 -4.65333E-01 -1.67616E+00 -1.38370E+00 -4.79269E-01
  -1.22096E+00  1.04969E+00  3.38309E+00  9.31396E-02 -7.26440E-01  1.66093E-01 -1.55425E-02  1.83500E-01 -6.09357E-01  2.36656E+00
   1.80870E+00 -3.67596E-01  2.84394E+00  2.76105E+00  1.01142E+00  5.70888E-01  8.77124E-01  2.02202E+00  2.23961E+00  1.85862E+00
   1.51896E+00  7.76682E-01  2.38041E+00  2.67603E+00  1.10102E+00 -7.17610E-02  9.46497E-01  5.29343E-01  1.99651E+00 -1.00759E+00
   9.55129E-01  9.35079E-01 -1.90054E+00 -2.61802E-01  3.09841E+00 -1.55791E-01  6.94598E-01  7.54470E-01  2.67852E+00  3.65741E-01
   3.82574E-01 -2.31540E+00  1.06759E+00  1.26505E+00 -7.43375E-01  1.53228E+00 -2.76193E-01  5.96850E-01  4.88150E-01  1.94027E+00
   2.56438E+00  1.77629E-01  2.41018E+00  7.15825E-01  1.42748E+00 -1.58053E+00  1.88892E-01 -7.55376E-01  7.19035E-01 -1.42432E+00
   2.28323E+00  2.54314E-01 -8.38392E-01 -1.57129E-01 -1.09788E+00 -2.50818E-01 -1.60025E-01  1.30684E+00  3.53555E+00  1.26109E-01
  -1.03773E+00  3.05610E+00 -1.20210E+00 -1.63126E+00 -3.58568E-01  1.84622E+00 -2.79155E-01 -5.66922E-01  2.45427E+00  2.24684E+00
   3.60747E+00 -9.23704E-01 -9.30764E-01  6.38115E-01  2.51196E+00 -1.55218E+00  7.06981E-01 -2.51874E+00  2.60444E-01  1.86004E+00
   4.15057E-01  2.65366E-01  1.03919E+00  3.39613E+00  2.75946E+00  1.03686E+00  4.66238E-01 -3.58433E-02 -1.84794E-01  1.33364E+00
   1.79284E+00  2.45281E+00  9.13430E-01 -2.59301E-02  2.25888E+00  2.47518E+00  1.92825E+00  1.70085E+00  2.88161E+00 -2.34322E+00
   1.63954E+00 -1.79095E+00 -2.77556E-01  5.96642E-01  8.58030E-02  2.83028E+00 -1.82340E-01  1.07884E+00  8.51007E-02  2.66721E+00
  -2.80658E-01  1.33242E+00  9.13095E-01  1.85327E-01  3.08771E+00  1.57571E+00  2.22287E+00  2.22928E+00 -5.63745E-01  1.72700E+00
   1.18440E+00  7.61889E-03 -1.61565E+00  1.30411E+00  4.27362E+00  4.75469E-01 -1.28824E-01  1.69082E+00  1.94504E-02  2.63402E+00
   3.54135E+00 -3.44760E-02  1.23999E+00  7.21820E-01  3.35163E+00  3.80547E+00  2.69958E+00  3.72105E+00  5.61740E+00 -1.58445E-01
   4.89887E+00  2.19631E-01  1.17311E-01  3.21464E+00 -2.75776E-01  1.49742E+00  3.97019E+00  3.58600E+00  2.72411E+00  2.29917E+00
   3.65757E+00  3.47097E+00  2.49843E+00  4.45050E+00  4.81493E-02  1.30634E+00  2.35495E+00  1.64470E+00  2.14229E+00  9.26611E-01
   8.27273E-01  2.62888E+00  1.09792E+00  4.08379E-01  1.14300E+00  6.26600E-02 -9.87550E-01  2.71759E+00  2.38223E+00  2.11952E+00
   3.10937E+00  3.53206E-01  2.23699E+00  1.45695E-01 -2.37777E-01  1.73600E+00  7.86419E-01  1.74217E+00  2.23266E+00  1.78892E-01
   2.36056E+00  9.23331E-01  2.17680E+00  2.00489E+00  4.58918E-01 -2.67352E+00  1.68253E+00  8.44250E-01  1.69178E+00 -1.93394E+00
   1.89549E+00  9.02818E-01  1.44530E+00  1.49076E+00  2.90961E+00 -1.11793E+00 -1.96698E+00  2.18818E+00  3.24325E+00  6.23068E-01
   7.82953E-01  3.48241E+00 -1.13412E-01 -9.83384E-01  9.82066E-01 -1.66702E+00  2.96556E+00 -1.45221E+00
 NY points of the fit to the data follow
   1.00419E+00  8.31969E-01  7.11826E-01  7.15823E-01  9.33955E-01  1.30517E+00  1.69203E+00  2.02609E+00  2.24920E+00  2.31568E+00
   2.23173E+00  2.05638E+00  1.83190E+00  1.54265E+00  1.18891E+00  8.52870E-01  6.84834E-01  6.52438E-01  6.54994E-01  6.66982E-01
   6.85874E-01  7.18113E-01  7.60435E-01  7.70864E-01  7.66254E-01  8.16443E-01  9.03187E-01  1.01009E+00  1.16517E+00  1.36385E+00
   1.55507E+00  1.68049E+00  1.76144E+00  1.80512E+00  1.73452E+00  1.52379E+00  1.25156E+00  1.01082E+00  7.97580E-01  6.19610E-01
   5.26411E-01  5.74326E-01  8.64547E-01  1.40095E+00  2.04630E+00  2.61398E+00  2.94825E+00  3.00461E+00  2.80811E+00  2.44321E+00
   2.00779E+00  1.53539E+00  1.02013E+00  5.51509E-01  3.50899E-01  4.81383E-01  7.92506E-01  1.12998E+00  1.40383E+00  1.56871E+00
   1.59985E+00  1.51299E+00  1.36714E+00  1.20720E+00  1.05258E+00  9.10194E-01  8.41339E-01  8.89206E-01  1.01970E+00  1.18653E+00
   1.33583E+00  1.43716E+00  1.47062E+00  1.43964E+00  1.37840E+00  1.30193E+00  1.21649E+00  1.11947E+00  1.03272E+00  9.83475E-01
   9.52647E-01  9.10234E-01  8.16321E-01  6.57489E-01  4.46771E-01  2.20977E-01  2.04097E-02 -1.19473E-01 -1.74290E-01 -1.40331E-01
  -3.82630E-02  1.28903E-01  3.34976E-01  5.24625E-01  6.39155E-01  6.56930E-01  5.96066E-01  5.20447E-01  5.28188E-01  6.02016E-01
   6.99155E-01  8.04106E-01  8.88517E-01  9.44413E-01  9.57104E-01  9.28804E-01  8.65704E-01  7.57231E-01  6.11356E-01  4.78654E-01
   4.30780E-01  4.28295E-01  4.32377E-01  4.38304E-01  4.40308E-01  4.37246E-01  4.30219E-01  4.22766E-01  4.18771E-01  4.25804E-01
   4.60775E-01  6.00270E-01  1.02532E+00  1.62652E+00  2.22409E+00  2.72450E+00  3.04337E+00  3.12433E+00  2.99875E+00  2.75854E+00
   2.43158E+00  1.97704E+00  1.40884E+00  8.70697E-01  5.88484E-01  4.80393E-01  4.28343E-01  4.12831E-01  4.18130E-01  4.38549E-01
   4.76563E-01  5.27025E-01  5.68817E-01  5.92134E-01  5.97091E-01  5.82335E-01  5.54974E-01  5.25110E-01  4.99443E-01  4.82736E-01
   4.68655E-01  4.57071E-01  4.49084E-01  4.44542E-01  4.42300E-01  4.41370E-01  4.42497E-01  4.44427E-01  4.46333E-01  4.48177E-01
   4.49444E-01  4.49187E-01  4.48067E-01  4.48461E-01  4.51479E-01  4.56653E-01  4.62828E-01  4.68744E-01  4.74807E-01  4.81196E-01
   4.86973E-01  4.90618E-01  4.91120E-01  4.88507E-01  4.84305E-01  4.79297E-01  4.73590E-01  4.67591E-01  4.61504E-01  4.56825E-01
   4.51429E-01  4.44793E-01  4.37984E-01  4.31920E-01  4.30454E-01  4.41022E-01  4.68208E-01  5.09297E-01  5.54114E-01  5.93106E-01
   6.19779E-01  6.28804E-01  6.11352E-01  5.68568E-01  5.21896E-01  4.83350E-01  4.59054E-01  4.58032E-01  4.84418E-01  5.32384E-01
   5.91875E-01  6.60282E-01  7.24604E-01  7.66236E-01  7.78395E-01  7.33542E-01  6.49614E-01  5.50945E-01  4.59479E-01  4.08975E-01
   4.34483E-01  6.04915E-01  8.83142E-01  1.16632E+00  1.38607E+00  1.48880E+00  1.43625E+00  1.16851E+00  7.19436E-01  2.13581E-01
  -2.41477E-01 -5.85524E-01 -7.39222E-01 -6.28344E-01 -3.35538E-01  7.40912E-03  3.42929E-01  6.46932E-01  8.87594E-01  9.97603E-01
   9.71448E-01  9.01642E-01  8.70652E-01  8.71603E-01  8.83329E-01  8.86570E-01  8.64056E-01  8.14528E-01  7.11515E-01  5.77303E-01
   4.69433E-01  4.16129E-01  4.10673E-01  4.57408E-01  5.54729E-01  6.63839E-01  7.38184E-01  7.61206E-01  7.45442E-01  7.09526E-01
   6.50651E-01  5.97771E-01  5.76687E-01  5.68704E-01  5.54107E-01  5.56599E-01  5.91048E-01  6.39063E-01  6.83120E-01  7.27696E-01
   7.76249E-01  8.13798E-01  8.47972E-01  8.79786E-01  9.00795E-01  8.89046E-01  8.46800E-01  7.91654E-01  7.38846E-01  6.99915E-01
   6.83401E-01  6.94659E-01  7.23358E-01  7.51855E-01  7.82679E-01  8.10568E-01  8.30516E-01  8.42034E-01  8.43479E-01  8.32080E-01
   8.14664E-01  8.01525E-01  7.95357E-01  7.94040E-01  7.96383E-01  8.02486E-01  8.11627E-01  8.21437E-01  8.29608E-01  8.37330E-01
   8.45307E-01  8.53579E-01  8.62467E-01  8.72353E-01  8.83119E-01  8.94181E-01  9.05102E-01  9.15872E-01  9.26296E-01  9.36001E-01
   9.44743E-01  9.52226E-01  9.58201E-01  9.62455E-01  9.64836E-01  9.65295E-01  9.63876E-01  9.60639E-01  9.55662E-01  9.49107E-01
   9.41313E-01  9.32622E-01  9.23233E-01  9.13366E-01  9.03254E-01  8.93129E-01  8.83196E-01  8.73628E-01  8.64567E-01  8.56126E-01
   8.48386E-01  8.41392E-01  8.35160E-01  8.29682E-01  8.24937E-01  8.20888E-01  8.17490E-01  8.14686E-01  8.12417E-01  8.10625E-01
   8.09255E-01  8.08258E-01  8.07589E-01  8.07201E-01  8.07053E-01  8.07114E-01  8.07358E-01  8.07762E-01  8.08305E-01  8.08966E-01
   8.09731E-01  8.10588E-01  8.11530E-01  8.12551E-01  8.13640E-01  8.14790E-01  8.15997E-01  8.17260E-01  8.18580E-01  8.19953E-01
   8.21374E-01  8.22843E-01  8.24359E-01  8.25927E-01  8.27548E-01  8.29220E-01  8.30942E-01  8.32717E-01  8.34549E-01  8.36445E-01
   8.38408E-01  8.40438E-01  8.42540E-01  8.44721E-01  8.46991E-01  8.49360E-01  8.51835E-01  8.54425E-01  8.57143E-01  8.60007E-01
   8.63038E-01  8.66256E-01  8.69683E-01  8.73346E-01  8.77281E-01  8.81528E-01  8.86135E-01  8.91151E-01  8.96632E-01  9.02644E-01
   9.09261E-01  9.16567E-01  9.24646E-01  9.33584E-01  9.43470E-01  9.54392E-01  9.66432E-01  9.79658E-01  9.94116E-01  1.00982E+00
   1.02677E+00  1.04489E+00  1.06408E+00  1.08420E+00  1.10501E+00  1.12625E+00  1.14760E+00  1.16867E+00  1.18908E+00  1.20837E+00
   1.22613E+00  1.24192E+00  1.25536E+00  1.26612E+00  1.27393E+00  1.27860E+00  1.28004E+00  1.27826E+00  1.27337E+00  1.26555E+00
   1.25509E+00  1.24232E+00  1.22763E+00  1.21144E+00  1.19417E+00  1.17625E+00  1.15806E+00  1.13997E+00  1.12228E+00  1.10526E+00
   1.08911E+00  1.07399E+00  1.05999E+00  1.04717E+00  1.03555E+00  1.02512E+00  1.01582E+00  1.00761E+00  1.00040E+00  9.94114E-01
   9.88673E-01  9.83995E-01  9.79997E-01  9.76603E-01  9.73740E-01  9.71346E-01  9.69365E-01  9.67748E-01  9.66449E-01  9.65426E-01
   9.64645E-01  9.64078E-01  9.63703E-01  9.63496E-01  9.63435E-01  9.63504E-01  9.63687E-01  9.63975E-01  9.64357E-01  9.64823E-01
   9.65363E-01  9.65968E-01  9.66634E-01  9.67358E-01  9.68135E-01  9.68958E-01  9.69822E-01  9.70723E-01  9.71661E-01  9.72633E-01
   9.73637E-01  9.74667E-01  9.75721E-01  9.76798E-01  9.77899E-01  9.79022E-01  9.80164E-01  9.81322E-01  9.82495E-01  9.83684E-01
   9.84890E-01  9.86111E-01  9.87345E-01  9.88589E-01  9.89845E-01  9.91114E-01  9.92395E-01  9.93687E-01  9.94986E-01  9.96292E-01
   9.97608E-01  9.98934E-01  1.00027E+00  1.00161E+00  1.00296E+00  1.00431E+00  1.00567E+00  1.00704E+00  1.00842E+00  1.00980E+00
   1.01119E+00  1.01258E+00  1.01399E+00  1.01540E+00  1.01682E+00  1.01824E+00  1.01967E+00  1.02111E+00
 NY background values follow
     2.449E-01    2.464E-01    2.479E-01    2.495E-01    2.510E-01    2.526E-01    2.541E-01    2.556E-01    2.572E-01    2.587E-01
     2.603E-01    2.618E-01    2.633E-01    2.649E-01    2.664E-01    2.680E-01    2.695E-01    2.710E-01    2.726E-01    2.741E-01
     2.757E-01    2.772E-01    2.787E-01    2.803E-01    2.818E-01    2.834E-01    2.849E-01    2.864E-01    2.880E-01    2.895E-01
     2.911E-01    2.926E-01    2.941E-01    2.957E-01    2.972E-01    2.988E-01    3.003E-01    3.018E-01    3.034E-01    3.049E-01
     3.064E-01    3.080E-01    3.095E-01    3.111E-01    3.126E-01    3.141E-01    3.157E-01    3.172E-01    3.188E-01    3.203E-01
     3.218E-01    3.234E-01    3.249E-01    3.265E-01    3.280E-01    3.295E-01    3.311E-01    3.326E-01    3.342E-01    3.357E-01
     3.372E-01    3.388E-01    3.403E-01    3.419E-01    3.434E-01    3.449E-01    3.465E-01    3.480E-01    3.496E-01    3.511E-01
     3.526E-01    3.542E-01    3.557E-01    3.573E-01    3.588E-01    3.603E-01    3.619E-01    3.634E-01    3.650E-01    3.665E-01
     3.680E-01    3.696E-01    3.711E-01    3.727E-01    3.742E-01    3.757E-01    3.773E-01    3.788E-01    3.804E-01    3.819E-01
     3.834E-01    3.850E-01    3.865E-01    3.881E-01    3.896E-01    3.911E-01    3.927E-01    3.942E-01    3.958E-01    3.973E-01
     3.988E-01    4.004E-01    4.019E-01    4.035E-01    4.050E-01    4.065E-01    4.081E-01    4.096E-01    4.112E-01    4.127E-01
     4.142E-01    4.158E-01    4.173E-01    4.189E-01    4.204E-01    4.219E-01    4.235E-01    4.250E-01    4.266E-01    4.281E-01
     4.296E-01    4.312E-01    4.327E-01    4.343E-01    4.358E-01    4.373E-01    4.389E-01    4.404E-01    4.420E-01    4.435E-01
     4.450E-01    4.466E-01    4.481E-01    4.497E-01    4.512E-01    4.527E-01    4.543E-01    4.558E-01    4.574E-01    4.589E-01
     4.604E-01    4.620E-01    4.635E-01    4.651E-01    4.666E-01    4.681E-01    4.697E-01    4.712E-01    4.728E-01    4.743E-01
     4.758E-01    4.774E-01    4.789E-01    4.805E-01    4.820E-01    4.835E-01    4.851E-01    4.866E-01    4.882E-01    4.897E-01
     4.912E-01    4.928E-01    4.943E-01    4.959E-01    4.974E-01    4.989E-01    5.005E-01    5.020E-01    5.036E-01    5.051E-01
     5.066E-01    5.082E-01    5.097E-01    5.113E-01    5.128E-01    5.143E-01    5.159E-01    5.174E-01    5.190E-01    5.205E-01
     5.220E-01    5.236E-01    5.251E-01    5.267E-01    5.282E-01    5.298E-01    5.313E-01    5.328E-01    5.344E-01    5.359E-01
     5.375E-01    5.390E-01    5.405E-01    5.421E-01    5.436E-01    5.452E-01    5.467E-01    5.482E-01    5.498E-01    5.513E-01
     5.529E-01    5.544E-01    5.559E-01    5.575E-01    5.590E-01    5.606E-01    5.621E-01    5.636E-01    5.652E-01    5.667E-01
     5.683E-01    5.698E-01    5.713E-01    5.729E-01    5.744E-01    5.760E-01    5.775E-01    5.791E-01    5.806E-01    5.821E-01
     5.837E-01    5.852E-01    5.868E-01    5.883E-01    5.898E-01    5.914E-01    5.929E-01    5.945E-01    5.960E-01    5.975E-01
     5.991E-01    6.006E-01    6.022E-01    6.037E-01    6.052E-01    6.068E-01    6.083E-01    6.099E-01    6.114E-01    6.130E-01
     6.145E-01    6.160E-01    6.176E-01    6.191E-01    6.207E-01    6.222E-01    6.237E-01    6.253E-01    6.268E-01    6.284E-01
     6.299E-01    6.314E-01    6.330E-01    6.345E-01    6.361E-01    6.376E-01    6.391E-01    6.407E-01    6.422E-01    6.438E-01
     6.453E-01    6.469E-01    6.484E-01    6.499E-01    6.515E-01    6.530E-01    6.546E-01    6.561E-01    6.576E-01    6.592E-01
     6.607E-01    6.623E-01    6.638E-01    6.653E-01    6.669E-01    6.684E-01    6.700E-01    6.715E-01    6.731E-01    6.746E-01
     6.761E-01    6.777E-01    6.792E-01    6.808E-01    6.823E-01    6.838E-01    6.854E-01    6.869E-01    6.885E-01    6.900E-01
     6.916E-01    6.931E-01    6.946E-01    6.962E-01    6.977E-01    6.993E-01    7.008E-01    7.023E-01    7.039E-01    7.054E-01
     7.070E-01    7.085E-01    7.100E-01    7.116E-01    7.131E-01    7.147E-01    7.162E-01    7.178E-01    7.193E-01    7.208E-01
     7.224E-01    7.239E-01    7.255E-01    7.270E-01    7.285E-01    7.301E-01    7.316E-01    7.332E-01    7.347E-01    7.363E-01
     7.378E-01    7.393E-01    7.409E-01    7.424E-01    7.440E-01    7.455E-01    7.470E-01    7.486E-01    7.501E-01    7.517E-01
     7.532E-01    7.548E-01    7.563E-01    7.578E-01    7.594E-01    7.609E-01    7.625E-01    7.640E-01    7.655E-01    7.671E-01
     7.686E-01    7.702E-01    7.717E-01    7.733E-01    7.748E-01    7.763E-01    7.779E-01    7.794E-01    7.810E-01    7.825E-01
     7.841E-01    7.856E-01    7.871E-01    7.887E-01    7.902E-01    7.918E-01    7.933E-01    7.948E-01    7.964E-01    7.979E-01
     7.995E-01    8.010E-01    8.026E-01    8.041E-01    8.056E-01    8.072E-01    8.087E-01    8.103E-01    8.118E-01    8.133E-01
     8.149E-01    8.164E-01    8.180E-01    8.195E-01    8.211E-01    8.226E-01    8.241E-01    8.257E-01    8.272E-01    8.288E-01
     8.303E-01    8.318E-01    8.334E-01    8.349E-01    8.365E-01    8.380E-01    8.396E-01    8.411E-01    8.426E-01    8.442E-01
     8.457E-01    8.473E-01    8.488E-01    8.504E-01    8.519E-01    8.534E-01    8.550E-01    8.565E-01    8.581E-01    8.596E-01
     8.611E-01    8.627E-01    8.642E-01    8.658E-01    8.673E-01    8.689E-01    8.704E-01    8.719E-01    8.735E-01    8.750E-01
     8.766E-01    8.781E-01    8.797E-01    8.812E-01    8.827E-01    8.843E-01    8.858E-01    8.874E-01    8.889E-01    8.904E-01
     8.920E-01    8.935E-01    8.951E-01    8.966E-01    8.982E-01    8.997E-01    9.012E-01    9.028E-01    9.043E-01    9.059E-01
     9.074E-01    9.090E-01    9.105E-01    9.120E-01    9.136E-01    9.151E-01    9.167E-01    9.182E-01    9.197E-01    9.213E-01
     9.228E-01    9.244E-01    9.259E-01    9.275E-01    9.290E-01    9.305E-01    9.321E-01    9.336E-01    9.352E-01    9.367E-01
     9.383E-01    9.398E-01    9.413E-01    9.429E-01    9.444E-01    9.460E-01    9.475E-01    9.490E-01    9.506E-01    9.521E-01
     9.537E-01    9.552E-01    9.568E-01    9.583E-01    9.598E-01    9.614E-01    9.629E-01    9.645E-01    9.660E-01    9.675E-01
     9.691E-01    9.706E-01    9.722E-01    9.737E-01    9.753E-01    9.768E-01    9.783E-01    9.799E-01    9.814E-01    9.830E-01
     9.845E-01    9.861E-01    9.876E-01    9.891E-01    9.907E-01    9.922E-01    9.938E-01    9.953E-01    9.968E-01    9.984E-01
     9.999E-01    1.001E+00    1.003E+00    1.005E+00    1.006E+00    1.008E+00    1.009E+00    1.011E+00
 Asp      Conc. = 5.52E+00
