 LCModel (Version 6.3-1L) Copyright: S.W. Provencher.          Ref.: Magn. Reson. Med. 30:672-679 (1993).                
 Slice#2 Row#12 Col#7  PD_24_press_1_raw_act
 36 lines in following concentration table = NCONC+1
    Conc.  %SD /Cr+PCr  Metabolite                                         
  122.055 117% 9.8E-02 Ala                                                 
    0.000 999%   0.000 Asp                                                 
  481.481  52%   0.385 Cr                                                  
  769.904  34%   0.615 PCr                                                 
   37.536 361% 3.0E-02 GABA                                                
   45.285 276% 3.6E-02 Glc                                                 
 1.38E+03  23%   1.106 Gln                                                 
 1.57E+03  23%   1.253 Glu                                                 
  395.832   5%   0.316 GPC                                                 
    0.000 999%   0.000 PCh                                                 
  628.185  12%   0.502 GSH                                                 
 2.01E+03  12%   1.610 Ins                                                 
    0.000 999%   0.000 Lac                                                 
 1.51E+03  10%   1.207 NAA                                                 
  387.860  41%   0.310 NAAG                                                
   72.935  33% 5.8E-02 Scyllo                                              
    0.000 999%   0.000 Tau                                                 
    0.000 999%   0.000 -CrCH2                                              
  395.832   5%   0.316 GPC+PCh                                             
 1.90E+03   4%   1.517 NAA+NAAG                                            
 1.25E+03   5%   1.000 Cr+PCr                                              
 2.95E+03  20%   2.360 Glu+Gln                                             
 2.37E+03  40%   1.891 Lip13a                                              
  450.425 132%   0.360 Lip13b                                              
  770.909  46%   0.616 Lip09                                               
  818.010  41%   0.654 MM09                                                
  511.819  48%   0.409 Lip20                                               
 1.58E+03  24%   1.263 MM20                                                
  224.680 112%   0.180 MM12                                                
 1.18E+03  35%   0.941 MM14                                                
 1.14E+03  21%   0.914 MM17                                                
 2.82E+03  22%   2.251 Lip13a+Lip13b                                       
 4.22E+03   8%   3.371 MM14+Lip13a+Lip13b+MM12                             
 1.59E+03  11%   1.270 MM09+Lip09                                          
 2.09E+03  16%   1.672 MM20+Lip20                                          
   6 lines in following misc. output table
  FWHM = 0.069 ppm    S/N =   9                                            
  Data shift = 0.008 ppm                                                   
  Ph:  -1 deg      11.1 deg/ppm                                            
  alphaB,S = 1.1E+01,   2.6E+01                                            
   14 spline knots.   Ns = 9(1)                                            
  (10) 9 infls.   ( 9) 1 extrs.                                            
  498 points on ppm-axis = NY
      4.000000     3.992357     3.984714     3.977070     3.969427     3.961784     3.954141     3.946497     3.938854     3.931211
      3.923568     3.915925     3.908281     3.900638     3.892995     3.885352     3.877708     3.870065     3.862422     3.854779
      3.847136     3.839492     3.831849     3.824206     3.816563     3.808919     3.801276     3.793633     3.785990     3.778347
      3.770703     3.763060     3.755417     3.747774     3.740130     3.732487     3.724844     3.717201     3.709558     3.701914
      3.694271     3.686628     3.678985     3.671341     3.663698     3.656055     3.648412     3.640769     3.633125     3.625482
      3.617839     3.610196     3.602552     3.594909     3.587266     3.579623     3.571980     3.564336     3.556693     3.549050
      3.541407     3.533763     3.526120     3.518477     3.510834     3.503191     3.495547     3.487904     3.480261     3.472618
      3.464974     3.457331     3.449688     3.442045     3.434402     3.426758     3.419115     3.411472     3.403829     3.396185
      3.388542     3.380899     3.373256     3.365613     3.357969     3.350326     3.342683     3.335040     3.327396     3.319753
      3.312110     3.304467     3.296824     3.289180     3.281537     3.273894     3.266251     3.258607     3.250964     3.243321
      3.235678     3.228034     3.220391     3.212748     3.205105     3.197462     3.189818     3.182175     3.174532     3.166889
      3.159245     3.151602     3.143959     3.136316     3.128673     3.121029     3.113386     3.105743     3.098100     3.090456
      3.082813     3.075170     3.067527     3.059884     3.052240     3.044597     3.036954     3.029311     3.021667     3.014024
      3.006381     2.998738     2.991095     2.983451     2.975808     2.968165     2.960522     2.952878     2.945235     2.937592
      2.929949     2.922306     2.914662     2.907019     2.899376     2.891733     2.884089     2.876446     2.868803     2.861160
      2.853517     2.845873     2.838230     2.830587     2.822944     2.815300     2.807657     2.800014     2.792371     2.784728
      2.777084     2.769441     2.761798     2.754155     2.746511     2.738868     2.731225     2.723582     2.715939     2.708295
      2.700652     2.693009     2.685366     2.677722     2.670079     2.662436     2.654793     2.647150     2.639506     2.631863
      2.624220     2.616577     2.608933     2.601290     2.593647     2.586004     2.578361     2.570717     2.563074     2.555431
      2.547788     2.540144     2.532501     2.524858     2.517215     2.509572     2.501928     2.494285     2.486642     2.478999
      2.471355     2.463712     2.456069     2.448426     2.440783     2.433139     2.425496     2.417853     2.410210     2.402566
      2.394923     2.387280     2.379637     2.371994     2.364350     2.356707     2.349064     2.341421     2.333777     2.326134
      2.318491     2.310848     2.303205     2.295561     2.287918     2.280275     2.272632     2.264988     2.257345     2.249702
      2.242059     2.234416     2.226772     2.219129     2.211486     2.203843     2.196199     2.188556     2.180913     2.173270
      2.165627     2.157983     2.150340     2.142697     2.135054     2.127410     2.119767     2.112124     2.104481     2.096838
      2.089194     2.081551     2.073908     2.066265     2.058621     2.050978     2.043335     2.035692     2.028049     2.020405
      2.012762     2.005119     1.997476     1.989833     1.982190     1.974546     1.966903     1.959260     1.951617     1.943974
      1.936331     1.928688     1.921045     1.913402     1.905759     1.898115     1.890472     1.882829     1.875186     1.867543
      1.859900     1.852257     1.844614     1.836971     1.829327     1.821684     1.814041     1.806398     1.798755     1.791112
      1.783469     1.775826     1.768183     1.760540     1.752896     1.745253     1.737610     1.729967     1.722324     1.714681
      1.707038     1.699395     1.691752     1.684108     1.676465     1.668822     1.661179     1.653536     1.645893     1.638250
      1.630607     1.622964     1.615321     1.607677     1.600034     1.592391     1.584748     1.577105     1.569462     1.561819
      1.554176     1.546533     1.538890     1.531246     1.523603     1.515960     1.508317     1.500674     1.493031     1.485388
      1.477745     1.470102     1.462458     1.454815     1.447172     1.439529     1.431886     1.424243     1.416600     1.408957
      1.401314     1.393671     1.386027     1.378384     1.370741     1.363098     1.355455     1.347812     1.340169     1.332526
      1.324883     1.317240     1.309596     1.301953     1.294310     1.286667     1.279024     1.271381     1.263738     1.256095
      1.248452     1.240808     1.233165     1.225522     1.217879     1.210236     1.202593     1.194950     1.187307     1.179664
      1.172021     1.164377     1.156734     1.149091     1.141448     1.133805     1.126162     1.118519     1.110876     1.103233
      1.095590     1.087946     1.080303     1.072660     1.065017     1.057374     1.049731     1.042088     1.034445     1.026802
      1.019158     1.011515     1.003872     0.996229     0.988586     0.980943     0.973300     0.965657     0.958014     0.950371
      0.942727     0.935084     0.927441     0.919798     0.912155     0.904512     0.896869     0.889226     0.881583     0.873940
      0.866296     0.858653     0.851010     0.843367     0.835724     0.828081     0.820438     0.812795     0.805152     0.797508
      0.789865     0.782222     0.774579     0.766936     0.759293     0.751650     0.744007     0.736364     0.728721     0.721077
      0.713434     0.705791     0.698148     0.690505     0.682862     0.675219     0.667576     0.659933     0.652290     0.644646
      0.637003     0.629360     0.621717     0.614074     0.606431     0.598788     0.591145     0.583502     0.575858     0.568215
      0.560572     0.552929     0.545286     0.537643     0.530000     0.522357     0.514714     0.507071     0.499427     0.491784
      0.484141     0.476498     0.468855     0.461212     0.453569     0.445925     0.438282     0.430639     0.422996     0.415353
      0.407710     0.400067     0.392424     0.384780     0.377137     0.369494     0.361851     0.354208     0.346565     0.338922
      0.331278     0.323635     0.315992     0.308349     0.300706     0.293063     0.285420     0.277777     0.270133     0.262490
      0.254847     0.247204     0.239561     0.231918     0.224275     0.216631     0.208988     0.201345
 NY phased data points follow
   7.27528E+00  7.38773E+00  5.54506E+00  1.09047E+01  1.39865E+01  2.09107E+01  1.87116E+01  2.67612E+01  3.10915E+01  2.74874E+01
   3.64220E+01  3.35230E+01  3.38276E+01  3.24560E+01  3.06423E+01  2.35995E+01  2.37135E+01  2.06931E+01  1.86596E+01  1.88108E+01
   1.20626E+01  1.16176E+01  1.08441E+01  1.23437E+01  1.72077E+01  1.54285E+01  1.45492E+01  1.94955E+01  2.32331E+01  1.74159E+01
   2.19080E+01  2.44581E+01  1.76905E+01  1.89626E+01  1.75174E+01  1.98984E+01  1.39097E+01  1.09023E+01  1.81112E+01  1.52077E+01
   1.87998E+01  1.48286E+01  1.59651E+01  1.76908E+01  1.64904E+01  1.54823E+01  1.56930E+01  1.49049E+01  1.84621E+01  2.10811E+01
   1.83734E+01  1.29438E+01  1.37161E+01  1.91605E+01  1.17138E+01  8.69359E+00  1.85732E+01  1.47133E+01  1.33025E+01  1.19930E+01
   1.50176E+01  9.17872E+00  1.04624E+01  8.69726E+00  9.63615E+00  5.95329E+00  1.18097E+01  1.25791E+01  4.68677E+00  2.90003E+00
   4.39750E+00  5.39630E+00  9.99527E+00  8.76571E+00  8.92868E+00  6.61463E+00  6.76602E+00  1.12159E+01  7.94472E+00  7.12361E+00
   8.14246E+00  1.10641E+01  2.30431E+00  5.40086E+00  9.20966E+00  6.78049E+00  3.99497E+00  5.31861E+00  3.91004E+00  1.14474E+01
   6.22047E+00  6.28373E+00  6.48241E+00  6.85266E+00  9.65648E+00  3.82722E+00  5.86256E+00  1.13163E+01  1.20184E+01  1.62085E+01
   2.50701E+01  2.68268E+01  3.03913E+01  3.24406E+01  3.41475E+01  2.98721E+01  2.52634E+01  2.38227E+01  1.94251E+01  1.32493E+01
   1.36938E+01  7.16321E+00  9.17344E+00  9.64432E+00  8.52332E+00  9.43109E+00  7.86786E+00  6.29310E+00  3.93051E+00  1.06432E+00
   5.71379E+00  1.11675E+01  1.37199E+01  1.91381E+01  1.99934E+01  3.04589E+01  2.80204E+01  3.23330E+01  3.81331E+01  3.36253E+01
   3.13963E+01  3.34557E+01  2.65661E+01  2.05370E+01  1.52359E+01  1.81215E+01  1.43944E+01  9.68191E+00  1.13124E+01  6.98111E+00
   7.90445E+00  7.84473E+00  6.95662E+00  7.82462E+00  4.66284E+00  4.40061E+00  1.91854E+00  3.15637E+00  5.34126E+00  4.39766E+00
   5.49787E+00  6.84401E+00  2.36011E+00  6.82442E+00  1.35336E+00  3.41802E+00  3.07299E+00  5.27403E+00  5.75625E+00  6.86807E+00
   1.57809E+00  2.19390E+00  6.20923E+00  4.61997E+00  3.17749E+00  7.87907E+00  5.63536E+00  1.00872E+00  4.94884E-01 -1.35691E+00
  -1.78346E+00  2.81887E+00  1.29423E+00 -2.80704E+00 -2.01574E+00 -5.69941E-01 -2.28559E+00 -1.07188E+00 -1.60034E+00 -4.06742E+00
   2.09878E-02 -7.96228E-01 -4.28846E-01 -3.79183E+00  2.42245E-01 -1.27311E+00 -3.76707E+00 -1.44504E+00 -1.81869E+00  1.61793E+00
   4.87311E+00  6.80942E+00 -2.79844E+00  6.82318E+00  5.03553E+00  1.14586E+00  8.87715E-01  4.42295E-02 -9.47423E-01 -3.07290E+00
   4.96126E+00  5.07041E-01  4.94777E+00  6.73180E+00  4.43868E-01  1.72218E+00  2.63481E+00  2.96285E+00 -2.27041E-01 -3.75801E+00
   4.83562E-01  3.52629E+00  2.04570E+00  9.60177E+00  6.19506E+00  1.13693E+01  6.58439E+00  1.00255E+01  7.54552E+00  5.05142E+00
   4.44847E+00  9.05084E+00  3.56627E+00  1.46425E+00  5.95757E+00  7.56985E-01  6.76554E+00  4.63314E+00  9.47921E+00  1.20305E+01
   8.28168E+00  7.63925E+00  8.59006E+00  4.86987E+00  9.82396E+00  7.79898E+00  7.98222E+00  5.54285E+00  5.73201E+00  8.02684E+00
   7.72334E+00  9.73801E+00  7.48773E+00  5.62554E+00  9.17955E+00  7.62598E+00  3.92312E+00  8.18401E+00  1.27599E+01  1.50293E+01
   1.05680E+01  1.25308E+01  1.61485E+01  1.73964E+01  2.74300E+01  3.31233E+01  3.79129E+01  4.59339E+01  5.53095E+01  5.21673E+01
   5.36367E+01  5.42556E+01  4.75709E+01  4.55786E+01  4.41702E+01  3.33796E+01  2.60258E+01  2.00922E+01  1.47561E+01  1.14330E+01
   1.14488E+01  1.40216E+01  5.43460E+00  8.30719E+00  9.43440E+00  1.21973E+01  6.22133E+00  7.30746E+00  4.97100E+00  4.10188E+00
   5.38407E+00  3.30244E+00  5.14404E+00  3.66859E+00  3.49647E+00  4.92926E+00  3.34033E+00  2.48946E+00  3.06167E+00  2.47450E+00
   6.25172E+00  4.09114E+00  4.38781E+00  6.93950E+00  1.20231E+00  4.92697E+00  5.32587E+00  9.41497E+00  6.53766E+00  6.18557E+00
   2.95179E+00  9.93866E+00  1.04384E+01  6.40158E+00  1.21271E+01  1.00889E+01  8.79986E+00  8.26093E+00  7.40326E+00  5.42964E+00
   1.28653E+01  1.67768E+01  1.28212E+01  1.25130E+01  1.44410E+01  1.50832E+01  1.07736E+01  1.18219E+01  9.67944E+00  1.18688E+01
   7.49247E+00  1.33725E+01  9.53237E+00  9.25306E+00  1.53780E+01  1.19699E+01  1.01015E+01  1.19332E+01  1.07068E+01  7.73130E+00
   9.99278E+00  9.49446E+00  1.15489E+01  7.79030E+00  9.91616E+00  1.60352E+01  1.04466E+01  9.86013E+00  8.38846E+00  1.49275E+01
   1.35397E+01  1.12373E+01  1.19487E+01  1.46426E+01  1.53983E+01  1.14014E+01  1.47332E+01  1.70339E+01  1.93582E+01  1.63585E+01
   1.90895E+01  1.84086E+01  1.88546E+01  1.73625E+01  1.73684E+01  2.02370E+01  2.10898E+01  2.00762E+01  2.10812E+01  2.09102E+01
   2.02725E+01  1.60633E+01  1.95292E+01  1.39461E+01  1.30111E+01  9.76216E+00  1.63429E+01  1.60521E+01  1.23069E+01  9.34594E+00
   1.03740E+01  1.14658E+01  6.62974E+00  1.05633E+01  1.12527E+01  9.97128E+00  7.00417E+00  7.43906E+00  7.28218E+00  8.33944E+00
   4.58295E+00  6.66988E+00  5.38234E+00  8.22113E+00  9.29193E+00  5.92839E+00  6.32047E+00  6.02517E+00  6.77935E+00  6.59699E+00
   4.93845E+00  7.52800E+00  8.24262E+00  9.22598E+00  7.63918E+00  8.13727E+00  1.19355E+01  8.80033E+00  1.14224E+01  9.15336E+00
   1.31450E+01  8.45298E+00  1.18024E+01  1.39236E+01  1.39751E+01  1.30542E+01  9.83032E+00  1.35618E+01  1.10483E+01  1.41576E+01
   8.09234E+00  1.25622E+01  1.54405E+01  9.36003E+00  1.08627E+01  1.30859E+01  1.00502E+01  1.25934E+01  9.20497E+00  5.83925E+00
   9.60103E+00  7.98137E+00  1.10184E+01  9.58856E+00  3.51881E+00  6.97036E+00  6.39939E+00  7.15122E+00  5.57605E+00  7.30253E+00
   5.69569E+00  4.54694E+00  8.89652E+00  6.81892E+00  4.71388E+00  3.24629E+00  5.18320E+00  5.55396E-01  7.03438E+00  5.20076E+00
   5.75070E+00  3.66352E+00 -2.24906E+00  2.16738E+00  2.59093E+00 -5.14451E-02  6.15350E+00  6.24240E+00  3.96095E+00  3.95555E+00
   2.60270E+00  4.50797E+00  1.41843E+00 -2.90166E+00  2.28436E+00  5.48264E+00 -2.68548E+00  4.73653E+00  5.61427E+00  1.35711E+00
   2.00652E+00  2.47550E+00 -1.16452E+00  7.75225E-01 -3.14266E-01  1.04599E+00  6.80426E+00 -9.78205E-02  7.44290E+00  4.77631E+00
   1.71157E+00 -3.80520E-01  2.68450E+00  2.35364E+00  7.64880E-01  1.86790E+00 -1.04015E+00 -1.76583E+00  1.02055E+00  1.57878E+00
   5.72696E-01  1.91801E+00  4.83980E+00  5.06089E+00  5.12546E-01  1.02157E+00 -3.08022E+00  2.32615E+00  3.78526E+00  2.61903E+00
   3.27541E+00  1.10795E+00  2.61330E+00 -5.03676E-02  4.42019E+00  3.18500E+00  3.27630E+00 -2.79602E+00
 NY points of the fit to the data follow
   1.19146E+01  1.14789E+01  1.12225E+01  1.22298E+01  1.48557E+01  1.76393E+01  2.02765E+01  2.34910E+01  2.67279E+01  2.88899E+01
   3.01559E+01  3.07201E+01  3.01384E+01  2.86792E+01  2.65958E+01  2.37056E+01  2.06309E+01  1.81994E+01  1.65285E+01  1.54535E+01
   1.40515E+01  1.21391E+01  1.09654E+01  1.13978E+01  1.24009E+01  1.32721E+01  1.51217E+01  1.75353E+01  1.92694E+01  2.07478E+01
   2.21926E+01  2.25922E+01  2.20578E+01  2.14089E+01  1.98153E+01  1.71321E+01  1.49230E+01  1.32524E+01  1.19879E+01  1.18008E+01
   1.24435E+01  1.36368E+01  1.46343E+01  1.61779E+01  1.79430E+01  1.86537E+01  1.88601E+01  1.87204E+01  1.79905E+01  1.68100E+01
   1.51884E+01  1.32892E+01  1.17061E+01  1.08464E+01  1.05505E+01  1.08155E+01  1.10403E+01  1.07367E+01  1.05294E+01  1.06243E+01
   1.05775E+01  1.03320E+01  9.97398E+00  9.48472E+00  9.15227E+00  8.98628E+00  8.85850E+00  9.04895E+00  9.42826E+00  9.65425E+00
   9.79968E+00  9.85382E+00  9.87500E+00  9.79154E+00  9.67095E+00  9.47931E+00  9.15277E+00  8.81997E+00  8.54567E+00  8.36759E+00
   8.31227E+00  7.95325E+00  7.46225E+00  7.19721E+00  6.87425E+00  6.37416E+00  6.03420E+00  5.85136E+00  5.63810E+00  5.59908E+00
   5.64104E+00  5.50951E+00  5.52812E+00  5.66709E+00  5.52204E+00  5.73782E+00  8.01245E+00  1.21063E+01  1.54698E+01  1.85070E+01
   2.35023E+01  2.77600E+01  2.96073E+01  3.11659E+01  3.19576E+01  3.03983E+01  2.81015E+01  2.51599E+01  2.03724E+01  1.60754E+01
   1.33520E+01  1.12301E+01  1.00508E+01  8.26930E+00  5.77710E+00  5.06357E+00  4.92990E+00  4.91285E+00  4.97060E+00  5.17478E+00
   6.58209E+00  1.05269E+01  1.53910E+01  1.90894E+01  2.37241E+01  2.95644E+01  3.35006E+01  3.57705E+01  3.75825E+01  3.73572E+01
   3.52231E+01  3.24231E+01  2.77830E+01  2.20851E+01  1.77525E+01  1.45755E+01  1.23027E+01  1.07416E+01  8.11649E+00  6.33527E+00
   6.18042E+00  6.39535E+00  6.72323E+00  6.88541E+00  6.71345E+00  6.58657E+00  6.42200E+00  6.11406E+00  5.84258E+00  5.57721E+00
   5.27694E+00  5.00148E+00  4.70652E+00  4.50980E+00  4.25113E+00  3.99908E+00  3.86998E+00  3.73726E+00  3.60700E+00  3.52592E+00
   3.38105E+00  3.22521E+00  3.11083E+00  2.87339E+00  2.59893E+00  2.49536E+00  2.35945E+00  2.10387E+00  1.81338E+00  1.33934E+00
   8.43261E-01  6.76285E-01  5.31120E-01  2.37313E-01 -1.34351E-02 -2.68289E-01 -4.47889E-01 -5.38647E-01 -6.35149E-01 -7.90913E-01
  -8.67314E-01 -8.38913E-01 -7.71837E-01 -6.26946E-01 -2.72027E-01  4.32197E-01  1.37997E+00  2.22904E+00  2.91652E+00  3.51809E+00
   3.71316E+00  3.58245E+00  3.33331E+00  2.94176E+00  2.29301E+00  1.85895E+00  1.90009E+00  2.33721E+00  3.19657E+00  4.50723E+00
   5.80457E+00  6.84410E+00  7.56207E+00  7.30114E+00  6.24392E+00  5.19605E+00  3.62149E+00  1.44369E+00  3.24744E-01  2.57289E-01
   3.91466E-01  9.78059E-01  2.47082E+00  4.29110E+00  5.96336E+00  7.06235E+00  7.14614E+00  6.72136E+00  6.01655E+00  4.76586E+00
   3.73470E+00  3.02785E+00  2.57991E+00  2.70230E+00  3.25773E+00  4.04059E+00  4.69119E+00  5.66728E+00  6.60540E+00  6.81428E+00
   6.95001E+00  7.34595E+00  7.61439E+00  7.91133E+00  8.50690E+00  8.93673E+00  8.87229E+00  8.69868E+00  8.80694E+00  8.45156E+00
   7.70373E+00  7.37804E+00  7.13903E+00  6.53834E+00  6.15850E+00  6.14422E+00  6.38977E+00  6.87348E+00  7.85523E+00  9.68856E+00
   1.17607E+01  1.31062E+01  1.51535E+01  2.08334E+01  2.83178E+01  3.35702E+01  3.84840E+01  4.56282E+01  5.07170E+01  5.24003E+01
   5.34685E+01  5.29587E+01  4.96716E+01  4.59062E+01  4.11319E+01  3.39258E+01  2.69398E+01  2.21883E+01  1.86705E+01  1.65981E+01
   1.35371E+01  9.89630E+00  8.56466E+00  7.96691E+00  7.52046E+00  7.13870E+00  6.88240E+00  6.60254E+00  6.30246E+00  6.01206E+00
   5.75721E+00  5.52244E+00  5.33438E+00  5.17895E+00  5.01572E+00  4.87235E+00  4.77768E+00  4.71514E+00  4.67220E+00  4.66475E+00
   4.69137E+00  4.75744E+00  4.85832E+00  4.99059E+00  5.15723E+00  5.37106E+00  5.61997E+00  5.90882E+00  6.24383E+00  6.62057E+00
   7.03970E+00  7.50053E+00  7.98015E+00  8.47675E+00  8.98347E+00  9.48096E+00  9.95740E+00  1.04002E+01  1.07960E+01  1.11421E+01
   1.14255E+01  1.16390E+01  1.17837E+01  1.18601E+01  1.18726E+01  1.18296E+01  1.17414E+01  1.16211E+01  1.14864E+01  1.13821E+01
   1.13568E+01  1.13343E+01  1.12063E+01  1.10821E+01  1.10118E+01  1.08240E+01  1.05220E+01  1.02216E+01  9.94395E+00  9.76798E+00
   9.69362E+00  9.62140E+00  9.70448E+00  1.00309E+01  1.04198E+01  1.08527E+01  1.13613E+01  1.17591E+01  1.21370E+01  1.25964E+01
   1.29284E+01  1.31751E+01  1.34482E+01  1.37476E+01  1.41292E+01  1.45622E+01  1.49662E+01  1.54726E+01  1.60790E+01  1.67581E+01
   1.74824E+01  1.82164E+01  1.89159E+01  1.95311E+01  2.00121E+01  2.03152E+01  2.04094E+01  2.02809E+01  1.99349E+01  1.93942E+01
   1.86955E+01  1.78833E+01  1.70036E+01  1.60982E+01  1.52012E+01  1.43371E+01  1.35207E+01  1.27592E+01  1.20540E+01  1.14030E+01
   1.08026E+01  1.02488E+01  9.73833E+00  9.26886E+00  8.83880E+00  8.44730E+00  8.09398E+00  7.77883E+00  7.50204E+00  7.26394E+00
   7.06487E+00  6.90522E+00  6.78548E+00  6.70621E+00  6.66807E+00  6.67173E+00  6.71784E+00  6.80694E+00  6.93937E+00  7.11520E+00
   7.33400E+00  7.59472E+00  7.89545E+00  8.23335E+00  8.60454E+00  9.00397E+00  9.42542E+00  9.86145E+00  1.03036E+01  1.07424E+01
   1.11680E+01  1.15702E+01  1.19386E+01  1.22636E+01  1.25362E+01  1.27488E+01  1.28954E+01  1.29717E+01  1.29755E+01  1.29067E+01
   1.27671E+01  1.25606E+01  1.22926E+01  1.19700E+01  1.16006E+01  1.11930E+01  1.07559E+01  1.02982E+01  9.82822E+00  9.35378E+00
   8.88177E+00  8.41817E+00  7.96797E+00  7.53512E+00  7.12259E+00  6.73237E+00  6.36565E+00  6.02293E+00  5.70412E+00  5.40868E+00
   5.13570E+00  4.88398E+00  4.65219E+00  4.43890E+00  4.24270E+00  4.06214E+00  3.89584E+00  3.74247E+00  3.60078E+00  3.46966E+00
   3.34809E+00  3.23515E+00  3.12995E+00  3.03173E+00  2.93981E+00  2.85360E+00  2.77256E+00  2.69622E+00  2.62410E+00  2.55584E+00
   2.49108E+00  2.42957E+00  2.37101E+00  2.31516E+00  2.26177E+00  2.21066E+00  2.16166E+00  2.11462E+00  2.06940E+00  2.02584E+00
   1.98382E+00  1.94323E+00  1.90400E+00  1.86604E+00  1.82926E+00  1.79355E+00  1.75886E+00  1.72512E+00  1.69229E+00  1.66032E+00
   1.62913E+00  1.59867E+00  1.56890E+00  1.53980E+00  1.51133E+00  1.48345E+00  1.45610E+00  1.42925E+00  1.40289E+00  1.37699E+00
   1.35154E+00  1.32648E+00  1.30177E+00  1.27741E+00  1.25337E+00  1.22965E+00  1.20622E+00  1.18304E+00  1.16007E+00  1.13730E+00
   1.11473E+00  1.09235E+00  1.07010E+00  1.04795E+00  1.02588E+00  1.00387E+00  9.81911E-01  9.59959E-01
 NY background values follow
     5.098E+00    5.084E+00    5.070E+00    5.055E+00    5.041E+00    5.027E+00    5.013E+00    4.999E+00    4.984E+00    4.970E+00
     4.956E+00    4.942E+00    4.927E+00    4.913E+00    4.899E+00    4.885E+00    4.870E+00    4.856E+00    4.842E+00    4.828E+00
     4.813E+00    4.799E+00    4.785E+00    4.771E+00    4.756E+00    4.742E+00    4.728E+00    4.714E+00    4.699E+00    4.685E+00
     4.671E+00    4.657E+00    4.642E+00    4.628E+00    4.614E+00    4.599E+00    4.585E+00    4.571E+00    4.557E+00    4.542E+00
     4.528E+00    4.514E+00    4.499E+00    4.485E+00    4.471E+00    4.457E+00    4.442E+00    4.428E+00    4.414E+00    4.400E+00
     4.385E+00    4.371E+00    4.357E+00    4.343E+00    4.328E+00    4.314E+00    4.300E+00    4.286E+00    4.271E+00    4.257E+00
     4.243E+00    4.229E+00    4.214E+00    4.200E+00    4.186E+00    4.172E+00    4.157E+00    4.143E+00    4.129E+00    4.115E+00
     4.101E+00    4.087E+00    4.072E+00    4.058E+00    4.044E+00    4.030E+00    4.016E+00    4.002E+00    3.988E+00    3.973E+00
     3.959E+00    3.945E+00    3.931E+00    3.917E+00    3.903E+00    3.889E+00    3.875E+00    3.861E+00    3.847E+00    3.833E+00
     3.819E+00    3.805E+00    3.791E+00    3.777E+00    3.763E+00    3.749E+00    3.735E+00    3.722E+00    3.708E+00    3.694E+00
     3.680E+00    3.666E+00    3.652E+00    3.639E+00    3.625E+00    3.611E+00    3.597E+00    3.583E+00    3.570E+00    3.556E+00
     3.542E+00    3.529E+00    3.515E+00    3.501E+00    3.488E+00    3.474E+00    3.461E+00    3.447E+00    3.433E+00    3.420E+00
     3.406E+00    3.393E+00    3.379E+00    3.366E+00    3.352E+00    3.339E+00    3.326E+00    3.312E+00    3.299E+00    3.285E+00
     3.272E+00    3.259E+00    3.246E+00    3.232E+00    3.219E+00    3.206E+00    3.193E+00    3.179E+00    3.166E+00    3.153E+00
     3.140E+00    3.127E+00    3.114E+00    3.101E+00    3.088E+00    3.075E+00    3.062E+00    3.049E+00    3.036E+00    3.023E+00
     3.010E+00    2.997E+00    2.984E+00    2.971E+00    2.958E+00    2.946E+00    2.933E+00    2.920E+00    2.907E+00    2.895E+00
     2.882E+00    2.869E+00    2.857E+00    2.844E+00    2.831E+00    2.819E+00    2.806E+00    2.794E+00    2.781E+00    2.769E+00
     2.756E+00    2.744E+00    2.731E+00    2.719E+00    2.707E+00    2.694E+00    2.682E+00    2.670E+00    2.658E+00    2.645E+00
     2.633E+00    2.621E+00    2.609E+00    2.597E+00    2.585E+00    2.573E+00    2.560E+00    2.548E+00    2.536E+00    2.524E+00
     2.513E+00    2.501E+00    2.489E+00    2.477E+00    2.465E+00    2.453E+00    2.441E+00    2.430E+00    2.418E+00    2.406E+00
     2.394E+00    2.383E+00    2.371E+00    2.359E+00    2.348E+00    2.336E+00    2.325E+00    2.313E+00    2.302E+00    2.290E+00
     2.279E+00    2.267E+00    2.256E+00    2.245E+00    2.233E+00    2.222E+00    2.211E+00    2.199E+00    2.188E+00    2.177E+00
     2.165E+00    2.154E+00    2.143E+00    2.132E+00    2.121E+00    2.110E+00    2.099E+00    2.087E+00    2.076E+00    2.065E+00
     2.054E+00    2.043E+00    2.032E+00    2.022E+00    2.011E+00    2.000E+00    1.989E+00    1.978E+00    1.967E+00    1.956E+00
     1.946E+00    1.935E+00    1.924E+00    1.913E+00    1.903E+00    1.892E+00    1.881E+00    1.871E+00    1.860E+00    1.849E+00
     1.839E+00    1.828E+00    1.818E+00    1.807E+00    1.797E+00    1.786E+00    1.776E+00    1.766E+00    1.755E+00    1.745E+00
     1.734E+00    1.724E+00    1.714E+00    1.703E+00    1.693E+00    1.683E+00    1.673E+00    1.662E+00    1.652E+00    1.642E+00
     1.632E+00    1.622E+00    1.612E+00    1.602E+00    1.592E+00    1.582E+00    1.572E+00    1.562E+00    1.552E+00    1.542E+00
     1.532E+00    1.522E+00    1.512E+00    1.502E+00    1.492E+00    1.482E+00    1.472E+00    1.463E+00    1.453E+00    1.443E+00
     1.433E+00    1.424E+00    1.414E+00    1.404E+00    1.394E+00    1.385E+00    1.375E+00    1.366E+00    1.356E+00    1.346E+00
     1.337E+00    1.327E+00    1.318E+00    1.308E+00    1.299E+00    1.289E+00    1.280E+00    1.270E+00    1.261E+00    1.252E+00
     1.242E+00    1.233E+00    1.224E+00    1.214E+00    1.205E+00    1.196E+00    1.186E+00    1.177E+00    1.168E+00    1.159E+00
     1.149E+00    1.140E+00    1.131E+00    1.122E+00    1.113E+00    1.104E+00    1.095E+00    1.085E+00    1.076E+00    1.067E+00
     1.058E+00    1.049E+00    1.040E+00    1.031E+00    1.022E+00    1.013E+00    1.004E+00    9.954E-01    9.864E-01    9.775E-01
     9.686E-01    9.598E-01    9.509E-01    9.420E-01    9.332E-01    9.244E-01    9.156E-01    9.068E-01    8.980E-01    8.893E-01
     8.805E-01    8.718E-01    8.630E-01    8.543E-01    8.456E-01    8.370E-01    8.283E-01    8.196E-01    8.110E-01    8.024E-01
     7.938E-01    7.851E-01    7.766E-01    7.680E-01    7.594E-01    7.509E-01    7.423E-01    7.338E-01    7.253E-01    7.168E-01
     7.083E-01    6.998E-01    6.913E-01    6.829E-01    6.744E-01    6.660E-01    6.576E-01    6.492E-01    6.408E-01    6.324E-01
     6.240E-01    6.156E-01    6.073E-01    5.989E-01    5.906E-01    5.823E-01    5.740E-01    5.657E-01    5.574E-01    5.491E-01
     5.408E-01    5.326E-01    5.243E-01    5.161E-01    5.078E-01    4.996E-01    4.914E-01    4.832E-01    4.750E-01    4.668E-01
     4.586E-01    4.505E-01    4.423E-01    4.342E-01    4.260E-01    4.179E-01    4.097E-01    4.016E-01    3.935E-01    3.854E-01
     3.773E-01    3.692E-01    3.612E-01    3.531E-01    3.450E-01    3.370E-01    3.289E-01    3.209E-01    3.129E-01    3.048E-01
     2.968E-01    2.888E-01    2.808E-01    2.728E-01    2.648E-01    2.568E-01    2.488E-01    2.409E-01    2.329E-01    2.249E-01
     2.170E-01    2.090E-01    2.011E-01    1.931E-01    1.852E-01    1.773E-01    1.693E-01    1.614E-01    1.535E-01    1.456E-01
     1.377E-01    1.298E-01    1.219E-01    1.140E-01    1.061E-01    9.825E-02    9.037E-02    8.250E-02    7.463E-02    6.677E-02
     5.890E-02    5.105E-02    4.319E-02    3.534E-02    2.749E-02    1.965E-02    1.181E-02    3.967E-03   -3.868E-03   -1.170E-02
    -1.953E-02   -2.735E-02   -3.518E-02   -4.300E-02   -5.081E-02   -5.863E-02   -6.644E-02   -7.425E-02   -8.205E-02   -8.985E-02
    -9.765E-02   -1.054E-01   -1.132E-01   -1.210E-01   -1.288E-01   -1.366E-01   -1.444E-01   -1.522E-01   -1.600E-01   -1.677E-01
    -1.755E-01   -1.833E-01   -1.911E-01   -1.988E-01   -2.066E-01   -2.143E-01   -2.221E-01   -2.299E-01   -2.376E-01   -2.454E-01
    -2.531E-01   -2.609E-01   -2.686E-01   -2.764E-01   -2.841E-01   -2.919E-01   -2.996E-01   -3.074E-01
 Ala      Conc. = 1.22E+02
