 LCModel (Version 6.3-1L) Copyright: S.W. Provencher.          Ref.: Magn. Reson. Med. 30:672-679 (1993).                
 Slice#1 Row#10 Col#4  PD_24_press_1_raw_act
 36 lines in following concentration table = NCONC+1
    Conc.  %SD /Cr+PCr  Metabolite                                         
  104.488 112%   0.114 Ala                                                 
    0.000 999%   0.000 Asp                                                 
  365.451  62%   0.397 Cr                                                  
  554.581  42%   0.603 PCr                                                 
    0.000 999%   0.000 GABA                                                
    0.000 999%   0.000 Glc                                                 
 1.19E+03  22%   1.292 Gln                                                 
 1.28E+03  22%   1.389 Glu                                                 
  500.101   5%   0.544 GPC                                                 
    0.000 999%   0.000 PCh                                                 
  139.965  50%   0.152 GSH                                                 
  401.148  60%   0.436 Ins                                                 
    0.000 999%   0.000 Lac                                                 
 2.14E+03   8%   2.327 NAA                                                 
  394.671  44%   0.429 NAAG                                                
  120.798  23%   0.131 Scyllo                                              
  450.542  41%   0.490 Tau                                                 
  246.039  41%   0.267 -CrCH2                                              
  500.101   5%   0.544 GPC+PCh                                             
 2.54E+03   3%   2.756 NAA+NAAG                                            
  920.032   6%   1.000 Cr+PCr                                              
 2.47E+03  18%   2.680 Glu+Gln                                             
 3.23E+03  25%   3.514 Lip13a                                              
    0.000 999%   0.000 Lip13b                                              
  849.964  37%   0.924 Lip09                                               
 1.16E+03  29%   1.262 MM09                                                
  542.866  40%   0.590 Lip20                                               
 3.03E+03  14%   3.298 MM20                                                
  406.303  70%   0.442 MM12                                                
 1.47E+03  29%   1.593 MM14                                                
 1.37E+03  19%   1.494 MM17                                                
 3.23E+03  25%   3.514 Lip13a+Lip13b                                       
 5.11E+03   9%   5.549 MM14+Lip13a+Lip13b+MM12                             
 2.01E+03  10%   2.186 MM09+Lip09                                          
 3.58E+03  11%   3.888 MM20+Lip20                                          
   6 lines in following misc. output table
  FWHM = 0.061 ppm    S/N =  13                                            
  Data shift =-0.015 ppm                                                   
  Ph: -54 deg     -15.1 deg/ppm                                            
  alphaB,S = 8.5E+01,   1.3E+02                                            
   14 spline knots.   Ns = 8(1)                                            
   3 inflections.     1 extrema                                            
  498 points on ppm-axis = NY
      4.000000     3.992357     3.984714     3.977070     3.969427     3.961784     3.954141     3.946497     3.938854     3.931211
      3.923568     3.915925     3.908281     3.900638     3.892995     3.885352     3.877708     3.870065     3.862422     3.854779
      3.847136     3.839492     3.831849     3.824206     3.816563     3.808919     3.801276     3.793633     3.785990     3.778347
      3.770703     3.763060     3.755417     3.747774     3.740130     3.732487     3.724844     3.717201     3.709558     3.701914
      3.694271     3.686628     3.678985     3.671341     3.663698     3.656055     3.648412     3.640769     3.633125     3.625482
      3.617839     3.610196     3.602552     3.594909     3.587266     3.579623     3.571980     3.564336     3.556693     3.549050
      3.541407     3.533763     3.526120     3.518477     3.510834     3.503191     3.495547     3.487904     3.480261     3.472618
      3.464974     3.457331     3.449688     3.442045     3.434402     3.426758     3.419115     3.411472     3.403829     3.396185
      3.388542     3.380899     3.373256     3.365613     3.357969     3.350326     3.342683     3.335040     3.327396     3.319753
      3.312110     3.304467     3.296824     3.289180     3.281537     3.273894     3.266251     3.258607     3.250964     3.243321
      3.235678     3.228034     3.220391     3.212748     3.205105     3.197462     3.189818     3.182175     3.174532     3.166889
      3.159245     3.151602     3.143959     3.136316     3.128673     3.121029     3.113386     3.105743     3.098100     3.090456
      3.082813     3.075170     3.067527     3.059884     3.052240     3.044597     3.036954     3.029311     3.021667     3.014024
      3.006381     2.998738     2.991095     2.983451     2.975808     2.968165     2.960522     2.952878     2.945235     2.937592
      2.929949     2.922306     2.914662     2.907019     2.899376     2.891733     2.884089     2.876446     2.868803     2.861160
      2.853517     2.845873     2.838230     2.830587     2.822944     2.815300     2.807657     2.800014     2.792371     2.784728
      2.777084     2.769441     2.761798     2.754155     2.746511     2.738868     2.731225     2.723582     2.715939     2.708295
      2.700652     2.693009     2.685366     2.677722     2.670079     2.662436     2.654793     2.647150     2.639506     2.631863
      2.624220     2.616577     2.608933     2.601290     2.593647     2.586004     2.578361     2.570717     2.563074     2.555431
      2.547788     2.540144     2.532501     2.524858     2.517215     2.509572     2.501928     2.494285     2.486642     2.478999
      2.471355     2.463712     2.456069     2.448426     2.440783     2.433139     2.425496     2.417853     2.410210     2.402566
      2.394923     2.387280     2.379637     2.371994     2.364350     2.356707     2.349064     2.341421     2.333777     2.326134
      2.318491     2.310848     2.303205     2.295561     2.287918     2.280275     2.272632     2.264988     2.257345     2.249702
      2.242059     2.234416     2.226772     2.219129     2.211486     2.203843     2.196199     2.188556     2.180913     2.173270
      2.165627     2.157983     2.150340     2.142697     2.135054     2.127410     2.119767     2.112124     2.104481     2.096838
      2.089194     2.081551     2.073908     2.066265     2.058621     2.050978     2.043335     2.035692     2.028049     2.020405
      2.012762     2.005119     1.997476     1.989833     1.982190     1.974546     1.966903     1.959260     1.951617     1.943974
      1.936331     1.928688     1.921045     1.913402     1.905759     1.898115     1.890472     1.882829     1.875186     1.867543
      1.859900     1.852257     1.844614     1.836971     1.829327     1.821684     1.814041     1.806398     1.798755     1.791112
      1.783469     1.775826     1.768183     1.760540     1.752896     1.745253     1.737610     1.729967     1.722324     1.714681
      1.707038     1.699395     1.691752     1.684108     1.676465     1.668822     1.661179     1.653536     1.645893     1.638250
      1.630607     1.622964     1.615321     1.607677     1.600034     1.592391     1.584748     1.577105     1.569462     1.561819
      1.554176     1.546533     1.538890     1.531246     1.523603     1.515960     1.508317     1.500674     1.493031     1.485388
      1.477745     1.470102     1.462458     1.454815     1.447172     1.439529     1.431886     1.424243     1.416600     1.408957
      1.401314     1.393671     1.386027     1.378384     1.370741     1.363098     1.355455     1.347812     1.340169     1.332526
      1.324883     1.317240     1.309596     1.301953     1.294310     1.286667     1.279024     1.271381     1.263738     1.256095
      1.248452     1.240808     1.233165     1.225522     1.217879     1.210236     1.202593     1.194950     1.187307     1.179664
      1.172021     1.164377     1.156734     1.149091     1.141448     1.133805     1.126162     1.118519     1.110876     1.103233
      1.095590     1.087946     1.080303     1.072660     1.065017     1.057374     1.049731     1.042088     1.034445     1.026802
      1.019158     1.011515     1.003872     0.996229     0.988586     0.980943     0.973300     0.965657     0.958014     0.950371
      0.942727     0.935084     0.927441     0.919798     0.912155     0.904512     0.896869     0.889226     0.881583     0.873940
      0.866296     0.858653     0.851010     0.843367     0.835724     0.828081     0.820438     0.812795     0.805152     0.797508
      0.789865     0.782222     0.774579     0.766936     0.759293     0.751650     0.744007     0.736364     0.728721     0.721077
      0.713434     0.705791     0.698148     0.690505     0.682862     0.675219     0.667576     0.659933     0.652290     0.644646
      0.637003     0.629360     0.621717     0.614074     0.606431     0.598788     0.591145     0.583502     0.575858     0.568215
      0.560572     0.552929     0.545286     0.537643     0.530000     0.522357     0.514714     0.507071     0.499427     0.491784
      0.484141     0.476498     0.468855     0.461212     0.453569     0.445925     0.438282     0.430639     0.422996     0.415353
      0.407710     0.400067     0.392424     0.384780     0.377137     0.369494     0.361851     0.354208     0.346565     0.338922
      0.331278     0.323635     0.315992     0.308349     0.300706     0.293063     0.285420     0.277777     0.270133     0.262490
      0.254847     0.247204     0.239561     0.231918     0.224275     0.216631     0.208988     0.201345
 NY phased data points follow
  -1.40192E+01 -1.24723E+01 -6.60637E+00 -1.45425E+01 -1.03154E+01 -8.69804E+00 -6.81250E+00 -5.33937E+00 -3.54656E+00  6.94881E-01
   1.18914E+01  5.35402E+00  2.32162E+00  2.33339E+00  4.67824E+00 -5.09251E+00  2.00047E+00 -3.30640E+00 -4.21108E+00 -1.20494E+01
  -5.83893E+00 -8.86292E+00 -9.63916E+00 -1.31820E+01 -7.21912E+00 -1.32031E+01 -1.08496E+01 -1.00162E+01 -1.10463E+01 -7.89429E+00
  -6.68561E+00 -9.51901E+00 -5.47504E-01 -4.15145E+00 -5.60476E+00 -1.01112E+01 -4.76957E+00 -6.58531E+00 -6.38876E+00 -6.59849E+00
  -2.61699E+00 -1.05363E+01 -2.15686E+00 -6.39703E+00 -3.19451E+00 -3.92467E+00 -3.05366E+00 -3.74167E+00 -6.61553E+00 -6.86310E+00
  -2.33626E+00 -5.98755E+00 -6.03285E+00 -3.39830E+00 -7.00720E+00 -2.74500E+00 -7.06098E+00 -9.74136E+00 -5.67471E+00 -1.00099E+01
  -4.02675E+00 -6.55548E+00 -1.06570E+01 -1.09230E+01 -7.17259E+00 -1.04060E+01 -9.19862E+00 -1.17172E+01 -1.05171E+01 -1.25354E+01
  -7.38990E+00 -1.18057E+01 -5.86307E+00 -7.78178E+00 -6.53207E+00 -5.70293E+00 -5.89526E+00 -8.30929E+00 -5.04664E+00 -1.22371E+01
  -4.17280E+00 -1.18058E+01 -6.01322E+00 -1.00633E+01 -6.78621E+00 -6.42207E+00 -9.37027E-01 -5.37611E+00 -7.82022E-01 -1.08234E+00
  -4.28971E+00 -4.78070E+00 -4.28863E+00 -8.05527E-01  2.79708E+00 -3.00996E+00  5.10051E+00  6.26111E+00  3.57775E+00  1.45164E+01
   1.57053E+01  2.52199E+01  3.23639E+01  3.60461E+01  3.11128E+01  3.10640E+01  2.59464E+01  1.44582E+01  1.28846E+01  4.93865E+00
   2.67353E+00 -5.36242E-01 -5.05940E+00 -6.64156E+00  2.07618E-01 -3.85639E+00 -1.08485E+00 -6.75349E+00 -7.05264E+00 -4.66426E-01
  -1.52470E+00 -1.64210E+00 -5.01163E-01 -2.11600E+00  5.22838E+00  1.19220E+01  1.95499E+01  1.89367E+01  2.47294E+01  1.93036E+01
   1.51088E+01  1.45373E+01  1.01262E+01  4.61089E+00  2.78273E+00 -3.80380E+00 -4.16134E+00 -5.12259E+00 -5.38785E+00 -6.57928E+00
  -4.33292E+00 -8.80739E+00 -6.15134E+00 -5.93518E+00 -6.72948E+00 -5.26277E+00 -4.49957E+00 -5.34352E+00 -1.92591E+00 -4.35443E+00
  -2.57962E+00 -8.39089E+00 -5.36059E+00 -3.96547E+00 -5.52657E+00 -6.40765E+00 -4.07434E+00 -4.00802E+00 -3.95695E+00 -3.10367E+00
  -1.81814E+00 -9.59476E+00 -1.02624E+01 -8.19975E+00 -5.16595E+00 -1.10967E+01 -1.12209E+01 -7.51277E+00 -1.34012E+01 -1.20555E+01
  -1.13127E+01 -1.54548E+01 -1.47599E+01 -1.79197E+01 -1.82131E+01 -1.51762E+01 -1.70694E+01 -1.51652E+01 -1.27971E+01 -1.19779E+01
  -9.04845E+00 -1.00535E+01 -1.05496E+01 -1.10014E+01 -6.09088E+00 -9.77489E+00 -1.04881E+01 -1.16198E+01 -1.13587E+01 -1.01802E+01
  -6.23016E+00 -4.93339E+00 -8.98335E+00 -1.01593E+01 -9.21701E+00 -8.94691E+00 -1.07294E+01 -7.36756E+00 -1.06911E+01 -5.09206E+00
  -8.41034E+00 -7.57729E+00 -1.65150E+00 -4.20683E+00 -3.02720E+00 -4.30798E+00  1.39213E+00 -3.68590E+00 -4.85511E+00 -7.11241E+00
  -5.49302E+00 -6.03292E+00  1.22424E+00 -2.44047E+00  5.69830E-01  6.23341E+00  8.32821E+00  7.65638E+00  2.98894E+00  3.04632E+00
  -1.28476E+00 -1.28379E+00 -3.81997E+00 -1.11070E+00 -1.19731E+00  2.53949E+00  1.02551E+00  5.36804E-01  5.15333E+00  1.97483E+00
   6.17948E+00  4.75595E+00  8.90922E+00  5.64397E+00  5.43786E+00  2.94066E+00  2.19719E+00  2.52445E+00  3.95131E+00  3.75212E+00
   1.53014E+00  1.36412E+00 -2.45060E+00  6.17371E-01  1.95203E-01  3.18169E+00  3.76541E+00  4.81319E+00  8.26775E+00  6.23962E+00
   9.86499E+00  1.30589E+01  1.45423E+01  1.91572E+01  2.86307E+01  3.87046E+01  4.63707E+01  5.22260E+01  5.73249E+01  7.21375E+01
   7.85108E+01  7.35133E+01  6.89714E+01  6.00295E+01  5.10536E+01  3.97946E+01  2.49579E+01  1.44861E+01  1.53664E+01  9.47244E+00
   8.66592E+00  1.07316E+01  4.25233E+00  5.87119E+00  7.52756E+00  2.76999E+00  5.38180E+00  6.01480E+00  3.13507E+00  4.27690E+00
   2.14533E+00  7.13913E-01  1.75238E+00  2.01942E+00  2.20465E+00  6.14228E+00 -2.24491E+00  5.22735E+00  6.67155E+00 -4.14707E-01
   2.49594E+00  2.13834E+00  4.15707E+00  6.37263E+00  6.07410E+00  3.50974E+00  3.47521E+00  3.91698E+00  6.61166E+00  8.72474E+00
   4.21511E+00  2.88805E+00  2.83471E+00  3.86278E+00  5.91928E+00  5.51939E+00  5.46716E+00  4.88807E+00  2.97779E+00  8.44485E+00
   5.62936E+00  6.49693E+00  7.04461E+00  1.35020E+01  8.31165E+00  6.04215E+00  1.42120E+01  3.22450E+00  6.57221E+00  5.08366E+00
   5.77815E+00  6.20034E+00  6.14375E+00  8.14241E+00  7.38302E+00  6.83704E+00  7.99342E+00  5.61785E+00  6.81908E+00  9.60427E+00
   9.17264E+00  7.93143E+00  6.89469E+00  8.53066E+00  6.94004E+00  1.45962E+01  1.02703E+01  1.52906E+01  1.02391E+01  1.29501E+01
   1.06278E+01  1.24652E+01  1.12033E+01  1.20519E+01  1.21963E+01  1.89616E+01  1.42436E+01  1.54864E+01  1.01233E+01  1.49027E+01
   1.16449E+01  1.14523E+01  1.31548E+01  1.70335E+01  1.12513E+01  1.37430E+01  1.10410E+01  6.74025E+00  1.21292E+01  1.14822E+01
   7.89392E+00  1.34921E+01  1.01577E+01  1.25698E+01  9.35942E+00  1.60277E+01  1.30352E+01  1.25893E+01  8.85924E+00  1.46841E+01
   8.77900E+00  9.45489E+00  1.07553E+01  9.55191E+00  7.85621E+00  9.36715E+00  5.05115E+00  1.10219E+01  4.69193E+00  8.55981E+00
   7.84238E+00  6.49441E+00  7.63054E+00  8.21021E+00  6.52852E+00  1.10559E+01  1.01116E+01  8.23046E+00  1.00053E+01  6.96539E+00
   4.65880E+00  1.04123E+01  1.26908E+01  1.20511E+01  1.19884E+01  9.03983E+00  1.26709E+01  9.45927E+00  9.55375E+00  1.21579E+01
   1.32978E+01  8.15218E+00  1.36498E+01  1.07761E+01  1.32914E+01  1.26915E+01  9.70126E+00  7.07487E+00  7.74130E+00  1.07838E+01
   1.43516E+01  1.24142E+01  1.35145E+01  1.02611E+01  9.47403E+00  1.14555E+01  5.39499E+00  8.04166E+00  7.94523E+00  1.02618E+01
   1.05833E+01  6.36777E+00  2.68835E+00  4.79365E+00  4.83403E+00  9.88433E+00  7.94689E+00  5.97624E+00  5.01250E+00  5.68831E+00
   3.64218E+00  6.41452E+00  2.80460E+00  3.92083E+00  4.11528E-01  4.01754E+00  9.06728E+00  2.87736E+00  1.76157E+00  2.25813E+00
   3.39909E+00  4.57128E+00  4.31484E+00  1.83205E+00  2.99539E+00  2.82584E+00  2.43708E+00  8.49909E-01  3.63255E+00  2.80566E+00
   2.52062E-01  3.32082E+00 -1.94721E+00  1.41441E+00  2.01296E+00  2.56726E+00  2.55424E+00  5.25037E+00  1.76349E+00  1.96517E+00
   1.96794E-01  2.54142E+00 -2.46533E+00 -5.23761E-01  1.21660E+00  7.23890E-01  5.99960E+00  1.67604E+00  2.54272E+00  1.33643E+00
   2.40230E+00  1.46587E+00  7.30568E-01  2.86544E+00 -8.41851E-01 -6.52207E-01  2.37969E+00  2.95689E+00 -9.40804E-01  1.31737E+00
  -7.44138E-01  1.41142E+00 -3.93938E+00  4.61888E+00  6.77775E-01 -1.06193E+00 -5.14771E+00  3.18316E+00  1.21486E+00 -1.54735E+00
   1.68487E+00  1.16632E+00 -2.05653E+00  1.11958E+00  7.26952E-01  3.30100E-01 -5.45752E-01  4.89486E+00
 NY points of the fit to the data follow
  -1.11538E+01 -1.10900E+01 -1.05874E+01 -9.62595E+00 -8.33049E+00 -6.93978E+00 -5.42820E+00 -3.57132E+00 -1.20029E+00  1.41196E+00
   3.57661E+00  4.68777E+00  4.62088E+00  3.64255E+00  2.08557E+00  2.14622E-01 -1.70237E+00 -3.41803E+00 -4.88340E+00 -6.06331E+00
  -6.94255E+00 -7.58442E+00 -7.96949E+00 -8.20317E+00 -8.38952E+00 -8.66203E+00 -8.95615E+00 -9.04478E+00 -8.67341E+00 -7.73264E+00
  -6.37068E+00 -4.95607E+00 -3.91130E+00 -3.55034E+00 -3.93050E+00 -4.87962E+00 -6.10083E+00 -7.19576E+00 -7.90076E+00 -8.14246E+00
  -7.95960E+00 -7.45945E+00 -6.79738E+00 -6.16588E+00 -5.60148E+00 -5.10351E+00 -4.73563E+00 -4.58739E+00 -4.67887E+00 -4.96778E+00
  -5.42584E+00 -6.01376E+00 -6.62337E+00 -7.16000E+00 -7.61452E+00 -7.98571E+00 -8.23655E+00 -8.34936E+00 -8.33612E+00 -8.24406E+00
  -8.15875E+00 -8.12299E+00 -8.15038E+00 -8.22828E+00 -8.29970E+00 -8.33258E+00 -8.34676E+00 -8.32816E+00 -8.24777E+00 -8.14847E+00
  -8.06415E+00 -7.99243E+00 -7.90867E+00 -7.77979E+00 -7.59248E+00 -7.44304E+00 -7.47300E+00 -7.71986E+00 -8.04961E+00 -8.15002E+00
  -7.97810E+00 -7.64073E+00 -7.15305E+00 -6.45684E+00 -5.47721E+00 -4.25670E+00 -3.11424E+00 -2.49314E+00 -2.54052E+00 -3.07555E+00
  -3.85650E+00 -4.74121E+00 -5.67083E+00 -6.39851E+00 -6.05641E+00 -3.89747E+00 -7.38144E-01  2.85717E+00  6.90083E+00  1.20134E+01
   1.87414E+01  2.63335E+01  3.25210E+01  3.51379E+01  3.38454E+01  2.98043E+01  2.41735E+01  1.76524E+01  1.10577E+01  5.36512E+00
   9.81526E-01 -2.29406E+00 -4.42370E+00 -5.36043E+00 -5.81549E+00 -6.09511E+00 -6.26199E+00 -6.32996E+00 -6.16600E+00 -5.18447E+00
  -3.27367E+00 -1.07663E+00  1.16018E+00  3.72287E+00  7.20907E+00  1.18333E+01  1.67523E+01  2.02943E+01  2.12949E+01  1.99148E+01
   1.70045E+01  1.32149E+01  8.97912E+00  4.85086E+00  1.38494E+00 -1.29003E+00 -3.29209E+00 -4.45471E+00 -4.88821E+00 -5.04003E+00
  -5.05350E+00 -5.00066E+00 -4.94556E+00 -4.92335E+00 -4.94025E+00 -5.00212E+00 -5.10910E+00 -5.24789E+00 -5.39325E+00 -5.52473E+00
  -5.63230E+00 -5.71953E+00 -5.81492E+00 -5.97922E+00 -6.17406E+00 -6.32622E+00 -6.39888E+00 -6.41745E+00 -6.52263E+00 -6.79471E+00
  -7.15317E+00 -7.42813E+00 -7.52182E+00 -7.48315E+00 -7.45617E+00 -7.56132E+00 -7.81502E+00 -8.19522E+00 -8.69447E+00 -9.22139E+00
  -9.64631E+00 -9.96366E+00 -1.02367E+01 -1.05840E+01 -1.09734E+01 -1.12315E+01 -1.12454E+01 -1.10631E+01 -1.08633E+01 -1.07925E+01
  -1.07608E+01 -1.06036E+01 -1.02909E+01 -9.91233E+00 -9.52836E+00 -9.12474E+00 -8.64017E+00 -7.98470E+00 -7.18312E+00 -6.34705E+00
  -5.65868E+00 -5.23615E+00 -5.07610E+00 -5.09124E+00 -5.17706E+00 -5.23657E+00 -5.16599E+00 -4.89497E+00 -4.31968E+00 -3.43493E+00
  -2.39370E+00 -1.49441E+00 -9.75838E-01 -8.18515E-01 -1.16030E+00 -2.23611E+00 -4.03797E+00 -6.23015E+00 -8.21668E+00 -9.48858E+00
  -9.75523E+00 -9.01294E+00 -7.41952E+00 -5.16881E+00 -2.65962E+00 -5.37893E-01  6.85815E-01  9.01933E-01  2.63972E-01 -1.08325E+00
  -2.91569E+00 -4.61403E+00 -5.55606E+00 -5.48949E+00 -4.55701E+00 -3.08033E+00 -1.32459E+00  3.28846E-01  1.56570E+00  2.31692E+00
   2.65517E+00  2.73692E+00  2.65655E+00  2.51051E+00  2.40185E+00  2.51500E+00  3.00861E+00  3.81782E+00  4.67233E+00  5.28156E+00
   5.45948E+00  5.15145E+00  4.55509E+00  4.00243E+00  3.70511E+00  3.71276E+00  4.05013E+00  4.83319E+00  6.22910E+00  8.04888E+00
   1.00025E+01  1.23697E+01  1.66599E+01  2.31871E+01  3.04292E+01  3.73828E+01  4.41131E+01  5.17289E+01  6.09277E+01  7.00768E+01
   7.55894E+01  7.51055E+01  6.93661E+01  6.05380E+01  5.00453E+01  3.88586E+01  2.84755E+01  2.01125E+01  1.38115E+01  9.15904E+00
   6.46788E+00  5.34681E+00  4.73225E+00  4.31399E+00  3.99258E+00  3.69691E+00  3.39896E+00  3.10673E+00  2.82237E+00  2.55320E+00
   2.32002E+00  2.14552E+00  2.03523E+00  1.97981E+00  1.97179E+00  2.00419E+00  2.06870E+00  2.15545E+00  2.26478E+00  2.40641E+00
   2.58909E+00  2.81278E+00  3.07305E+00  3.36195E+00  3.67031E+00  3.98658E+00  4.30077E+00  4.60405E+00  4.89315E+00  5.16973E+00
   5.43328E+00  5.67858E+00  5.90188E+00  6.09824E+00  6.26244E+00  6.39004E+00  6.47863E+00  6.52906E+00  6.54463E+00  6.52937E+00
   6.49026E+00  6.43521E+00  6.37196E+00  6.30881E+00  6.25432E+00  6.21713E+00  6.20613E+00  6.23120E+00  6.30720E+00  6.45303E+00
   6.63935E+00  6.83303E+00  7.04088E+00  7.28211E+00  7.55803E+00  7.82426E+00  8.00153E+00  8.06958E+00  8.08471E+00  8.10566E+00
   8.16993E+00  8.29856E+00  8.53853E+00  8.95367E+00  9.55109E+00  1.02398E+01  1.09021E+01  1.14776E+01  1.19363E+01  1.22690E+01
   1.24866E+01  1.26140E+01  1.26916E+01  1.27479E+01  1.27898E+01  1.28373E+01  1.29042E+01  1.29768E+01  1.30472E+01  1.31110E+01
   1.31653E+01  1.32074E+01  1.32345E+01  1.32441E+01  1.32337E+01  1.32006E+01  1.31427E+01  1.30577E+01  1.29444E+01  1.28018E+01
   1.26297E+01  1.24282E+01  1.21986E+01  1.19423E+01  1.16620E+01  1.13607E+01  1.10419E+01  1.07097E+01  1.03683E+01  1.00224E+01
   9.67694E+00  9.33674E+00  9.00664E+00  8.69126E+00  8.39510E+00  8.12248E+00  7.87749E+00  7.66379E+00  7.48470E+00  7.34310E+00
   7.24159E+00  7.18238E+00  7.16727E+00  7.19745E+00  7.27358E+00  7.39568E+00  7.56321E+00  7.77486E+00  8.02848E+00  8.32087E+00
   8.64791E+00  9.00447E+00  9.38454E+00  9.78112E+00  1.01863E+01  1.05915E+01  1.09876E+01  1.13653E+01  1.17155E+01  1.20292E+01
   1.22983E+01  1.25153E+01  1.26742E+01  1.27704E+01  1.28011E+01  1.27649E+01  1.26622E+01  1.24949E+01  1.22666E+01  1.19823E+01
   1.16479E+01  1.12701E+01  1.08562E+01  1.04138E+01  9.95030E+00  9.47323E+00  8.98949E+00  8.50535E+00  8.02643E+00  7.55759E+00
   7.10302E+00  6.66603E+00  6.24918E+00  5.85424E+00  5.48241E+00  5.13433E+00  4.81022E+00  4.50981E+00  4.23250E+00  3.97739E+00
   3.74346E+00  3.52959E+00  3.33459E+00  3.15717E+00  2.99602E+00  2.84982E+00  2.71741E+00  2.59765E+00  2.48949E+00  2.39188E+00
   2.30384E+00  2.22447E+00  2.15304E+00  2.08885E+00  2.03127E+00  1.97963E+00  1.93339E+00  1.89206E+00  1.85526E+00  1.82262E+00
   1.79377E+00  1.76835E+00  1.74606E+00  1.72666E+00  1.70998E+00  1.69581E+00  1.68392E+00  1.67411E+00  1.66622E+00  1.66015E+00
   1.65581E+00  1.65307E+00  1.65177E+00  1.65179E+00  1.65308E+00  1.65559E+00  1.65927E+00  1.66399E+00  1.66968E+00  1.67625E+00
   1.68370E+00  1.69202E+00  1.70114E+00  1.71099E+00  1.72150E+00  1.73265E+00  1.74446E+00  1.75690E+00  1.76992E+00  1.78345E+00
   1.79746E+00  1.81195E+00  1.82696E+00  1.84244E+00  1.85836E+00  1.87464E+00  1.89131E+00  1.90838E+00  1.92586E+00  1.94372E+00
   1.96191E+00  1.98041E+00  1.99923E+00  2.01842E+00  2.03797E+00  2.05784E+00  2.07801E+00  2.09847E+00
 NY background values follow
    -1.223E+01   -1.220E+01   -1.217E+01   -1.214E+01   -1.212E+01   -1.209E+01   -1.206E+01   -1.203E+01   -1.201E+01   -1.198E+01
    -1.195E+01   -1.192E+01   -1.189E+01   -1.187E+01   -1.184E+01   -1.181E+01   -1.178E+01   -1.175E+01   -1.173E+01   -1.170E+01
    -1.167E+01   -1.164E+01   -1.162E+01   -1.159E+01   -1.156E+01   -1.153E+01   -1.150E+01   -1.148E+01   -1.145E+01   -1.142E+01
    -1.139E+01   -1.137E+01   -1.134E+01   -1.131E+01   -1.128E+01   -1.125E+01   -1.123E+01   -1.120E+01   -1.117E+01   -1.114E+01
    -1.111E+01   -1.109E+01   -1.106E+01   -1.103E+01   -1.100E+01   -1.098E+01   -1.095E+01   -1.092E+01   -1.089E+01   -1.086E+01
    -1.084E+01   -1.081E+01   -1.078E+01   -1.075E+01   -1.072E+01   -1.070E+01   -1.067E+01   -1.064E+01   -1.061E+01   -1.058E+01
    -1.056E+01   -1.053E+01   -1.050E+01   -1.047E+01   -1.045E+01   -1.042E+01   -1.039E+01   -1.036E+01   -1.033E+01   -1.031E+01
    -1.028E+01   -1.025E+01   -1.022E+01   -1.019E+01   -1.017E+01   -1.014E+01   -1.011E+01   -1.008E+01   -1.005E+01   -1.003E+01
    -9.999E+00   -9.971E+00   -9.943E+00   -9.915E+00   -9.887E+00   -9.859E+00   -9.831E+00   -9.803E+00   -9.775E+00   -9.747E+00
    -9.719E+00   -9.691E+00   -9.663E+00   -9.635E+00   -9.607E+00   -9.579E+00   -9.551E+00   -9.523E+00   -9.495E+00   -9.467E+00
    -9.439E+00   -9.411E+00   -9.384E+00   -9.356E+00   -9.328E+00   -9.300E+00   -9.272E+00   -9.244E+00   -9.216E+00   -9.188E+00
    -9.160E+00   -9.132E+00   -9.104E+00   -9.076E+00   -9.048E+00   -9.020E+00   -8.992E+00   -8.964E+00   -8.936E+00   -8.908E+00
    -8.880E+00   -8.852E+00   -8.824E+00   -8.796E+00   -8.768E+00   -8.740E+00   -8.712E+00   -8.684E+00   -8.656E+00   -8.628E+00
    -8.600E+00   -8.572E+00   -8.544E+00   -8.516E+00   -8.488E+00   -8.460E+00   -8.432E+00   -8.404E+00   -8.376E+00   -8.347E+00
    -8.319E+00   -8.291E+00   -8.263E+00   -8.235E+00   -8.207E+00   -8.179E+00   -8.151E+00   -8.123E+00   -8.095E+00   -8.067E+00
    -8.039E+00   -8.011E+00   -7.983E+00   -7.955E+00   -7.927E+00   -7.899E+00   -7.871E+00   -7.843E+00   -7.815E+00   -7.787E+00
    -7.759E+00   -7.731E+00   -7.703E+00   -7.674E+00   -7.646E+00   -7.618E+00   -7.590E+00   -7.562E+00   -7.534E+00   -7.506E+00
    -7.478E+00   -7.450E+00   -7.422E+00   -7.394E+00   -7.366E+00   -7.338E+00   -7.310E+00   -7.282E+00   -7.253E+00   -7.225E+00
    -7.197E+00   -7.169E+00   -7.141E+00   -7.113E+00   -7.085E+00   -7.057E+00   -7.029E+00   -7.001E+00   -6.973E+00   -6.945E+00
    -6.916E+00   -6.888E+00   -6.860E+00   -6.832E+00   -6.804E+00   -6.776E+00   -6.748E+00   -6.720E+00   -6.692E+00   -6.664E+00
    -6.635E+00   -6.607E+00   -6.579E+00   -6.551E+00   -6.523E+00   -6.495E+00   -6.467E+00   -6.439E+00   -6.411E+00   -6.383E+00
    -6.354E+00   -6.326E+00   -6.298E+00   -6.270E+00   -6.242E+00   -6.214E+00   -6.186E+00   -6.158E+00   -6.129E+00   -6.101E+00
    -6.073E+00   -6.045E+00   -6.017E+00   -5.989E+00   -5.961E+00   -5.933E+00   -5.904E+00   -5.876E+00   -5.848E+00   -5.820E+00
    -5.792E+00   -5.764E+00   -5.736E+00   -5.708E+00   -5.679E+00   -5.651E+00   -5.623E+00   -5.595E+00   -5.567E+00   -5.539E+00
    -5.511E+00   -5.482E+00   -5.454E+00   -5.426E+00   -5.398E+00   -5.370E+00   -5.342E+00   -5.314E+00   -5.285E+00   -5.257E+00
    -5.229E+00   -5.201E+00   -5.173E+00   -5.145E+00   -5.117E+00   -5.088E+00   -5.060E+00   -5.032E+00   -5.004E+00   -4.976E+00
    -4.948E+00   -4.920E+00   -4.891E+00   -4.863E+00   -4.835E+00   -4.807E+00   -4.779E+00   -4.751E+00   -4.722E+00   -4.694E+00
    -4.666E+00   -4.638E+00   -4.610E+00   -4.582E+00   -4.554E+00   -4.525E+00   -4.497E+00   -4.469E+00   -4.441E+00   -4.413E+00
    -4.385E+00   -4.356E+00   -4.328E+00   -4.300E+00   -4.272E+00   -4.244E+00   -4.216E+00   -4.187E+00   -4.159E+00   -4.131E+00
    -4.103E+00   -4.075E+00   -4.047E+00   -4.018E+00   -3.990E+00   -3.962E+00   -3.934E+00   -3.906E+00   -3.877E+00   -3.849E+00
    -3.821E+00   -3.793E+00   -3.765E+00   -3.737E+00   -3.708E+00   -3.680E+00   -3.652E+00   -3.624E+00   -3.596E+00   -3.568E+00
    -3.539E+00   -3.511E+00   -3.483E+00   -3.455E+00   -3.427E+00   -3.398E+00   -3.370E+00   -3.342E+00   -3.314E+00   -3.286E+00
    -3.258E+00   -3.229E+00   -3.201E+00   -3.173E+00   -3.145E+00   -3.117E+00   -3.088E+00   -3.060E+00   -3.032E+00   -3.004E+00
    -2.976E+00   -2.947E+00   -2.919E+00   -2.891E+00   -2.863E+00   -2.835E+00   -2.807E+00   -2.778E+00   -2.750E+00   -2.722E+00
    -2.694E+00   -2.666E+00   -2.637E+00   -2.609E+00   -2.581E+00   -2.553E+00   -2.525E+00   -2.496E+00   -2.468E+00   -2.440E+00
    -2.412E+00   -2.384E+00   -2.355E+00   -2.327E+00   -2.299E+00   -2.271E+00   -2.243E+00   -2.215E+00   -2.186E+00   -2.158E+00
    -2.130E+00   -2.102E+00   -2.074E+00   -2.045E+00   -2.017E+00   -1.989E+00   -1.961E+00   -1.933E+00   -1.904E+00   -1.876E+00
    -1.848E+00   -1.820E+00   -1.792E+00   -1.763E+00   -1.735E+00   -1.707E+00   -1.679E+00   -1.651E+00   -1.622E+00   -1.594E+00
    -1.566E+00   -1.538E+00   -1.510E+00   -1.481E+00   -1.453E+00   -1.425E+00   -1.397E+00   -1.369E+00   -1.340E+00   -1.312E+00
    -1.284E+00   -1.256E+00   -1.228E+00   -1.199E+00   -1.171E+00   -1.143E+00   -1.115E+00   -1.087E+00   -1.058E+00   -1.030E+00
    -1.002E+00   -9.739E-01   -9.457E-01   -9.175E-01   -8.893E-01   -8.611E-01   -8.329E-01   -8.047E-01   -7.765E-01   -7.483E-01
    -7.201E-01   -6.919E-01   -6.638E-01   -6.356E-01   -6.074E-01   -5.792E-01   -5.510E-01   -5.228E-01   -4.946E-01   -4.664E-01
    -4.382E-01   -4.100E-01   -3.818E-01   -3.536E-01   -3.254E-01   -2.972E-01   -2.690E-01   -2.408E-01   -2.127E-01   -1.845E-01
    -1.563E-01   -1.281E-01   -9.988E-02   -7.169E-02   -4.350E-02   -1.531E-02    1.288E-02    4.107E-02    6.926E-02    9.745E-02
     1.256E-01    1.538E-01    1.820E-01    2.102E-01    2.384E-01    2.666E-01    2.948E-01    3.230E-01    3.512E-01    3.793E-01
     4.075E-01    4.357E-01    4.639E-01    4.921E-01    5.203E-01    5.485E-01    5.766E-01    6.048E-01    6.330E-01    6.612E-01
     6.894E-01    7.176E-01    7.457E-01    7.739E-01    8.021E-01    8.303E-01    8.585E-01    8.867E-01    9.148E-01    9.430E-01
     9.712E-01    9.994E-01    1.028E+00    1.056E+00    1.084E+00    1.112E+00    1.140E+00    1.168E+00    1.197E+00    1.225E+00
     1.253E+00    1.281E+00    1.309E+00    1.338E+00    1.366E+00    1.394E+00    1.422E+00    1.450E+00    1.478E+00    1.507E+00
     1.535E+00    1.563E+00    1.591E+00    1.619E+00    1.647E+00    1.676E+00    1.704E+00    1.732E+00
 Ala      Conc. = 1.04E+02
