 LCModel (Version 6.3-1L) Copyright: S.W. Provencher.          Ref.: Magn. Reson. Med. 30:672-679 (1993).                
 Slice#2 Row#5 Col#10  PD_24_press_1_raw_act
 36 lines in following concentration table = NCONC+1
    Conc.  %SD /Cr+PCr  Metabolite                                         
    0.000 999%   0.000 Ala                                                 
    5.534 999% 3.1E-03 Asp                                                 
  840.980  25%   0.472 Cr                                                  
  940.301  23%   0.528 PCr                                                 
    0.000 999%   0.000 GABA                                                
    0.000 999%   0.000 Glc                                                 
 1.08E+03  21%   0.606 Gln                                                 
 1.87E+03  13%   1.049 Glu                                                 
  935.934   2%   0.525 GPC                                                 
    0.000 999%   0.000 PCh                                                 
  591.154  12%   0.332 GSH                                                 
 2.07E+03  12%   1.161 Ins                                                 
    0.000 999%   0.000 Lac                                                 
 2.90E+03   3%   1.630 NAA                                                 
    0.000 999%   0.000 NAAG                                                
  221.292  12%   0.124 Scyllo                                              
    0.000 999%   0.000 Tau                                                 
    0.000 999%   0.000 -CrCH2                                              
  935.934   2%   0.525 GPC+PCh                                             
 2.90E+03   3%   1.630 NAA+NAAG                                            
 1.78E+03   3%   1.000 Cr+PCr                                              
 2.95E+03  12%   1.655 Glu+Gln                                             
  340.777 266%   0.191 Lip13a                                              
  565.396 116%   0.317 Lip13b                                              
    0.000 999%   0.000 Lip09                                               
 2.31E+03  10%   1.299 MM09                                                
  115.847 148% 6.5E-02 Lip20                                               
 5.02E+03   8%   2.818 MM20                                                
  789.212  29%   0.443 MM12                                                
 2.82E+03  17%   1.585 MM14                                                
 1.21E+03  24%   0.682 MM17                                                
  906.173  53%   0.509 Lip13a+Lip13b                                       
 4.52E+03   9%   2.537 MM14+Lip13a+Lip13b+MM12                             
 2.31E+03  10%   1.299 MM09+Lip09                                          
 5.14E+03   8%   2.883 MM20+Lip20                                          
   6 lines in following misc. output table
  FWHM = 0.061 ppm    S/N =  16                                            
  Data shift = 0.008 ppm                                                   
  Ph: -23 deg      -8.0 deg/ppm                                            
  alphaB,S = 1.8E+00,   1.9E+02                                            
   14 spline knots.   Ns = 7(1)                                            
  ( 6) 4 infls.   ( 3) 1 extrs.                                            
  498 points on ppm-axis = NY
      4.000000     3.992357     3.984714     3.977070     3.969427     3.961784     3.954141     3.946497     3.938854     3.931211
      3.923568     3.915925     3.908281     3.900638     3.892995     3.885352     3.877708     3.870065     3.862422     3.854779
      3.847136     3.839492     3.831849     3.824206     3.816563     3.808919     3.801276     3.793633     3.785990     3.778347
      3.770703     3.763060     3.755417     3.747774     3.740130     3.732487     3.724844     3.717201     3.709558     3.701914
      3.694271     3.686628     3.678985     3.671341     3.663698     3.656055     3.648412     3.640769     3.633125     3.625482
      3.617839     3.610196     3.602552     3.594909     3.587266     3.579623     3.571980     3.564336     3.556693     3.549050
      3.541407     3.533763     3.526120     3.518477     3.510834     3.503191     3.495547     3.487904     3.480261     3.472618
      3.464974     3.457331     3.449688     3.442045     3.434402     3.426758     3.419115     3.411472     3.403829     3.396185
      3.388542     3.380899     3.373256     3.365613     3.357969     3.350326     3.342683     3.335040     3.327396     3.319753
      3.312110     3.304467     3.296824     3.289180     3.281537     3.273894     3.266251     3.258607     3.250964     3.243321
      3.235678     3.228034     3.220391     3.212748     3.205105     3.197462     3.189818     3.182175     3.174532     3.166889
      3.159245     3.151602     3.143959     3.136316     3.128673     3.121029     3.113386     3.105743     3.098100     3.090456
      3.082813     3.075170     3.067527     3.059884     3.052240     3.044597     3.036954     3.029311     3.021667     3.014024
      3.006381     2.998738     2.991095     2.983451     2.975808     2.968165     2.960522     2.952878     2.945235     2.937592
      2.929949     2.922306     2.914662     2.907019     2.899376     2.891733     2.884089     2.876446     2.868803     2.861160
      2.853517     2.845873     2.838230     2.830587     2.822944     2.815300     2.807657     2.800014     2.792371     2.784728
      2.777084     2.769441     2.761798     2.754155     2.746511     2.738868     2.731225     2.723582     2.715939     2.708295
      2.700652     2.693009     2.685366     2.677722     2.670079     2.662436     2.654793     2.647150     2.639506     2.631863
      2.624220     2.616577     2.608933     2.601290     2.593647     2.586004     2.578361     2.570717     2.563074     2.555431
      2.547788     2.540144     2.532501     2.524858     2.517215     2.509572     2.501928     2.494285     2.486642     2.478999
      2.471355     2.463712     2.456069     2.448426     2.440783     2.433139     2.425496     2.417853     2.410210     2.402566
      2.394923     2.387280     2.379637     2.371994     2.364350     2.356707     2.349064     2.341421     2.333777     2.326134
      2.318491     2.310848     2.303205     2.295561     2.287918     2.280275     2.272632     2.264988     2.257345     2.249702
      2.242059     2.234416     2.226772     2.219129     2.211486     2.203843     2.196199     2.188556     2.180913     2.173270
      2.165627     2.157983     2.150340     2.142697     2.135054     2.127410     2.119767     2.112124     2.104481     2.096838
      2.089194     2.081551     2.073908     2.066265     2.058621     2.050978     2.043335     2.035692     2.028049     2.020405
      2.012762     2.005119     1.997476     1.989833     1.982190     1.974546     1.966903     1.959260     1.951617     1.943974
      1.936331     1.928688     1.921045     1.913402     1.905759     1.898115     1.890472     1.882829     1.875186     1.867543
      1.859900     1.852257     1.844614     1.836971     1.829327     1.821684     1.814041     1.806398     1.798755     1.791112
      1.783469     1.775826     1.768183     1.760540     1.752896     1.745253     1.737610     1.729967     1.722324     1.714681
      1.707038     1.699395     1.691752     1.684108     1.676465     1.668822     1.661179     1.653536     1.645893     1.638250
      1.630607     1.622964     1.615321     1.607677     1.600034     1.592391     1.584748     1.577105     1.569462     1.561819
      1.554176     1.546533     1.538890     1.531246     1.523603     1.515960     1.508317     1.500674     1.493031     1.485388
      1.477745     1.470102     1.462458     1.454815     1.447172     1.439529     1.431886     1.424243     1.416600     1.408957
      1.401314     1.393671     1.386027     1.378384     1.370741     1.363098     1.355455     1.347812     1.340169     1.332526
      1.324883     1.317240     1.309596     1.301953     1.294310     1.286667     1.279024     1.271381     1.263738     1.256095
      1.248452     1.240808     1.233165     1.225522     1.217879     1.210236     1.202593     1.194950     1.187307     1.179664
      1.172021     1.164377     1.156734     1.149091     1.141448     1.133805     1.126162     1.118519     1.110876     1.103233
      1.095590     1.087946     1.080303     1.072660     1.065017     1.057374     1.049731     1.042088     1.034445     1.026802
      1.019158     1.011515     1.003872     0.996229     0.988586     0.980943     0.973300     0.965657     0.958014     0.950371
      0.942727     0.935084     0.927441     0.919798     0.912155     0.904512     0.896869     0.889226     0.881583     0.873940
      0.866296     0.858653     0.851010     0.843367     0.835724     0.828081     0.820438     0.812795     0.805152     0.797508
      0.789865     0.782222     0.774579     0.766936     0.759293     0.751650     0.744007     0.736364     0.728721     0.721077
      0.713434     0.705791     0.698148     0.690505     0.682862     0.675219     0.667576     0.659933     0.652290     0.644646
      0.637003     0.629360     0.621717     0.614074     0.606431     0.598788     0.591145     0.583502     0.575858     0.568215
      0.560572     0.552929     0.545286     0.537643     0.530000     0.522357     0.514714     0.507071     0.499427     0.491784
      0.484141     0.476498     0.468855     0.461212     0.453569     0.445925     0.438282     0.430639     0.422996     0.415353
      0.407710     0.400067     0.392424     0.384780     0.377137     0.369494     0.361851     0.354208     0.346565     0.338922
      0.331278     0.323635     0.315992     0.308349     0.300706     0.293063     0.285420     0.277777     0.270133     0.262490
      0.254847     0.247204     0.239561     0.231918     0.224275     0.216631     0.208988     0.201345
 NY phased data points follow
   8.64333E+00  1.35138E+01  7.95555E+00  9.07535E+00  1.54944E+01  2.25628E+01  2.55502E+01  3.24392E+01  3.95550E+01  4.61177E+01
   5.16276E+01  4.85602E+01  4.12686E+01  4.10743E+01  3.39809E+01  2.79321E+01  2.55644E+01  1.98705E+01  2.08153E+01  1.63903E+01
   1.79467E+01  1.56524E+01  1.12107E+01  1.44674E+01  1.86018E+01  1.57482E+01  1.64178E+01  1.64042E+01  2.16361E+01  2.24054E+01
   2.11098E+01  2.05605E+01  1.96734E+01  1.69132E+01  1.51429E+01  1.62931E+01  1.55063E+01  1.82030E+01  1.73040E+01  1.49679E+01
   1.44005E+01  1.85790E+01  1.44407E+01  1.99270E+01  1.96508E+01  2.34008E+01  2.38624E+01  2.82062E+01  2.57178E+01  2.31711E+01
   1.87661E+01  1.48945E+01  1.71152E+01  1.35266E+01  1.55685E+01  1.81731E+01  1.56078E+01  1.52397E+01  1.46991E+01  1.33607E+01
   1.01912E+01  6.56398E+00  3.84177E+00  1.78167E+00  1.85451E+00  4.19126E-02  5.06652E+00 -1.48877E+00  2.71358E+00  4.96372E-01
   4.44648E+00  2.37486E+00  8.43104E-01  1.81695E+00  2.78542E+00  2.41236E+00  4.50924E+00  3.85539E+00  7.74381E+00  3.65441E+00
   3.27104E+00  3.48545E+00  4.59861E+00  4.16679E+00  1.07229E+01  5.52990E+00  1.29474E+01  1.01006E+01  9.53386E+00  1.17392E+01
   1.42213E+01  1.22275E+01  1.27562E+01  4.38823E+00  6.98325E+00  6.14885E+00  8.70191E+00  1.24914E+01  2.43743E+01  3.67874E+01
   5.68057E+01  7.36587E+01  8.22433E+01  8.30048E+01  7.59568E+01  6.44971E+01  5.47728E+01  4.11056E+01  3.49813E+01  2.39742E+01
   2.10547E+01  1.40718E+01  1.45791E+01  8.45832E+00  7.89076E+00  5.02151E+00  5.98747E+00  9.60726E-01  3.05116E+00  3.92320E+00
   2.18051E+00  5.90030E+00  1.05995E+01  1.92099E+01  3.58433E+01  5.31170E+01  5.89164E+01  6.10095E+01  6.24929E+01  5.65413E+01
   4.11874E+01  3.08355E+01  2.05898E+01  2.01179E+01  1.51648E+01  1.31448E+01  9.67518E+00  4.38609E+00  8.29960E+00  3.71446E+00
   4.01793E+00  3.74003E+00  1.74063E+00  3.84803E+00  2.03390E+00  3.65789E+00  1.43537E+00  4.64400E+00 -2.85696E-01  1.29560E+00
  -2.06299E+00 -1.61207E+00 -9.34563E-01 -3.17882E+00  2.10003E+00 -5.91830E-01  1.47834E+00 -2.09727E+00  5.94393E-01 -3.85834E-02
  -3.83478E+00 -6.95339E+00 -2.57522E+00 -3.95770E+00 -2.82257E+00 -1.50754E+00 -1.68069E+00 -3.49686E+00 -3.29368E+00 -4.14721E+00
  -7.93323E+00 -6.28861E+00 -9.29180E+00 -7.95862E+00 -1.20212E+01 -8.04507E+00 -1.17510E+01 -1.00320E+01 -9.92964E+00 -1.04501E+01
  -1.27533E+01 -1.14918E+01 -1.09360E+01 -1.25177E+01 -1.11711E+01 -8.34263E+00 -4.75753E+00 -5.39351E+00 -6.11775E+00 -3.00379E+00
  -2.28059E+00  4.42172E+00  2.32606E+00  6.62056E+00  6.52951E-02  4.51842E+00  1.85561E-01 -3.26377E+00 -1.97003E+00 -4.20567E+00
  -9.98891E-01 -2.77534E+00 -7.69053E-01 -6.40869E-01  3.87988E+00  2.86482E+00  3.17166E+00 -1.33355E+00 -5.78800E+00 -5.86424E+00
   1.55024E-01 -7.35777E-01 -4.84145E-02  4.26372E+00  1.12307E+01  1.54679E+01  1.34404E+01  1.56787E+01  1.29118E+01  6.50407E+00
   5.88132E-01  1.84267E+00 -4.21237E-01  2.85936E+00  3.88748E+00  2.02586E+00  8.88677E+00  6.74238E+00  8.76357E+00  1.26654E+01
   1.42552E+01  1.11411E+01  9.03711E+00  8.22577E+00  1.10894E+01  1.05194E+01  1.43545E+01  7.75995E+00  1.43480E+01  1.21278E+01
   1.13519E+01  6.45389E+00  1.01081E+01  7.18638E+00  8.20660E+00  1.40562E+01  1.42189E+01  1.66924E+01  1.52983E+01  1.81896E+01
   1.90346E+01  1.97323E+01  2.09895E+01  2.19655E+01  2.12668E+01  2.90570E+01  4.14660E+01  6.78220E+01  8.12763E+01  9.56065E+01
   1.03907E+02  1.02826E+02  9.35945E+01  8.16557E+01  6.67302E+01  5.72741E+01  4.04393E+01  3.45799E+01  2.44486E+01  1.98270E+01
   1.26988E+01  1.19994E+01  1.21200E+01  6.49266E+00  7.04358E+00  9.68863E+00  8.43034E+00  3.25036E+00  4.12809E+00  5.95765E+00
   5.16858E+00  5.98583E+00  4.73003E+00  7.11324E+00  2.92401E+00  4.48236E+00  6.15877E+00  4.19871E+00  5.02587E+00  6.40416E+00
   5.21220E+00  6.33484E+00  4.04411E+00  7.82268E+00  3.92202E+00  5.72489E+00  5.10725E+00  3.67518E+00  1.96729E+00  4.75045E+00
   5.94988E+00  8.35935E+00  5.20527E+00  7.02729E+00  8.54056E+00  7.19377E+00  9.34138E+00  1.12003E+01  7.50625E+00  5.66687E+00
   6.01283E+00  9.54372E+00  7.15388E+00  1.21063E+01  8.24786E+00  9.53945E+00  6.40984E+00  1.08435E+01  7.05859E+00  4.18649E+00
   9.40159E+00  9.01572E+00  1.15095E+01  9.99397E+00  1.03627E+01  6.65538E+00  1.29948E+01  1.17833E+01  9.00899E+00  1.59564E+01
   1.12613E+01  1.46676E+01  1.29209E+01  1.07785E+01  1.49687E+01  1.14294E+01  1.29724E+01  1.43761E+01  1.33441E+01  1.30604E+01
   1.20061E+01  1.28492E+01  1.32724E+01  1.41152E+01  1.26778E+01  1.57879E+01  1.58221E+01  1.90857E+01  1.46607E+01  1.86674E+01
   1.52087E+01  1.89023E+01  1.65714E+01  1.52879E+01  1.68146E+01  1.25753E+01  1.41050E+01  7.30941E+00  1.60621E+01  9.82481E+00
   1.33214E+01  8.04442E+00  1.61720E+01  8.79881E+00  4.69148E+00  8.04380E+00  8.19773E+00  1.04224E+01  8.31068E+00  9.39018E+00
   6.49226E+00  1.07732E+01  7.82255E+00  5.66122E+00  3.69627E+00  7.00863E+00  6.21045E+00  6.49778E+00  4.60832E+00  1.00624E+01
   6.96686E+00  9.09532E+00  5.89139E+00  8.49754E+00  5.17931E+00  1.02281E+01  9.98945E+00  1.33624E+01  9.37230E+00  9.96166E+00
   1.06639E+01  1.07240E+01  9.53099E+00  1.08796E+01  1.21033E+01  1.17721E+01  1.02757E+01  1.31214E+01  1.66676E+01  1.39999E+01
   1.44862E+01  1.24793E+01  1.18196E+01  1.12268E+01  1.89704E+01  1.70383E+01  1.84269E+01  1.80083E+01  1.16495E+01  1.50798E+01
   1.38537E+01  1.63633E+01  1.17635E+01  1.36591E+01  5.22051E+00  1.13545E+01  5.76932E+00  8.82935E+00  5.46134E+00  3.01954E+00
   1.03392E+01  7.62016E+00  4.97757E+00  9.15940E+00  2.88321E+00  7.51528E+00  5.25006E+00  2.98682E+00 -2.73550E-01  6.08303E-01
   1.61932E+00  1.00460E+00  1.70286E+00  5.58127E+00  4.32934E+00  4.15810E+00 -1.33452E-01  1.48071E+00  5.52852E+00  4.66523E+00
   3.66329E+00  6.88809E-02  1.70885E+00  8.10502E-01  1.54874E+00  3.81547E+00  1.67969E+00  1.70490E+00  1.64851E+00  7.77263E-01
   4.04862E+00 -7.91285E-01  2.89963E+00 -1.41057E+00 -1.70365E-01  1.89767E+00  2.35971E+00 -5.03504E-01 -3.74248E-01 -1.59731E-01
   1.37227E+00  5.36158E+00  5.15612E+00 -3.65078E-01  7.79333E-01  2.97010E+00 -2.89880E+00 -7.78213E-01  5.91663E-01 -3.00717E-01
  -1.09138E+00  5.79838E+00 -1.27742E+00 -1.16887E+00  3.14834E-01  3.37437E+00  4.32920E+00  2.72806E+00  4.36914E+00  3.35550E+00
  -1.13454E+00  1.60037E+00  4.10457E+00  7.50687E-01  1.77229E+00  3.19042E+00  4.54985E-01  3.90721E+00  4.34048E-01  1.33935E+00
   3.89983E+00  3.79071E+00  1.17570E+00  1.48993E+00  6.91042E+00  2.94929E+00  4.51658E+00  2.27440E+00
 NY points of the fit to the data follow
   1.05720E+01  1.01298E+01  1.04597E+01  1.17850E+01  1.46431E+01  1.95075E+01  2.61324E+01  3.36085E+01  4.05805E+01  4.56399E+01
   4.78639E+01  4.70988E+01  4.39278E+01  3.93685E+01  3.44373E+01  2.98223E+01  2.56766E+01  2.17997E+01  1.83329E+01  1.56113E+01
   1.34049E+01  1.21036E+01  1.13478E+01  1.10887E+01  1.15536E+01  1.29142E+01  1.50640E+01  1.75738E+01  1.99330E+01  2.17176E+01
   2.26659E+01  2.26996E+01  2.18746E+01  2.04192E+01  1.85823E+01  1.64690E+01  1.42759E+01  1.22152E+01  1.07771E+01  1.03036E+01
   1.06469E+01  1.19807E+01  1.42920E+01  1.73072E+01  2.04032E+01  2.27572E+01  2.38205E+01  2.34294E+01  2.16865E+01  1.90514E+01
   1.61531E+01  1.35579E+01  1.16691E+01  1.04197E+01  9.50894E+00  9.07115E+00  9.42926E+00  1.02678E+01  1.09044E+01  1.09873E+01
   1.04825E+01  9.50276E+00  8.30137E+00  7.17159E+00  6.39099E+00  6.08642E+00  6.14093E+00  6.41189E+00  6.84578E+00  7.30616E+00
   7.67773E+00  7.86829E+00  7.82261E+00  7.56918E+00  7.16419E+00  6.69469E+00  6.26141E+00  5.88971E+00  5.57310E+00  5.25138E+00
   5.04948E+00  5.23400E+00  5.94450E+00  7.20968E+00  8.80357E+00  1.02871E+01  1.12473E+01  1.14792E+01  1.10189E+01  1.00877E+01
   8.99402E+00  8.01325E+00  7.25663E+00  6.64586E+00  6.02861E+00  5.59517E+00  7.04325E+00  1.27744E+01  2.37825E+01  3.94944E+01
   5.70291E+01  7.22181E+01  8.15562E+01  8.33767E+01  7.80678E+01  6.77478E+01  5.53805E+01  4.36769E+01  3.39861E+01  2.59425E+01
   1.81838E+01  1.06115E+01  5.96837E+00  4.45879E+00  3.88328E+00  3.57712E+00  3.39509E+00  3.31773E+00  3.38080E+00  3.71432E+00
   4.94231E+00  8.37754E+00  1.51137E+01  2.53322E+01  3.75693E+01  4.90859E+01  5.72595E+01  6.05649E+01  5.88171E+01  5.29801E+01
   4.47978E+01  3.61835E+01  2.84405E+01  2.18161E+01  1.56694E+01  9.57465E+00  5.18962E+00  4.04674E+00  4.16284E+00  4.50481E+00
   4.71342E+00  4.71151E+00  4.60249E+00  4.39816E+00  4.07943E+00  3.69506E+00  3.24494E+00  2.72216E+00  2.18273E+00  1.64716E+00
   1.21173E+00  8.83906E-01  6.48852E-01  4.98473E-01  3.91773E-01  2.38168E-01 -5.29666E-02 -5.18387E-01 -1.09270E+00 -1.61308E+00
  -1.91956E+00 -1.94786E+00 -1.77728E+00 -1.58509E+00 -1.53587E+00 -1.71846E+00 -2.13846E+00 -2.70862E+00 -3.28423E+00 -3.76616E+00
  -4.25727E+00 -4.92320E+00 -5.71951E+00 -6.50128E+00 -7.02638E+00 -7.18812E+00 -7.14505E+00 -7.02684E+00 -6.92097E+00 -6.87435E+00
  -6.91824E+00 -7.05565E+00 -7.19479E+00 -7.16588E+00 -6.77580E+00 -5.94168E+00 -4.75122E+00 -3.24815E+00 -1.61428E+00 -2.06232E-01
   6.07945E-01  6.39757E-01  1.14256E-01 -6.18585E-01 -1.19582E+00 -1.34505E+00 -1.05688E+00 -4.10844E-01  6.85506E-01  2.16309E+00
   3.83364E+00  5.40425E+00  6.46395E+00  6.63377E+00  5.72952E+00  3.76998E+00  1.13691E+00 -1.54382E+00 -3.72482E+00 -4.95090E+00
  -4.81219E+00 -3.22653E+00 -5.08100E-01  2.83620E+00  6.09116E+00  8.46270E+00  9.42044E+00  8.66593E+00  6.26087E+00  2.77392E+00
  -5.91518E-01 -2.79592E+00 -3.51421E+00 -2.92550E+00 -1.32951E+00  8.61941E-01  3.32182E+00  5.36294E+00  6.71878E+00  7.56791E+00
   8.25053E+00  8.93334E+00  9.52354E+00  1.00979E+01  1.08878E+01  1.18284E+01  1.26065E+01  1.29998E+01  1.28926E+01  1.23357E+01
   1.15452E+01  1.08844E+01  1.07243E+01  1.11961E+01  1.20909E+01  1.31620E+01  1.43307E+01  1.53544E+01  1.60989E+01  1.67454E+01
   1.74831E+01  1.82657E+01  1.90602E+01  2.03518E+01  2.40211E+01  3.21202E+01  4.56803E+01  6.35102E+01  8.19679E+01  9.66092E+01
   1.04074E+02  1.03123E+02  9.47354E+01  8.16158E+01  6.71842E+01  5.41624E+01  4.35031E+01  3.42727E+01  2.48674E+01  1.61861E+01
   1.17234E+01  1.00518E+01  9.11328E+00  8.48502E+00  8.05133E+00  7.66152E+00  7.24073E+00  6.80177E+00  6.35231E+00  5.91905E+00
   5.52823E+00  5.17927E+00  4.86063E+00  4.59152E+00  4.39121E+00  4.25082E+00  4.15729E+00  4.10666E+00  4.10258E+00  4.14710E+00
   4.23071E+00  4.34748E+00  4.50082E+00  4.68919E+00  4.90880E+00  5.15508E+00  5.42314E+00  5.70722E+00  5.99946E+00  6.29319E+00
   6.58268E+00  6.86110E+00  7.12149E+00  7.35791E+00  7.56527E+00  7.74000E+00  7.88036E+00  7.98648E+00  8.06030E+00  8.10531E+00
   8.12629E+00  8.12912E+00  8.12082E+00  8.10976E+00  8.10423E+00  8.11214E+00  8.14112E+00  8.19814E+00  8.28915E+00  8.41870E+00
   8.58978E+00  8.80371E+00  9.06012E+00  9.35697E+00  9.69050E+00  1.00554E+01  1.04450E+01  1.08515E+01  1.12662E+01  1.16803E+01
   1.20843E+01  1.24693E+01  1.28267E+01  1.31490E+01  1.34302E+01  1.36658E+01  1.38536E+01  1.39937E+01  1.40890E+01  1.41455E+01
   1.41719E+01  1.41799E+01  1.41836E+01  1.41977E+01  1.42369E+01  1.43134E+01  1.44345E+01  1.46001E+01  1.48015E+01  1.50203E+01
   1.52296E+01  1.53966E+01  1.54867E+01  1.54686E+01  1.53195E+01  1.50283E+01  1.45985E+01  1.40468E+01  1.34011E+01  1.26955E+01
   1.19661E+01  1.12457E+01  1.05609E+01  9.93024E+00  9.36359E+00  8.86359E+00  8.42742E+00  8.04895E+00  7.72068E+00  7.43522E+00
   7.18632E+00  6.96939E+00  6.78163E+00  6.62199E+00  6.49081E+00  6.38955E+00  6.32043E+00  6.28621E+00  6.28997E+00  6.33490E+00
   6.42411E+00  6.56049E+00  6.74650E+00  6.98414E+00  7.27473E+00  7.61876E+00  8.01571E+00  8.46384E+00  8.96006E+00  9.49981E+00
   1.00769E+01  1.06837E+01  1.13106E+01  1.19467E+01  1.25796E+01  1.31961E+01  1.37821E+01  1.43235E+01  1.48063E+01  1.52175E+01
   1.55454E+01  1.57806E+01  1.59156E+01  1.59460E+01  1.58700E+01  1.56890E+01  1.54073E+01  1.50318E+01  1.45719E+01  1.40386E+01
   1.34445E+01  1.28029E+01  1.21272E+01  1.14309E+01  1.07264E+01  1.00250E+01  9.33694E+00  8.67053E+00  8.03264E+00  7.42845E+00
   6.86158E+00  6.33419E+00  5.84719E+00  5.40050E+00  4.99313E+00  4.62349E+00  4.28944E+00  3.98858E+00  3.71834E+00  3.47611E+00
   3.25933E+00  3.06551E+00  2.89229E+00  2.73750E+00  2.59914E+00  2.47544E+00  2.36480E+00  2.26577E+00  2.17706E+00  2.09755E+00
   2.02625E+00  1.96232E+00  1.90500E+00  1.85360E+00  1.80750E+00  1.76620E+00  1.72925E+00  1.69625E+00  1.66684E+00  1.64068E+00
   1.61749E+00  1.59702E+00  1.57907E+00  1.56345E+00  1.54995E+00  1.53841E+00  1.52866E+00  1.52060E+00  1.51411E+00  1.50908E+00
   1.50540E+00  1.50295E+00  1.50168E+00  1.50153E+00  1.50241E+00  1.50427E+00  1.50701E+00  1.51060E+00  1.51499E+00  1.52014E+00
   1.52601E+00  1.53256E+00  1.53974E+00  1.54751E+00  1.55587E+00  1.56478E+00  1.57422E+00  1.58414E+00  1.59451E+00  1.60533E+00
   1.61658E+00  1.62825E+00  1.64031E+00  1.65273E+00  1.66549E+00  1.67861E+00  1.69206E+00  1.70585E+00  1.71994E+00  1.73431E+00
   1.74898E+00  1.76394E+00  1.77919E+00  1.79472E+00  1.81052E+00  1.82658E+00  1.84293E+00  1.85957E+00
 NY background values follow
     5.147E+00    5.093E+00    5.040E+00    4.987E+00    4.934E+00    4.881E+00    4.828E+00    4.775E+00    4.721E+00    4.668E+00
     4.615E+00    4.562E+00    4.508E+00    4.455E+00    4.402E+00    4.349E+00    4.295E+00    4.242E+00    4.189E+00    4.136E+00
     4.083E+00    4.029E+00    3.976E+00    3.923E+00    3.870E+00    3.817E+00    3.764E+00    3.711E+00    3.657E+00    3.604E+00
     3.551E+00    3.498E+00    3.445E+00    3.392E+00    3.340E+00    3.287E+00    3.234E+00    3.181E+00    3.128E+00    3.076E+00
     3.023E+00    2.970E+00    2.918E+00    2.865E+00    2.813E+00    2.760E+00    2.708E+00    2.655E+00    2.603E+00    2.551E+00
     2.499E+00    2.447E+00    2.395E+00    2.343E+00    2.291E+00    2.239E+00    2.188E+00    2.136E+00    2.085E+00    2.033E+00
     1.982E+00    1.931E+00    1.880E+00    1.829E+00    1.778E+00    1.728E+00    1.677E+00    1.627E+00    1.577E+00    1.527E+00
     1.477E+00    1.428E+00    1.378E+00    1.329E+00    1.280E+00    1.231E+00    1.182E+00    1.134E+00    1.086E+00    1.037E+00
     9.895E-01    9.418E-01    8.943E-01    8.471E-01    8.000E-01    7.533E-01    7.067E-01    6.604E-01    6.143E-01    5.685E-01
     5.230E-01    4.777E-01    4.326E-01    3.879E-01    3.434E-01    2.991E-01    2.552E-01    2.115E-01    1.681E-01    1.250E-01
     8.214E-02    3.959E-02   -2.682E-03   -4.466E-02   -8.635E-02   -1.277E-01   -1.688E-01   -2.096E-01   -2.501E-01   -2.903E-01
    -3.302E-01   -3.698E-01   -4.091E-01   -4.481E-01   -4.867E-01   -5.250E-01   -5.630E-01   -6.007E-01   -6.381E-01   -6.751E-01
    -7.119E-01   -7.482E-01   -7.843E-01   -8.200E-01   -8.554E-01   -8.904E-01   -9.251E-01   -9.595E-01   -9.935E-01   -1.027E+00
    -1.060E+00   -1.093E+00   -1.126E+00   -1.158E+00   -1.190E+00   -1.222E+00   -1.253E+00   -1.283E+00   -1.314E+00   -1.344E+00
    -1.374E+00   -1.403E+00   -1.432E+00   -1.460E+00   -1.489E+00   -1.516E+00   -1.544E+00   -1.571E+00   -1.597E+00   -1.624E+00
    -1.650E+00   -1.675E+00   -1.700E+00   -1.725E+00   -1.749E+00   -1.773E+00   -1.797E+00   -1.820E+00   -1.843E+00   -1.865E+00
    -1.887E+00   -1.909E+00   -1.930E+00   -1.951E+00   -1.971E+00   -1.992E+00   -2.011E+00   -2.030E+00   -2.049E+00   -2.068E+00
    -2.086E+00   -2.103E+00   -2.120E+00   -2.137E+00   -2.154E+00   -2.170E+00   -2.185E+00   -2.200E+00   -2.215E+00   -2.229E+00
    -2.243E+00   -2.257E+00   -2.270E+00   -2.282E+00   -2.295E+00   -2.306E+00   -2.318E+00   -2.329E+00   -2.340E+00   -2.350E+00
    -2.360E+00   -2.369E+00   -2.378E+00   -2.387E+00   -2.396E+00   -2.404E+00   -2.412E+00   -2.419E+00   -2.426E+00   -2.433E+00
    -2.439E+00   -2.446E+00   -2.451E+00   -2.457E+00   -2.462E+00   -2.467E+00   -2.472E+00   -2.476E+00   -2.480E+00   -2.484E+00
    -2.488E+00   -2.491E+00   -2.494E+00   -2.497E+00   -2.499E+00   -2.502E+00   -2.504E+00   -2.505E+00   -2.507E+00   -2.508E+00
    -2.510E+00   -2.511E+00   -2.511E+00   -2.512E+00   -2.512E+00   -2.513E+00   -2.513E+00   -2.512E+00   -2.512E+00   -2.512E+00
    -2.511E+00   -2.510E+00   -2.509E+00   -2.508E+00   -2.506E+00   -2.505E+00   -2.503E+00   -2.501E+00   -2.499E+00   -2.497E+00
    -2.495E+00   -2.492E+00   -2.490E+00   -2.487E+00   -2.484E+00   -2.481E+00   -2.477E+00   -2.474E+00   -2.470E+00   -2.466E+00
    -2.462E+00   -2.458E+00   -2.454E+00   -2.450E+00   -2.445E+00   -2.440E+00   -2.436E+00   -2.431E+00   -2.425E+00   -2.420E+00
    -2.415E+00   -2.409E+00   -2.403E+00   -2.397E+00   -2.391E+00   -2.385E+00   -2.379E+00   -2.372E+00   -2.366E+00   -2.359E+00
    -2.352E+00   -2.345E+00   -2.338E+00   -2.331E+00   -2.323E+00   -2.316E+00   -2.308E+00   -2.300E+00   -2.292E+00   -2.284E+00
    -2.276E+00   -2.268E+00   -2.259E+00   -2.251E+00   -2.242E+00   -2.233E+00   -2.224E+00   -2.215E+00   -2.206E+00   -2.197E+00
    -2.187E+00   -2.178E+00   -2.168E+00   -2.158E+00   -2.148E+00   -2.138E+00   -2.128E+00   -2.118E+00   -2.108E+00   -2.097E+00
    -2.087E+00   -2.076E+00   -2.065E+00   -2.054E+00   -2.043E+00   -2.032E+00   -2.021E+00   -2.010E+00   -1.998E+00   -1.987E+00
    -1.975E+00   -1.963E+00   -1.951E+00   -1.940E+00   -1.928E+00   -1.915E+00   -1.903E+00   -1.891E+00   -1.879E+00   -1.866E+00
    -1.853E+00   -1.841E+00   -1.828E+00   -1.815E+00   -1.802E+00   -1.789E+00   -1.776E+00   -1.763E+00   -1.750E+00   -1.736E+00
    -1.723E+00   -1.709E+00   -1.696E+00   -1.682E+00   -1.668E+00   -1.654E+00   -1.640E+00   -1.626E+00   -1.612E+00   -1.598E+00
    -1.584E+00   -1.569E+00   -1.555E+00   -1.540E+00   -1.526E+00   -1.511E+00   -1.496E+00   -1.481E+00   -1.467E+00   -1.452E+00
    -1.437E+00   -1.421E+00   -1.406E+00   -1.391E+00   -1.376E+00   -1.360E+00   -1.345E+00   -1.329E+00   -1.313E+00   -1.298E+00
    -1.282E+00   -1.266E+00   -1.250E+00   -1.234E+00   -1.218E+00   -1.202E+00   -1.186E+00   -1.169E+00   -1.153E+00   -1.137E+00
    -1.120E+00   -1.104E+00   -1.087E+00   -1.070E+00   -1.054E+00   -1.037E+00   -1.020E+00   -1.003E+00   -9.859E-01   -9.688E-01
    -9.516E-01   -9.344E-01   -9.171E-01   -8.997E-01   -8.823E-01   -8.648E-01   -8.472E-01   -8.295E-01   -8.118E-01   -7.940E-01
    -7.762E-01   -7.582E-01   -7.402E-01   -7.222E-01   -7.040E-01   -6.858E-01   -6.675E-01   -6.492E-01   -6.308E-01   -6.123E-01
    -5.937E-01   -5.751E-01   -5.564E-01   -5.376E-01   -5.187E-01   -4.998E-01   -4.808E-01   -4.618E-01   -4.427E-01   -4.235E-01
    -4.042E-01   -3.849E-01   -3.655E-01   -3.460E-01   -3.265E-01   -3.069E-01   -2.872E-01   -2.674E-01   -2.476E-01   -2.278E-01
    -2.078E-01   -1.878E-01   -1.678E-01   -1.477E-01   -1.275E-01   -1.072E-01   -8.690E-02   -6.653E-02   -4.610E-02   -2.560E-02
    -5.050E-03    1.556E-02    3.623E-02    5.696E-02    7.775E-02    9.860E-02    1.195E-01    1.405E-01    1.615E-01    1.825E-01
     2.037E-01    2.248E-01    2.461E-01    2.674E-01    2.887E-01    3.101E-01    3.315E-01    3.530E-01    3.746E-01    3.962E-01
     4.178E-01    4.395E-01    4.613E-01    4.831E-01    5.049E-01    5.268E-01    5.487E-01    5.707E-01    5.927E-01    6.148E-01
     6.369E-01    6.590E-01    6.812E-01    7.034E-01    7.257E-01    7.480E-01    7.703E-01    7.926E-01    8.150E-01    8.374E-01
     8.599E-01    8.823E-01    9.048E-01    9.274E-01    9.499E-01    9.725E-01    9.951E-01    1.018E+00    1.040E+00    1.063E+00
     1.086E+00    1.108E+00    1.131E+00    1.154E+00    1.176E+00    1.199E+00    1.222E+00    1.245E+00    1.267E+00    1.290E+00
     1.313E+00    1.336E+00    1.359E+00    1.381E+00    1.404E+00    1.427E+00    1.450E+00    1.473E+00
 Asp      Conc. = 5.53E+00
