 LCModel (Version 6.3-1L) Copyright: S.W. Provencher.          Ref.: Magn. Reson. Med. 30:672-679 (1993).                
 Slice#3 Row#5 Col#10  PD_24_press_1_raw_act
 36 lines in following concentration table = NCONC+1
    Conc.  %SD /Cr+PCr  Metabolite                                         
    0.000 999%   0.000 Ala                                                 
  124.943 169% 6.8E-02 Asp                                                 
 1.18E+03  15%   0.641 Cr                                                  
  660.557  26%   0.359 PCr                                                 
    0.000 999%   0.000 GABA                                                
    0.000 999%   0.000 Glc                                                 
  584.350  30%   0.318 Gln                                                 
 1.65E+03  12%   0.897 Glu                                                 
  687.654   3%   0.374 GPC                                                 
    0.000 999%   0.000 PCh                                                 
  479.561  12%   0.261 GSH                                                 
 1.22E+03  17%   0.664 Ins                                                 
    0.000 999%   0.000 Lac                                                 
 2.25E+03   3%   1.223 NAA                                                 
    0.000 999%   0.000 NAAG                                                
  114.551  20% 6.2E-02 Scyllo                                              
    0.000 999%   0.000 Tau                                                 
    0.000 999%   0.000 -CrCH2                                              
  687.654   3%   0.374 GPC+PCh                                             
 2.25E+03   3%   1.223 NAA+NAAG                                            
 1.84E+03   3%   1.000 Cr+PCr                                              
 2.23E+03  12%   1.215 Glu+Gln                                             
 1.78E+03  65%   0.971 Lip13a                                              
  489.512 127%   0.266 Lip13b                                              
  738.206  46%   0.402 Lip09                                               
 1.83E+03  21%   0.995 MM09                                                
  191.025 115%   0.104 Lip20                                               
 3.64E+03  11%   1.982 MM20                                                
  802.542  49%   0.437 MM12                                                
 1.65E+03  25%   0.900 MM14                                                
    0.000 999%   0.000 MM17                                                
 2.27E+03  33%   1.237 Lip13a+Lip13b                                       
 4.73E+03  10%   2.575 MM14+Lip13a+Lip13b+MM12                             
 2.57E+03  10%   1.396 MM09+Lip09                                          
 3.83E+03  10%   2.086 MM20+Lip20                                          
   6 lines in following misc. output table
  FWHM = 0.046 ppm    S/N =  15                                            
  Data shift = 0.008 ppm                                                   
  Ph:   1 deg      -0.6 deg/ppm                                            
  alphaB,S = 9.7E-01,   1.0E+02                                            
   14 spline knots.   Ns = 6(1)                                            
  (10) 4 infls.   ( 7) 1 extrs.                                            
  498 points on ppm-axis = NY
      4.000000     3.992357     3.984714     3.977070     3.969427     3.961784     3.954141     3.946497     3.938854     3.931211
      3.923568     3.915925     3.908281     3.900638     3.892995     3.885352     3.877708     3.870065     3.862422     3.854779
      3.847136     3.839492     3.831849     3.824206     3.816563     3.808919     3.801276     3.793633     3.785990     3.778347
      3.770703     3.763060     3.755417     3.747774     3.740130     3.732487     3.724844     3.717201     3.709558     3.701914
      3.694271     3.686628     3.678985     3.671341     3.663698     3.656055     3.648412     3.640769     3.633125     3.625482
      3.617839     3.610196     3.602552     3.594909     3.587266     3.579623     3.571980     3.564336     3.556693     3.549050
      3.541407     3.533763     3.526120     3.518477     3.510834     3.503191     3.495547     3.487904     3.480261     3.472618
      3.464974     3.457331     3.449688     3.442045     3.434402     3.426758     3.419115     3.411472     3.403829     3.396185
      3.388542     3.380899     3.373256     3.365613     3.357969     3.350326     3.342683     3.335040     3.327396     3.319753
      3.312110     3.304467     3.296824     3.289180     3.281537     3.273894     3.266251     3.258607     3.250964     3.243321
      3.235678     3.228034     3.220391     3.212748     3.205105     3.197462     3.189818     3.182175     3.174532     3.166889
      3.159245     3.151602     3.143959     3.136316     3.128673     3.121029     3.113386     3.105743     3.098100     3.090456
      3.082813     3.075170     3.067527     3.059884     3.052240     3.044597     3.036954     3.029311     3.021667     3.014024
      3.006381     2.998738     2.991095     2.983451     2.975808     2.968165     2.960522     2.952878     2.945235     2.937592
      2.929949     2.922306     2.914662     2.907019     2.899376     2.891733     2.884089     2.876446     2.868803     2.861160
      2.853517     2.845873     2.838230     2.830587     2.822944     2.815300     2.807657     2.800014     2.792371     2.784728
      2.777084     2.769441     2.761798     2.754155     2.746511     2.738868     2.731225     2.723582     2.715939     2.708295
      2.700652     2.693009     2.685366     2.677722     2.670079     2.662436     2.654793     2.647150     2.639506     2.631863
      2.624220     2.616577     2.608933     2.601290     2.593647     2.586004     2.578361     2.570717     2.563074     2.555431
      2.547788     2.540144     2.532501     2.524858     2.517215     2.509572     2.501928     2.494285     2.486642     2.478999
      2.471355     2.463712     2.456069     2.448426     2.440783     2.433139     2.425496     2.417853     2.410210     2.402566
      2.394923     2.387280     2.379637     2.371994     2.364350     2.356707     2.349064     2.341421     2.333777     2.326134
      2.318491     2.310848     2.303205     2.295561     2.287918     2.280275     2.272632     2.264988     2.257345     2.249702
      2.242059     2.234416     2.226772     2.219129     2.211486     2.203843     2.196199     2.188556     2.180913     2.173270
      2.165627     2.157983     2.150340     2.142697     2.135054     2.127410     2.119767     2.112124     2.104481     2.096838
      2.089194     2.081551     2.073908     2.066265     2.058621     2.050978     2.043335     2.035692     2.028049     2.020405
      2.012762     2.005119     1.997476     1.989833     1.982190     1.974546     1.966903     1.959260     1.951617     1.943974
      1.936331     1.928688     1.921045     1.913402     1.905759     1.898115     1.890472     1.882829     1.875186     1.867543
      1.859900     1.852257     1.844614     1.836971     1.829327     1.821684     1.814041     1.806398     1.798755     1.791112
      1.783469     1.775826     1.768183     1.760540     1.752896     1.745253     1.737610     1.729967     1.722324     1.714681
      1.707038     1.699395     1.691752     1.684108     1.676465     1.668822     1.661179     1.653536     1.645893     1.638250
      1.630607     1.622964     1.615321     1.607677     1.600034     1.592391     1.584748     1.577105     1.569462     1.561819
      1.554176     1.546533     1.538890     1.531246     1.523603     1.515960     1.508317     1.500674     1.493031     1.485388
      1.477745     1.470102     1.462458     1.454815     1.447172     1.439529     1.431886     1.424243     1.416600     1.408957
      1.401314     1.393671     1.386027     1.378384     1.370741     1.363098     1.355455     1.347812     1.340169     1.332526
      1.324883     1.317240     1.309596     1.301953     1.294310     1.286667     1.279024     1.271381     1.263738     1.256095
      1.248452     1.240808     1.233165     1.225522     1.217879     1.210236     1.202593     1.194950     1.187307     1.179664
      1.172021     1.164377     1.156734     1.149091     1.141448     1.133805     1.126162     1.118519     1.110876     1.103233
      1.095590     1.087946     1.080303     1.072660     1.065017     1.057374     1.049731     1.042088     1.034445     1.026802
      1.019158     1.011515     1.003872     0.996229     0.988586     0.980943     0.973300     0.965657     0.958014     0.950371
      0.942727     0.935084     0.927441     0.919798     0.912155     0.904512     0.896869     0.889226     0.881583     0.873940
      0.866296     0.858653     0.851010     0.843367     0.835724     0.828081     0.820438     0.812795     0.805152     0.797508
      0.789865     0.782222     0.774579     0.766936     0.759293     0.751650     0.744007     0.736364     0.728721     0.721077
      0.713434     0.705791     0.698148     0.690505     0.682862     0.675219     0.667576     0.659933     0.652290     0.644646
      0.637003     0.629360     0.621717     0.614074     0.606431     0.598788     0.591145     0.583502     0.575858     0.568215
      0.560572     0.552929     0.545286     0.537643     0.530000     0.522357     0.514714     0.507071     0.499427     0.491784
      0.484141     0.476498     0.468855     0.461212     0.453569     0.445925     0.438282     0.430639     0.422996     0.415353
      0.407710     0.400067     0.392424     0.384780     0.377137     0.369494     0.361851     0.354208     0.346565     0.338922
      0.331278     0.323635     0.315992     0.308349     0.300706     0.293063     0.285420     0.277777     0.270133     0.262490
      0.254847     0.247204     0.239561     0.231918     0.224275     0.216631     0.208988     0.201345
 NY phased data points follow
   2.82214E+01  2.79047E+01  2.94689E+01  2.40422E+01  3.36307E+01  3.31234E+01  4.09414E+01  4.36752E+01  5.58528E+01  6.31729E+01
   7.11140E+01  7.07589E+01  6.81746E+01  6.09482E+01  5.74703E+01  4.77148E+01  4.14314E+01  3.54538E+01  3.31581E+01  2.91876E+01
   3.24030E+01  2.62512E+01  2.84621E+01  2.87188E+01  3.38746E+01  2.87709E+01  2.99537E+01  2.44455E+01  3.60989E+01  3.32282E+01
   3.55136E+01  3.46617E+01  3.67947E+01  3.18661E+01  3.14734E+01  2.55724E+01  2.94161E+01  3.00055E+01  2.94405E+01  2.61130E+01
   2.24040E+01  2.43439E+01  2.52787E+01  2.83914E+01  2.60280E+01  2.96403E+01  3.55426E+01  3.33155E+01  3.74771E+01  2.97470E+01
   3.07265E+01  2.38914E+01  2.66888E+01  2.31739E+01  2.38341E+01  2.33272E+01  2.13878E+01  2.33603E+01  2.51794E+01  2.30671E+01
   1.73254E+01  1.36112E+01  1.48069E+01  7.33806E+00  1.20908E+01  4.32077E+00  1.24201E+01  9.12011E+00  1.03728E+01  8.60816E+00
   1.16497E+01  8.40086E+00  1.07927E+01  1.21470E+01  7.07821E+00  1.27500E+01  7.23182E+00  6.79661E+00  1.05734E+01  1.03890E+01
   8.84604E+00  1.14486E+01  9.39790E+00  1.04700E+01  1.32496E+01  1.09420E+01  1.23987E+01  1.63481E+01  1.38399E+01  1.03802E+01
   1.60599E+01  1.09256E+01  1.59308E+01  1.14323E+01  9.44831E+00  7.52930E+00  1.01565E+01  1.00220E+01  1.50402E+01  2.41162E+01
   4.08273E+01  5.78349E+01  7.07051E+01  7.47670E+01  6.66919E+01  5.76187E+01  5.03873E+01  3.76865E+01  3.18906E+01  2.44430E+01
   2.03100E+01  1.58911E+01  1.09441E+01  1.00223E+01  1.10375E+01  9.99428E+00  6.77013E+00  7.86713E+00  1.24568E+01  6.24755E+00
   6.86551E+00  9.31986E+00  1.26929E+01  1.84018E+01  3.53524E+01  5.19175E+01  6.20464E+01  6.45724E+01  6.56857E+01  6.31305E+01
   5.00511E+01  3.40601E+01  2.72066E+01  2.46101E+01  1.90139E+01  1.33175E+01  8.98940E+00  5.15449E+00 -1.13986E+00  6.64245E+00
   4.80343E+00  4.71005E+00  3.56211E-01  3.59496E+00  2.13347E+00  3.03897E+00  1.05983E+00  4.35113E+00 -2.40630E+00 -3.62082E-01
  -5.68264E-01 -2.88082E+00 -9.81554E-02 -3.77414E+00  8.34912E-01 -3.12601E+00  1.23338E+00  1.13512E+00  4.18151E-01 -1.66258E+00
  -5.95530E+00 -1.18187E+01 -6.78968E+00 -6.11220E+00 -3.35642E+00 -2.92896E+00 -5.99017E+00 -5.84445E+00 -5.96480E+00 -6.69843E+00
  -1.10546E+01 -7.45034E+00 -1.42296E+01 -9.18470E+00 -1.29946E+01 -9.81777E+00 -1.33328E+01 -9.39902E+00 -1.15836E+01 -7.68348E+00
  -1.07189E+01 -1.14611E+01 -1.23095E+01 -1.39224E+01 -1.01017E+01 -1.20422E+01 -1.05927E+01 -8.64846E+00 -1.31126E+01 -8.41611E+00
  -5.23023E+00 -2.10993E+00 -1.69234E+00 -2.75642E+00  6.32533E-01 -2.55476E+00 -1.56723E-01 -5.19175E+00 -9.09547E+00 -8.85412E+00
  -7.99691E+00 -4.65946E+00 -3.90671E+00 -5.60847E+00 -9.72674E-01 -6.18760E+00 -3.03365E+00 -6.20748E+00 -1.23071E+01 -1.37875E+01
  -1.04076E+01 -1.06966E+01 -7.12505E+00 -5.13870E-01  4.76956E+00  6.29977E+00  6.66479E+00  2.21358E+00  2.43168E+00 -7.53193E+00
  -6.87354E+00 -1.20707E+01 -1.03084E+01 -8.17916E+00 -6.18610E+00 -3.59694E+00  3.37436E-01 -2.19443E+00 -2.92306E-01  3.60984E+00
   2.25889E+00 -2.11993E+00 -1.21526E-01  1.07391E-01  1.86884E+00  1.49103E+00  2.39094E+00  2.62814E+00  3.20284E+00  1.94545E+00
  -1.18239E+00 -7.31005E-01 -1.30107E+00 -2.57880E+00  1.34697E+00  3.98427E+00  4.93554E+00  5.40098E+00  6.41364E+00  6.57106E+00
   1.02100E+01  8.44746E+00  9.82431E+00  1.02322E+01  7.91803E+00  1.27425E+01  2.21946E+01  4.23607E+01  6.57593E+01  7.90799E+01
   8.99156E+01  7.75651E+01  6.63378E+01  5.08107E+01  4.06130E+01  2.69994E+01  1.94382E+01  1.36785E+01  6.37854E+00  3.54894E+00
  -2.76749E+00 -1.09611E+00 -3.56780E+00 -3.31484E+00 -5.29913E+00 -3.47766E+00 -3.25248E+00 -3.95980E+00 -5.87772E+00 -2.94612E+00
  -6.00737E+00 -5.72700E+00 -7.56159E+00 -7.13035E+00 -1.04247E+01 -1.14514E+01 -8.81432E+00 -9.04183E+00 -6.22471E+00 -7.74556E+00
  -9.30291E+00 -9.52859E+00 -6.28052E+00 -1.06003E+01 -9.64025E+00 -9.10295E+00 -1.05009E+01 -9.72591E+00 -6.46142E+00 -7.32775E+00
  -7.83840E+00 -5.52501E+00 -9.54034E+00 -5.96654E+00 -3.32432E+00 -3.89581E+00 -5.43878E+00 -1.15974E-02 -1.68602E+00 -5.16483E+00
  -7.56197E+00 -3.26265E+00 -5.23286E+00 -1.81092E+00 -4.90739E+00 -4.02584E+00 -2.46455E+00  1.56967E+00 -6.83297E-01 -3.74322E+00
  -2.79529E+00 -3.15618E+00  2.59293E+00 -1.37724E+00 -1.37196E+00 -2.49834E-01  4.23659E+00  3.28759E+00  1.90115E+00  6.72655E+00
   3.31288E+00  2.07214E+00  3.51700E+00  8.22283E-01  1.93532E-01  3.71756E+00  2.60617E+00  3.68839E+00  4.58486E+00  3.54056E+00
   1.87573E+00  3.32231E+00  5.42713E+00  4.70115E-01  2.56324E+00  7.41688E+00  7.27100E+00  8.60007E+00  9.07914E+00  8.63661E+00
   9.86369E+00  1.05905E+01  1.09483E+01  9.36644E+00  1.31843E+01  1.18203E+01  8.74268E+00  7.14164E+00  1.04129E+01  1.08974E+01
   1.37421E+01  1.00837E+01  1.32192E+01  1.27644E+01  7.96457E+00  7.57024E+00  4.35906E+00  5.83496E+00  7.42919E+00  5.93891E+00
   2.87728E+00  5.27687E+00  3.99366E+00  3.52636E+00  2.49330E+00  6.55808E+00  8.15555E+00  3.25189E+00  4.15541E+00  6.37681E+00
   6.01654E+00  7.59417E+00  3.71813E+00  3.44049E+00  5.47948E+00  1.01392E+01  8.57558E+00  7.32233E+00  6.48601E+00  8.21960E+00
   1.11290E+01  7.41824E+00  8.22101E+00  9.22580E+00  7.69733E+00  1.21385E+01  8.86682E+00  8.22540E+00  1.40072E+01  1.17190E+01
   1.01359E+01  9.17426E+00  8.73027E+00  7.74162E+00  1.38290E+01  9.84017E+00  1.33540E+01  1.51835E+01  1.10947E+01  9.48205E+00
   1.23247E+01  1.21951E+01  1.23165E+01  1.38887E+01  1.18612E+01  1.03319E+01  8.28590E+00  1.00981E+01  7.87193E+00  7.76156E+00
   7.49624E+00  7.21629E+00  7.37885E+00  4.24495E+00  5.67792E+00  7.84654E+00  9.33376E+00  4.16170E+00  2.79552E+00 -6.84883E-01
   4.03646E+00  5.13567E+00  4.70767E+00  5.83854E+00  3.99640E+00  4.05641E+00  4.11293E+00  2.50581E+00  5.71005E+00  6.64789E+00
   4.46255E+00  5.99371E-01  5.08331E+00  3.08584E+00  7.03088E+00  1.01514E+01  5.50778E+00  1.74494E+00  5.55212E+00  1.91414E+00
   7.34603E+00  1.48604E+00  5.36290E+00  2.59623E+00  4.78283E+00  3.80254E+00  2.02435E+00  2.71718E+00  1.98294E+00  3.98769E+00
   5.00616E+00  5.45644E+00  5.99370E+00  2.12382E+00  8.89320E-01  1.16745E+00  5.82273E-01  2.61664E+00  3.92848E+00  4.90765E+00
   2.75712E+00  4.58177E+00  1.10314E-01  3.34526E+00  2.03611E+00  6.96599E+00  2.57360E+00  5.02461E+00  5.32012E+00  5.04057E+00
   2.76702E-01  1.15170E+00  3.70581E+00  1.64568E+00  3.92843E+00  3.54737E+00 -2.59690E-01  3.47791E+00  4.76340E+00 -2.35955E+00
   3.72767E+00  5.74640E-01  1.93586E+00 -1.95711E-01  4.35448E+00  5.56401E+00  3.42918E+00  3.31721E+00
 NY points of the fit to the data follow
   2.90685E+01  2.86805E+01  2.86360E+01  2.90106E+01  3.03450E+01  3.32156E+01  3.83451E+01  4.58349E+01  5.47743E+01  6.30934E+01
   6.83707E+01  6.93028E+01  6.61613E+01  6.05161E+01  5.41578E+01  4.82074E+01  4.29671E+01  3.84197E+01  3.45630E+01  3.10851E+01
   2.91687E+01  2.82391E+01  2.74195E+01  2.64344E+01  2.53912E+01  2.47929E+01  2.53496E+01  2.74311E+01  3.06173E+01  3.39424E+01
   3.63900E+01  3.73461E+01  3.66140E+01  3.44365E+01  3.15788E+01  2.89218E+01  2.65788E+01  2.44207E+01  2.29674E+01  2.25042E+01
   2.25220E+01  2.28869E+01  2.37805E+01  2.54783E+01  2.76911E+01  2.97975E+01  3.10288E+01  3.08266E+01  2.94541E+01  2.73835E+01
   2.49947E+01  2.28766E+01  2.13765E+01  2.01523E+01  1.89841E+01  1.83401E+01  1.84926E+01  1.90425E+01  1.95111E+01  1.96502E+01
   1.92865E+01  1.84363E+01  1.72619E+01  1.60816E+01  1.52099E+01  1.47085E+01  1.44590E+01  1.44292E+01  1.46004E+01  1.48598E+01
   1.50954E+01  1.51500E+01  1.49782E+01  1.46159E+01  1.41228E+01  1.36044E+01  1.31352E+01  1.27440E+01  1.23697E+01  1.19882E+01
   1.17205E+01  1.16730E+01  1.19851E+01  1.27227E+01  1.36871E+01  1.44034E+01  1.44709E+01  1.38283E+01  1.27484E+01  1.16156E+01
   1.07233E+01  1.02197E+01  1.00187E+01  9.78256E+00  9.27914E+00  8.90437E+00  9.00045E+00  1.03917E+01  1.52101E+01  2.54180E+01
   4.08595E+01  5.76018E+01  7.00451E+01  7.44068E+01  7.05259E+01  6.11255E+01  4.95758E+01  3.88953E+01  3.06863E+01  2.39425E+01
   1.66396E+01  1.03771E+01  7.89913E+00  7.02554E+00  6.57824E+00  6.29213E+00  6.08599E+00  5.93161E+00  5.84729E+00  5.90089E+00
   6.27458E+00  7.69783E+00  1.19533E+01  2.09011E+01  3.49218E+01  5.08965E+01  6.35906E+01  6.91041E+01  6.67553E+01  5.88887E+01
   4.86622E+01  3.87857E+01  3.07820E+01  2.39290E+01  1.61887E+01  8.54306E+00  4.81994E+00  3.51854E+00  3.25335E+00  3.51404E+00
   3.83693E+00  3.97794E+00  3.98182E+00  3.83570E+00  3.49743E+00  3.05027E+00  2.52924E+00  1.93211E+00  1.32917E+00  7.09757E-01
   1.70431E-01 -2.90534E-01 -6.89823E-01 -1.01010E+00 -1.23644E+00 -1.44375E+00 -1.77181E+00 -2.32158E+00 -3.07347E+00 -3.81884E+00
  -4.27569E+00 -4.28603E+00 -3.96267E+00 -3.63141E+00 -3.56481E+00 -3.85382E+00 -4.41043E+00 -5.00924E+00 -5.46387E+00 -5.85629E+00
  -6.32162E+00 -6.95082E+00 -7.78084E+00 -8.55708E+00 -9.05743E+00 -9.23849E+00 -9.15553E+00 -9.02446E+00 -9.03394E+00 -9.16872E+00
  -9.32891E+00 -9.47145E+00 -9.59656E+00 -9.70190E+00 -9.80675E+00 -9.78513E+00 -9.19278E+00 -7.91819E+00 -6.19990E+00 -4.60397E+00
  -3.60277E+00 -3.26574E+00 -3.48525E+00 -4.03354E+00 -4.76492E+00 -5.64348E+00 -6.42553E+00 -6.70442E+00 -6.34855E+00 -5.37449E+00
  -3.91222E+00 -2.26279E+00 -9.19713E-01 -3.06603E-01 -7.03671E-01 -2.01962E+00 -4.19006E+00 -6.79677E+00 -9.08258E+00 -1.04862E+01
  -1.06728E+01 -9.46942E+00 -6.80832E+00 -3.23220E+00  1.20454E-01  2.16619E+00  2.34714E+00  6.65714E-01 -2.78321E+00 -7.00957E+00
  -1.06454E+01 -1.28066E+01 -1.31755E+01 -1.19582E+01 -9.44009E+00 -6.25306E+00 -3.50170E+00 -1.69659E+00 -7.98355E-01 -3.86430E-01
  -2.77306E-01 -5.24099E-01 -7.51535E-01 -4.06306E-01  5.21619E-01  1.74336E+00  2.83246E+00  3.37868E+00  3.27254E+00  2.55703E+00
   1.43126E+00  5.00104E-01  3.57852E-01  1.05886E+00  2.18964E+00  3.47006E+00  4.68016E+00  5.55118E+00  5.98477E+00  6.22321E+00
   6.56741E+00  6.95002E+00  7.34641E+00  7.85350E+00  9.48421E+00  1.46726E+01  2.60581E+01  4.41093E+01  6.42439E+01  7.93792E+01
   8.46282E+01  7.96292E+01  6.77875E+01  5.32742E+01  3.98835E+01  2.98258E+01  2.17359E+01  1.24529E+01  3.91708E+00  6.58117E-01
  -6.42104E-01 -1.44926E+00 -1.93809E+00 -2.20924E+00 -2.47892E+00 -2.77974E+00 -3.12841E+00 -3.53209E+00 -3.95658E+00 -4.35709E+00
  -4.74054E+00 -5.10589E+00 -5.42008E+00 -5.67131E+00 -5.87865E+00 -6.06092E+00 -6.22379E+00 -6.36105E+00 -6.47162E+00 -6.57111E+00
  -6.65701E+00 -6.72402E+00 -6.77244E+00 -6.80465E+00 -6.82200E+00 -6.82373E+00 -6.81069E+00 -6.78613E+00 -6.74921E+00 -6.69850E+00
  -6.63395E+00 -6.55492E+00 -6.46113E+00 -6.35296E+00 -6.23090E+00 -6.09429E+00 -5.94153E+00 -5.77071E+00 -5.58027E+00 -5.36951E+00
  -5.13828E+00 -4.88561E+00 -4.60980E+00 -4.31053E+00 -3.98816E+00 -3.64370E+00 -3.27828E+00 -2.89312E+00 -2.48998E+00 -2.07147E+00
  -1.64107E+00 -1.20269E+00 -7.60338E-01 -3.18110E-01  1.19597E-01  5.48014E-01  9.62342E-01  1.35829E+00  1.73238E+00  2.08189E+00
   2.40470E+00  2.69935E+00  2.96545E+00  3.20400E+00  3.41744E+00  3.60927E+00  3.78388E+00  3.94663E+00  4.10409E+00  4.26420E+00
   4.43608E+00  4.62958E+00  4.85513E+00  5.12349E+00  5.44542E+00  5.83059E+00  6.28588E+00  6.81341E+00  7.40868E+00  8.05928E+00
   8.74418E+00  9.43398E+00  1.00925E+01  1.06801E+01  1.11584E+01  1.14952E+01  1.16692E+01  1.16723E+01  1.15106E+01  1.12028E+01
   1.07770E+01  1.02670E+01  9.70692E+00  9.12770E+00  8.55399E+00  8.00325E+00  7.48622E+00  7.00814E+00  6.57021E+00  6.17119E+00
   5.80876E+00  5.48083E+00  5.18626E+00  4.92506E+00  4.69816E+00  4.50709E+00  4.35381E+00  4.24066E+00  4.17027E+00  4.14521E+00
   4.16765E+00  4.23923E+00  4.36113E+00  4.53417E+00  4.75874E+00  5.03449E+00  5.36015E+00  5.73349E+00  6.15145E+00  6.61018E+00
   7.10485E+00  7.62949E+00  8.17690E+00  8.73890E+00  9.30653E+00  9.87031E+00  1.04202E+01  1.09458E+01  1.14366E+01  1.18825E+01
   1.22744E+01  1.26041E+01  1.28648E+01  1.30510E+01  1.31592E+01  1.31874E+01  1.31361E+01  1.30076E+01  1.28057E+01  1.25356E+01
   1.22042E+01  1.18191E+01  1.13891E+01  1.09232E+01  1.04302E+01  9.91903E+00  9.39785E+00  8.87457E+00  8.35628E+00  7.84906E+00
   7.35790E+00  6.88686E+00  6.43918E+00  6.01733E+00  5.62294E+00  5.25677E+00  4.91891E+00  4.60898E+00  4.32636E+00  4.07016E+00
   3.83915E+00  3.63182E+00  3.44654E+00  3.28176E+00  3.13606E+00  3.00799E+00  2.89609E+00  2.79882E+00  2.71483E+00  2.64296E+00
   2.58223E+00  2.53165E+00  2.49021E+00  2.45692E+00  2.43102E+00  2.41189E+00  2.39900E+00  2.39178E+00  2.38960E+00  2.39190E+00
   2.39832E+00  2.40859E+00  2.42245E+00  2.43951E+00  2.45939E+00  2.48184E+00  2.50672E+00  2.53393E+00  2.56330E+00  2.59457E+00
   2.62750E+00  2.66199E+00  2.69803E+00  2.73558E+00  2.77448E+00  2.81455E+00  2.85563E+00  2.89775E+00  2.94093E+00  2.98512E+00
   3.03019E+00  3.07598E+00  3.12245E+00  3.16968E+00  3.21770E+00  3.26643E+00  3.31572E+00  3.36550E+00  3.41580E+00  3.46668E+00
   3.51817E+00  3.57016E+00  3.62253E+00  3.67526E+00  3.72844E+00  3.78212E+00  3.83629E+00  3.89082E+00  3.94564E+00  4.00078E+00
   4.05635E+00  4.11239E+00  4.16881E+00  4.22553E+00  4.28252E+00  4.33986E+00  4.39766E+00  4.45591E+00
 NY background values follow
     2.593E+01    2.572E+01    2.551E+01    2.529E+01    2.508E+01    2.487E+01    2.466E+01    2.445E+01    2.424E+01    2.403E+01
     2.382E+01    2.360E+01    2.339E+01    2.318E+01    2.297E+01    2.276E+01    2.255E+01    2.234E+01    2.213E+01    2.191E+01
     2.170E+01    2.149E+01    2.128E+01    2.107E+01    2.086E+01    2.065E+01    2.044E+01    2.023E+01    2.001E+01    1.980E+01
     1.959E+01    1.938E+01    1.917E+01    1.896E+01    1.875E+01    1.854E+01    1.833E+01    1.812E+01    1.791E+01    1.770E+01
     1.749E+01    1.728E+01    1.708E+01    1.687E+01    1.666E+01    1.645E+01    1.624E+01    1.603E+01    1.583E+01    1.562E+01
     1.541E+01    1.520E+01    1.500E+01    1.479E+01    1.458E+01    1.438E+01    1.417E+01    1.397E+01    1.376E+01    1.356E+01
     1.335E+01    1.315E+01    1.295E+01    1.274E+01    1.254E+01    1.234E+01    1.214E+01    1.194E+01    1.174E+01    1.154E+01
     1.134E+01    1.114E+01    1.094E+01    1.074E+01    1.054E+01    1.035E+01    1.015E+01    9.953E+00    9.757E+00    9.563E+00
     9.368E+00    9.175E+00    8.982E+00    8.790E+00    8.598E+00    8.407E+00    8.217E+00    8.028E+00    7.839E+00    7.651E+00
     7.463E+00    7.277E+00    7.091E+00    6.906E+00    6.722E+00    6.538E+00    6.356E+00    6.174E+00    5.992E+00    5.812E+00
     5.633E+00    5.454E+00    5.276E+00    5.099E+00    4.922E+00    4.747E+00    4.572E+00    4.398E+00    4.225E+00    4.052E+00
     3.881E+00    3.710E+00    3.540E+00    3.371E+00    3.203E+00    3.036E+00    2.869E+00    2.704E+00    2.539E+00    2.375E+00
     2.212E+00    2.049E+00    1.888E+00    1.728E+00    1.568E+00    1.409E+00    1.251E+00    1.094E+00    9.383E-01    7.831E-01
     6.288E-01    4.753E-01    3.228E-01    1.712E-01    2.050E-02   -1.293E-01   -2.782E-01   -4.261E-01   -5.732E-01   -7.193E-01
    -8.644E-01   -1.009E+00   -1.152E+00   -1.294E+00   -1.435E+00   -1.576E+00   -1.715E+00   -1.853E+00   -1.990E+00   -2.126E+00
    -2.262E+00   -2.396E+00   -2.529E+00   -2.661E+00   -2.792E+00   -2.921E+00   -3.050E+00   -3.178E+00   -3.304E+00   -3.429E+00
    -3.554E+00   -3.677E+00   -3.798E+00   -3.919E+00   -4.039E+00   -4.157E+00   -4.274E+00   -4.390E+00   -4.505E+00   -4.619E+00
    -4.731E+00   -4.842E+00   -4.952E+00   -5.060E+00   -5.167E+00   -5.273E+00   -5.378E+00   -5.482E+00   -5.584E+00   -5.684E+00
    -5.784E+00   -5.882E+00   -5.979E+00   -6.074E+00   -6.168E+00   -6.261E+00   -6.353E+00   -6.443E+00   -6.532E+00   -6.619E+00
    -6.706E+00   -6.791E+00   -6.874E+00   -6.957E+00   -7.038E+00   -7.118E+00   -7.197E+00   -7.275E+00   -7.351E+00   -7.426E+00
    -7.500E+00   -7.573E+00   -7.644E+00   -7.715E+00   -7.784E+00   -7.852E+00   -7.919E+00   -7.984E+00   -8.049E+00   -8.112E+00
    -8.175E+00   -8.236E+00   -8.296E+00   -8.355E+00   -8.413E+00   -8.469E+00   -8.525E+00   -8.580E+00   -8.633E+00   -8.686E+00
    -8.737E+00   -8.787E+00   -8.837E+00   -8.885E+00   -8.932E+00   -8.978E+00   -9.024E+00   -9.068E+00   -9.111E+00   -9.153E+00
    -9.195E+00   -9.235E+00   -9.274E+00   -9.312E+00   -9.349E+00   -9.385E+00   -9.420E+00   -9.454E+00   -9.487E+00   -9.519E+00
    -9.550E+00   -9.580E+00   -9.609E+00   -9.637E+00   -9.663E+00   -9.689E+00   -9.713E+00   -9.737E+00   -9.759E+00   -9.781E+00
    -9.801E+00   -9.820E+00   -9.839E+00   -9.856E+00   -9.872E+00   -9.886E+00   -9.900E+00   -9.913E+00   -9.925E+00   -9.935E+00
    -9.944E+00   -9.953E+00   -9.960E+00   -9.966E+00   -9.971E+00   -9.975E+00   -9.977E+00   -9.979E+00   -9.980E+00   -9.979E+00
    -9.977E+00   -9.974E+00   -9.970E+00   -9.965E+00   -9.958E+00   -9.951E+00   -9.942E+00   -9.933E+00   -9.922E+00   -9.910E+00
    -9.897E+00   -9.883E+00   -9.868E+00   -9.852E+00   -9.835E+00   -9.817E+00   -9.797E+00   -9.777E+00   -9.756E+00   -9.734E+00
    -9.710E+00   -9.686E+00   -9.661E+00   -9.635E+00   -9.607E+00   -9.579E+00   -9.550E+00   -9.520E+00   -9.489E+00   -9.458E+00
    -9.425E+00   -9.391E+00   -9.357E+00   -9.321E+00   -9.285E+00   -9.248E+00   -9.210E+00   -9.171E+00   -9.131E+00   -9.091E+00
    -9.049E+00   -9.007E+00   -8.964E+00   -8.920E+00   -8.875E+00   -8.830E+00   -8.784E+00   -8.737E+00   -8.689E+00   -8.640E+00
    -8.591E+00   -8.541E+00   -8.491E+00   -8.439E+00   -8.387E+00   -8.334E+00   -8.281E+00   -8.227E+00   -8.172E+00   -8.116E+00
    -8.060E+00   -8.003E+00   -7.946E+00   -7.888E+00   -7.829E+00   -7.770E+00   -7.710E+00   -7.650E+00   -7.589E+00   -7.527E+00
    -7.465E+00   -7.402E+00   -7.339E+00   -7.275E+00   -7.211E+00   -7.146E+00   -7.081E+00   -7.016E+00   -6.949E+00   -6.883E+00
    -6.816E+00   -6.748E+00   -6.680E+00   -6.612E+00   -6.543E+00   -6.474E+00   -6.404E+00   -6.334E+00   -6.264E+00   -6.193E+00
    -6.122E+00   -6.050E+00   -5.978E+00   -5.906E+00   -5.834E+00   -5.761E+00   -5.688E+00   -5.614E+00   -5.541E+00   -5.467E+00
    -5.392E+00   -5.318E+00   -5.243E+00   -5.168E+00   -5.093E+00   -5.017E+00   -4.941E+00   -4.865E+00   -4.789E+00   -4.713E+00
    -4.636E+00   -4.559E+00   -4.483E+00   -4.405E+00   -4.328E+00   -4.251E+00   -4.173E+00   -4.095E+00   -4.017E+00   -3.939E+00
    -3.861E+00   -3.783E+00   -3.705E+00   -3.626E+00   -3.548E+00   -3.469E+00   -3.391E+00   -3.312E+00   -3.233E+00   -3.154E+00
    -3.075E+00   -2.997E+00   -2.918E+00   -2.839E+00   -2.760E+00   -2.681E+00   -2.602E+00   -2.523E+00   -2.444E+00   -2.366E+00
    -2.287E+00   -2.208E+00   -2.129E+00   -2.051E+00   -1.972E+00   -1.894E+00   -1.815E+00   -1.737E+00   -1.659E+00   -1.580E+00
    -1.502E+00   -1.424E+00   -1.346E+00   -1.269E+00   -1.191E+00   -1.113E+00   -1.036E+00   -9.588E-01   -8.816E-01   -8.046E-01
    -7.278E-01   -6.511E-01   -5.746E-01   -4.982E-01   -4.221E-01   -3.460E-01   -2.702E-01   -1.946E-01   -1.192E-01   -4.392E-02
     3.111E-02    1.059E-01    1.805E-01    2.549E-01    3.290E-01    4.030E-01    4.766E-01    5.501E-01    6.232E-01    6.962E-01
     7.688E-01    8.412E-01    9.133E-01    9.852E-01    1.057E+00    1.128E+00    1.199E+00    1.270E+00    1.340E+00    1.411E+00
     1.481E+00    1.551E+00    1.620E+00    1.690E+00    1.759E+00    1.828E+00    1.897E+00    1.966E+00    2.034E+00    2.103E+00
     2.171E+00    2.239E+00    2.307E+00    2.375E+00    2.443E+00    2.510E+00    2.578E+00    2.645E+00    2.712E+00    2.779E+00
     2.846E+00    2.913E+00    2.980E+00    3.047E+00    3.114E+00    3.181E+00    3.248E+00    3.314E+00    3.381E+00    3.448E+00
     3.514E+00    3.581E+00    3.647E+00    3.714E+00    3.781E+00    3.847E+00    3.914E+00    3.981E+00
 Asp      Conc. = 1.25E+02
