 LCModel (Version 6.3-1L) Copyright: S.W. Provencher.          Ref.: Magn. Reson. Med. 30:672-679 (1993).                
 Slice#2 Row#11 Col#11  PD_24_press_1_raw_act
 36 lines in following concentration table = NCONC+1
    Conc.  %SD /Cr+PCr  Metabolite                                         
    0.000 999%   0.000 Ala                                                 
    0.000 999%   0.000 Asp                                                 
    0.000 999%   0.000 Cr                                                  
  944.870   5%   1.000 PCr                                                 
    0.000 999%   0.000 GABA                                                
   28.755 384% 3.0E-02 Glc                                                 
 1.05E+03  22%   1.115 Gln                                                 
  690.703  36%   0.731 Glu                                                 
  336.395   5%   0.356 GPC                                                 
    0.000 999%   0.000 PCh                                                 
  254.187  25%   0.269 GSH                                                 
 1.15E+03  17%   1.221 Ins                                                 
    0.000 999%   0.000 Lac                                                 
 1.48E+03   4%   1.563 NAA                                                 
    0.000 999%   0.000 NAAG                                                
  114.135  18%   0.121 Scyllo                                              
  134.894 110%   0.143 Tau                                                 
  563.076  15%   0.596 -CrCH2                                              
  336.395   5%   0.356 GPC+PCh                                             
 1.48E+03   4%   1.563 NAA+NAAG                                            
  944.870   5%   1.000 Cr+PCr                                              
 1.74E+03  22%   1.846 Glu+Gln                                             
    0.000 999%   0.000 Lip13a                                              
    0.000 999%   0.000 Lip13b                                              
    0.000 999%   0.000 Lip09                                               
 1.25E+03  10%   1.321 MM09                                                
   36.511 180% 3.9E-02 Lip20                                               
 2.34E+03  10%   2.477 MM20                                                
  512.635  19%   0.543 MM12                                                
    0.000 999%   0.000 MM14                                                
  339.843  32%   0.360 MM17                                                
    0.000 999%   0.000 Lip13a+Lip13b                                       
  512.635  19%   0.543 MM14+Lip13a+Lip13b+MM12                             
 1.25E+03  10%   1.321 MM09+Lip09                                          
 2.38E+03  10%   2.516 MM20+Lip20                                          
   6 lines in following misc. output table
  FWHM = 0.069 ppm    S/N =   9                                            
  Data shift = 0.000 ppm                                                   
  Ph:   2 deg       3.6 deg/ppm                                            
  alphaB,S = 2.9E+00,   1.5E+02                                            
   14 spline knots.   Ns = 8(1)                                            
  (12) 2 infls.   ( 9) 1 extrs.                                            
  498 points on ppm-axis = NY
      4.000000     3.992357     3.984714     3.977070     3.969427     3.961784     3.954141     3.946497     3.938854     3.931211
      3.923568     3.915925     3.908281     3.900638     3.892995     3.885352     3.877708     3.870065     3.862422     3.854779
      3.847136     3.839492     3.831849     3.824206     3.816563     3.808919     3.801276     3.793633     3.785990     3.778347
      3.770703     3.763060     3.755417     3.747774     3.740130     3.732487     3.724844     3.717201     3.709558     3.701914
      3.694271     3.686628     3.678985     3.671341     3.663698     3.656055     3.648412     3.640769     3.633125     3.625482
      3.617839     3.610196     3.602552     3.594909     3.587266     3.579623     3.571980     3.564336     3.556693     3.549050
      3.541407     3.533763     3.526120     3.518477     3.510834     3.503191     3.495547     3.487904     3.480261     3.472618
      3.464974     3.457331     3.449688     3.442045     3.434402     3.426758     3.419115     3.411472     3.403829     3.396185
      3.388542     3.380899     3.373256     3.365613     3.357969     3.350326     3.342683     3.335040     3.327396     3.319753
      3.312110     3.304467     3.296824     3.289180     3.281537     3.273894     3.266251     3.258607     3.250964     3.243321
      3.235678     3.228034     3.220391     3.212748     3.205105     3.197462     3.189818     3.182175     3.174532     3.166889
      3.159245     3.151602     3.143959     3.136316     3.128673     3.121029     3.113386     3.105743     3.098100     3.090456
      3.082813     3.075170     3.067527     3.059884     3.052240     3.044597     3.036954     3.029311     3.021667     3.014024
      3.006381     2.998738     2.991095     2.983451     2.975808     2.968165     2.960522     2.952878     2.945235     2.937592
      2.929949     2.922306     2.914662     2.907019     2.899376     2.891733     2.884089     2.876446     2.868803     2.861160
      2.853517     2.845873     2.838230     2.830587     2.822944     2.815300     2.807657     2.800014     2.792371     2.784728
      2.777084     2.769441     2.761798     2.754155     2.746511     2.738868     2.731225     2.723582     2.715939     2.708295
      2.700652     2.693009     2.685366     2.677722     2.670079     2.662436     2.654793     2.647150     2.639506     2.631863
      2.624220     2.616577     2.608933     2.601290     2.593647     2.586004     2.578361     2.570717     2.563074     2.555431
      2.547788     2.540144     2.532501     2.524858     2.517215     2.509572     2.501928     2.494285     2.486642     2.478999
      2.471355     2.463712     2.456069     2.448426     2.440783     2.433139     2.425496     2.417853     2.410210     2.402566
      2.394923     2.387280     2.379637     2.371994     2.364350     2.356707     2.349064     2.341421     2.333777     2.326134
      2.318491     2.310848     2.303205     2.295561     2.287918     2.280275     2.272632     2.264988     2.257345     2.249702
      2.242059     2.234416     2.226772     2.219129     2.211486     2.203843     2.196199     2.188556     2.180913     2.173270
      2.165627     2.157983     2.150340     2.142697     2.135054     2.127410     2.119767     2.112124     2.104481     2.096838
      2.089194     2.081551     2.073908     2.066265     2.058621     2.050978     2.043335     2.035692     2.028049     2.020405
      2.012762     2.005119     1.997476     1.989833     1.982190     1.974546     1.966903     1.959260     1.951617     1.943974
      1.936331     1.928688     1.921045     1.913402     1.905759     1.898115     1.890472     1.882829     1.875186     1.867543
      1.859900     1.852257     1.844614     1.836971     1.829327     1.821684     1.814041     1.806398     1.798755     1.791112
      1.783469     1.775826     1.768183     1.760540     1.752896     1.745253     1.737610     1.729967     1.722324     1.714681
      1.707038     1.699395     1.691752     1.684108     1.676465     1.668822     1.661179     1.653536     1.645893     1.638250
      1.630607     1.622964     1.615321     1.607677     1.600034     1.592391     1.584748     1.577105     1.569462     1.561819
      1.554176     1.546533     1.538890     1.531246     1.523603     1.515960     1.508317     1.500674     1.493031     1.485388
      1.477745     1.470102     1.462458     1.454815     1.447172     1.439529     1.431886     1.424243     1.416600     1.408957
      1.401314     1.393671     1.386027     1.378384     1.370741     1.363098     1.355455     1.347812     1.340169     1.332526
      1.324883     1.317240     1.309596     1.301953     1.294310     1.286667     1.279024     1.271381     1.263738     1.256095
      1.248452     1.240808     1.233165     1.225522     1.217879     1.210236     1.202593     1.194950     1.187307     1.179664
      1.172021     1.164377     1.156734     1.149091     1.141448     1.133805     1.126162     1.118519     1.110876     1.103233
      1.095590     1.087946     1.080303     1.072660     1.065017     1.057374     1.049731     1.042088     1.034445     1.026802
      1.019158     1.011515     1.003872     0.996229     0.988586     0.980943     0.973300     0.965657     0.958014     0.950371
      0.942727     0.935084     0.927441     0.919798     0.912155     0.904512     0.896869     0.889226     0.881583     0.873940
      0.866296     0.858653     0.851010     0.843367     0.835724     0.828081     0.820438     0.812795     0.805152     0.797508
      0.789865     0.782222     0.774579     0.766936     0.759293     0.751650     0.744007     0.736364     0.728721     0.721077
      0.713434     0.705791     0.698148     0.690505     0.682862     0.675219     0.667576     0.659933     0.652290     0.644646
      0.637003     0.629360     0.621717     0.614074     0.606431     0.598788     0.591145     0.583502     0.575858     0.568215
      0.560572     0.552929     0.545286     0.537643     0.530000     0.522357     0.514714     0.507071     0.499427     0.491784
      0.484141     0.476498     0.468855     0.461212     0.453569     0.445925     0.438282     0.430639     0.422996     0.415353
      0.407710     0.400067     0.392424     0.384780     0.377137     0.369494     0.361851     0.354208     0.346565     0.338922
      0.331278     0.323635     0.315992     0.308349     0.300706     0.293063     0.285420     0.277777     0.270133     0.262490
      0.254847     0.247204     0.239561     0.231918     0.224275     0.216631     0.208988     0.201345
 NY phased data points follow
  -2.58350E-01  7.05233E-01  4.22083E+00  1.80112E+00  2.00182E+00  2.36947E+00 -6.09059E-01  2.75353E+00  2.56031E+00  6.70352E+00
   7.96190E+00  1.05417E+01  1.04527E+01  8.81468E+00  1.08284E+01  8.75701E+00  7.75296E+00  8.86553E+00  5.71077E+00  4.24504E+00
   3.98735E+00  3.55209E+00  4.14503E+00  8.06828E-01  3.77584E+00  3.43411E+00  3.03833E+00  6.35826E+00  6.07612E+00  3.15751E+00
   6.94948E+00  4.28924E+00  7.19220E+00  5.13690E+00  6.42525E+00  5.23642E+00  3.60474E+00  2.94281E+00  3.48659E+00  3.28994E+00
   2.47580E+00  6.39732E+00  6.87994E+00  5.98739E+00  7.44396E+00  6.15882E+00  6.45460E+00  5.51256E+00  9.65282E+00  1.04126E+01
   7.96005E+00  8.68067E+00  5.85657E+00  8.98831E+00  5.11891E+00  6.14548E+00  3.99897E+00  6.40142E+00  6.08018E+00  6.65690E+00
   5.17193E+00  2.57877E+00  1.86357E+00  1.18232E+00  3.71510E+00  1.14536E+00  7.67856E-01  4.23996E-01  2.38319E+00  8.02255E-01
  -2.27457E+00  7.41991E-01  2.76424E+00  1.26296E+00  2.86214E+00  3.53275E-01  4.25742E+00  1.68297E+00  2.36644E+00  2.68297E+00
   3.31449E+00  3.50228E+00  1.51476E+00  5.25572E+00  1.47329E+00  4.76120E+00  3.14778E+00  3.15312E+00  4.72441E+00  2.77068E+00
   4.04849E+00  4.66894E+00  6.71489E+00  3.09371E+00  3.62273E+00  5.39396E+00  2.70677E-01  6.19314E+00  3.29109E+00  1.04931E+01
   1.43902E+01  1.94259E+01  2.30449E+01  2.44781E+01  2.24365E+01  2.19432E+01  2.18818E+01  1.88838E+01  1.73391E+01  1.42583E+01
   1.04638E+01  6.62541E+00  8.66720E+00  6.21879E+00  4.12236E+00  2.69577E+00  2.73148E+00  2.88174E+00  1.54550E+00  1.14371E+00
   3.38278E+00  2.13696E+00  6.80553E+00  8.21985E+00  1.33983E+01  1.83446E+01  2.04395E+01  2.82017E+01  2.56134E+01  2.56506E+01
   2.55294E+01  2.28269E+01  2.02948E+01  1.65589E+01  1.08550E+01  1.13259E+01  7.31424E+00  5.60820E+00  3.92503E+00  4.76173E+00
   3.61850E+00  3.58473E+00  4.93597E+00  7.55620E-01  4.61079E+00  2.81190E+00  1.73552E+00 -1.02544E+00  3.11446E+00  1.17308E+00
   1.90521E+00  1.97215E+00  1.88162E+00  4.81332E+00  4.51819E+00  3.29301E+00  9.12005E-01  3.46235E+00  2.44654E+00  2.23485E+00
   4.09747E-01 -2.65698E+00  2.83714E+00  8.20501E-02  1.30841E+00  1.85097E+00 -3.03482E-01  2.75436E-01  7.95752E-01 -5.20658E-01
  -2.50926E+00 -5.59305E+00 -3.90338E+00 -6.27685E+00 -1.04065E+01 -5.57248E+00 -8.64708E+00 -6.05809E+00 -1.02513E+01 -6.33645E+00
  -4.21893E+00 -5.43032E+00 -5.77110E+00 -3.14586E+00 -6.92692E+00 -4.60130E+00 -4.01077E+00 -5.69938E+00 -4.45908E+00 -1.53437E+00
   5.40840E-01 -3.95691E+00 -2.26786E+00 -3.11719E+00 -2.55818E-01 -5.41882E+00 -2.61296E-01 -4.38730E+00 -9.08481E-01 -2.73117E+00
  -1.98521E-01 -1.12002E-01 -1.29844E+00  2.51708E-01 -9.12999E-01 -5.63150E-01  5.84785E-01 -1.40655E+00 -1.69613E+00 -4.53841E+00
   6.74584E-01  3.91020E+00  5.88319E-01  4.92389E+00  6.04545E+00  5.96293E+00  9.15617E+00  6.58057E+00  4.73195E+00  5.02188E+00
   4.87427E+00  3.37363E+00  2.92309E+00  2.31993E+00  2.39490E+00  1.28611E+00  2.93459E+00  2.88517E+00  3.51344E+00  6.67184E+00
   4.81559E+00  5.15588E+00  5.76295E+00  7.32684E+00  7.42632E+00  6.75262E+00  2.71788E+00  6.11023E+00  4.24877E+00  4.33469E+00
   4.27299E+00  4.86611E+00  4.49126E+00  2.33147E+00  2.24556E+00  3.72138E+00  6.19537E+00  7.44290E+00  6.22326E+00  6.88289E+00
   1.05830E+01  1.00381E+01  9.53487E+00  1.47112E+01  1.79109E+01  2.52067E+01  2.93652E+01  3.07463E+01  4.01198E+01  4.65735E+01
   4.65190E+01  4.61730E+01  3.94484E+01  3.45693E+01  3.39865E+01  2.36300E+01  1.83421E+01  1.59114E+01  1.16707E+01  6.42505E+00
   5.90520E+00  3.41331E+00  1.30313E+00  5.37451E-01  3.56039E+00  2.64017E-01  1.11932E+00  3.71444E-02  3.24890E+00  4.09525E+00
   8.58923E-01  1.43742E+00 -3.22915E+00  4.30078E-01  7.64670E-01 -1.48760E+00 -2.49898E+00 -2.17854E+00  1.83480E-01  6.01341E-01
  -7.71413E-02  3.97100E-01  1.16911E-01  3.26874E-01 -3.15495E-01 -3.70000E-01  2.77753E-02  2.29065E+00  3.56164E-01  2.02684E+00
  -1.88380E+00  2.70394E+00  5.34378E-01  3.08525E+00  2.33663E+00  3.70961E+00  4.49364E+00  3.50567E+00 -8.83164E-01  4.51586E+00
  -3.66520E-01  3.10441E+00  2.47912E-01  2.66350E+00  1.39528E+00 -9.46324E-01  6.88255E-01 -4.93774E-01 -3.39155E-01  9.61186E-02
  -3.48877E-01 -6.31259E-01  6.83483E-01 -3.26128E+00  1.81407E+00 -2.81011E+00 -6.17270E-01 -2.61900E+00 -2.31889E+00  7.56240E-01
  -3.80126E+00  3.23647E-01 -2.71616E+00 -2.22720E+00 -3.24440E+00 -1.68394E+00 -1.76855E+00 -2.13657E+00 -1.54171E+00 -1.20681E+00
  -4.27990E+00 -4.82485E+00 -2.10412E+00 -3.07225E+00 -6.21410E+00 -3.37778E+00 -6.52267E+00 -2.79792E+00 -3.29801E+00 -5.02685E+00
  -3.78329E+00 -6.18442E+00 -7.00153E+00 -6.65361E+00 -2.88134E+00 -1.02073E+00 -1.90357E+00 -1.06495E+00 -2.40298E+00 -2.04019E+00
  -1.72693E-01  2.65238E+00 -5.46867E-01  4.30990E+00  4.01610E+00  2.30408E+00  3.56629E+00  5.54964E+00  3.53030E+00  7.29530E+00
   5.66128E+00  5.88667E+00  5.67408E+00  5.46861E+00  3.27224E+00  3.58087E+00  6.02599E+00  2.76301E+00  6.46167E+00  3.78288E+00
   3.79691E+00  1.62948E+00  5.87976E+00  4.20406E+00  4.02752E+00  3.94700E+00  3.21977E+00  2.79458E+00  2.84829E+00  3.60526E+00
   2.99344E+00  2.25918E+00  5.36269E+00  5.57277E+00  6.14765E+00  3.14223E+00  6.29543E+00  6.11443E+00  3.74107E+00  5.17801E+00
   4.51592E+00  7.08966E+00  4.22736E+00  8.25928E+00  6.75885E+00  5.75703E+00  7.42586E+00  6.07657E+00  8.75384E+00  6.29454E+00
   3.86522E+00  8.39066E+00  8.63671E+00  5.77326E+00  7.55703E+00  6.68669E+00  3.80159E+00  4.01000E+00  3.86520E+00  3.43942E+00
   2.56603E+00  1.43326E+00  1.09639E+00  2.62611E+00  3.19472E+00  7.95576E-01  5.29323E-01  1.46331E+00  7.51293E-01  1.74003E+00
   2.16621E-01  2.97200E+00  1.55640E+00  9.04002E-01 -1.91970E+00  1.43670E+00  1.85661E+00  1.55325E+00  1.71651E+00  5.29273E-01
   1.81654E+00  2.55744E+00  5.12226E-01  1.73219E+00 -5.71875E-01 -8.71441E-02  1.06650E+00  3.03950E+00  3.93704E+00 -2.53365E-02
  -1.04035E-01 -3.83139E+00  3.02075E+00 -3.66312E-01 -1.16466E+00 -5.13151E-01 -9.91597E-01 -7.87336E-01  1.44625E+00  1.63459E+00
  -8.89245E-01  4.47586E+00 -9.80167E-01 -1.49441E+00  2.33455E+00 -1.11598E+00 -3.23075E+00  1.41213E-01  2.76959E-01 -1.58863E+00
  -2.40752E+00 -1.43887E+00  1.87265E+00  1.29358E+00 -1.50421E+00  9.43243E-01  6.24940E-01  1.20567E+00 -6.01496E-01  9.99328E-01
   6.08842E-01  6.69302E-01  3.23019E-01  2.82139E+00 -3.14598E+00  3.88182E-01  9.39097E-01 -1.43527E+00  7.66797E-01  1.81063E+00
   3.04979E+00 -5.79501E-01  6.87123E-03 -9.85638E-01  3.62700E-01 -1.54114E-01  8.49215E-02  6.85540E-01
 NY points of the fit to the data follow
   2.60585E+00  1.66673E+00  8.38034E-01  5.79045E-01  7.48771E-01  1.21338E+00  1.99645E+00  3.20552E+00  4.93226E+00  6.91408E+00
   8.58211E+00  9.53646E+00  9.80248E+00  9.69141E+00  9.35955E+00  8.75451E+00  7.99635E+00  7.25019E+00  6.29004E+00  4.88761E+00
   3.68007E+00  3.00411E+00  2.60593E+00  2.45595E+00  2.56149E+00  2.94203E+00  3.63605E+00  4.63577E+00  5.79095E+00  6.83709E+00
   7.55404E+00  7.80482E+00  7.64279E+00  7.22183E+00  6.61237E+00  5.84619E+00  5.06103E+00  4.33017E+00  3.59387E+00  3.01357E+00
   2.95772E+00  3.45231E+00  4.25178E+00  5.20690E+00  6.27822E+00  7.35609E+00  8.17865E+00  8.54073E+00  8.41090E+00  7.84308E+00
   7.02319E+00  6.11737E+00  5.20009E+00  4.38650E+00  3.78656E+00  3.34121E+00  3.01048E+00  2.92050E+00  3.10926E+00  3.37569E+00
   3.50684E+00  3.45649E+00  3.26052E+00  2.98317E+00  2.70631E+00  2.49075E+00  2.36887E+00  2.33044E+00  2.34979E+00  2.43979E+00
   2.60945E+00  2.80669E+00  2.97833E+00  3.06552E+00  3.05297E+00  2.94229E+00  2.74097E+00  2.48845E+00  2.27697E+00  2.26381E+00
   2.42814E+00  2.68427E+00  3.03743E+00  3.45883E+00  3.89647E+00  4.26259E+00  4.41787E+00  4.26769E+00  3.88205E+00  3.40520E+00
   2.91527E+00  2.41278E+00  1.89890E+00  1.42733E+00  1.05542E+00  1.07370E+00  2.10393E+00  4.20908E+00  7.06004E+00  1.04190E+01
   1.42122E+01  1.82308E+01  2.18549E+01  2.42129E+01  2.48214E+01  2.38808E+01  2.19665E+01  1.95097E+01  1.66258E+01  1.35220E+01
   1.05137E+01  7.64859E+00  4.90258E+00  2.78044E+00  1.84281E+00  1.46498E+00  1.25499E+00  1.12713E+00  1.08750E+00  1.26383E+00
   2.19001E+00  4.11672E+00  6.79868E+00  1.00555E+01  1.37832E+01  1.78663E+01  2.19022E+01  2.50654E+01  2.66047E+01  2.63901E+01
   2.48553E+01  2.25489E+01  1.97145E+01  1.64638E+01  1.31409E+01  1.00203E+01  7.08913E+00  4.53805E+00  3.08836E+00  2.62585E+00
   2.45161E+00  2.33926E+00  2.23108E+00  2.13791E+00  2.05488E+00  1.93767E+00  1.77225E+00  1.56275E+00  1.31976E+00  1.07309E+00
   8.44630E-01  6.57390E-01  5.14180E-01  3.65147E-01  1.97940E-01  2.01975E-02 -1.56746E-01 -3.14745E-01 -4.70697E-01 -6.25450E-01
  -7.48997E-01 -8.14254E-01 -8.29785E-01 -8.47845E-01 -9.28612E-01 -1.08375E+00 -1.28212E+00 -1.50642E+00 -1.76304E+00 -2.04196E+00
  -2.31741E+00 -2.60686E+00 -2.89720E+00 -3.18809E+00 -3.42640E+00 -3.53104E+00 -3.53109E+00 -3.49559E+00 -3.48492E+00 -3.53292E+00
  -3.58238E+00 -3.56273E+00 -3.46491E+00 -3.29607E+00 -3.04692E+00 -2.71763E+00 -2.32291E+00 -1.88973E+00 -1.43960E+00 -1.05043E+00
  -8.29233E-01 -8.12979E-01 -9.01812E-01 -9.73869E-01 -9.52848E-01 -7.90506E-01 -4.27805E-01  1.17839E-01  8.35582E-01  1.62754E+00
   2.28605E+00  2.60681E+00  2.54710E+00  2.11391E+00  1.30283E+00  1.34574E-01 -1.17133E+00 -2.30382E+00 -3.01012E+00 -3.13624E+00
  -2.72245E+00 -1.91214E+00 -8.56850E-01  3.61886E-01  1.61537E+00  2.58331E+00  3.11420E+00  3.25788E+00  3.02195E+00  2.42887E+00
   1.74727E+00  1.23746E+00  1.00538E+00  1.02923E+00  1.25645E+00  1.62098E+00  2.07854E+00  2.51272E+00  2.83096E+00  3.05845E+00
   3.26414E+00  3.51376E+00  3.81979E+00  4.15282E+00  4.56800E+00  5.10741E+00  5.64553E+00  6.02506E+00  6.16118E+00  6.04862E+00
   5.74469E+00  5.34670E+00  5.02960E+00  4.94431E+00  5.05054E+00  5.25056E+00  5.61751E+00  6.18167E+00  6.87085E+00  7.61922E+00
   8.40823E+00  9.33142E+00  1.12036E+01  1.44384E+01  1.85796E+01  2.33817E+01  2.87563E+01  3.45331E+01  4.00755E+01  4.41381E+01
   4.55809E+01  4.42547E+01  4.09510E+01  3.66289E+01  3.17064E+01  2.63293E+01  2.09969E+01  1.60730E+01  1.13912E+01  7.19383E+00
   4.72745E+00  3.84939E+00  3.37714E+00  3.02612E+00  2.74209E+00  2.49387E+00  2.25249E+00  2.02340E+00  1.80492E+00  1.59389E+00
   1.39375E+00  1.20815E+00  1.03464E+00  8.76127E-01  7.40843E-01  6.32327E-01  5.48762E-01  4.88049E-01  4.50282E-01  4.36324E-01
   4.45016E-01  4.73600E-01  5.23406E-01  5.95231E-01  6.88072E-01  7.99722E-01  9.27375E-01  1.06751E+00  1.21555E+00  1.36596E+00
   1.51311E+00  1.65108E+00  1.77369E+00  1.87513E+00  1.95048E+00  1.99563E+00  2.00777E+00  1.98545E+00  1.92880E+00  1.83940E+00
   1.72024E+00  1.57533E+00  1.40952E+00  1.22829E+00  1.03758E+00  8.43093E-01  6.50073E-01  4.63081E-01  2.85973E-01  1.21729E-01
  -2.74756E-02 -1.60371E-01 -2.76478E-01 -3.76067E-01 -4.59890E-01 -5.29077E-01 -5.84941E-01 -6.28981E-01 -6.62732E-01 -6.87731E-01
  -7.05332E-01 -7.16729E-01 -7.22898E-01 -7.24704E-01 -7.22838E-01 -7.17855E-01 -7.10077E-01 -6.99679E-01 -6.86669E-01 -6.70992E-01
  -6.52447E-01 -6.30697E-01 -6.05184E-01 -5.75198E-01 -5.39850E-01 -4.98127E-01 -4.48801E-01 -3.90453E-01 -3.21432E-01 -2.39989E-01
  -1.44305E-01 -3.26195E-02  9.67469E-02  2.45235E-01  4.13925E-01  6.03293E-01  8.13069E-01  1.04208E+00  1.28819E+00  1.54822E+00
   1.81792E+00  2.09201E+00  2.36434E+00  2.62812E+00  2.87632E+00  3.10196E+00  3.29854E+00  3.46034E+00  3.58294E+00  3.66341E+00
   3.70068E+00  3.69555E+00  3.65069E+00  3.57051E+00  3.46094E+00  3.32915E+00  3.18316E+00  3.03141E+00  2.88235E+00  2.74404E+00
   2.62393E+00  2.52857E+00  2.46350E+00  2.43305E+00  2.44039E+00  2.48751E+00  2.57535E+00  2.70386E+00  2.87205E+00  3.07806E+00
   3.31919E+00  3.59198E+00  3.89224E+00  4.21505E+00  4.55476E+00  4.90502E+00  5.25884E+00  5.60874E+00  5.94692E+00  6.26535E+00
   6.55609E+00  6.81146E+00  7.02442E+00  7.18882E+00  7.29967E+00  7.35337E+00  7.34783E+00  7.28258E+00  7.15887E+00  6.97956E+00
   6.74898E+00  6.47272E+00  6.15734E+00  5.81009E+00  5.43863E+00  5.05070E+00  4.65382E+00  4.25499E+00  3.86055E+00  3.47598E+00
   3.10589E+00  2.75390E+00  2.42271E+00  2.11408E+00  1.82896E+00  1.56762E+00  1.32976E+00  1.11462E+00  9.21064E-01  7.47712E-01
   5.93032E-01  4.55446E-01  3.33382E-01  2.25298E-01  1.29707E-01  4.52211E-02 -2.94272E-02 -9.53630E-02 -1.53598E-01 -2.05042E-01
  -2.50519E-01 -2.90748E-01 -3.26347E-01 -3.57835E-01 -3.85679E-01 -4.10296E-01 -4.32065E-01 -4.51301E-01 -4.68268E-01 -4.83183E-01
  -4.96257E-01 -5.07683E-01 -5.17641E-01 -5.26264E-01 -5.33667E-01 -5.39943E-01 -5.45203E-01 -5.49545E-01 -5.53061E-01 -5.55805E-01
  -5.57829E-01 -5.59177E-01 -5.59921E-01 -5.60115E-01 -5.59806E-01 -5.59010E-01 -5.57757E-01 -5.56073E-01 -5.54009E-01 -5.51593E-01
  -5.48846E-01 -5.45765E-01 -5.42370E-01 -5.38681E-01 -5.34736E-01 -5.30542E-01 -5.26107E-01 -5.21420E-01 -5.16501E-01 -5.11366E-01
  -5.06041E-01 -5.00519E-01 -4.94798E-01 -4.88865E-01 -4.82743E-01 -4.76439E-01 -4.69967E-01 -4.63307E-01 -4.56451E-01 -4.49388E-01
  -4.42138E-01 -4.34698E-01 -4.27065E-01 -4.19203E-01 -4.11103E-01 -4.02746E-01 -3.94140E-01 -3.85258E-01
 NY background values follow
    -6.346E-02   -6.864E-02   -7.382E-02   -7.900E-02   -8.418E-02   -8.936E-02   -9.455E-02   -9.973E-02   -1.049E-01   -1.101E-01
    -1.153E-01   -1.205E-01   -1.257E-01   -1.309E-01   -1.361E-01   -1.413E-01   -1.464E-01   -1.516E-01   -1.568E-01   -1.620E-01
    -1.672E-01   -1.724E-01   -1.776E-01   -1.829E-01   -1.881E-01   -1.933E-01   -1.985E-01   -2.037E-01   -2.089E-01   -2.141E-01
    -2.193E-01   -2.246E-01   -2.298E-01   -2.350E-01   -2.402E-01   -2.454E-01   -2.507E-01   -2.559E-01   -2.611E-01   -2.664E-01
    -2.716E-01   -2.768E-01   -2.821E-01   -2.873E-01   -2.926E-01   -2.978E-01   -3.030E-01   -3.083E-01   -3.135E-01   -3.188E-01
    -3.240E-01   -3.293E-01   -3.346E-01   -3.398E-01   -3.451E-01   -3.503E-01   -3.556E-01   -3.609E-01   -3.661E-01   -3.714E-01
    -3.767E-01   -3.819E-01   -3.872E-01   -3.925E-01   -3.978E-01   -4.030E-01   -4.083E-01   -4.136E-01   -4.189E-01   -4.242E-01
    -4.294E-01   -4.347E-01   -4.400E-01   -4.453E-01   -4.506E-01   -4.559E-01   -4.611E-01   -4.664E-01   -4.717E-01   -4.770E-01
    -4.823E-01   -4.876E-01   -4.929E-01   -4.981E-01   -5.034E-01   -5.087E-01   -5.140E-01   -5.193E-01   -5.246E-01   -5.299E-01
    -5.352E-01   -5.404E-01   -5.457E-01   -5.510E-01   -5.563E-01   -5.616E-01   -5.669E-01   -5.722E-01   -5.774E-01   -5.827E-01
    -5.880E-01   -5.933E-01   -5.986E-01   -6.038E-01   -6.091E-01   -6.144E-01   -6.197E-01   -6.249E-01   -6.302E-01   -6.355E-01
    -6.407E-01   -6.460E-01   -6.513E-01   -6.565E-01   -6.618E-01   -6.670E-01   -6.723E-01   -6.775E-01   -6.827E-01   -6.880E-01
    -6.932E-01   -6.984E-01   -7.037E-01   -7.089E-01   -7.141E-01   -7.193E-01   -7.245E-01   -7.297E-01   -7.349E-01   -7.401E-01
    -7.453E-01   -7.505E-01   -7.557E-01   -7.609E-01   -7.660E-01   -7.712E-01   -7.764E-01   -7.815E-01   -7.867E-01   -7.918E-01
    -7.970E-01   -8.021E-01   -8.072E-01   -8.123E-01   -8.174E-01   -8.225E-01   -8.276E-01   -8.327E-01   -8.377E-01   -8.428E-01
    -8.478E-01   -8.528E-01   -8.578E-01   -8.628E-01   -8.678E-01   -8.728E-01   -8.777E-01   -8.827E-01   -8.876E-01   -8.925E-01
    -8.974E-01   -9.022E-01   -9.071E-01   -9.119E-01   -9.167E-01   -9.215E-01   -9.262E-01   -9.310E-01   -9.357E-01   -9.404E-01
    -9.451E-01   -9.497E-01   -9.543E-01   -9.589E-01   -9.635E-01   -9.681E-01   -9.726E-01   -9.771E-01   -9.815E-01   -9.860E-01
    -9.904E-01   -9.948E-01   -9.991E-01   -1.003E+00   -1.008E+00   -1.012E+00   -1.016E+00   -1.020E+00   -1.025E+00   -1.029E+00
    -1.033E+00   -1.037E+00   -1.041E+00   -1.045E+00   -1.049E+00   -1.053E+00   -1.057E+00   -1.061E+00   -1.065E+00   -1.069E+00
    -1.072E+00   -1.076E+00   -1.080E+00   -1.084E+00   -1.087E+00   -1.091E+00   -1.094E+00   -1.098E+00   -1.102E+00   -1.105E+00
    -1.109E+00   -1.112E+00   -1.115E+00   -1.119E+00   -1.122E+00   -1.125E+00   -1.129E+00   -1.132E+00   -1.135E+00   -1.138E+00
    -1.141E+00   -1.144E+00   -1.147E+00   -1.150E+00   -1.153E+00   -1.156E+00   -1.159E+00   -1.162E+00   -1.165E+00   -1.168E+00
    -1.171E+00   -1.173E+00   -1.176E+00   -1.179E+00   -1.181E+00   -1.184E+00   -1.186E+00   -1.189E+00   -1.191E+00   -1.194E+00
    -1.196E+00   -1.198E+00   -1.201E+00   -1.203E+00   -1.205E+00   -1.207E+00   -1.209E+00   -1.211E+00   -1.213E+00   -1.215E+00
    -1.217E+00   -1.219E+00   -1.221E+00   -1.223E+00   -1.224E+00   -1.226E+00   -1.228E+00   -1.229E+00   -1.231E+00   -1.232E+00
    -1.234E+00   -1.235E+00   -1.237E+00   -1.238E+00   -1.239E+00   -1.240E+00   -1.241E+00   -1.242E+00   -1.243E+00   -1.244E+00
    -1.245E+00   -1.246E+00   -1.247E+00   -1.248E+00   -1.248E+00   -1.249E+00   -1.249E+00   -1.250E+00   -1.250E+00   -1.251E+00
    -1.251E+00   -1.251E+00   -1.252E+00   -1.252E+00   -1.252E+00   -1.252E+00   -1.252E+00   -1.252E+00   -1.252E+00   -1.251E+00
    -1.251E+00   -1.251E+00   -1.250E+00   -1.250E+00   -1.249E+00   -1.249E+00   -1.248E+00   -1.247E+00   -1.247E+00   -1.246E+00
    -1.245E+00   -1.244E+00   -1.243E+00   -1.242E+00   -1.241E+00   -1.239E+00   -1.238E+00   -1.237E+00   -1.235E+00   -1.234E+00
    -1.232E+00   -1.231E+00   -1.229E+00   -1.227E+00   -1.226E+00   -1.224E+00   -1.222E+00   -1.220E+00   -1.218E+00   -1.215E+00
    -1.213E+00   -1.211E+00   -1.209E+00   -1.206E+00   -1.204E+00   -1.201E+00   -1.198E+00   -1.196E+00   -1.193E+00   -1.190E+00
    -1.187E+00   -1.184E+00   -1.181E+00   -1.178E+00   -1.175E+00   -1.172E+00   -1.169E+00   -1.165E+00   -1.162E+00   -1.158E+00
    -1.155E+00   -1.151E+00   -1.148E+00   -1.144E+00   -1.140E+00   -1.136E+00   -1.132E+00   -1.128E+00   -1.124E+00   -1.120E+00
    -1.116E+00   -1.112E+00   -1.107E+00   -1.103E+00   -1.099E+00   -1.094E+00   -1.090E+00   -1.085E+00   -1.080E+00   -1.076E+00
    -1.071E+00   -1.066E+00   -1.061E+00   -1.056E+00   -1.051E+00   -1.046E+00   -1.041E+00   -1.036E+00   -1.030E+00   -1.025E+00
    -1.020E+00   -1.014E+00   -1.009E+00   -1.003E+00   -9.979E-01   -9.923E-01   -9.866E-01   -9.809E-01   -9.751E-01   -9.693E-01
    -9.635E-01   -9.576E-01   -9.516E-01   -9.457E-01   -9.396E-01   -9.335E-01   -9.274E-01   -9.213E-01   -9.151E-01   -9.088E-01
    -9.025E-01   -8.962E-01   -8.898E-01   -8.834E-01   -8.770E-01   -8.705E-01   -8.640E-01   -8.575E-01   -8.509E-01   -8.443E-01
    -8.377E-01   -8.310E-01   -8.243E-01   -8.176E-01   -8.108E-01   -8.040E-01   -7.972E-01   -7.903E-01   -7.835E-01   -7.766E-01
    -7.696E-01   -7.627E-01   -7.557E-01   -7.487E-01   -7.417E-01   -7.346E-01   -7.275E-01   -7.204E-01   -7.133E-01   -7.062E-01
    -6.990E-01   -6.919E-01   -6.847E-01   -6.774E-01   -6.702E-01   -6.629E-01   -6.557E-01   -6.484E-01   -6.411E-01   -6.337E-01
    -6.264E-01   -6.190E-01   -6.117E-01   -6.043E-01   -5.969E-01   -5.894E-01   -5.820E-01   -5.746E-01   -5.671E-01   -5.597E-01
    -5.522E-01   -5.447E-01   -5.372E-01   -5.297E-01   -5.222E-01   -5.146E-01   -5.071E-01   -4.996E-01   -4.920E-01   -4.845E-01
    -4.769E-01   -4.693E-01   -4.617E-01   -4.542E-01   -4.466E-01   -4.390E-01   -4.314E-01   -4.238E-01   -4.162E-01   -4.086E-01
    -4.010E-01   -3.934E-01   -3.858E-01   -3.781E-01   -3.705E-01   -3.629E-01   -3.553E-01   -3.476E-01   -3.400E-01   -3.324E-01
    -3.247E-01   -3.171E-01   -3.094E-01   -3.018E-01   -2.942E-01   -2.865E-01   -2.789E-01   -2.712E-01   -2.636E-01   -2.559E-01
    -2.483E-01   -2.406E-01   -2.330E-01   -2.253E-01   -2.177E-01   -2.101E-01   -2.024E-01   -1.948E-01   -1.871E-01   -1.795E-01
    -1.718E-01   -1.642E-01   -1.566E-01   -1.489E-01   -1.413E-01   -1.337E-01   -1.261E-01   -1.184E-01
 PCr      Conc. = 9.45E+02
