 LCModel (Version 6.3-1L) Copyright: S.W. Provencher.          Ref.: Magn. Reson. Med. 30:672-679 (1993).                
 Slice#2 Row#3 Col#3  PD_24_press_1_raw_act
 36 lines in following concentration table = NCONC+1
    Conc.  %SD /Cr+PCr  Metabolite                                         
    0.000 999%   0.000 Ala                                                 
  145.934 144%   0.000 Asp                                                 
    0.000 999%   0.000 Cr                                                  
    0.000 999%   0.000 PCr                                                 
   87.223 154%   0.000 GABA                                                
  155.854  85%   0.000 Glc                                                 
 6.43E+03  19%   0.000 Gln                                                 
  590.573 267%   0.000 Glu                                                 
    0.000 999%   0.000 GPC                                                 
   96.611  44%   0.000 PCh                                                 
    0.000 999%   0.000 GSH                                                 
  669.316  85%   0.000 Ins                                                 
    0.000 999%   0.000 Lac                                                 
 2.89E+03   8%   0.000 NAA                                                 
    0.000 999%   0.000 NAAG                                                
  122.516  30%   0.000 Scyllo                                              
  570.232  38%   0.000 Tau                                                 
    0.000 999%   0.000 -CrCH2                                              
   96.611  44%   0.000 GPC+PCh                                             
 2.89E+03   8%   0.000 NAA+NAAG                                            
    0.000 999%   0.000 Cr+PCr                                              
 7.02E+03  34%   0.000 Glu+Gln                                             
    0.000 999%   0.000 Lip13a                                              
    0.000 999%   0.000 Lip13b                                              
    0.000 999%   0.000 Lip09                                               
 4.02E+03  10%   0.000 MM09                                                
 8.02E-02 999%   0.000 Lip20                                               
 7.20E+03  10%   0.000 MM20                                                
 1.23E+03  15%   0.000 MM12                                                
    0.000 999%   0.000-MM14                                                
 3.81E+03  12%   0.000+MM17                                                
    0.000 999%   0.000 Lip13a+Lip13b                                       
 1.23E+03  15%   0.000 MM14+Lip13a+Lip13b+MM12                             
 4.02E+03  10%   0.000 MM09+Lip09                                          
 7.20E+03  10%   0.000 MM20+Lip20                                          
   6 lines in following misc. output table
  FWHM = 0.183 ppm    S/N =   8                                            
  Data shift = 0.191 ppm                                                   
  Ph:  22 deg     132.3 deg/ppm                                            
  alphaB,S = 2.5E-01,   4.3E+02                                            
   11 spline knots.   Ns = 9(2)                                            
  (15) 5 infls.   (11) 1 extrs.                                            
  498 points on ppm-axis = NY
      4.000000     3.992357     3.984714     3.977070     3.969427     3.961784     3.954141     3.946497     3.938854     3.931211
      3.923568     3.915925     3.908281     3.900638     3.892995     3.885352     3.877708     3.870065     3.862422     3.854779
      3.847136     3.839492     3.831849     3.824206     3.816563     3.808919     3.801276     3.793633     3.785990     3.778347
      3.770703     3.763060     3.755417     3.747774     3.740130     3.732487     3.724844     3.717201     3.709558     3.701914
      3.694271     3.686628     3.678985     3.671341     3.663698     3.656055     3.648412     3.640769     3.633125     3.625482
      3.617839     3.610196     3.602552     3.594909     3.587266     3.579623     3.571980     3.564336     3.556693     3.549050
      3.541407     3.533763     3.526120     3.518477     3.510834     3.503191     3.495547     3.487904     3.480261     3.472618
      3.464974     3.457331     3.449688     3.442045     3.434402     3.426758     3.419115     3.411472     3.403829     3.396185
      3.388542     3.380899     3.373256     3.365613     3.357969     3.350326     3.342683     3.335040     3.327396     3.319753
      3.312110     3.304467     3.296824     3.289180     3.281537     3.273894     3.266251     3.258607     3.250964     3.243321
      3.235678     3.228034     3.220391     3.212748     3.205105     3.197462     3.189818     3.182175     3.174532     3.166889
      3.159245     3.151602     3.143959     3.136316     3.128673     3.121029     3.113386     3.105743     3.098100     3.090456
      3.082813     3.075170     3.067527     3.059884     3.052240     3.044597     3.036954     3.029311     3.021667     3.014024
      3.006381     2.998738     2.991095     2.983451     2.975808     2.968165     2.960522     2.952878     2.945235     2.937592
      2.929949     2.922306     2.914662     2.907019     2.899376     2.891733     2.884089     2.876446     2.868803     2.861160
      2.853517     2.845873     2.838230     2.830587     2.822944     2.815300     2.807657     2.800014     2.792371     2.784728
      2.777084     2.769441     2.761798     2.754155     2.746511     2.738868     2.731225     2.723582     2.715939     2.708295
      2.700652     2.693009     2.685366     2.677722     2.670079     2.662436     2.654793     2.647150     2.639506     2.631863
      2.624220     2.616577     2.608933     2.601290     2.593647     2.586004     2.578361     2.570717     2.563074     2.555431
      2.547788     2.540144     2.532501     2.524858     2.517215     2.509572     2.501928     2.494285     2.486642     2.478999
      2.471355     2.463712     2.456069     2.448426     2.440783     2.433139     2.425496     2.417853     2.410210     2.402566
      2.394923     2.387280     2.379637     2.371994     2.364350     2.356707     2.349064     2.341421     2.333777     2.326134
      2.318491     2.310848     2.303205     2.295561     2.287918     2.280275     2.272632     2.264988     2.257345     2.249702
      2.242059     2.234416     2.226772     2.219129     2.211486     2.203843     2.196199     2.188556     2.180913     2.173270
      2.165627     2.157983     2.150340     2.142697     2.135054     2.127410     2.119767     2.112124     2.104481     2.096838
      2.089194     2.081551     2.073908     2.066265     2.058621     2.050978     2.043335     2.035692     2.028049     2.020405
      2.012762     2.005119     1.997476     1.989833     1.982190     1.974546     1.966903     1.959260     1.951617     1.943974
      1.936331     1.928688     1.921045     1.913402     1.905759     1.898115     1.890472     1.882829     1.875186     1.867543
      1.859900     1.852257     1.844614     1.836971     1.829327     1.821684     1.814041     1.806398     1.798755     1.791112
      1.783469     1.775826     1.768183     1.760540     1.752896     1.745253     1.737610     1.729967     1.722324     1.714681
      1.707038     1.699395     1.691752     1.684108     1.676465     1.668822     1.661179     1.653536     1.645893     1.638250
      1.630607     1.622964     1.615321     1.607677     1.600034     1.592391     1.584748     1.577105     1.569462     1.561819
      1.554176     1.546533     1.538890     1.531246     1.523603     1.515960     1.508317     1.500674     1.493031     1.485388
      1.477745     1.470102     1.462458     1.454815     1.447172     1.439529     1.431886     1.424243     1.416600     1.408957
      1.401314     1.393671     1.386027     1.378384     1.370741     1.363098     1.355455     1.347812     1.340169     1.332526
      1.324883     1.317240     1.309596     1.301953     1.294310     1.286667     1.279024     1.271381     1.263738     1.256095
      1.248452     1.240808     1.233165     1.225522     1.217879     1.210236     1.202593     1.194950     1.187307     1.179664
      1.172021     1.164377     1.156734     1.149091     1.141448     1.133805     1.126162     1.118519     1.110876     1.103233
      1.095590     1.087946     1.080303     1.072660     1.065017     1.057374     1.049731     1.042088     1.034445     1.026802
      1.019158     1.011515     1.003872     0.996229     0.988586     0.980943     0.973300     0.965657     0.958014     0.950371
      0.942727     0.935084     0.927441     0.919798     0.912155     0.904512     0.896869     0.889226     0.881583     0.873940
      0.866296     0.858653     0.851010     0.843367     0.835724     0.828081     0.820438     0.812795     0.805152     0.797508
      0.789865     0.782222     0.774579     0.766936     0.759293     0.751650     0.744007     0.736364     0.728721     0.721077
      0.713434     0.705791     0.698148     0.690505     0.682862     0.675219     0.667576     0.659933     0.652290     0.644646
      0.637003     0.629360     0.621717     0.614074     0.606431     0.598788     0.591145     0.583502     0.575858     0.568215
      0.560572     0.552929     0.545286     0.537643     0.530000     0.522357     0.514714     0.507071     0.499427     0.491784
      0.484141     0.476498     0.468855     0.461212     0.453569     0.445925     0.438282     0.430639     0.422996     0.415353
      0.407710     0.400067     0.392424     0.384780     0.377137     0.369494     0.361851     0.354208     0.346565     0.338922
      0.331278     0.323635     0.315992     0.308349     0.300706     0.293063     0.285420     0.277777     0.270133     0.262490
      0.254847     0.247204     0.239561     0.231918     0.224275     0.216631     0.208988     0.201345
 NY phased data points follow
  -2.40629E+01 -2.24765E+01 -2.60671E+01 -1.87658E+01 -2.51967E+01 -2.28127E+01 -2.17918E+01 -1.97115E+01 -2.16197E+01 -1.80929E+01
  -2.10687E+01 -1.63870E+01 -1.87725E+01 -2.31455E+01 -1.81700E+01 -1.46143E+01 -1.69350E+01 -1.54610E+01 -1.90876E+01 -1.78398E+01
  -1.48722E+01 -1.38654E+01 -1.58683E+01 -1.22699E+01 -1.74250E+01 -1.25223E+01 -1.25475E+01 -8.66072E+00 -1.33883E+01 -1.52002E+01
  -1.37499E+01 -1.17386E+01 -7.59254E+00 -1.14627E+01 -8.62232E+00 -1.09203E+01 -1.40325E+01 -1.05922E+01 -1.23847E+01 -9.72030E+00
  -9.65256E+00 -1.02998E+01 -1.26554E+01 -1.06016E+01 -5.72628E+00 -6.21025E+00 -8.00927E+00 -6.10694E+00 -3.63209E+00 -2.72980E+00
  -8.12281E+00 -2.28480E+00 -8.62336E+00 -7.66682E+00 -8.19530E+00 -4.83668E+00 -1.33117E+00 -6.94747E+00 -5.89036E+00 -9.36489E+00
  -2.92104E+00 -5.67422E+00 -5.57582E+00 -2.43886E+00 -4.54259E+00 -4.91492E+00  3.32138E-02 -3.75190E+00 -9.51354E-01 -3.49784E+00
  -1.88444E+00 -2.30978E+00 -2.27973E+00 -2.44989E+00  1.40374E-01 -1.32868E+00  5.35452E+00  1.86907E+00  3.05375E-01 -3.06937E+00
  -2.47164E-01 -6.09570E+00 -6.63748E-01 -2.49517E+00 -1.81788E+00 -2.39054E+00 -3.82288E+00 -1.37343E+00 -3.27316E+00 -4.99991E+00
  -3.18817E+00 -8.33883E-02 -1.82265E+00 -3.96099E+00 -2.89231E+00 -4.47639E+00 -1.97103E+00 -3.01347E+00 -4.21448E+00 -3.30006E-01
   2.20623E+00 -4.98746E+00 -2.55484E+00 -1.86966E+00 -4.26953E+00 -6.27221E+00 -6.26940E+00 -8.10395E+00 -4.34683E+00 -3.21648E+00
  -8.06067E+00 -3.32009E+00 -5.81920E+00 -6.85990E+00 -6.97446E+00 -7.55982E+00 -9.63028E+00 -6.94974E+00 -8.01931E+00 -6.55187E+00
  -7.01042E+00 -6.17806E+00 -7.86849E+00  3.06125E-01 -8.74146E+00 -9.04086E+00 -6.36902E+00 -8.06602E+00 -1.15352E+01 -8.72767E+00
  -1.16031E+01 -6.63063E+00 -1.06918E+01 -3.95755E+00 -9.27267E+00 -7.99294E+00 -8.23135E+00 -1.07921E+01 -1.23304E+01 -1.07517E+01
  -9.50992E+00 -6.77766E+00 -8.98133E+00 -1.26318E+01 -1.47983E+01 -1.03970E+01 -1.28515E+01 -1.25643E+01 -1.13368E+01 -1.08229E+01
  -1.40007E+01 -1.06391E+01 -1.08897E+01 -9.88427E+00 -1.33607E+01 -1.52812E+01 -1.34486E+01 -1.59049E+01 -1.28211E+01 -1.18848E+01
  -1.46053E+01 -1.08923E+01 -1.20115E+01 -1.27206E+01 -1.11874E+01 -7.94410E+00 -1.31072E+01 -1.43337E+01 -1.11545E+01 -1.36286E+01
  -1.36739E+01 -1.14398E+01 -1.34326E+01 -7.71823E+00 -1.33486E+01 -1.42552E+01 -1.07867E+01 -1.16716E+01 -1.16629E+01 -1.11817E+01
  -1.21546E+01 -1.37074E+01 -9.65831E+00 -8.14884E+00 -1.03141E+01 -8.34259E+00 -9.37992E+00 -7.80020E+00 -8.21587E+00 -9.87087E+00
  -1.20748E+01 -7.09998E+00 -8.32659E+00 -4.23452E+00 -4.65570E+00 -5.57646E+00 -4.54011E+00 -4.78555E+00 -2.80262E+00  2.25505E-02
  -1.54219E+00 -4.02449E+00 -9.10360E-01 -1.87892E+00  1.86203E+00  2.61956E+00  2.42169E+00 -1.33751E-01  3.99887E+00  6.51404E+00
   6.23944E+00  9.52033E+00  8.57913E+00  9.19156E+00  1.05264E+01  1.28263E+01  1.27383E+01  1.29582E+01  1.61235E+01  1.83269E+01
   1.71967E+01  1.75970E+01  1.66214E+01  1.79420E+01  2.29582E+01  2.01909E+01  2.39110E+01  2.53930E+01  2.51699E+01  2.66662E+01
   2.64927E+01  2.82515E+01  3.14879E+01  2.81326E+01  2.46394E+01  2.66179E+01  2.96525E+01  3.22448E+01  3.65665E+01  3.74608E+01
   3.56859E+01  3.52452E+01  4.21574E+01  3.98615E+01  4.03429E+01  4.04237E+01  5.02488E+01  4.45394E+01  4.82952E+01  4.83380E+01
   4.91340E+01  5.39559E+01  5.74988E+01  5.76410E+01  6.19671E+01  6.23908E+01  5.85855E+01  5.93892E+01  6.18585E+01  6.73246E+01
   6.71029E+01  6.35939E+01  6.84476E+01  6.87483E+01  6.68454E+01  6.92820E+01  6.94122E+01  6.61937E+01  6.54861E+01  6.75337E+01
   6.75551E+01  6.25945E+01  6.27030E+01  5.89062E+01  5.98723E+01  5.54627E+01  5.57127E+01  5.44983E+01  5.30031E+01  4.93657E+01
   4.72473E+01  4.86240E+01  4.27812E+01  4.28362E+01  4.21224E+01  3.91845E+01  3.89016E+01  3.88447E+01  3.75750E+01  3.60039E+01
   3.18095E+01  3.50047E+01  3.20984E+01  3.07364E+01  3.32797E+01  2.81363E+01  2.57793E+01  2.45533E+01  2.51446E+01  2.42677E+01
   2.37732E+01  1.87179E+01  2.14559E+01  1.79624E+01  1.53773E+01  1.23322E+01  1.09835E+01  7.75563E+00  9.03721E+00  4.74221E+00
   6.46266E+00  4.56253E+00  1.63799E+00  1.70669E+00  3.24553E+00 -1.00826E-01  4.32286E-01 -1.49688E+00 -6.31060E+00  1.64046E+00
  -2.35819E+00 -4.33597E+00 -1.87147E+00 -9.37629E+00 -1.12822E+01 -1.41024E+01 -1.50682E+01 -1.49093E+01 -2.20265E+01 -1.99903E+01
  -2.29939E+01 -2.31567E+01 -2.10789E+01 -2.57975E+01 -2.54578E+01 -2.32363E+01 -2.54482E+01 -2.74374E+01 -2.39120E+01 -2.65546E+01
  -2.69397E+01 -2.84571E+01 -3.07969E+01 -2.40894E+01 -2.90891E+01 -2.88161E+01 -2.75523E+01 -2.86628E+01 -2.47897E+01 -2.79066E+01
  -2.94459E+01 -2.73714E+01 -3.10119E+01 -3.09328E+01 -2.95984E+01 -3.01797E+01 -3.09029E+01 -2.96581E+01 -3.52775E+01 -3.06070E+01
  -3.42213E+01 -3.20548E+01 -3.21874E+01 -3.35170E+01 -3.53153E+01 -3.30077E+01 -3.70392E+01 -3.29253E+01 -3.45804E+01 -3.08886E+01
  -3.22980E+01 -3.21564E+01 -3.34362E+01 -2.99617E+01 -3.42147E+01 -2.99056E+01 -2.99998E+01 -2.54835E+01 -2.75191E+01 -2.84651E+01
  -2.74929E+01 -2.90293E+01 -2.81429E+01 -3.01116E+01 -2.83712E+01 -2.46425E+01 -2.88415E+01 -2.94430E+01 -2.62452E+01 -2.57752E+01
  -2.74375E+01 -2.64010E+01 -2.30521E+01 -2.13364E+01 -2.34852E+01 -2.24807E+01 -2.24374E+01 -1.86366E+01 -2.04009E+01 -2.40222E+01
  -2.28031E+01 -2.02587E+01 -2.13758E+01 -1.67700E+01 -1.75939E+01 -1.15499E+01 -1.74948E+01 -1.60296E+01 -1.55578E+01 -1.93613E+01
  -1.42511E+01 -2.02160E+01 -1.81493E+01 -1.69153E+01 -1.78561E+01 -1.69665E+01 -2.00928E+01 -1.39086E+01 -1.84202E+01 -1.37460E+01
  -1.10141E+01 -9.30680E+00 -1.38786E+01 -1.24577E+01 -1.40649E+01 -1.14735E+01 -1.15037E+01 -7.71164E+00 -1.59164E+01 -1.25794E+01
  -1.11154E+01 -1.03558E+01 -1.35591E+01 -1.11636E+01 -1.13521E+01 -1.02376E+01 -1.44911E+01 -1.12357E+01 -9.69471E+00 -1.14024E+01
  -1.20122E+01 -1.05405E+01 -1.20393E+01 -1.09677E+01 -8.26417E+00 -7.16183E+00 -9.48965E+00 -1.28620E+01 -7.80027E+00 -7.15133E+00
  -7.93529E+00 -7.93535E+00 -7.32152E+00 -8.58482E+00 -5.99154E+00 -8.91531E+00 -5.17364E+00 -1.14783E+01 -8.84365E+00 -5.62924E+00
  -6.41148E+00 -7.31687E+00 -3.40163E+00 -7.62295E+00 -6.99236E+00 -5.18644E+00 -6.18156E+00 -6.04801E+00 -1.31058E+00 -4.64009E+00
  -6.01397E+00 -6.04664E+00 -6.51231E+00 -3.47069E+00 -1.67819E-01 -3.36115E+00 -2.76287E+00 -3.62729E+00 -1.38797E+00 -2.11672E+00
  -2.90104E+00  7.70904E-01 -2.76049E+00 -2.93451E+00 -3.42946E+00 -3.80599E+00 -2.69396E+00 -3.85560E+00 -4.17833E+00 -2.44725E+00
   1.09616E+00 -3.76212E+00  8.35023E-01 -6.25159E-01 -1.23773E-01 -1.42810E+00  3.14050E-01  1.45297E+00
 NY points of the fit to the data follow
  -2.31429E+01 -2.28813E+01 -2.26048E+01 -2.23258E+01 -2.20215E+01 -2.17084E+01 -2.13514E+01 -2.10113E+01 -2.08201E+01 -2.05277E+01
  -2.04107E+01 -2.00793E+01 -1.99064E+01 -1.93321E+01 -1.87444E+01 -1.81147E+01 -1.74752E+01 -1.69775E+01 -1.63908E+01 -1.61185E+01
  -1.55572E+01 -1.52491E+01 -1.46320E+01 -1.43115E+01 -1.37074E+01 -1.34313E+01 -1.28588E+01 -1.26201E+01 -1.20309E+01 -1.17552E+01
  -1.11137E+01 -1.08636E+01 -1.03040E+01 -1.01200E+01 -9.68716E+00 -9.55404E+00 -9.22745E+00 -9.06081E+00 -8.79338E+00 -8.58136E+00
  -8.34975E+00 -8.06733E+00 -7.85583E+00 -7.47458E+00 -7.30372E+00 -6.84933E+00 -6.88091E+00 -6.43189E+00 -7.00136E+00 -6.68381E+00
  -7.35486E+00 -6.85645E+00 -7.22946E+00 -6.40873E+00 -6.04725E+00 -5.46509E+00 -5.20610E+00 -5.00718E+00 -4.90166E+00 -5.01923E+00
  -4.96865E+00 -4.94533E+00 -4.86240E+00 -4.80303E+00 -4.71586E+00 -4.62126E+00 -4.51403E+00 -4.31254E+00 -4.07920E+00 -3.83866E+00
  -3.52830E+00 -3.38344E+00 -3.10131E+00 -3.07265E+00 -2.79750E+00 -2.89780E+00 -2.62442E+00 -2.84873E+00 -2.55345E+00 -2.86986E+00
  -2.50804E+00 -2.88061E+00 -2.45897E+00 -2.89562E+00 -2.39931E+00 -2.84259E+00 -2.33774E+00 -2.83022E+00 -2.34842E+00 -2.88078E+00
  -2.45676E+00 -2.99140E+00 -2.65404E+00 -3.14207E+00 -2.84428E+00 -3.25397E+00 -3.03598E+00 -3.30719E+00 -3.23646E+00 -3.46023E+00
  -3.58277E+00 -3.72716E+00 -4.03432E+00 -4.04379E+00 -4.45673E+00 -4.31754E+00 -4.75880E+00 -4.46745E+00 -4.80280E+00 -4.57483E+00
  -4.94390E+00 -4.79301E+00 -5.15940E+00 -5.09006E+00 -5.44421E+00 -5.51242E+00 -5.86223E+00 -6.04870E+00 -6.33341E+00 -6.59887E+00
  -6.76950E+00 -7.07580E+00 -7.19842E+00 -7.45219E+00 -7.47601E+00 -7.54192E+00 -7.55461E+00 -7.62818E+00 -7.68035E+00 -7.76846E+00
  -7.84954E+00 -7.97682E+00 -8.09530E+00 -8.25928E+00 -8.41003E+00 -8.60419E+00 -8.78062E+00 -8.99627E+00 -9.19195E+00 -9.41952E+00
  -9.62842E+00 -9.86175E+00 -1.00943E+01 -1.03546E+01 -1.05817E+01 -1.08425E+01 -1.10258E+01 -1.12478E+01 -1.14077E+01 -1.15951E+01
  -1.17379E+01 -1.18968E+01 -1.20208E+01 -1.21514E+01 -1.22589E+01 -1.23641E+01 -1.24662E+01 -1.25630E+01 -1.26830E+01 -1.27577E+01
  -1.28518E+01 -1.28891E+01 -1.29633E+01 -1.29941E+01 -1.30469E+01 -1.30565E+01 -1.30721E+01 -1.30555E+01 -1.30415E+01 -1.30204E+01
  -1.29330E+01 -1.28816E+01 -1.27077E+01 -1.26153E+01 -1.23507E+01 -1.22260E+01 -1.19404E+01 -1.17914E+01 -1.15396E+01 -1.14159E+01
  -1.11681E+01 -1.10747E+01 -1.07872E+01 -1.05910E+01 -1.00151E+01 -9.57172E+00 -8.75699E+00 -7.99505E+00 -7.10988E+00 -6.27174E+00
  -5.49687E+00 -4.85848E+00 -4.70524E+00 -4.08054E+00 -4.03497E+00 -3.32529E+00 -3.25516E+00 -2.40560E+00 -2.25133E+00 -1.29156E+00
  -1.04208E+00 -2.93897E-02  2.78240E-01  1.24562E+00  1.62238E+00  2.52908E+00  2.98661E+00  3.80983E+00  4.35071E+00  5.14179E+00
   6.00864E+00  6.86876E+00  8.05599E+00  8.94378E+00  1.03188E+01  1.11202E+01  1.24236E+01  1.29456E+01  1.37913E+01  1.40509E+01
   1.48639E+01  1.52332E+01  1.64618E+01  1.75535E+01  1.95537E+01  2.09900E+01  2.32982E+01  2.47652E+01  2.69164E+01  2.78246E+01
   2.92440E+01  2.93255E+01  2.95866E+01  2.93977E+01  3.00054E+01  2.97927E+01  3.08332E+01  3.07050E+01  3.22221E+01  3.20189E+01
   3.39023E+01  3.36620E+01  3.68421E+01  3.69419E+01  4.06295E+01  4.08434E+01  4.47195E+01  4.50093E+01  4.88415E+01  4.92243E+01
   5.30224E+01  5.35061E+01  5.70458E+01  5.75512E+01  6.05010E+01  6.09436E+01  6.30862E+01  6.35066E+01  6.44800E+01  6.52641E+01
   6.56493E+01  6.70902E+01  6.69894E+01  6.89722E+01  6.82607E+01  6.97087E+01  6.82349E+01  6.90999E+01  6.68247E+01  6.71369E+01
   6.42721E+01  6.41665E+01  6.08922E+01  6.06143E+01  5.70878E+01  5.64771E+01  5.27437E+01  5.16636E+01  4.79699E+01  4.64608E+01
   4.36469E+01  4.23535E+01  4.17859E+01  4.14285E+01  4.10634E+01  4.06506E+01  4.01341E+01  3.94800E+01  3.86792E+01  3.77112E+01
   3.65847E+01  3.52908E+01  3.38506E+01  3.22759E+01  3.05881E+01  2.88166E+01  2.69791E+01  2.51072E+01  2.32148E+01  2.13345E+01
   1.94665E+01  1.76431E+01  1.58580E+01  1.41355E+01  1.24668E+01  1.08687E+01  9.32984E+00  7.86105E+00  6.45116E+00  5.10309E+00
   3.80820E+00  2.56429E+00  1.36744E+00  2.09193E-01 -9.09923E-01 -1.99883E+00 -3.05742E+00 -4.09250E+00 -5.10361E+00 -6.09604E+00
  -7.06931E+00 -8.02717E+00 -8.96944E+00 -9.89834E+00 -1.08142E+01 -1.17178E+01 -1.26098E+01 -1.34902E+01 -1.43593E+01 -1.52172E+01
  -1.60637E+01 -1.68989E+01 -1.77224E+01 -1.85340E+01 -1.93332E+01 -2.01196E+01 -2.08926E+01 -2.16513E+01 -2.23950E+01 -2.31226E+01
  -2.38329E+01 -2.45248E+01 -2.51966E+01 -2.58468E+01 -2.64735E+01 -2.70749E+01 -2.76487E+01 -2.81928E+01 -2.87049E+01 -2.91829E+01
  -2.96245E+01 -3.00278E+01 -3.03912E+01 -3.07132E+01 -3.09931E+01 -3.12307E+01 -3.14264E+01 -3.15814E+01 -3.16978E+01 -3.17783E+01
  -3.18263E+01 -3.18460E+01 -3.18420E+01 -3.18192E+01 -3.17825E+01 -3.17367E+01 -3.16865E+01 -3.16354E+01 -3.15865E+01 -3.15417E+01
  -3.15016E+01 -3.14657E+01 -3.14323E+01 -3.13982E+01 -3.13595E+01 -3.13118E+01 -3.12500E+01 -3.11685E+01 -3.10612E+01 -3.09224E+01
  -3.07463E+01 -3.05279E+01 -3.02626E+01 -2.99470E+01 -2.95784E+01 -2.91557E+01 -2.86785E+01 -2.81481E+01 -2.75668E+01 -2.69382E+01
  -2.62671E+01 -2.55592E+01 -2.48212E+01 -2.40604E+01 -2.32849E+01 -2.25030E+01 -2.17230E+01 -2.09534E+01 -2.02022E+01 -1.94770E+01
  -1.87847E+01 -1.81313E+01 -1.75217E+01 -1.69599E+01 -1.64486E+01 -1.59893E+01 -1.55826E+01 -1.52276E+01 -1.49226E+01 -1.46651E+01
  -1.44517E+01 -1.42785E+01 -1.41410E+01 -1.40347E+01 -1.39546E+01 -1.38961E+01 -1.38544E+01 -1.38251E+01 -1.38042E+01 -1.37877E+01
  -1.37725E+01 -1.37555E+01 -1.37343E+01 -1.37068E+01 -1.36714E+01 -1.36268E+01 -1.35720E+01 -1.35065E+01 -1.34299E+01 -1.33421E+01
  -1.32432E+01 -1.31333E+01 -1.30130E+01 -1.28827E+01 -1.27429E+01 -1.25944E+01 -1.24377E+01 -1.22732E+01 -1.21014E+01 -1.19228E+01
  -1.17378E+01 -1.15469E+01 -1.13504E+01 -1.11488E+01 -1.09426E+01 -1.07321E+01 -1.05177E+01 -1.02997E+01 -1.00786E+01 -9.85458E+00
  -9.62804E+00 -9.39923E+00 -9.16846E+00 -8.93596E+00 -8.70198E+00 -8.46678E+00 -8.23056E+00 -7.99354E+00 -7.75590E+00 -7.51785E+00
  -7.27954E+00 -7.04116E+00 -6.80286E+00 -6.56479E+00 -6.32708E+00 -6.08989E+00 -5.85330E+00 -5.61750E+00 -5.38255E+00 -5.14859E+00
  -4.91570E+00 -4.68402E+00 -4.45360E+00 -4.22459E+00 -3.99703E+00 -3.77104E+00 -3.54669E+00 -3.32408E+00 -3.10327E+00 -2.88437E+00
  -2.66744E+00 -2.45257E+00 -2.23984E+00 -2.02933E+00 -1.82113E+00 -1.61534E+00 -1.41203E+00 -1.21131E+00 -1.01327E+00 -8.18032E-01
  -6.25721E-01 -4.36468E-01 -2.50420E-01 -6.77523E-02  1.11322E-01  2.86558E-01  4.57655E-01  6.24254E-01
 NY background values follow
    -3.028E+01   -2.999E+01   -2.970E+01   -2.940E+01   -2.909E+01   -2.878E+01   -2.846E+01   -2.814E+01   -2.782E+01   -2.749E+01
    -2.716E+01   -2.682E+01   -2.648E+01   -2.614E+01   -2.580E+01   -2.545E+01   -2.510E+01   -2.475E+01   -2.440E+01   -2.405E+01
    -2.369E+01   -2.334E+01   -2.298E+01   -2.262E+01   -2.227E+01   -2.191E+01   -2.155E+01   -2.120E+01   -2.084E+01   -2.049E+01
    -2.014E+01   -1.978E+01   -1.944E+01   -1.909E+01   -1.875E+01   -1.840E+01   -1.807E+01   -1.773E+01   -1.740E+01   -1.707E+01
    -1.675E+01   -1.643E+01   -1.612E+01   -1.581E+01   -1.551E+01   -1.521E+01   -1.492E+01   -1.463E+01   -1.435E+01   -1.408E+01
    -1.382E+01   -1.356E+01   -1.331E+01   -1.306E+01   -1.283E+01   -1.261E+01   -1.239E+01   -1.218E+01   -1.198E+01   -1.180E+01
    -1.162E+01   -1.145E+01   -1.129E+01   -1.115E+01   -1.101E+01   -1.089E+01   -1.077E+01   -1.067E+01   -1.058E+01   -1.049E+01
    -1.042E+01   -1.035E+01   -1.029E+01   -1.025E+01   -1.021E+01   -1.018E+01   -1.016E+01   -1.014E+01   -1.014E+01   -1.014E+01
    -1.014E+01   -1.016E+01   -1.018E+01   -1.021E+01   -1.025E+01   -1.029E+01   -1.033E+01   -1.039E+01   -1.044E+01   -1.051E+01
    -1.057E+01   -1.065E+01   -1.072E+01   -1.080E+01   -1.089E+01   -1.097E+01   -1.107E+01   -1.116E+01   -1.126E+01   -1.136E+01
    -1.146E+01   -1.156E+01   -1.167E+01   -1.177E+01   -1.188E+01   -1.199E+01   -1.210E+01   -1.221E+01   -1.232E+01   -1.243E+01
    -1.254E+01   -1.265E+01   -1.276E+01   -1.286E+01   -1.297E+01   -1.307E+01   -1.317E+01   -1.327E+01   -1.337E+01   -1.346E+01
    -1.355E+01   -1.364E+01   -1.372E+01   -1.380E+01   -1.388E+01   -1.395E+01   -1.401E+01   -1.408E+01   -1.413E+01   -1.418E+01
    -1.423E+01   -1.427E+01   -1.430E+01   -1.434E+01   -1.436E+01   -1.438E+01   -1.439E+01   -1.440E+01   -1.440E+01   -1.440E+01
    -1.439E+01   -1.437E+01   -1.435E+01   -1.432E+01   -1.428E+01   -1.424E+01   -1.419E+01   -1.414E+01   -1.408E+01   -1.401E+01
    -1.393E+01   -1.385E+01   -1.376E+01   -1.366E+01   -1.356E+01   -1.345E+01   -1.333E+01   -1.320E+01   -1.307E+01   -1.292E+01
    -1.277E+01   -1.262E+01   -1.245E+01   -1.227E+01   -1.209E+01   -1.190E+01   -1.170E+01   -1.149E+01   -1.128E+01   -1.105E+01
    -1.082E+01   -1.057E+01   -1.032E+01   -1.006E+01   -9.793E+00   -9.514E+00   -9.226E+00   -8.928E+00   -8.621E+00   -8.305E+00
    -7.979E+00   -7.643E+00   -7.298E+00   -6.942E+00   -6.577E+00   -6.202E+00   -5.817E+00   -5.421E+00   -5.016E+00   -4.602E+00
    -4.179E+00   -3.747E+00   -3.307E+00   -2.861E+00   -2.407E+00   -1.947E+00   -1.481E+00   -1.010E+00   -5.344E-01   -5.435E-02
     4.295E-01    9.166E-01    1.406E+00    1.899E+00    2.392E+00    2.887E+00    3.383E+00    3.879E+00    4.375E+00    4.870E+00
     5.363E+00    5.855E+00    6.344E+00    6.831E+00    7.314E+00    7.794E+00    8.269E+00    8.739E+00    9.204E+00    9.663E+00
     1.012E+01    1.056E+01    1.100E+01    1.143E+01    1.185E+01    1.227E+01    1.267E+01    1.307E+01    1.345E+01    1.382E+01
     1.418E+01    1.453E+01    1.487E+01    1.520E+01    1.551E+01    1.581E+01    1.609E+01    1.636E+01    1.661E+01    1.685E+01
     1.708E+01    1.728E+01    1.747E+01    1.764E+01    1.779E+01    1.793E+01    1.805E+01    1.814E+01    1.822E+01    1.828E+01
     1.831E+01    1.833E+01    1.832E+01    1.830E+01    1.826E+01    1.819E+01    1.811E+01    1.801E+01    1.790E+01    1.776E+01
     1.761E+01    1.744E+01    1.725E+01    1.704E+01    1.682E+01    1.658E+01    1.632E+01    1.605E+01    1.577E+01    1.546E+01
     1.515E+01    1.481E+01    1.447E+01    1.410E+01    1.373E+01    1.334E+01    1.293E+01    1.252E+01    1.209E+01    1.164E+01
     1.119E+01    1.072E+01    1.024E+01    9.749E+00    9.246E+00    8.731E+00    8.206E+00    7.669E+00    7.123E+00    6.566E+00
     5.998E+00    5.422E+00    4.835E+00    4.240E+00    3.636E+00    3.023E+00    2.401E+00    1.771E+00    1.134E+00    4.888E-01
    -1.637E-01   -8.234E-01   -1.490E+00   -2.163E+00   -2.842E+00   -3.528E+00   -4.219E+00   -4.916E+00   -5.619E+00   -6.326E+00
    -7.038E+00   -7.755E+00   -8.476E+00   -9.200E+00   -9.928E+00   -1.066E+01   -1.139E+01   -1.213E+01   -1.286E+01   -1.360E+01
    -1.434E+01   -1.507E+01   -1.581E+01   -1.654E+01   -1.728E+01   -1.801E+01   -1.873E+01   -1.946E+01   -2.018E+01   -2.090E+01
    -2.161E+01   -2.232E+01   -2.302E+01   -2.372E+01   -2.441E+01   -2.509E+01   -2.577E+01   -2.644E+01   -2.710E+01   -2.775E+01
    -2.840E+01   -2.903E+01   -2.966E+01   -3.027E+01   -3.087E+01   -3.147E+01   -3.205E+01   -3.261E+01   -3.317E+01   -3.371E+01
    -3.425E+01   -3.476E+01   -3.527E+01   -3.575E+01   -3.623E+01   -3.669E+01   -3.713E+01   -3.756E+01   -3.797E+01   -3.837E+01
    -3.874E+01   -3.910E+01   -3.945E+01   -3.977E+01   -4.008E+01   -4.037E+01   -4.063E+01   -4.088E+01   -4.111E+01   -4.132E+01
    -4.151E+01   -4.168E+01   -4.183E+01   -4.195E+01   -4.206E+01   -4.214E+01   -4.220E+01   -4.225E+01   -4.227E+01   -4.227E+01
    -4.226E+01   -4.223E+01   -4.218E+01   -4.211E+01   -4.202E+01   -4.192E+01   -4.180E+01   -4.167E+01   -4.152E+01   -4.136E+01
    -4.118E+01   -4.099E+01   -4.078E+01   -4.057E+01   -4.033E+01   -4.009E+01   -3.984E+01   -3.957E+01   -3.929E+01   -3.901E+01
    -3.871E+01   -3.840E+01   -3.808E+01   -3.776E+01   -3.742E+01   -3.708E+01   -3.673E+01   -3.637E+01   -3.601E+01   -3.564E+01
    -3.526E+01   -3.488E+01   -3.449E+01   -3.409E+01   -3.370E+01   -3.329E+01   -3.289E+01   -3.248E+01   -3.206E+01   -3.165E+01
    -3.123E+01   -3.081E+01   -3.039E+01   -2.996E+01   -2.954E+01   -2.911E+01   -2.869E+01   -2.826E+01   -2.783E+01   -2.741E+01
    -2.698E+01   -2.656E+01   -2.614E+01   -2.572E+01   -2.530E+01   -2.488E+01   -2.447E+01   -2.406E+01   -2.365E+01   -2.325E+01
    -2.285E+01   -2.245E+01   -2.205E+01   -2.166E+01   -2.127E+01   -2.088E+01   -2.049E+01   -2.011E+01   -1.973E+01   -1.936E+01
    -1.898E+01   -1.861E+01   -1.824E+01   -1.788E+01   -1.752E+01   -1.716E+01   -1.680E+01   -1.645E+01   -1.610E+01   -1.575E+01
    -1.540E+01   -1.506E+01   -1.472E+01   -1.439E+01   -1.405E+01   -1.372E+01   -1.340E+01   -1.307E+01   -1.275E+01   -1.243E+01
    -1.212E+01   -1.181E+01   -1.150E+01   -1.119E+01   -1.089E+01   -1.059E+01   -1.029E+01   -9.994E+00   -9.702E+00   -9.414E+00
    -9.128E+00   -8.846E+00   -8.566E+00   -8.290E+00   -8.016E+00   -7.746E+00   -7.478E+00   -7.214E+00   -6.952E+00   -6.694E+00
    -6.438E+00   -6.186E+00   -5.936E+00   -5.689E+00   -5.446E+00   -5.205E+00   -4.968E+00   -4.733E+00
 Asp      Conc. = 1.46E+02
