 LCModel (Version 6.3-1L) Copyright: S.W. Provencher.          Ref.: Magn. Reson. Med. 30:672-679 (1993).                
 Slice#3 Row#3 Col#8  PD_24_press_1_raw_act
 36 lines in following concentration table = NCONC+1
    Conc.  %SD /Cr+PCr  Metabolite                                         
   39.800 238% 4.5E-02 Ala                                                 
   22.878 618% 2.6E-02 Asp                                                 
  690.811  27%   0.773 Cr                                                  
  202.707  91%   0.227 PCr                                                 
   52.444 172% 5.9E-02 GABA                                                
    0.000 999%   0.000 Glc                                                 
  484.048  42%   0.542 Gln                                                 
 1.13E+03  21%   1.270 Glu                                                 
  277.979   6%   0.311 GPC                                                 
    0.000 999%   0.000 PCh                                                 
  304.666  20%   0.341 GSH                                                 
   60.200 332% 6.7E-02 Ins                                                 
   10.323 999% 1.2E-02 Lac                                                 
  862.966  10%   0.966 NAA                                                 
  293.501  33%   0.328 NAAG                                                
    0.000 999%   0.000 Scyllo                                              
    0.000 999%   0.000 Tau                                                 
    0.000 999%   0.000 -CrCH2                                              
  277.979   6%   0.311 GPC+PCh                                             
 1.16E+03   6%   1.294 NAA+NAAG                                            
  893.518   5%   1.000 Cr+PCr                                              
 1.62E+03  21%   1.812 Glu+Gln                                             
 2.78E+03  20%   3.107 Lip13a                                              
  240.730  78%   0.269 Lip13b                                              
    0.000 999%   0.000 Lip09                                               
 1.16E+03  16%   1.295 MM09                                                
  520.874  54%   0.583 Lip20                                               
 2.30E+03  15%   2.573 MM20                                                
  361.405  34%   0.404 MM12                                                
  645.016  55%   0.722 MM14                                                
  456.804  42%   0.511 MM17                                                
 3.02E+03  18%   3.377 Lip13a+Lip13b                                       
 4.02E+03  11%   4.503 MM14+Lip13a+Lip13b+MM12                             
 1.16E+03  16%   1.295 MM09+Lip09                                          
 2.82E+03  12%   3.156 MM20+Lip20                                          
   6 lines in following misc. output table
  FWHM = 0.054 ppm    S/N =   7                                            
  Data shift =-0.023 ppm                                                   
  Ph:  15 deg      -1.7 deg/ppm                                            
  alphaB,S = 2.1E+00,   1.2E+02                                            
   14 spline knots.   Ns = 7(1)                                            
  ( 5) 2 infls.   ( 3) 1 extrs.                                            
  498 points on ppm-axis = NY
      4.000000     3.992357     3.984714     3.977070     3.969427     3.961784     3.954141     3.946497     3.938854     3.931211
      3.923568     3.915925     3.908281     3.900638     3.892995     3.885352     3.877708     3.870065     3.862422     3.854779
      3.847136     3.839492     3.831849     3.824206     3.816563     3.808919     3.801276     3.793633     3.785990     3.778347
      3.770703     3.763060     3.755417     3.747774     3.740130     3.732487     3.724844     3.717201     3.709558     3.701914
      3.694271     3.686628     3.678985     3.671341     3.663698     3.656055     3.648412     3.640769     3.633125     3.625482
      3.617839     3.610196     3.602552     3.594909     3.587266     3.579623     3.571980     3.564336     3.556693     3.549050
      3.541407     3.533763     3.526120     3.518477     3.510834     3.503191     3.495547     3.487904     3.480261     3.472618
      3.464974     3.457331     3.449688     3.442045     3.434402     3.426758     3.419115     3.411472     3.403829     3.396185
      3.388542     3.380899     3.373256     3.365613     3.357969     3.350326     3.342683     3.335040     3.327396     3.319753
      3.312110     3.304467     3.296824     3.289180     3.281537     3.273894     3.266251     3.258607     3.250964     3.243321
      3.235678     3.228034     3.220391     3.212748     3.205105     3.197462     3.189818     3.182175     3.174532     3.166889
      3.159245     3.151602     3.143959     3.136316     3.128673     3.121029     3.113386     3.105743     3.098100     3.090456
      3.082813     3.075170     3.067527     3.059884     3.052240     3.044597     3.036954     3.029311     3.021667     3.014024
      3.006381     2.998738     2.991095     2.983451     2.975808     2.968165     2.960522     2.952878     2.945235     2.937592
      2.929949     2.922306     2.914662     2.907019     2.899376     2.891733     2.884089     2.876446     2.868803     2.861160
      2.853517     2.845873     2.838230     2.830587     2.822944     2.815300     2.807657     2.800014     2.792371     2.784728
      2.777084     2.769441     2.761798     2.754155     2.746511     2.738868     2.731225     2.723582     2.715939     2.708295
      2.700652     2.693009     2.685366     2.677722     2.670079     2.662436     2.654793     2.647150     2.639506     2.631863
      2.624220     2.616577     2.608933     2.601290     2.593647     2.586004     2.578361     2.570717     2.563074     2.555431
      2.547788     2.540144     2.532501     2.524858     2.517215     2.509572     2.501928     2.494285     2.486642     2.478999
      2.471355     2.463712     2.456069     2.448426     2.440783     2.433139     2.425496     2.417853     2.410210     2.402566
      2.394923     2.387280     2.379637     2.371994     2.364350     2.356707     2.349064     2.341421     2.333777     2.326134
      2.318491     2.310848     2.303205     2.295561     2.287918     2.280275     2.272632     2.264988     2.257345     2.249702
      2.242059     2.234416     2.226772     2.219129     2.211486     2.203843     2.196199     2.188556     2.180913     2.173270
      2.165627     2.157983     2.150340     2.142697     2.135054     2.127410     2.119767     2.112124     2.104481     2.096838
      2.089194     2.081551     2.073908     2.066265     2.058621     2.050978     2.043335     2.035692     2.028049     2.020405
      2.012762     2.005119     1.997476     1.989833     1.982190     1.974546     1.966903     1.959260     1.951617     1.943974
      1.936331     1.928688     1.921045     1.913402     1.905759     1.898115     1.890472     1.882829     1.875186     1.867543
      1.859900     1.852257     1.844614     1.836971     1.829327     1.821684     1.814041     1.806398     1.798755     1.791112
      1.783469     1.775826     1.768183     1.760540     1.752896     1.745253     1.737610     1.729967     1.722324     1.714681
      1.707038     1.699395     1.691752     1.684108     1.676465     1.668822     1.661179     1.653536     1.645893     1.638250
      1.630607     1.622964     1.615321     1.607677     1.600034     1.592391     1.584748     1.577105     1.569462     1.561819
      1.554176     1.546533     1.538890     1.531246     1.523603     1.515960     1.508317     1.500674     1.493031     1.485388
      1.477745     1.470102     1.462458     1.454815     1.447172     1.439529     1.431886     1.424243     1.416600     1.408957
      1.401314     1.393671     1.386027     1.378384     1.370741     1.363098     1.355455     1.347812     1.340169     1.332526
      1.324883     1.317240     1.309596     1.301953     1.294310     1.286667     1.279024     1.271381     1.263738     1.256095
      1.248452     1.240808     1.233165     1.225522     1.217879     1.210236     1.202593     1.194950     1.187307     1.179664
      1.172021     1.164377     1.156734     1.149091     1.141448     1.133805     1.126162     1.118519     1.110876     1.103233
      1.095590     1.087946     1.080303     1.072660     1.065017     1.057374     1.049731     1.042088     1.034445     1.026802
      1.019158     1.011515     1.003872     0.996229     0.988586     0.980943     0.973300     0.965657     0.958014     0.950371
      0.942727     0.935084     0.927441     0.919798     0.912155     0.904512     0.896869     0.889226     0.881583     0.873940
      0.866296     0.858653     0.851010     0.843367     0.835724     0.828081     0.820438     0.812795     0.805152     0.797508
      0.789865     0.782222     0.774579     0.766936     0.759293     0.751650     0.744007     0.736364     0.728721     0.721077
      0.713434     0.705791     0.698148     0.690505     0.682862     0.675219     0.667576     0.659933     0.652290     0.644646
      0.637003     0.629360     0.621717     0.614074     0.606431     0.598788     0.591145     0.583502     0.575858     0.568215
      0.560572     0.552929     0.545286     0.537643     0.530000     0.522357     0.514714     0.507071     0.499427     0.491784
      0.484141     0.476498     0.468855     0.461212     0.453569     0.445925     0.438282     0.430639     0.422996     0.415353
      0.407710     0.400067     0.392424     0.384780     0.377137     0.369494     0.361851     0.354208     0.346565     0.338922
      0.331278     0.323635     0.315992     0.308349     0.300706     0.293063     0.285420     0.277777     0.270133     0.262490
      0.254847     0.247204     0.239561     0.231918     0.224275     0.216631     0.208988     0.201345
 NY phased data points follow
   2.50254E+01  3.10208E+01  2.91598E+01  3.02932E+01  3.25299E+01  3.75028E+01  3.38628E+01  3.62085E+01  3.87147E+01  4.51817E+01
   4.50006E+01  4.71040E+01  4.41393E+01  4.20504E+01  3.46105E+01  3.32741E+01  2.72179E+01  3.18980E+01  2.65349E+01  2.56301E+01
   2.29667E+01  2.67697E+01  2.42657E+01  2.62008E+01  2.42092E+01  2.64956E+01  2.08606E+01  2.92827E+01  2.42604E+01  2.43312E+01
   2.62760E+01  3.12656E+01  3.10875E+01  2.50012E+01  2.50450E+01  2.04194E+01  2.36919E+01  2.03839E+01  1.88174E+01  2.15723E+01
   1.83500E+01  2.56333E+01  2.28760E+01  2.04380E+01  2.37529E+01  2.21931E+01  2.35868E+01  2.21032E+01  2.06727E+01  2.12947E+01
   1.88838E+01  1.38342E+01  1.82660E+01  2.25675E+01  1.39104E+01  1.59347E+01  1.66278E+01  1.93945E+01  1.96016E+01  1.27117E+01
   1.30363E+01  1.32066E+01  7.54865E+00  1.29861E+01  7.13251E+00  7.06216E+00  1.02914E+01  7.65421E+00  7.26827E+00  9.57698E+00
   4.10910E+00  6.71835E+00  5.11164E+00  9.52491E+00  4.74659E+00  1.23840E+01  1.13883E+01  8.42192E+00  4.37178E+00  7.08217E+00
   7.29857E+00  6.33842E+00  9.56979E+00  9.28466E+00  9.19890E+00  7.39187E+00  4.28097E+00  1.17838E+01  9.04032E+00  7.37104E+00
   5.62371E+00  1.10535E+01  8.42384E+00  7.47497E+00  8.88888E+00  8.04020E+00  1.38626E+01  7.42775E+00  1.16988E+01  1.84389E+01
   2.25084E+01  2.93452E+01  3.13227E+01  3.01918E+01  3.18241E+01  3.09131E+01  2.61326E+01  1.69016E+01  1.62399E+01  6.95588E+00
   1.26713E+01  1.36520E+01  1.02546E+01  1.25427E+01  8.41189E+00  8.91874E+00  1.10111E+01  9.15607E+00  8.63381E+00  9.46785E+00
   1.35586E+01  1.25621E+01  1.52035E+01  1.87021E+01  2.08521E+01  2.65837E+01  3.39929E+01  3.41398E+01  3.15699E+01  2.68376E+01
   2.44659E+01  1.74641E+01  1.18254E+01  1.71984E+01  7.88888E+00  3.55304E+00  3.82519E+00  8.85917E+00  3.15494E+00  2.81952E+00
   2.50555E+00  7.10881E+00  2.72722E+00  4.40318E+00  2.53756E+00  3.32327E+00  9.24088E-01  6.22987E+00  4.11245E+00 -2.64795E+00
   6.41364E+00  1.22571E+00  1.52705E-01  1.22207E+00  3.42504E+00  3.54272E+00  2.48591E+00  2.02688E-01  1.15959E+00 -7.99774E-01
   2.83671E+00  1.19307E+00 -1.99175E+00  1.50650E+00  4.09853E+00  3.78341E-01 -3.47796E+00 -1.80330E+00 -2.36511E+00 -6.18544E+00
  -5.12653E+00 -6.36311E+00 -4.09353E+00 -2.51717E+00 -6.74172E+00 -8.41866E+00 -1.94554E+00 -4.64290E+00 -7.59977E+00 -4.06626E-01
  -5.15634E+00 -4.61059E+00 -6.65953E+00 -5.35139E+00 -2.15706E+00 -3.81708E+00 -1.76757E+00  5.28457E-02 -7.82196E+00 -1.99929E+00
   7.28810E-01  1.30894E+00  5.32425E+00 -4.41234E+00 -3.47484E+00 -2.35109E+00 -6.46490E-01 -4.29058E-01 -5.71174E-01 -1.57838E+00
   3.57968E-01 -1.25626E+00 -1.78420E+00 -1.36222E+00  1.57076E+00  9.88806E-01 -4.88557E+00 -4.67217E+00 -8.56238E-01 -4.33183E+00
  -2.37281E+00 -1.70387E+00 -2.22475E+00 -1.67515E+00  3.02606E+00  7.69269E+00  2.37926E+00  1.93769E+00 -1.87098E+00 -2.87167E+00
  -5.54544E+00 -3.50672E+00 -2.05307E+00 -4.63440E+00 -3.51193E-02  1.21395E+00  3.67884E+00  5.59017E+00  3.12778E+00  4.04320E+00
   5.03621E+00  2.26689E+00 -5.44607E+00 -2.15285E+00  1.79312E+00  2.44396E-01  4.88282E+00  5.90442E+00  1.63957E+00  9.22069E-01
   3.14176E+00 -8.16865E-01  2.31091E+00  2.11474E+00  5.71666E+00  4.79885E+00  5.31906E+00  7.80716E+00  7.68888E+00  5.61063E+00
   3.10763E+00  1.20104E+01  1.71978E+01  1.63967E+01  1.46178E+01  2.31888E+01  2.62322E+01  3.05294E+01  3.50567E+01  3.38043E+01
   3.69922E+01  4.06900E+01  3.02595E+01  1.93092E+01  1.10339E+01  7.96278E+00  4.68796E+00  6.68852E+00  3.18621E+00  3.04888E+00
   5.86161E+00  8.91288E-01  2.98425E+00 -1.40415E+00 -6.80143E-01  3.96306E-01 -7.52160E-01 -2.70077E+00 -9.93657E-01 -3.75646E-01
  -1.42544E+00  5.08067E-01  1.34405E+00 -4.00118E-01 -3.13568E+00 -3.94463E+00 -5.14670E+00 -3.90159E+00 -2.01171E+00 -2.06848E+00
  -3.12739E+00 -2.34913E+00 -3.45978E+00  7.42541E-01 -3.20322E+00 -2.91925E+00  8.89713E-01 -2.73699E+00 -1.66225E+00 -1.95035E+00
  -4.59109E+00 -2.97381E+00 -4.21265E+00 -1.57546E+00 -4.36465E+00  1.39485E+00 -1.96910E+00 -3.51979E+00 -2.05022E+00 -1.47482E+00
  -4.00366E+00 -6.67502E-01 -5.37221E+00 -1.80986E-01 -4.22588E+00 -4.53644E+00 -2.58838E+00 -7.60446E-01 -5.07405E+00 -6.59321E+00
  -4.58427E+00 -4.23258E+00 -4.12455E+00 -1.08302E+01 -3.67533E+00 -7.45846E+00 -2.16132E+00 -2.11086E-01 -3.83525E+00 -1.50017E+00
   8.21056E-01 -5.59167E+00 -5.78064E+00 -3.07882E+00  3.07162E+00  2.52186E+00  4.00718E+00  3.40431E+00 -3.30559E-02  2.23838E+00
   6.66771E+00  5.63247E+00  6.54757E+00  5.66899E+00  4.62140E+00  5.18728E+00  1.07558E+01  7.58701E+00  4.47536E+00  7.45619E+00
   7.72065E+00  8.67987E+00  1.27433E+01  1.66123E+01  1.61338E+01  1.38534E+01  1.47839E+01  9.18733E+00  8.61658E+00  1.02058E+01
   7.98925E+00  9.20886E+00  8.45773E+00  4.87502E+00  1.06370E+01  5.39258E+00  6.54097E+00  1.02758E+01  2.53662E+00  3.06920E+00
  -2.39868E+00 -2.74069E-02  3.77984E+00  3.56677E+00 -4.09438E-01 -3.23601E+00  1.06578E+00  3.49446E+00 -4.54361E+00  1.60777E+00
   2.33902E+00  2.67461E+00 -2.17484E-01 -9.49652E-01 -2.03431E+00 -5.10526E-01  3.23829E+00 -1.20516E+00 -1.61438E+00  1.32904E+00
  -2.10408E-01 -2.78270E+00  1.72370E+00 -3.28400E+00  3.22317E-01  1.13256E+00  2.57396E+00 -2.16696E-01 -3.26611E-01  2.36979E+00
   6.66732E+00  2.43304E+00 -1.07095E+00  2.00486E+00 -1.95338E+00 -4.01798E-01 -3.47936E+00  2.93506E+00  1.10357E+00  7.36808E-01
  -3.03869E+00 -1.96440E+00  7.14947E-01 -7.68545E-01 -6.04998E+00 -1.68511E+00 -1.87767E+00 -5.01454E+00  3.63758E-01 -6.23544E+00
  -5.95054E+00 -4.10927E+00 -2.69169E+00 -3.39966E+00 -5.78118E+00 -3.79546E+00 -5.85584E+00 -3.28335E+00 -3.58602E+00 -3.78634E+00
  -2.97141E+00 -3.53543E+00 -3.43632E+00 -4.06904E-01  9.00315E-01 -1.88420E+00 -4.03752E+00 -4.72710E+00 -1.70391E+00 -1.50591E+00
  -5.20655E+00 -7.75585E+00 -5.98360E+00 -3.65051E+00 -3.57019E+00 -5.11105E+00 -7.71270E+00 -5.33480E+00 -6.98011E+00 -9.23356E+00
  -9.78671E+00 -7.59662E+00 -7.76082E+00 -6.58297E+00 -6.65551E+00 -8.77460E+00 -5.07849E+00 -9.08153E+00 -4.33496E+00 -6.35348E+00
  -4.05243E+00 -7.21672E+00 -9.78886E+00 -9.52035E+00 -9.60687E+00 -9.15103E+00 -6.20895E+00 -4.47361E+00 -1.06690E+01 -1.53409E+01
  -9.76199E+00 -7.39248E+00 -5.33619E+00 -1.05872E+01 -2.89521E+00 -1.15757E+01 -4.39892E+00 -7.41774E+00 -4.50535E+00 -8.98605E+00
  -6.01888E+00 -9.63632E+00 -8.85423E+00 -8.29283E+00 -7.28443E+00 -6.03908E+00 -6.47143E+00 -5.83936E+00 -8.31645E+00 -4.50654E+00
  -5.77397E+00 -7.55827E+00 -6.87390E+00 -4.22331E+00 -1.12360E+01 -9.63725E+00 -6.73185E+00 -5.02851E+00
 NY points of the fit to the data follow
   2.68373E+01  2.69331E+01  2.73319E+01  2.81182E+01  2.96014E+01  3.18271E+01  3.44827E+01  3.73536E+01  4.01603E+01  4.25053E+01
   4.38965E+01  4.38769E+01  4.22431E+01  3.92592E+01  3.56678E+01  3.23483E+01  2.98241E+01  2.80702E+01  2.67787E+01  2.56884E+01
   2.48786E+01  2.42899E+01  2.37327E+01  2.33450E+01  2.31974E+01  2.33251E+01  2.38260E+01  2.47602E+01  2.60689E+01  2.75526E+01
   2.88010E+01  2.92533E+01  2.85673E+01  2.68565E+01  2.46036E+01  2.24106E+01  2.06832E+01  1.95806E+01  1.91038E+01  1.92079E+01
   1.96113E+01  1.99442E+01  2.00408E+01  1.99446E+01  1.97593E+01  1.95326E+01  1.92433E+01  1.88549E+01  1.84375E+01  1.80646E+01
   1.77039E+01  1.73399E+01  1.69905E+01  1.66413E+01  1.62505E+01  1.58528E+01  1.55065E+01  1.51935E+01  1.48755E+01  1.45590E+01
   1.42642E+01  1.39827E+01  1.37057E+01  1.34309E+01  1.31708E+01  1.29385E+01  1.27312E+01  1.25415E+01  1.23627E+01  1.21898E+01
   1.20178E+01  1.18436E+01  1.16645E+01  1.14799E+01  1.12904E+01  1.10992E+01  1.09110E+01  1.07286E+01  1.05520E+01  1.03779E+01
   1.02027E+01  1.00258E+01  9.84599E+00  9.66400E+00  9.48150E+00  9.30126E+00  9.12789E+00  8.96832E+00  8.82959E+00  8.71744E+00
   8.63196E+00  8.56810E+00  8.52273E+00  8.50225E+00  8.53528E+00  8.73954E+00  9.67758E+00  1.19157E+01  1.50118E+01  1.87365E+01
   2.29005E+01  2.71380E+01  3.08106E+01  3.30244E+01  3.28689E+01  2.99625E+01  2.49909E+01  1.95464E+01  1.51178E+01  1.21569E+01
   1.00963E+01  8.32252E+00  7.06584E+00  6.61862E+00  6.47056E+00  6.40297E+00  6.37851E+00  6.40422E+00  6.54246E+00  7.08827E+00
   8.86963E+00  1.18768E+01  1.56859E+01  2.01152E+01  2.48738E+01  2.94258E+01  3.29568E+01  3.44734E+01  3.31465E+01  2.90248E+01
   2.33682E+01  1.79300E+01  1.37957E+01  1.08512E+01  8.32552E+00  6.05252E+00  4.64159E+00  4.04752E+00  3.91171E+00  4.09782E+00
   4.42505E+00  4.69754E+00  4.81158E+00  4.75195E+00  4.52711E+00  4.20043E+00  3.84978E+00  3.49733E+00  3.14499E+00  2.80412E+00
   2.47830E+00  2.19427E+00  1.95234E+00  1.73826E+00  1.53066E+00  1.34014E+00  1.16824E+00  1.00294E+00  8.33214E-01  6.17835E-01
   3.63336E-01  1.26870E-01 -4.19845E-02 -1.54698E-01 -2.68958E-01 -4.51439E-01 -7.34124E-01 -1.07282E+00 -1.39318E+00 -1.67688E+00
  -1.92719E+00 -2.13918E+00 -2.34338E+00 -2.55644E+00 -2.78579E+00 -3.01504E+00 -3.19080E+00 -3.26018E+00 -3.25916E+00 -3.28407E+00
  -3.39471E+00 -3.53510E+00 -3.59962E+00 -3.50828E+00 -3.26394E+00 -2.92021E+00 -2.49388E+00 -1.97721E+00 -1.37659E+00 -7.89242E-01
  -3.96331E-01 -3.70121E-01 -7.12444E-01 -1.29377E+00 -1.95137E+00 -2.50814E+00 -2.80362E+00 -2.72056E+00 -2.23275E+00 -1.41385E+00
  -4.43344E-01  4.76952E-01  1.03921E+00  9.78286E-01  3.27018E-01 -7.53899E-01 -2.12021E+00 -3.53041E+00 -4.57703E+00 -4.85991E+00
  -4.32062E+00 -3.00131E+00 -1.14826E+00  7.75416E-01  2.19688E+00  2.61235E+00  1.88771E+00  2.99368E-01 -1.78677E+00 -3.88080E+00
  -5.37562E+00 -5.93065E+00 -5.52599E+00 -4.28073E+00 -2.45392E+00 -5.02338E-01  9.91744E-01  1.80372E+00  2.06531E+00  2.02070E+00
   1.86371E+00  1.70324E+00  1.67932E+00  1.91728E+00  2.39346E+00  2.90237E+00  3.24418E+00  3.38384E+00  3.35215E+00  3.16601E+00
   2.84883E+00  2.53675E+00  2.41036E+00  2.58147E+00  3.03505E+00  3.64599E+00  4.30573E+00  4.92948E+00  5.55505E+00  6.49516E+00
   7.81474E+00  9.43635E+00  1.14735E+01  1.46344E+01  1.88741E+01  2.33679E+01  2.76659E+01  3.14242E+01  3.43092E+01  3.60404E+01
   3.61746E+01  3.40577E+01  2.93802E+01  2.29066E+01  1.64211E+01  1.14832E+01  8.12634E+00  5.48251E+00  3.14933E+00  1.63745E+00
   9.34619E-01  5.07277E-01  2.23969E-01  2.31764E-02 -1.86544E-01 -4.48503E-01 -7.66768E-01 -1.12049E+00 -1.47111E+00 -1.78476E+00
  -2.05063E+00 -2.26878E+00 -2.43567E+00 -2.55445E+00 -2.64023E+00 -2.70519E+00 -2.75615E+00 -2.79027E+00 -2.80186E+00 -2.79006E+00
  -2.75500E+00 -2.69801E+00 -2.62529E+00 -2.54702E+00 -2.47476E+00 -2.41349E+00 -2.36402E+00 -2.32499E+00 -2.29403E+00 -2.27175E+00
  -2.25933E+00 -2.25544E+00 -2.26284E+00 -2.28720E+00 -2.33180E+00 -2.39585E+00 -2.47565E+00 -2.56776E+00 -2.66982E+00 -2.77722E+00
  -2.88526E+00 -2.98979E+00 -3.08654E+00 -3.17182E+00 -3.24213E+00 -3.29402E+00 -3.32420E+00 -3.32937E+00 -3.30572E+00 -3.24687E+00
  -3.14283E+00 -3.00488E+00 -2.85070E+00 -2.68623E+00 -2.52022E+00 -2.36493E+00 -2.23453E+00 -2.13904E+00 -2.05836E+00 -1.94673E+00
  -1.76349E+00 -1.47545E+00 -1.07729E+00 -5.90835E-01 -4.56572E-02  5.37273E-01  1.13646E+00  1.70953E+00  2.23048E+00  2.71843E+00
   3.21231E+00  3.73695E+00  4.29089E+00  4.86597E+00  5.47217E+00  6.12251E+00  6.81107E+00  7.53144E+00  8.28175E+00  9.05547E+00
   9.83699E+00  1.05997E+01  1.13018E+01  1.18911E+01  1.23157E+01  1.25364E+01  1.25309E+01  1.22917E+01  1.18345E+01  1.12001E+01
   1.04407E+01  9.60572E+00  8.73465E+00  7.85838E+00  7.00351E+00  6.18550E+00  5.40971E+00  4.67741E+00  3.98773E+00  3.33919E+00
   2.73076E+00  2.16226E+00  1.63436E+00  1.14829E+00  7.05510E-01  3.07510E-01 -4.44198E-02 -3.49297E-01 -6.06515E-01 -8.15872E-01
  -9.77522E-01 -1.09194E+00 -1.15989E+00 -1.18252E+00 -1.16134E+00 -1.09835E+00 -9.96025E-01 -8.57411E-01 -6.86166E-01 -4.86656E-01
  -2.63994E-01 -2.40190E-02  2.26782E-01  4.81376E-01  7.32314E-01  9.71895E-01  1.19239E+00  1.38636E+00  1.54687E+00  1.66786E+00
   1.74429E+00  1.77238E+00  1.74973E+00  1.67550E+00  1.55038E+00  1.37653E+00  1.15747E+00  8.97802E-01  6.03081E-01  2.79505E-01
  -6.63387E-02 -4.27784E-01 -7.98350E-01 -1.17197E+00 -1.54313E+00 -1.90699E+00 -2.25951E+00 -2.59745E+00 -2.91838E+00 -3.22068E+00
  -3.50336E+00 -3.76603E+00 -4.00882E+00 -4.23223E+00 -4.43713E+00 -4.62459E+00 -4.79578E+00 -4.95196E+00 -5.09439E+00 -5.22434E+00
  -5.34303E+00 -5.45162E+00 -5.55115E+00 -5.64254E+00 -5.72669E+00 -5.80438E+00 -5.87633E+00 -5.94315E+00 -6.00538E+00 -6.06348E+00
  -6.11790E+00 -6.16903E+00 -6.21720E+00 -6.26270E+00 -6.30577E+00 -6.34665E+00 -6.38554E+00 -6.42264E+00 -6.45812E+00 -6.49211E+00
  -6.52471E+00 -6.55606E+00 -6.58626E+00 -6.61542E+00 -6.64362E+00 -6.67091E+00 -6.69735E+00 -6.72300E+00 -6.74796E+00 -6.77225E+00
  -6.79593E+00 -6.81900E+00 -6.84151E+00 -6.86351E+00 -6.88504E+00 -6.90612E+00 -6.92677E+00 -6.94699E+00 -6.96683E+00 -6.98631E+00
  -7.00546E+00 -7.02428E+00 -7.04277E+00 -7.06095E+00 -7.07883E+00 -7.09646E+00 -7.11382E+00 -7.13093E+00 -7.14778E+00 -7.16438E+00
  -7.18076E+00 -7.19693E+00 -7.21289E+00 -7.22863E+00 -7.24415E+00 -7.25947E+00 -7.27461E+00 -7.28957E+00 -7.30434E+00 -7.31891E+00
  -7.33329E+00 -7.34750E+00 -7.36155E+00 -7.37544E+00 -7.38914E+00 -7.40266E+00 -7.41601E+00 -7.42921E+00
 NY background values follow
     2.542E+01    2.522E+01    2.501E+01    2.480E+01    2.460E+01    2.439E+01    2.418E+01    2.398E+01    2.377E+01    2.356E+01
     2.336E+01    2.315E+01    2.294E+01    2.274E+01    2.253E+01    2.232E+01    2.212E+01    2.191E+01    2.170E+01    2.150E+01
     2.129E+01    2.109E+01    2.088E+01    2.068E+01    2.047E+01    2.027E+01    2.006E+01    1.986E+01    1.965E+01    1.945E+01
     1.925E+01    1.904E+01    1.884E+01    1.864E+01    1.844E+01    1.823E+01    1.803E+01    1.783E+01    1.763E+01    1.743E+01
     1.723E+01    1.703E+01    1.683E+01    1.664E+01    1.644E+01    1.624E+01    1.604E+01    1.585E+01    1.565E+01    1.546E+01
     1.526E+01    1.507E+01    1.488E+01    1.468E+01    1.449E+01    1.430E+01    1.411E+01    1.392E+01    1.373E+01    1.355E+01
     1.336E+01    1.317E+01    1.299E+01    1.280E+01    1.262E+01    1.243E+01    1.225E+01    1.207E+01    1.189E+01    1.171E+01
     1.153E+01    1.135E+01    1.117E+01    1.100E+01    1.082E+01    1.065E+01    1.047E+01    1.030E+01    1.013E+01    9.958E+00
     9.789E+00    9.620E+00    9.453E+00    9.286E+00    9.121E+00    8.957E+00    8.794E+00    8.632E+00    8.471E+00    8.311E+00
     8.153E+00    7.995E+00    7.839E+00    7.684E+00    7.530E+00    7.377E+00    7.226E+00    7.075E+00    6.926E+00    6.778E+00
     6.631E+00    6.485E+00    6.340E+00    6.197E+00    6.054E+00    5.913E+00    5.772E+00    5.633E+00    5.495E+00    5.357E+00
     5.221E+00    5.086E+00    4.952E+00    4.819E+00    4.687E+00    4.556E+00    4.426E+00    4.298E+00    4.170E+00    4.043E+00
     3.917E+00    3.792E+00    3.668E+00    3.545E+00    3.423E+00    3.302E+00    3.182E+00    3.063E+00    2.945E+00    2.828E+00
     2.712E+00    2.596E+00    2.482E+00    2.368E+00    2.256E+00    2.144E+00    2.033E+00    1.924E+00    1.815E+00    1.706E+00
     1.599E+00    1.493E+00    1.387E+00    1.283E+00    1.179E+00    1.076E+00    9.746E-01    8.736E-01    7.735E-01    6.744E-01
     5.761E-01    4.787E-01    3.822E-01    2.866E-01    1.919E-01    9.812E-02    5.223E-03   -8.677E-02   -1.779E-01   -2.681E-01
    -3.574E-01   -4.458E-01   -5.332E-01   -6.198E-01   -7.055E-01   -7.903E-01   -8.742E-01   -9.572E-01   -1.039E+00   -1.120E+00
    -1.201E+00   -1.280E+00   -1.358E+00   -1.436E+00   -1.513E+00   -1.588E+00   -1.663E+00   -1.737E+00   -1.810E+00   -1.882E+00
    -1.953E+00   -2.024E+00   -2.093E+00   -2.162E+00   -2.229E+00   -2.296E+00   -2.362E+00   -2.427E+00   -2.491E+00   -2.554E+00
    -2.617E+00   -2.679E+00   -2.740E+00   -2.800E+00   -2.859E+00   -2.918E+00   -2.976E+00   -3.033E+00   -3.089E+00   -3.145E+00
    -3.200E+00   -3.255E+00   -3.308E+00   -3.362E+00   -3.414E+00   -3.466E+00   -3.517E+00   -3.568E+00   -3.618E+00   -3.667E+00
    -3.716E+00   -3.764E+00   -3.812E+00   -3.859E+00   -3.905E+00   -3.952E+00   -3.997E+00   -4.042E+00   -4.087E+00   -4.131E+00
    -4.175E+00   -4.218E+00   -4.261E+00   -4.303E+00   -4.345E+00   -4.387E+00   -4.428E+00   -4.469E+00   -4.510E+00   -4.550E+00
    -4.590E+00   -4.629E+00   -4.668E+00   -4.707E+00   -4.745E+00   -4.783E+00   -4.821E+00   -4.858E+00   -4.895E+00   -4.931E+00
    -4.967E+00   -5.003E+00   -5.039E+00   -5.074E+00   -5.109E+00   -5.143E+00   -5.178E+00   -5.212E+00   -5.245E+00   -5.278E+00
    -5.311E+00   -5.344E+00   -5.376E+00   -5.408E+00   -5.440E+00   -5.471E+00   -5.502E+00   -5.532E+00   -5.563E+00   -5.593E+00
    -5.623E+00   -5.652E+00   -5.681E+00   -5.710E+00   -5.739E+00   -5.767E+00   -5.795E+00   -5.823E+00   -5.850E+00   -5.878E+00
    -5.904E+00   -5.931E+00   -5.957E+00   -5.983E+00   -6.009E+00   -6.035E+00   -6.060E+00   -6.085E+00   -6.109E+00   -6.134E+00
    -6.158E+00   -6.182E+00   -6.205E+00   -6.229E+00   -6.252E+00   -6.274E+00   -6.297E+00   -6.319E+00   -6.341E+00   -6.362E+00
    -6.383E+00   -6.404E+00   -6.425E+00   -6.445E+00   -6.466E+00   -6.485E+00   -6.505E+00   -6.524E+00   -6.543E+00   -6.562E+00
    -6.580E+00   -6.598E+00   -6.616E+00   -6.633E+00   -6.651E+00   -6.668E+00   -6.684E+00   -6.700E+00   -6.716E+00   -6.732E+00
    -6.748E+00   -6.763E+00   -6.777E+00   -6.792E+00   -6.806E+00   -6.820E+00   -6.834E+00   -6.847E+00   -6.860E+00   -6.873E+00
    -6.885E+00   -6.897E+00   -6.909E+00   -6.921E+00   -6.932E+00   -6.943E+00   -6.954E+00   -6.964E+00   -6.974E+00   -6.984E+00
    -6.994E+00   -7.004E+00   -7.013E+00   -7.022E+00   -7.031E+00   -7.039E+00   -7.048E+00   -7.056E+00   -7.064E+00   -7.071E+00
    -7.079E+00   -7.086E+00   -7.093E+00   -7.100E+00   -7.107E+00   -7.113E+00   -7.119E+00   -7.126E+00   -7.132E+00   -7.137E+00
    -7.143E+00   -7.149E+00   -7.154E+00   -7.159E+00   -7.164E+00   -7.169E+00   -7.174E+00   -7.179E+00   -7.183E+00   -7.188E+00
    -7.192E+00   -7.196E+00   -7.200E+00   -7.204E+00   -7.208E+00   -7.212E+00   -7.215E+00   -7.219E+00   -7.222E+00   -7.226E+00
    -7.229E+00   -7.232E+00   -7.235E+00   -7.238E+00   -7.241E+00   -7.244E+00   -7.247E+00   -7.250E+00   -7.253E+00   -7.256E+00
    -7.259E+00   -7.261E+00   -7.264E+00   -7.267E+00   -7.269E+00   -7.272E+00   -7.275E+00   -7.277E+00   -7.280E+00   -7.282E+00
    -7.285E+00   -7.287E+00   -7.290E+00   -7.293E+00   -7.295E+00   -7.298E+00   -7.301E+00   -7.303E+00   -7.306E+00   -7.309E+00
    -7.312E+00   -7.315E+00   -7.318E+00   -7.321E+00   -7.324E+00   -7.327E+00   -7.330E+00   -7.333E+00   -7.336E+00   -7.340E+00
    -7.343E+00   -7.347E+00   -7.350E+00   -7.354E+00   -7.358E+00   -7.362E+00   -7.366E+00   -7.370E+00   -7.374E+00   -7.378E+00
    -7.382E+00   -7.386E+00   -7.391E+00   -7.395E+00   -7.400E+00   -7.404E+00   -7.409E+00   -7.414E+00   -7.419E+00   -7.424E+00
    -7.429E+00   -7.434E+00   -7.439E+00   -7.444E+00   -7.450E+00   -7.455E+00   -7.461E+00   -7.467E+00   -7.472E+00   -7.478E+00
    -7.484E+00   -7.490E+00   -7.496E+00   -7.502E+00   -7.509E+00   -7.515E+00   -7.521E+00   -7.528E+00   -7.535E+00   -7.541E+00
    -7.548E+00   -7.555E+00   -7.562E+00   -7.569E+00   -7.577E+00   -7.584E+00   -7.591E+00   -7.599E+00   -7.606E+00   -7.614E+00
    -7.621E+00   -7.629E+00   -7.637E+00   -7.645E+00   -7.653E+00   -7.661E+00   -7.669E+00   -7.677E+00   -7.685E+00   -7.693E+00
    -7.701E+00   -7.709E+00   -7.718E+00   -7.726E+00   -7.734E+00   -7.743E+00   -7.751E+00   -7.759E+00   -7.767E+00   -7.776E+00
    -7.784E+00   -7.792E+00   -7.801E+00   -7.809E+00   -7.817E+00   -7.825E+00   -7.834E+00   -7.842E+00   -7.850E+00   -7.858E+00
    -7.866E+00   -7.874E+00   -7.882E+00   -7.890E+00   -7.898E+00   -7.906E+00   -7.913E+00   -7.921E+00
 Ala      Conc. = 3.98E+01
