 LCModel (Version 6.3-1L) Copyright: S.W. Provencher.          Ref.: Magn. Reson. Med. 30:672-679 (1993).                
 Slice#2 Row#4 Col#8  PD_24_press_1_raw_act
 36 lines in following concentration table = NCONC+1
    Conc.  %SD /Cr+PCr  Metabolite                                         
   99.841 116% 6.8E-02 Ala                                                 
    0.000 999%   0.000 Asp                                                 
  229.442  95%   0.155 Cr                                                  
 1.25E+03  18%   0.845 PCr                                                 
   48.996 289% 3.3E-02 GABA                                                
   14.626 961% 9.9E-03 Glc                                                 
  229.606  94%   0.156 Gln                                                 
 1.42E+03  18%   0.959 Glu                                                 
  631.004   4%   0.427 GPC                                                 
    0.000 999%   0.000 PCh                                                 
  417.060  17%   0.283 GSH                                                 
  863.722  30%   0.585 Ins                                                 
  424.965  52%   0.288 Lac                                                 
 1.63E+03   4%   1.106 NAA                                                 
    0.000 999%   0.000 NAAG                                                
   43.886  61% 3.0E-02 Scyllo                                              
    0.000 999%   0.000 Tau                                                 
    0.000 999%   0.000 -CrCH2                                              
  631.004   4%   0.427 GPC+PCh                                             
 1.63E+03   4%   1.106 NAA+NAAG                                            
 1.48E+03   4%   1.000 Cr+PCr                                              
 1.65E+03  21%   1.115 Glu+Gln                                             
    0.000 999%   0.000 Lip13a                                              
 1.16E+03  44%   0.786 Lip13b                                              
  255.046  68%   0.173 Lip09                                               
 1.56E+03  19%   1.058 MM09                                                
  191.966  55%   0.130 Lip20                                               
 3.27E+03  14%   2.213 MM20                                                
  309.647  66%   0.210 MM12                                                
 3.57E+03  17%   2.419 MM14                                                
 1.67E+03  23%   1.132 MM17                                                
 1.16E+03  44%   0.786 Lip13a+Lip13b                                       
 5.04E+03  12%   3.415 MM14+Lip13a+Lip13b+MM12                             
 1.82E+03  15%   1.231 MM09+Lip09                                          
 3.46E+03  13%   2.343 MM20+Lip20                                          
   6 lines in following misc. output table
  FWHM = 0.054 ppm    S/N =   9                                            
  Data shift =-0.015 ppm                                                   
  Ph: -26 deg      -6.5 deg/ppm                                            
  alphaB,S = 1.3E+00,   1.6E+02                                            
   14 spline knots.   Ns = 6(1)                                            
  (12) 4 infls.   ( 5) 1 extrs.                                            
  498 points on ppm-axis = NY
      4.000000     3.992357     3.984714     3.977070     3.969427     3.961784     3.954141     3.946497     3.938854     3.931211
      3.923568     3.915925     3.908281     3.900638     3.892995     3.885352     3.877708     3.870065     3.862422     3.854779
      3.847136     3.839492     3.831849     3.824206     3.816563     3.808919     3.801276     3.793633     3.785990     3.778347
      3.770703     3.763060     3.755417     3.747774     3.740130     3.732487     3.724844     3.717201     3.709558     3.701914
      3.694271     3.686628     3.678985     3.671341     3.663698     3.656055     3.648412     3.640769     3.633125     3.625482
      3.617839     3.610196     3.602552     3.594909     3.587266     3.579623     3.571980     3.564336     3.556693     3.549050
      3.541407     3.533763     3.526120     3.518477     3.510834     3.503191     3.495547     3.487904     3.480261     3.472618
      3.464974     3.457331     3.449688     3.442045     3.434402     3.426758     3.419115     3.411472     3.403829     3.396185
      3.388542     3.380899     3.373256     3.365613     3.357969     3.350326     3.342683     3.335040     3.327396     3.319753
      3.312110     3.304467     3.296824     3.289180     3.281537     3.273894     3.266251     3.258607     3.250964     3.243321
      3.235678     3.228034     3.220391     3.212748     3.205105     3.197462     3.189818     3.182175     3.174532     3.166889
      3.159245     3.151602     3.143959     3.136316     3.128673     3.121029     3.113386     3.105743     3.098100     3.090456
      3.082813     3.075170     3.067527     3.059884     3.052240     3.044597     3.036954     3.029311     3.021667     3.014024
      3.006381     2.998738     2.991095     2.983451     2.975808     2.968165     2.960522     2.952878     2.945235     2.937592
      2.929949     2.922306     2.914662     2.907019     2.899376     2.891733     2.884089     2.876446     2.868803     2.861160
      2.853517     2.845873     2.838230     2.830587     2.822944     2.815300     2.807657     2.800014     2.792371     2.784728
      2.777084     2.769441     2.761798     2.754155     2.746511     2.738868     2.731225     2.723582     2.715939     2.708295
      2.700652     2.693009     2.685366     2.677722     2.670079     2.662436     2.654793     2.647150     2.639506     2.631863
      2.624220     2.616577     2.608933     2.601290     2.593647     2.586004     2.578361     2.570717     2.563074     2.555431
      2.547788     2.540144     2.532501     2.524858     2.517215     2.509572     2.501928     2.494285     2.486642     2.478999
      2.471355     2.463712     2.456069     2.448426     2.440783     2.433139     2.425496     2.417853     2.410210     2.402566
      2.394923     2.387280     2.379637     2.371994     2.364350     2.356707     2.349064     2.341421     2.333777     2.326134
      2.318491     2.310848     2.303205     2.295561     2.287918     2.280275     2.272632     2.264988     2.257345     2.249702
      2.242059     2.234416     2.226772     2.219129     2.211486     2.203843     2.196199     2.188556     2.180913     2.173270
      2.165627     2.157983     2.150340     2.142697     2.135054     2.127410     2.119767     2.112124     2.104481     2.096838
      2.089194     2.081551     2.073908     2.066265     2.058621     2.050978     2.043335     2.035692     2.028049     2.020405
      2.012762     2.005119     1.997476     1.989833     1.982190     1.974546     1.966903     1.959260     1.951617     1.943974
      1.936331     1.928688     1.921045     1.913402     1.905759     1.898115     1.890472     1.882829     1.875186     1.867543
      1.859900     1.852257     1.844614     1.836971     1.829327     1.821684     1.814041     1.806398     1.798755     1.791112
      1.783469     1.775826     1.768183     1.760540     1.752896     1.745253     1.737610     1.729967     1.722324     1.714681
      1.707038     1.699395     1.691752     1.684108     1.676465     1.668822     1.661179     1.653536     1.645893     1.638250
      1.630607     1.622964     1.615321     1.607677     1.600034     1.592391     1.584748     1.577105     1.569462     1.561819
      1.554176     1.546533     1.538890     1.531246     1.523603     1.515960     1.508317     1.500674     1.493031     1.485388
      1.477745     1.470102     1.462458     1.454815     1.447172     1.439529     1.431886     1.424243     1.416600     1.408957
      1.401314     1.393671     1.386027     1.378384     1.370741     1.363098     1.355455     1.347812     1.340169     1.332526
      1.324883     1.317240     1.309596     1.301953     1.294310     1.286667     1.279024     1.271381     1.263738     1.256095
      1.248452     1.240808     1.233165     1.225522     1.217879     1.210236     1.202593     1.194950     1.187307     1.179664
      1.172021     1.164377     1.156734     1.149091     1.141448     1.133805     1.126162     1.118519     1.110876     1.103233
      1.095590     1.087946     1.080303     1.072660     1.065017     1.057374     1.049731     1.042088     1.034445     1.026802
      1.019158     1.011515     1.003872     0.996229     0.988586     0.980943     0.973300     0.965657     0.958014     0.950371
      0.942727     0.935084     0.927441     0.919798     0.912155     0.904512     0.896869     0.889226     0.881583     0.873940
      0.866296     0.858653     0.851010     0.843367     0.835724     0.828081     0.820438     0.812795     0.805152     0.797508
      0.789865     0.782222     0.774579     0.766936     0.759293     0.751650     0.744007     0.736364     0.728721     0.721077
      0.713434     0.705791     0.698148     0.690505     0.682862     0.675219     0.667576     0.659933     0.652290     0.644646
      0.637003     0.629360     0.621717     0.614074     0.606431     0.598788     0.591145     0.583502     0.575858     0.568215
      0.560572     0.552929     0.545286     0.537643     0.530000     0.522357     0.514714     0.507071     0.499427     0.491784
      0.484141     0.476498     0.468855     0.461212     0.453569     0.445925     0.438282     0.430639     0.422996     0.415353
      0.407710     0.400067     0.392424     0.384780     0.377137     0.369494     0.361851     0.354208     0.346565     0.338922
      0.331278     0.323635     0.315992     0.308349     0.300706     0.293063     0.285420     0.277777     0.270133     0.262490
      0.254847     0.247204     0.239561     0.231918     0.224275     0.216631     0.208988     0.201345
 NY phased data points follow
   7.61483E+01  7.00890E+01  7.46378E+01  6.97287E+01  7.32684E+01  7.86981E+01  8.68389E+01  8.86986E+01  1.01149E+02  9.74874E+01
   1.03683E+02  9.42944E+01  8.89399E+01  8.38036E+01  7.78711E+01  7.16471E+01  7.23391E+01  6.57765E+01  6.79015E+01  6.40158E+01
   5.84145E+01  5.99433E+01  5.41706E+01  5.50961E+01  5.95827E+01  5.68698E+01  6.42343E+01  5.65880E+01  6.08382E+01  5.87633E+01
   6.55778E+01  6.29008E+01  5.91048E+01  5.49984E+01  5.68993E+01  4.96438E+01  5.12433E+01  4.61692E+01  4.64839E+01  4.97963E+01
   5.03471E+01  4.42159E+01  5.13933E+01  5.29680E+01  5.33221E+01  5.11123E+01  5.67701E+01  5.25899E+01  5.50626E+01  4.93653E+01
   4.80016E+01  4.02550E+01  3.91203E+01  4.28241E+01  4.34778E+01  4.03228E+01  4.41130E+01  4.06638E+01  3.88271E+01  3.44605E+01
   3.56019E+01  3.36658E+01  3.48099E+01  2.55385E+01  2.74640E+01  2.52059E+01  2.26534E+01  2.44760E+01  2.04219E+01  2.20044E+01
   2.59605E+01  3.06965E+01  2.68593E+01  2.82822E+01  3.84208E+01  3.22526E+01  2.89580E+01  2.77110E+01  2.28348E+01  2.28586E+01
   2.51038E+01  2.56854E+01  2.63613E+01  1.95576E+01  2.81785E+01  1.89846E+01  2.43758E+01  1.79509E+01  2.44762E+01  2.24734E+01
   2.63260E+01  2.40824E+01  2.58812E+01  2.49762E+01  2.28125E+01  1.96763E+01  1.03684E+01  1.27881E+01  2.57593E+01  3.78695E+01
   5.35412E+01  6.80080E+01  8.15387E+01  8.14778E+01  7.65808E+01  5.98958E+01  5.14499E+01  4.18054E+01  4.14096E+01  3.20054E+01
   3.21007E+01  2.22503E+01  2.41847E+01  1.75402E+01  1.81229E+01  1.92006E+01  2.01455E+01  1.40491E+01  1.29540E+01  1.14486E+01
   1.46648E+01  1.35880E+01  2.62126E+01  3.01373E+01  4.84202E+01  5.21619E+01  5.71894E+01  6.33541E+01  5.93475E+01  4.90141E+01
   3.99920E+01  3.49085E+01  3.50967E+01  2.63548E+01  2.08682E+01  1.93429E+01  1.67422E+01  1.19508E+01  1.34439E+01  1.16847E+01
   1.21008E+01  1.31142E+01  1.02939E+01  7.23987E+00  9.68402E+00  1.13253E+01  1.12936E+01  1.15684E+01  6.33866E+00  5.94747E+00
   1.02390E+01  6.62169E+00  7.81261E+00  8.42046E+00  8.97799E+00  9.53270E+00  1.09301E+01  6.71226E+00  5.48186E+00  6.39461E+00
   6.66743E+00  6.36794E+00  4.30281E+00  8.67446E+00  9.37628E+00  7.56152E+00  6.24654E+00  5.66263E+00  2.21081E+00 -6.17118E+00
  -5.62891E+00 -6.02468E+00 -4.56739E+00 -8.56591E+00 -3.63277E+00 -3.79625E+00 -1.78709E+00 -4.86776E+00 -1.18311E+00 -3.49067E+00
  -2.11891E+00 -4.89931E+00 -1.82984E+00 -6.62736E+00 -4.98468E+00 -2.11828E+00 -5.15008E+00 -1.24732E+00  1.11695E+00  7.96170E-01
   6.52128E+00  7.51868E+00  1.84048E-01  4.06718E+00  2.52382E+00  5.60047E+00  7.53767E+00 -1.69256E+00 -8.93276E-01 -4.40051E+00
   1.14730E+00  8.36526E-01  4.04056E+00  1.41069E+00  7.95614E+00  1.23417E+00  6.30307E+00 -3.14296E+00 -6.62039E-01 -1.10140E+00
  -1.04733E+00 -8.76031E-01  1.16515E+00  9.50376E+00  1.24878E+01  5.61018E+00  1.24923E+01  5.81082E+00  3.57883E+00  3.91144E-01
  -9.44183E-01 -4.50559E+00 -2.36736E+00 -1.24108E+00  3.96321E+00 -1.92068E-01  5.27668E+00  3.77437E+00  9.36205E+00  7.25136E+00
   4.36088E+00  1.22434E+00  1.14115E+01  5.67226E+00  6.37020E+00  8.48591E+00  9.24617E+00  2.30732E+00  6.60713E+00  3.84211E+00
   4.72500E+00  2.09040E+00  7.32949E+00  4.70846E+00  6.14021E+00  7.70719E+00  1.50464E+01  1.03534E+01  1.10519E+01  1.02190E+01
   1.44442E+01  1.49004E+01  1.16107E+01  1.03279E+01  1.71427E+01  1.65427E+01  2.49062E+01  3.95374E+01  5.21159E+01  6.53643E+01
   6.78460E+01  5.92919E+01  5.04218E+01  3.40272E+01  3.41854E+01  3.09224E+01  2.00874E+01  1.57078E+01  5.13300E+00  2.64895E+00
   3.17274E-01 -2.48250E+00  4.16549E+00  3.34823E+00  5.22099E+00  2.74261E+00  8.71210E-01  4.25844E+00  4.15395E-01  1.15700E+00
   2.63116E+00 -3.43319E+00 -1.08496E+00 -1.40727E+00 -2.01659E+00  2.13260E+00  1.23429E+00 -3.59924E+00  1.10965E+00  6.38980E-01
   1.11986E+00 -5.05804E+00  3.58533E+00 -2.29225E+00  2.47370E+00  2.34843E-01 -3.84028E+00 -2.07863E+00  2.14144E+00 -1.02687E+00
   2.39977E+00  2.98039E+00  1.70182E-02  7.19442E+00  2.89112E+00  2.04838E+00  9.79267E+00  5.04048E+00  8.99364E+00  6.45857E+00
   5.74058E+00  1.08688E+01  1.12999E+01  7.17000E+00  7.82245E+00  5.54933E+00  7.42266E+00  5.64075E+00  6.93705E+00  6.91792E+00
   1.08377E+01  7.34726E+00  9.52218E+00  1.43551E+01  1.20801E+01  9.16629E+00  1.38746E+01  1.17944E+01  1.36573E+01  7.56170E+00
   1.55618E+01  9.17047E+00  1.58824E+01  1.94019E+01  1.22567E+01  1.64118E+01  1.46655E+01  1.17797E+01  1.73725E+01  1.38269E+01
   1.54076E+01  1.61512E+01  1.81158E+01  1.44857E+01  2.27270E+01  2.17698E+01  1.45689E+01  1.64113E+01  1.46828E+01  9.48204E+00
   1.43214E+01  1.41690E+01  9.18891E+00  1.09379E+01  1.09631E+01  1.09976E+01  8.09478E+00  8.47109E+00  7.30302E-03  1.77390E+00
   2.72211E+00 -4.39156E+00  1.55429E+00 -1.16523E+00 -3.08996E+00 -5.22947E+00 -5.52433E+00 -5.95880E+00 -9.19602E+00 -1.05492E+01
  -7.60426E+00 -4.86051E+00 -7.40657E+00 -1.39094E+01 -6.71880E+00 -9.67406E+00 -7.05125E+00 -1.00727E+01 -6.89627E+00 -9.00555E+00
  -9.25832E+00 -1.45663E+01 -3.12147E+00 -1.48662E+01 -6.01812E+00 -1.02730E+01 -5.79102E+00 -7.30550E+00 -5.03855E+00 -6.10809E+00
  -3.04868E+00 -7.65798E+00 -2.54679E+00 -5.49306E+00 -3.97810E+00 -4.49003E+00 -3.73696E+00 -4.16484E+00 -1.10193E+00 -4.87851E+00
  -2.22210E+00 -2.89888E+00 -1.63326E+00  9.04967E-01  2.72562E+00  8.26305E+00  2.41432E+00  4.74137E+00  3.91776E+00 -2.00364E+00
   4.29848E+00  3.19004E+00 -1.36647E+00 -5.52358E+00  1.30915E+00 -8.68350E-01 -4.15807E+00 -1.77683E+00 -1.81268E+00 -3.65457E-01
  -4.61962E+00 -9.86362E+00 -5.16045E+00 -6.59956E+00 -1.04598E+01 -5.06943E+00 -5.94733E+00 -1.12209E+01  1.10697E+00 -9.36302E+00
  -9.65290E+00 -4.34980E+00 -5.35961E+00 -8.67214E+00 -7.37183E+00 -8.53732E+00 -7.29002E+00 -5.81988E+00 -8.65002E+00 -4.75446E+00
  -1.06816E+01 -9.68654E+00 -6.47518E+00 -1.32750E+01 -1.00128E+01 -1.29575E+01 -8.03529E+00 -8.86692E+00 -1.01300E+01 -1.19793E+01
  -8.98528E+00 -6.07185E+00 -1.13032E+01 -8.84521E+00 -1.42295E+01 -7.60281E+00 -9.22099E+00 -1.27789E+01 -7.02705E+00 -7.47795E+00
  -5.67905E+00 -1.18340E+01 -9.17314E+00 -8.14994E+00 -6.70773E+00 -1.20453E+01 -9.70741E+00 -1.51886E+01 -1.33461E+01 -9.08151E+00
  -8.98170E+00 -1.24756E+01 -7.46031E+00 -1.50264E+01 -1.01856E+01 -1.13179E+01 -1.51892E+01 -1.53373E+01 -1.09604E+01 -1.44005E+01
  -1.50585E+01 -1.29509E+01 -1.31191E+01 -1.14365E+01 -1.16128E+01 -8.67715E+00 -1.04520E+01 -1.07120E+01 -8.66075E+00 -1.08167E+01
  -1.17273E+01 -1.00509E+01 -8.79463E+00 -1.26945E+01 -8.50039E+00 -1.14233E+01 -7.35853E+00 -1.04112E+01
 NY points of the fit to the data follow
   6.87245E+01  6.82072E+01  6.80605E+01  6.89100E+01  7.19548E+01  7.74078E+01  8.44252E+01  9.14395E+01  9.66388E+01  9.85661E+01
   9.68353E+01  9.24119E+01  8.70737E+01  8.22042E+01  7.80260E+01  7.39844E+01  6.97752E+01  6.60572E+01  6.36883E+01  6.21050E+01
   6.08982E+01  5.98509E+01  5.87475E+01  5.75862E+01  5.68687E+01  5.69328E+01  5.77708E+01  5.91706E+01  6.07816E+01  6.21007E+01
   6.25731E+01  6.19734E+01  6.04842E+01  5.84984E+01  5.63533E+01  5.41699E+01  5.19443E+01  5.00648E+01  4.90446E+01  4.84837E+01
   4.80849E+01  4.81010E+01  4.87364E+01  4.98142E+01  5.08553E+01  5.15032E+01  5.14275E+01  5.04759E+01  4.89098E+01  4.70649E+01
   4.52774E+01  4.37796E+01  4.24815E+01  4.11576E+01  3.99837E+01  3.93540E+01  3.91778E+01  3.90451E+01  3.87259E+01  3.81802E+01
   3.73321E+01  3.62379E+01  3.50618E+01  3.40145E+01  3.32080E+01  3.26028E+01  3.21516E+01  3.18443E+01  3.16330E+01  3.14490E+01
   3.12254E+01  3.08908E+01  3.04220E+01  2.98398E+01  2.92044E+01  2.85876E+01  2.80025E+01  2.74349E+01  2.68623E+01  2.63268E+01
   2.59270E+01  2.56903E+01  2.55241E+01  2.52891E+01  2.48745E+01  2.42305E+01  2.33924E+01  2.24961E+01  2.17292E+01  2.12158E+01
   2.09487E+01  2.07848E+01  2.05648E+01  2.02373E+01  1.98810E+01  1.95733E+01  1.94935E+01  2.12065E+01  2.77324E+01  3.94154E+01
   5.40796E+01  6.81221E+01  7.77198E+01  8.01234E+01  7.51163E+01  6.53602E+01  5.49188E+01  4.64267E+01  3.95973E+01  3.27012E+01
   2.52484E+01  1.93659E+01  1.71617E+01  1.63806E+01  1.58985E+01  1.55186E+01  1.51943E+01  1.49200E+01  1.47285E+01  1.47161E+01
   1.52011E+01  1.75575E+01  2.36376E+01  3.32923E+01  4.46776E+01  5.50563E+01  6.16943E+01  6.28811E+01  5.88408E+01  5.17044E+01
   4.42158E+01  3.78104E+01  3.19669E+01  2.56106E+01  1.89371E+01  1.40159E+01  1.20849E+01  1.16002E+01  1.16641E+01  1.18465E+01
   1.19150E+01  1.18381E+01  1.16461E+01  1.13238E+01  1.09213E+01  1.04724E+01  9.95382E+00  9.38692E+00  8.80514E+00  8.24847E+00
   7.77164E+00  7.36261E+00  7.02499E+00  6.75909E+00  6.54674E+00  6.30804E+00  5.94826E+00  5.45325E+00  4.88292E+00  4.39217E+00
   4.12111E+00  4.07714E+00  4.15680E+00  4.18619E+00  4.01664E+00  3.60830E+00  3.06846E+00  2.57298E+00  2.20992E+00  1.87462E+00
   1.41832E+00  7.92788E-01  1.08790E-01 -4.30358E-01 -7.36208E-01 -8.68074E-01 -8.95635E-01 -8.91416E-01 -9.35545E-01 -1.08752E+00
  -1.31764E+00 -1.55481E+00 -1.75698E+00 -1.88146E+00 -1.88612E+00 -1.64152E+00 -9.12915E-01  2.73116E-01  1.60800E+00  2.67238E+00
   3.20068E+00  3.22697E+00  2.87946E+00  2.33391E+00  1.75872E+00  1.23400E+00  8.50473E-01  7.60098E-01  1.04272E+00  1.69607E+00
   2.60339E+00  3.53641E+00  4.25273E+00  4.60017E+00  4.37972E+00  3.52709E+00  2.18741E+00  6.96828E-01 -5.91938E-01 -1.33619E+00
  -1.13327E+00  1.74835E-01  2.31075E+00  4.64701E+00  6.46624E+00  7.15074E+00  6.31370E+00  4.02751E+00  8.62253E-01 -2.13498E+00
  -4.20395E+00 -5.10264E+00 -4.77213E+00 -3.29858E+00 -1.00610E+00  1.29022E+00  2.89307E+00  3.83196E+00  4.42449E+00  4.86750E+00
   5.12306E+00  5.29652E+00  5.72330E+00  6.47611E+00  7.21785E+00  7.67087E+00  7.74378E+00  7.39377E+00  6.70914E+00  5.91805E+00
   5.38799E+00  5.42081E+00  6.04532E+00  7.07522E+00  8.22114E+00  9.24262E+00  9.93067E+00  1.02079E+01  1.02377E+01  1.02521E+01
   1.03959E+01  1.06073E+01  1.08792E+01  1.13524E+01  1.32321E+01  1.90055E+01  2.90982E+01  4.17803E+01  5.39922E+01  6.23807E+01
   6.44450E+01  5.99175E+01  5.10971E+01  4.15543E+01  3.36345E+01  2.71378E+01  2.05380E+01  1.34210E+01  7.67751E+00  5.20289E+00
   4.12122E+00  3.46697E+00  3.06968E+00  2.79327E+00  2.49634E+00  2.15294E+00  1.75831E+00  1.33218E+00  8.99652E-01  4.76146E-01
   6.32870E-02 -3.13878E-01 -6.25571E-01 -8.73114E-01 -1.06998E+00 -1.22249E+00 -1.33275E+00 -1.40025E+00 -1.42695E+00 -1.41762E+00
  -1.36507E+00 -1.26437E+00 -1.11323E+00 -9.07044E-01 -6.41248E-01 -3.15248E-01  6.78487E-02  5.04406E-01  9.90983E-01  1.52068E+00
   2.08403E+00  2.67059E+00  3.26707E+00  3.85911E+00  4.43242E+00  4.97377E+00  5.47156E+00  5.91591E+00  6.29894E+00  6.61579E+00
   6.86578E+00  7.05317E+00  7.18642E+00  7.27711E+00  7.34022E+00  7.39354E+00  7.45708E+00  7.55212E+00  7.70053E+00  7.92558E+00
   8.25769E+00  8.73929E+00  9.35227E+00  1.00065E+01  1.06053E+01  1.10779E+01  1.13993E+01  1.15986E+01  1.17459E+01  1.19585E+01
   1.23461E+01  1.29115E+01  1.35816E+01  1.42730E+01  1.49173E+01  1.54413E+01  1.57219E+01  1.57242E+01  1.55645E+01  1.53900E+01
   1.53360E+01  1.55803E+01  1.61731E+01  1.68845E+01  1.73990E+01  1.73872E+01  1.66884E+01  1.53559E+01  1.36494E+01  1.21106E+01
   1.12515E+01  1.10998E+01  1.13065E+01  1.14761E+01  1.13613E+01  1.08376E+01  9.66226E+00  7.71829E+00  5.45461E+00  3.29985E+00
   1.37288E+00 -4.37987E-01 -2.20307E+00 -3.66588E+00 -4.67502E+00 -5.38720E+00 -5.90647E+00 -6.29453E+00 -6.59280E+00 -6.82943E+00
  -7.02301E+00 -7.18533E+00 -7.32356E+00 -7.44179E+00 -7.54212E+00 -7.62530E+00 -7.69108E+00 -7.73855E+00 -7.76641E+00 -7.77306E+00
  -7.75672E+00 -7.71533E+00 -7.64655E+00 -7.54784E+00 -7.41661E+00 -7.25027E+00 -7.04630E+00 -6.80228E+00 -6.51600E+00 -6.18570E+00
  -5.81037E+00 -5.38995E+00 -4.92549E+00 -4.41932E+00 -3.87527E+00 -3.29891E+00 -2.69765E+00 -2.08075E+00 -1.45911E+00 -8.45030E-01
  -2.51917E-01  3.06100E-01  8.14669E-01  1.25989E+00  1.62901E+00  1.91104E+00  2.09723E+00  2.18150E+00  2.16073E+00  2.03500E+00
   1.80764E+00  1.48503E+00  1.07615E+00  5.92086E-01  4.55218E-02 -5.49829E-01 -1.17983E+00 -1.83059E+00 -2.48902E+00 -3.14329E+00
  -3.78308E+00 -4.39973E+00 -4.98633E+00 -5.53780E+00 -6.05083E+00 -6.52366E+00 -6.95582E+00 -7.34787E+00 -7.70122E+00 -8.01794E+00
  -8.30060E+00 -8.55201E+00 -8.77503E+00 -8.97245E+00 -9.14697E+00 -9.30121E+00 -9.43759E+00 -9.55833E+00 -9.66533E+00 -9.76028E+00
  -9.84467E+00 -9.91989E+00 -9.98716E+00 -1.00475E+01 -1.01017E+01 -1.01506E+01 -1.01948E+01 -1.02350E+01 -1.02717E+01 -1.03053E+01
  -1.03362E+01 -1.03646E+01 -1.03911E+01 -1.04157E+01 -1.04389E+01 -1.04606E+01 -1.04811E+01 -1.05003E+01 -1.05186E+01 -1.05360E+01
  -1.05525E+01 -1.05684E+01 -1.05834E+01 -1.05978E+01 -1.06117E+01 -1.06250E+01 -1.06379E+01 -1.06503E+01 -1.06622E+01 -1.06736E+01
  -1.06847E+01 -1.06955E+01 -1.07059E+01 -1.07159E+01 -1.07255E+01 -1.07347E+01 -1.07437E+01 -1.07524E+01 -1.07607E+01 -1.07686E+01
  -1.07762E+01 -1.07835E+01 -1.07904E+01 -1.07970E+01 -1.08032E+01 -1.08090E+01 -1.08144E+01 -1.08195E+01 -1.08242E+01 -1.08285E+01
  -1.08323E+01 -1.08356E+01 -1.08385E+01 -1.08410E+01 -1.08429E+01 -1.08443E+01 -1.08452E+01 -1.08455E+01
 NY background values follow
     6.713E+01    6.653E+01    6.593E+01    6.533E+01    6.473E+01    6.412E+01    6.352E+01    6.292E+01    6.231E+01    6.171E+01
     6.111E+01    6.051E+01    5.991E+01    5.931E+01    5.871E+01    5.811E+01    5.751E+01    5.691E+01    5.632E+01    5.572E+01
     5.513E+01    5.453E+01    5.394E+01    5.335E+01    5.276E+01    5.217E+01    5.159E+01    5.100E+01    5.042E+01    4.984E+01
     4.926E+01    4.869E+01    4.811E+01    4.754E+01    4.697E+01    4.641E+01    4.584E+01    4.528E+01    4.472E+01    4.416E+01
     4.361E+01    4.306E+01    4.251E+01    4.197E+01    4.143E+01    4.089E+01    4.036E+01    3.982E+01    3.930E+01    3.877E+01
     3.825E+01    3.774E+01    3.722E+01    3.671E+01    3.621E+01    3.570E+01    3.520E+01    3.471E+01    3.422E+01    3.373E+01
     3.324E+01    3.276E+01    3.229E+01    3.181E+01    3.134E+01    3.088E+01    3.042E+01    2.996E+01    2.951E+01    2.906E+01
     2.861E+01    2.817E+01    2.773E+01    2.730E+01    2.687E+01    2.645E+01    2.602E+01    2.561E+01    2.519E+01    2.479E+01
     2.438E+01    2.398E+01    2.359E+01    2.320E+01    2.281E+01    2.243E+01    2.205E+01    2.167E+01    2.130E+01    2.094E+01
     2.058E+01    2.022E+01    1.987E+01    1.952E+01    1.918E+01    1.884E+01    1.851E+01    1.818E+01    1.785E+01    1.753E+01
     1.721E+01    1.690E+01    1.659E+01    1.629E+01    1.599E+01    1.569E+01    1.539E+01    1.510E+01    1.482E+01    1.453E+01
     1.425E+01    1.398E+01    1.371E+01    1.344E+01    1.317E+01    1.291E+01    1.265E+01    1.239E+01    1.214E+01    1.189E+01
     1.165E+01    1.140E+01    1.116E+01    1.092E+01    1.069E+01    1.046E+01    1.023E+01    1.000E+01    9.777E+00    9.556E+00
     9.337E+00    9.121E+00    8.907E+00    8.695E+00    8.486E+00    8.279E+00    8.075E+00    7.872E+00    7.672E+00    7.474E+00
     7.278E+00    7.085E+00    6.894E+00    6.705E+00    6.518E+00    6.333E+00    6.151E+00    5.971E+00    5.793E+00    5.617E+00
     5.444E+00    5.273E+00    5.104E+00    4.938E+00    4.773E+00    4.612E+00    4.452E+00    4.295E+00    4.140E+00    3.987E+00
     3.836E+00    3.688E+00    3.542E+00    3.399E+00    3.258E+00    3.119E+00    2.982E+00    2.848E+00    2.716E+00    2.587E+00
     2.460E+00    2.335E+00    2.213E+00    2.093E+00    1.975E+00    1.860E+00    1.747E+00    1.636E+00    1.528E+00    1.422E+00
     1.319E+00    1.218E+00    1.119E+00    1.023E+00    9.287E-01    8.369E-01    7.472E-01    6.596E-01    5.740E-01    4.904E-01
     4.086E-01    3.288E-01    2.506E-01    1.743E-01    9.953E-02    2.640E-02   -4.520E-02   -1.153E-01   -1.840E-01   -2.513E-01
    -3.174E-01   -3.822E-01   -4.458E-01   -5.083E-01   -5.698E-01   -6.302E-01   -6.898E-01   -7.484E-01   -8.063E-01   -8.633E-01
    -9.197E-01   -9.755E-01   -1.031E+00   -1.085E+00   -1.140E+00   -1.193E+00   -1.247E+00   -1.300E+00   -1.353E+00   -1.406E+00
    -1.459E+00   -1.512E+00   -1.564E+00   -1.617E+00   -1.670E+00   -1.723E+00   -1.777E+00   -1.831E+00   -1.885E+00   -1.939E+00
    -1.994E+00   -2.049E+00   -2.105E+00   -2.160E+00   -2.216E+00   -2.272E+00   -2.329E+00   -2.386E+00   -2.443E+00   -2.500E+00
    -2.557E+00   -2.615E+00   -2.673E+00   -2.731E+00   -2.790E+00   -2.848E+00   -2.907E+00   -2.966E+00   -3.025E+00   -3.085E+00
    -3.144E+00   -3.204E+00   -3.264E+00   -3.324E+00   -3.384E+00   -3.445E+00   -3.505E+00   -3.566E+00   -3.627E+00   -3.688E+00
    -3.749E+00   -3.810E+00   -3.871E+00   -3.932E+00   -3.994E+00   -4.055E+00   -4.117E+00   -4.179E+00   -4.240E+00   -4.302E+00
    -4.364E+00   -4.426E+00   -4.488E+00   -4.550E+00   -4.612E+00   -4.674E+00   -4.736E+00   -4.798E+00   -4.861E+00   -4.923E+00
    -4.986E+00   -5.048E+00   -5.111E+00   -5.174E+00   -5.237E+00   -5.300E+00   -5.363E+00   -5.426E+00   -5.490E+00   -5.554E+00
    -5.618E+00   -5.682E+00   -5.746E+00   -5.811E+00   -5.875E+00   -5.940E+00   -6.005E+00   -6.070E+00   -6.136E+00   -6.202E+00
    -6.268E+00   -6.334E+00   -6.401E+00   -6.468E+00   -6.535E+00   -6.602E+00   -6.670E+00   -6.738E+00   -6.806E+00   -6.874E+00
    -6.943E+00   -7.013E+00   -7.082E+00   -7.152E+00   -7.222E+00   -7.293E+00   -7.364E+00   -7.435E+00   -7.507E+00   -7.579E+00
    -7.651E+00   -7.724E+00   -7.797E+00   -7.870E+00   -7.943E+00   -8.016E+00   -8.089E+00   -8.162E+00   -8.236E+00   -8.309E+00
    -8.382E+00   -8.455E+00   -8.528E+00   -8.601E+00   -8.674E+00   -8.746E+00   -8.818E+00   -8.890E+00   -8.961E+00   -9.032E+00
    -9.103E+00   -9.173E+00   -9.242E+00   -9.312E+00   -9.380E+00   -9.448E+00   -9.515E+00   -9.582E+00   -9.648E+00   -9.713E+00
    -9.778E+00   -9.842E+00   -9.905E+00   -9.967E+00   -1.003E+01   -1.009E+01   -1.015E+01   -1.021E+01   -1.026E+01   -1.032E+01
    -1.037E+01   -1.043E+01   -1.048E+01   -1.053E+01   -1.058E+01   -1.063E+01   -1.068E+01   -1.072E+01   -1.077E+01   -1.081E+01
    -1.086E+01   -1.090E+01   -1.094E+01   -1.098E+01   -1.102E+01   -1.106E+01   -1.109E+01   -1.113E+01   -1.116E+01   -1.119E+01
    -1.122E+01   -1.126E+01   -1.128E+01   -1.131E+01   -1.134E+01   -1.137E+01   -1.139E+01   -1.141E+01   -1.144E+01   -1.146E+01
    -1.148E+01   -1.150E+01   -1.152E+01   -1.153E+01   -1.155E+01   -1.156E+01   -1.158E+01   -1.159E+01   -1.160E+01   -1.161E+01
    -1.162E+01   -1.163E+01   -1.164E+01   -1.165E+01   -1.165E+01   -1.166E+01   -1.166E+01   -1.166E+01   -1.166E+01   -1.166E+01
    -1.166E+01   -1.166E+01   -1.166E+01   -1.165E+01   -1.165E+01   -1.165E+01   -1.164E+01   -1.163E+01   -1.163E+01   -1.162E+01
    -1.161E+01   -1.160E+01   -1.159E+01   -1.158E+01   -1.157E+01   -1.156E+01   -1.155E+01   -1.154E+01   -1.153E+01   -1.151E+01
    -1.150E+01   -1.149E+01   -1.148E+01   -1.146E+01   -1.145E+01   -1.144E+01   -1.143E+01   -1.141E+01   -1.140E+01   -1.139E+01
    -1.137E+01   -1.136E+01   -1.135E+01   -1.134E+01   -1.132E+01   -1.131E+01   -1.130E+01   -1.129E+01   -1.128E+01   -1.127E+01
    -1.126E+01   -1.125E+01   -1.124E+01   -1.123E+01   -1.122E+01   -1.122E+01   -1.121E+01   -1.120E+01   -1.120E+01   -1.119E+01
    -1.119E+01   -1.118E+01   -1.118E+01   -1.117E+01   -1.117E+01   -1.117E+01   -1.116E+01   -1.116E+01   -1.116E+01   -1.115E+01
    -1.115E+01   -1.115E+01   -1.115E+01   -1.115E+01   -1.115E+01   -1.114E+01   -1.114E+01   -1.114E+01   -1.114E+01   -1.114E+01
    -1.114E+01   -1.114E+01   -1.114E+01   -1.113E+01   -1.113E+01   -1.113E+01   -1.113E+01   -1.113E+01   -1.113E+01   -1.112E+01
    -1.112E+01   -1.112E+01   -1.112E+01   -1.111E+01   -1.111E+01   -1.110E+01   -1.110E+01   -1.110E+01
 Ala      Conc. = 9.98E+01
