 LCModel (Version 6.3-1L) Copyright: S.W. Provencher.          Ref.: Magn. Reson. Med. 30:672-679 (1993).                
 Slice#1 Row#8 Col#9  PD_24_press_1_raw_act
 36 lines in following concentration table = NCONC+1
    Conc.  %SD /Cr+PCr  Metabolite                                         
  172.861  78%   0.784 Ala                                                 
   78.291  95%   0.355 Asp                                                 
  220.551  22%   1.000 Cr                                                  
    0.000 999%   0.000 PCr                                                 
   50.611  89%   0.229 GABA                                                
   42.477 106%   0.193 Glc                                                 
   45.412 631%   0.206 Gln                                                 
  388.413  81%   1.761 Glu                                                 
  203.050  10%   0.921 GPC                                                 
    0.000 999%   0.000 PCh                                                 
  274.450  28%   1.244 GSH                                                 
 1.08E+03  21%   4.889 Ins                                                 
    0.000 999%   0.000 Lac                                                 
  304.866  31%   1.382 NAA                                                 
  287.491  34%   1.304 NAAG                                                
   11.181 120% 5.1E-02 Scyllo                                              
   55.133 131%   0.250 Tau                                                 
   54.623  94%   0.248 -CrCH2                                              
  203.050  10%   0.921 GPC+PCh                                             
  592.357  12%   2.686 NAA+NAAG                                            
  220.551  22%   1.000 Cr+PCr                                              
  433.825 111%   1.967 Glu+Gln                                             
 2.26E+03  11%  10.254 Lip13a                                              
    0.000 999%   0.000 Lip13b                                              
  302.053  68%   1.370 Lip09                                               
  563.074  30%   2.553 MM09                                                
  198.018  89%   0.898 Lip20                                               
  988.517  27%   4.482 MM20                                                
  180.233  56%   0.817 MM12                                                
    0.000 999%   0.000 MM14                                                
    0.000 999%   0.000 MM17                                                
 2.26E+03  11%  10.254 Lip13a+Lip13b                                       
 2.44E+03  10%  11.071 MM14+Lip13a+Lip13b+MM12                             
  865.127  17%   3.923 MM09+Lip09                                          
 1.19E+03  21%   5.380 MM20+Lip20                                          
   6 lines in following misc. output table
  FWHM = 0.061 ppm    S/N =   3                                            
  Data shift = 0.008 ppm                                                   
  Ph: -36 deg       4.7 deg/ppm                                            
  alphaB,S = 8.5E+01,   1.0E+02                                            
   14 spline knots.   Ns = 8(1)                                            
   2 inflections.     1 extrema                                            
  498 points on ppm-axis = NY
      4.000000     3.992357     3.984714     3.977070     3.969427     3.961784     3.954141     3.946497     3.938854     3.931211
      3.923568     3.915925     3.908281     3.900638     3.892995     3.885352     3.877708     3.870065     3.862422     3.854779
      3.847136     3.839492     3.831849     3.824206     3.816563     3.808919     3.801276     3.793633     3.785990     3.778347
      3.770703     3.763060     3.755417     3.747774     3.740130     3.732487     3.724844     3.717201     3.709558     3.701914
      3.694271     3.686628     3.678985     3.671341     3.663698     3.656055     3.648412     3.640769     3.633125     3.625482
      3.617839     3.610196     3.602552     3.594909     3.587266     3.579623     3.571980     3.564336     3.556693     3.549050
      3.541407     3.533763     3.526120     3.518477     3.510834     3.503191     3.495547     3.487904     3.480261     3.472618
      3.464974     3.457331     3.449688     3.442045     3.434402     3.426758     3.419115     3.411472     3.403829     3.396185
      3.388542     3.380899     3.373256     3.365613     3.357969     3.350326     3.342683     3.335040     3.327396     3.319753
      3.312110     3.304467     3.296824     3.289180     3.281537     3.273894     3.266251     3.258607     3.250964     3.243321
      3.235678     3.228034     3.220391     3.212748     3.205105     3.197462     3.189818     3.182175     3.174532     3.166889
      3.159245     3.151602     3.143959     3.136316     3.128673     3.121029     3.113386     3.105743     3.098100     3.090456
      3.082813     3.075170     3.067527     3.059884     3.052240     3.044597     3.036954     3.029311     3.021667     3.014024
      3.006381     2.998738     2.991095     2.983451     2.975808     2.968165     2.960522     2.952878     2.945235     2.937592
      2.929949     2.922306     2.914662     2.907019     2.899376     2.891733     2.884089     2.876446     2.868803     2.861160
      2.853517     2.845873     2.838230     2.830587     2.822944     2.815300     2.807657     2.800014     2.792371     2.784728
      2.777084     2.769441     2.761798     2.754155     2.746511     2.738868     2.731225     2.723582     2.715939     2.708295
      2.700652     2.693009     2.685366     2.677722     2.670079     2.662436     2.654793     2.647150     2.639506     2.631863
      2.624220     2.616577     2.608933     2.601290     2.593647     2.586004     2.578361     2.570717     2.563074     2.555431
      2.547788     2.540144     2.532501     2.524858     2.517215     2.509572     2.501928     2.494285     2.486642     2.478999
      2.471355     2.463712     2.456069     2.448426     2.440783     2.433139     2.425496     2.417853     2.410210     2.402566
      2.394923     2.387280     2.379637     2.371994     2.364350     2.356707     2.349064     2.341421     2.333777     2.326134
      2.318491     2.310848     2.303205     2.295561     2.287918     2.280275     2.272632     2.264988     2.257345     2.249702
      2.242059     2.234416     2.226772     2.219129     2.211486     2.203843     2.196199     2.188556     2.180913     2.173270
      2.165627     2.157983     2.150340     2.142697     2.135054     2.127410     2.119767     2.112124     2.104481     2.096838
      2.089194     2.081551     2.073908     2.066265     2.058621     2.050978     2.043335     2.035692     2.028049     2.020405
      2.012762     2.005119     1.997476     1.989833     1.982190     1.974546     1.966903     1.959260     1.951617     1.943974
      1.936331     1.928688     1.921045     1.913402     1.905759     1.898115     1.890472     1.882829     1.875186     1.867543
      1.859900     1.852257     1.844614     1.836971     1.829327     1.821684     1.814041     1.806398     1.798755     1.791112
      1.783469     1.775826     1.768183     1.760540     1.752896     1.745253     1.737610     1.729967     1.722324     1.714681
      1.707038     1.699395     1.691752     1.684108     1.676465     1.668822     1.661179     1.653536     1.645893     1.638250
      1.630607     1.622964     1.615321     1.607677     1.600034     1.592391     1.584748     1.577105     1.569462     1.561819
      1.554176     1.546533     1.538890     1.531246     1.523603     1.515960     1.508317     1.500674     1.493031     1.485388
      1.477745     1.470102     1.462458     1.454815     1.447172     1.439529     1.431886     1.424243     1.416600     1.408957
      1.401314     1.393671     1.386027     1.378384     1.370741     1.363098     1.355455     1.347812     1.340169     1.332526
      1.324883     1.317240     1.309596     1.301953     1.294310     1.286667     1.279024     1.271381     1.263738     1.256095
      1.248452     1.240808     1.233165     1.225522     1.217879     1.210236     1.202593     1.194950     1.187307     1.179664
      1.172021     1.164377     1.156734     1.149091     1.141448     1.133805     1.126162     1.118519     1.110876     1.103233
      1.095590     1.087946     1.080303     1.072660     1.065017     1.057374     1.049731     1.042088     1.034445     1.026802
      1.019158     1.011515     1.003872     0.996229     0.988586     0.980943     0.973300     0.965657     0.958014     0.950371
      0.942727     0.935084     0.927441     0.919798     0.912155     0.904512     0.896869     0.889226     0.881583     0.873940
      0.866296     0.858653     0.851010     0.843367     0.835724     0.828081     0.820438     0.812795     0.805152     0.797508
      0.789865     0.782222     0.774579     0.766936     0.759293     0.751650     0.744007     0.736364     0.728721     0.721077
      0.713434     0.705791     0.698148     0.690505     0.682862     0.675219     0.667576     0.659933     0.652290     0.644646
      0.637003     0.629360     0.621717     0.614074     0.606431     0.598788     0.591145     0.583502     0.575858     0.568215
      0.560572     0.552929     0.545286     0.537643     0.530000     0.522357     0.514714     0.507071     0.499427     0.491784
      0.484141     0.476498     0.468855     0.461212     0.453569     0.445925     0.438282     0.430639     0.422996     0.415353
      0.407710     0.400067     0.392424     0.384780     0.377137     0.369494     0.361851     0.354208     0.346565     0.338922
      0.331278     0.323635     0.315992     0.308349     0.300706     0.293063     0.285420     0.277777     0.270133     0.262490
      0.254847     0.247204     0.239561     0.231918     0.224275     0.216631     0.208988     0.201345
 NY phased data points follow
   9.89506E-01 -6.43973E+00  2.45872E+00 -1.17092E+00  3.58724E-01  9.38042E-01 -3.58458E-01 -4.03939E+00  1.24393E+00  5.69348E-01
   4.30742E+00 -1.26989E+00  4.49232E+00  3.27916E+00  4.12292E+00 -3.72365E-01  1.77221E+00 -8.17375E-02 -2.20641E+00  3.30940E+00
  -3.67119E+00 -3.74606E+00  1.49588E+00  3.72661E+00  3.66937E+00  5.98348E-01  7.26554E+00  4.28829E+00  1.15987E+00  5.48576E+00
   2.14211E+00 -1.45286E-01  1.04360E+01  1.47153E+00  6.08148E+00 -1.76390E+00  2.61089E+00  1.89259E+00 -1.45161E+00 -3.10414E+00
   6.14522E+00  6.06818E+00  4.04355E+00  1.64063E+00  4.93344E-01  6.78671E+00  6.06252E+00  4.12326E+00  1.66555E+00  1.49033E+00
   8.04598E+00  1.63870E+00  3.72045E+00  4.76020E+00 -2.71914E+00  2.80136E+00 -2.21130E+00 -7.40626E-01  6.65041E+00 -7.06317E-01
  -7.64491E-02 -1.92975E-01  1.91762E+00 -9.75944E+00  3.99934E-01 -2.04174E+00 -5.48745E-01 -3.60051E+00 -1.83852E+00  1.17179E-01
   1.26398E+00 -1.23357E+00 -2.97897E+00 -4.60418E-02  2.50906E+00  1.48021E+00  2.03742E+00 -1.76294E+00 -2.42586E+00 -4.16429E+00
   4.40308E-01  6.22300E-01  3.23703E+00 -3.52169E+00 -5.79203E+00 -8.81733E+00  9.47184E-01 -2.97584E+00 -1.03998E+00 -5.85526E+00
  -6.28990E+00 -1.52550E+00 -1.49893E+00  1.94372E+00  4.91220E+00  2.17757E+00  5.50862E+00  3.42211E+00  5.66060E+00  8.42087E+00
   1.21151E+01  9.85911E+00  9.89087E+00  1.57430E+01  1.27118E+01  1.04750E+01  2.71708E+00  3.92914E+00 -1.82859E+00  4.68318E+00
   1.88033E+00 -2.20873E+00 -3.38564E+00 -1.65191E+00 -2.41496E+00 -3.83952E-03 -1.15385E+00 -4.99834E+00 -1.22832E-01 -5.49851E+00
   3.40852E-01 -2.13191E+00 -2.75515E+00 -5.99544E+00  4.74730E+00 -4.76380E+00  8.58593E+00  4.23544E+00  4.80029E+00  5.65948E+00
   7.23880E+00  4.92248E+00  4.64240E+00  5.55171E+00  4.53494E-01 -5.02286E+00  3.09518E+00 -1.87400E+00  1.87319E+00  3.18767E-02
   2.32704E+00 -5.29896E+00 -6.16574E-02 -2.72915E+00 -4.16945E+00 -5.55083E+00  2.82214E-01 -2.26401E+00 -5.06408E-01 -3.70157E+00
  -4.50797E+00 -2.24380E+00 -2.86438E+00 -5.10413E-01 -5.01878E+00 -5.23622E+00 -4.17303E+00 -1.73093E+00 -5.58558E-01 -8.90238E+00
   2.05239E+00 -9.10870E+00 -1.35451E+00 -5.09000E+00 -8.01509E+00 -1.33871E+00 -1.06719E+01 -7.40064E+00  1.04312E+00 -5.78048E+00
  -3.59924E+00 -2.14726E+00 -6.33625E+00 -4.11662E+00 -7.24007E+00 -9.39091E+00 -7.67971E+00 -9.23135E+00 -2.06156E+00 -7.12423E+00
  -3.62080E+00 -5.73373E+00 -3.09493E+00 -6.32735E+00 -2.61628E+00 -2.51441E+00 -3.71652E+00 -1.05545E+01 -3.23030E+00 -3.63225E+00
  -3.93676E+00 -3.91228E+00 -1.27412E+00 -3.46907E+00 -2.09351E+00 -4.54250E+00  8.79338E-01  8.60615E-01 -1.65599E+00 -1.25149E+01
  -1.78607E+00  2.16709E+00 -6.39771E+00 -1.93729E+00  1.11561E+00 -1.59313E+00 -4.11363E+00  1.24193E+00 -4.80915E+00 -7.27088E+00
  -5.73561E+00 -1.13425E+00 -1.28821E+00  1.17970E+00  1.85867E+00 -4.42960E+00  3.52731E+00 -1.74670E+00 -2.84785E+00 -3.46819E+00
  -5.36236E-02 -3.70812E+00 -3.21609E+00 -5.26199E+00 -1.80693E+00 -4.27288E+00  5.38177E+00 -2.00306E+00  3.53747E-01  4.59936E-01
  -9.05285E-01 -5.41508E+00 -2.09946E+00 -2.56717E+00 -2.73716E+00 -8.24041E-01  1.48315E+00  3.64132E+00  2.07078E+00 -4.86534E-01
   1.32726E+00  7.05600E-01  6.85953E-03  1.54814E+00 -1.97383E-01  4.06041E+00  6.73342E+00  7.77441E+00  4.72133E+00  2.02500E+00
   4.53895E+00  2.71592E+00  8.47118E+00  9.60095E+00  8.30724E+00  7.36419E+00  1.28468E+01  1.91399E+01  1.95573E+01  1.71240E+01
   1.01676E+01  1.24526E+01  1.12138E+01  5.79913E+00  1.83216E+00  5.48226E+00  1.02236E+00  2.67780E+00 -2.96985E+00 -7.29178E+00
   1.92365E-01  9.34420E-01  7.16735E-01 -1.51722E+00 -4.23744E+00 -8.68340E-01 -2.93670E-01  1.92344E+00 -3.05983E+00 -1.65082E+00
  -4.69575E-01 -5.47835E+00 -2.69694E+00  1.99227E-01 -1.98162E+00 -4.55976E+00 -2.74617E+00 -6.98479E+00 -4.40983E+00 -7.70072E+00
  -3.57734E+00 -2.81960E+00 -5.82241E+00  2.62990E-01 -6.93360E+00 -9.81835E+00 -3.43441E+00 -2.25304E+00  3.10557E+00  9.16769E-01
  -5.62514E+00  1.04710E-01  4.03851E-01  4.21821E+00 -2.38331E+00 -5.82182E+00  4.60012E+00 -1.00913E+01 -2.84259E+00 -2.79966E+00
  -7.91661E+00 -8.69828E+00  1.01474E+00 -3.92462E+00 -2.57790E+00 -7.17441E+00  5.40753E-01 -2.66479E+00 -7.05406E+00  8.32479E-02
  -1.71654E+00 -5.33003E+00 -3.64376E+00  2.95144E-01 -5.08921E+00 -6.68339E+00 -1.45406E+01 -2.29726E+00 -7.64708E+00 -8.80154E+00
  -1.19980E+01 -8.88451E+00 -1.23203E+00  6.93230E-02 -3.29998E+00 -1.23155E+00 -3.09677E+00  8.75341E-01  2.36694E-01  3.89728E-02
   1.04917E+00 -8.30462E-01 -3.09165E+00  5.21198E+00  7.48666E+00  1.34922E+01  9.91015E+00  2.21059E+00  1.40474E+00  1.10673E+01
   1.38450E+01  1.68762E+01  1.30155E+01  1.96072E+01  1.72981E+01  1.40857E+01  1.20444E+01  1.14258E+01  9.39706E+00  6.99349E+00
   1.27125E+01  1.62795E+01  9.48616E+00  1.13100E+01  1.20766E+01  1.24042E+01  1.30956E+01  2.99653E+00  1.07379E+01  2.59252E+00
   2.68187E+00  1.69763E+00  8.74915E-01 -3.22911E+00  7.44691E+00  2.43141E+00 -3.30387E+00 -1.00276E+00 -8.74931E-02 -3.64595E+00
   9.70138E-01 -5.19294E-01  2.26493E+00 -1.71346E-01  2.30764E+00  2.46043E-01  9.66712E-01  1.47498E+00  3.35633E+00  1.60370E+00
   3.69243E-01  4.19136E+00 -2.54626E+00  6.38331E+00  1.69267E+00  7.49459E+00  3.68090E+00  3.87448E+00  3.58446E+00  3.35735E+00
   2.84718E+00  3.83391E+00  2.92784E+00  1.80731E+00  1.13838E+00  6.15661E+00  2.04741E+00 -5.90154E-01  3.67728E+00  6.91106E-01
  -9.19963E-01  1.61161E+00 -9.99148E-01  7.88693E-01 -6.01833E+00  1.13471E+00  1.24015E+00 -3.87510E-01 -3.85072E+00  4.73662E-03
  -5.16711E+00  3.95959E-01 -5.61180E+00 -1.43378E+00 -9.63686E-01 -6.88568E+00 -4.51813E-01 -3.57562E+00 -5.08794E-01 -2.05056E+00
  -1.52467E+00 -4.10012E+00 -1.29077E+00  5.12241E-01 -2.49868E+00 -4.10661E+00 -2.47908E+00 -2.78930E+00 -8.15695E+00 -6.28887E+00
   4.76330E+00 -1.23066E+00 -3.02877E+00 -1.61671E+00 -9.09651E-01 -2.16530E-01  4.82852E-01 -2.12605E+00 -3.77555E+00 -6.98008E+00
  -6.37404E+00 -1.21494E+00 -3.95115E+00 -2.78305E+00 -1.64086E+00 -4.81065E+00  1.17579E+00 -2.22752E+00  1.61106E+00 -2.58607E+00
  -3.23412E+00  6.88620E-01 -5.34660E+00 -5.65697E+00  4.28632E-01 -7.84486E+00 -7.60207E+00  1.97198E+00 -3.45888E+00 -4.51219E+00
  -3.98435E+00 -3.59304E+00 -4.38549E+00 -3.67319E+00 -6.67018E+00 -2.74274E+00 -4.31711E+00 -5.80420E+00  1.64328E-01 -3.34796E+00
  -3.70977E-02 -4.10023E+00 -6.62612E-01  1.24313E+00 -3.39540E+00 -3.61114E+00 -1.34110E+00 -2.99564E+00 -5.70579E+00 -9.74296E-01
   5.07283E-01 -4.35355E+00  3.30822E-01 -5.49676E+00 -4.83908E+00  1.64658E+00 -3.01752E+00 -1.04936E+00
 NY points of the fit to the data follow
   3.07408E-01 -1.37451E-01 -4.39506E-01 -5.45724E-01 -3.88619E-01 -6.75060E-02  3.37910E-01  8.41333E-01  1.42719E+00  1.98696E+00
   2.42433E+00  2.73075E+00  2.89934E+00  2.85987E+00  2.55215E+00  2.02236E+00  1.40882E+00  8.49216E-01  3.84986E-01  5.81696E-03
  -2.82633E-01 -3.74415E-01 -1.12430E-01  3.40387E-01  8.56455E-01  1.50666E+00  2.30671E+00  3.11404E+00  3.78954E+00  4.32885E+00
   4.72472E+00  4.83851E+00  4.54529E+00  3.89251E+00  3.06857E+00  2.22220E+00  1.39904E+00  6.64035E-01  1.60021E-01  5.51072E-02
   3.68759E-01  9.48682E-01  1.70787E+00  2.61524E+00  3.54189E+00  4.27865E+00  4.69098E+00  4.75224E+00  4.44686E+00  3.73041E+00
   2.64540E+00  1.44063E+00  4.12979E-01 -2.73922E-01 -5.88423E-01 -5.87837E-01 -3.48552E-01  2.04012E-02  3.78421E-01  6.21093E-01
   6.98848E-01  6.12697E-01  3.75059E-01  4.76661E-02 -2.49949E-01 -4.46931E-01 -5.10828E-01 -4.27937E-01 -2.15862E-01  5.98472E-02
   3.18889E-01  5.10783E-01  6.10100E-01  6.00496E-01  4.82985E-01  2.80724E-01  3.81998E-02 -2.01379E-01 -4.19585E-01 -6.53760E-01
  -9.31940E-01 -1.24569E+00 -1.58064E+00 -1.94721E+00 -2.33773E+00 -2.71202E+00 -3.01849E+00 -3.23010E+00 -3.31157E+00 -3.24377E+00
  -3.02995E+00 -2.68713E+00 -2.26039E+00 -1.75398E+00 -8.68719E-01  6.88720E-01  2.50195E+00  4.42121E+00  6.54362E+00  8.73563E+00
   1.06190E+01  1.19147E+01  1.25530E+01  1.24624E+01  1.14509E+01  9.47407E+00  6.88196E+00  4.24723E+00  1.97726E+00  2.06490E-01
  -1.08846E+00 -1.91841E+00 -2.30199E+00 -2.39026E+00 -2.39616E+00 -2.39057E+00 -2.37994E+00 -2.35047E+00 -2.27746E+00 -2.05919E+00
  -1.52481E+00 -7.87703E-01  5.84460E-02  1.03344E+00  2.10039E+00  3.12331E+00  3.95835E+00  4.49563E+00  4.68691E+00  4.46560E+00
   3.77239E+00  2.70285E+00  1.49058E+00  3.47956E-01 -6.10195E-01 -1.37362E+00 -1.91943E+00 -2.19790E+00 -2.21642E+00 -2.07260E+00
  -1.85135E+00 -1.61634E+00 -1.42756E+00 -1.32884E+00 -1.33960E+00 -1.44955E+00 -1.62938E+00 -1.85067E+00 -2.07767E+00 -2.28473E+00
  -2.46018E+00 -2.59682E+00 -2.70469E+00 -2.79776E+00 -2.87447E+00 -2.93449E+00 -2.98287E+00 -3.02088E+00 -3.05889E+00 -3.10356E+00
  -3.15921E+00 -3.22784E+00 -3.30542E+00 -3.37234E+00 -3.41464E+00 -3.43932E+00 -3.45784E+00 -3.48112E+00 -3.51636E+00 -3.55573E+00
  -3.59326E+00 -3.63406E+00 -3.67987E+00 -3.73361E+00 -3.79747E+00 -3.87432E+00 -3.94788E+00 -4.01058E+00 -4.05543E+00 -4.07853E+00
  -4.07527E+00 -4.03744E+00 -3.94820E+00 -3.78365E+00 -3.52963E+00 -3.21331E+00 -2.87553E+00 -2.54056E+00 -2.23834E+00 -2.02193E+00
  -1.94133E+00 -1.97579E+00 -2.10483E+00 -2.32633E+00 -2.59995E+00 -2.84251E+00 -2.97848E+00 -2.98400E+00 -2.86308E+00 -2.63502E+00
  -2.33237E+00 -2.02701E+00 -1.81510E+00 -1.73571E+00 -1.77860E+00 -1.92259E+00 -2.12542E+00 -2.32647E+00 -2.43253E+00 -2.42797E+00
  -2.32512E+00 -2.12074E+00 -1.84009E+00 -1.56586E+00 -1.40325E+00 -1.39215E+00 -1.50325E+00 -1.72608E+00 -2.06284E+00 -2.43700E+00
  -2.72653E+00 -2.84666E+00 -2.78818E+00 -2.59863E+00 -2.30337E+00 -1.91498E+00 -1.51223E+00 -1.18805E+00 -9.60511E-01 -7.71465E-01
  -5.75154E-01 -3.87533E-01 -2.13163E-01 -2.15795E-02  1.78764E-01  3.13531E-01  3.38331E-01  2.66041E-01  1.27193E-01 -5.33603E-02
  -2.17133E-01 -2.88746E-01 -2.12977E-01  1.71519E-02  3.72509E-01  8.14548E-01  1.29271E+00  1.82795E+00  2.61069E+00  3.56064E+00
   4.54279E+00  5.66055E+00  7.17554E+00  9.02865E+00  1.08226E+01  1.24287E+01  1.38426E+01  1.48481E+01  1.51327E+01  1.46364E+01
   1.35784E+01  1.21576E+01  1.04010E+01  8.33646E+00  6.17554E+00  4.22896E+00  2.66719E+00  1.45320E+00  5.23187E-01 -1.26996E-01
  -5.10708E-01 -7.23801E-01 -8.72879E-01 -9.97260E-01 -1.11465E+00 -1.23594E+00 -1.36715E+00 -1.51104E+00 -1.66068E+00 -1.80478E+00
  -1.93506E+00 -2.04767E+00 -2.14278E+00 -2.22237E+00 -2.28643E+00 -2.33931E+00 -2.38784E+00 -2.43461E+00 -2.47757E+00 -2.51504E+00
  -2.54774E+00 -2.57789E+00 -2.60448E+00 -2.62715E+00 -2.64950E+00 -2.67501E+00 -2.70349E+00 -2.73282E+00 -2.76076E+00 -2.78578E+00
  -2.80645E+00 -2.82087E+00 -2.82809E+00 -2.82978E+00 -2.82841E+00 -2.82556E+00 -2.82197E+00 -2.81784E+00 -2.81321E+00 -2.80767E+00
  -2.80015E+00 -2.78959E+00 -2.77498E+00 -2.75499E+00 -2.72782E+00 -2.69059E+00 -2.63822E+00 -2.56024E+00 -2.43053E+00 -2.22846E+00
  -2.03693E+00 -1.89864E+00 -1.80724E+00 -1.78926E+00 -1.90071E+00 -2.17126E+00 -2.57856E+00 -3.01012E+00 -3.41288E+00 -3.77542E+00
  -4.00907E+00 -3.99735E+00 -3.71178E+00 -3.21234E+00 -2.57033E+00 -1.82573E+00 -1.02518E+00 -2.54776E-01  4.09853E-01  9.80787E-01
   1.52454E+00  2.10465E+00  2.75766E+00  3.50213E+00  4.35685E+00  5.33187E+00  6.40286E+00  7.53195E+00  8.68494E+00  9.82758E+00
   1.09245E+01  1.19402E+01  1.28400E+01  1.35924E+01  1.41702E+01  1.45525E+01  1.47256E+01  1.46844E+01  1.44319E+01  1.39794E+01
   1.33457E+01  1.25559E+01  1.16394E+01  1.06287E+01  9.55692E+00  8.45674E+00  7.35838E+00  6.28859E+00  5.26978E+00  4.31959E+00
   3.45080E+00  2.67155E+00  1.98581E+00  1.39410E+00  8.94126E-01  4.81653E-01  1.51125E-01 -1.03642E-01 -2.89000E-01 -4.11048E-01
  -4.75435E-01 -4.87205E-01 -4.50828E-01 -3.70248E-01 -2.49064E-01 -9.06864E-02  1.01416E-01  3.23547E-01  5.71564E-01  8.40767E-01
   1.12578E+00  1.42058E+00  1.71848E+00  2.01232E+00  2.29461E+00  2.55780E+00  2.79456E+00  2.99810E+00  3.16242E+00  3.28267E+00
   3.35525E+00  3.37812E+00  3.35073E+00  3.27412E+00  3.15075E+00  2.98442E+00  2.77995E+00  2.54300E+00  2.27971E+00  1.99648E+00
   1.69963E+00  1.39521E+00  1.08878E+00  7.85259E-01  4.88857E-01  2.03013E-01 -6.96216E-02 -3.27112E-01 -5.68219E-01 -7.92277E-01
  -9.99142E-01 -1.18906E+00 -1.36262E+00 -1.52061E+00 -1.66402E+00 -1.79388E+00 -1.91132E+00 -2.01742E+00 -2.11328E+00 -2.19989E+00
  -2.27824E+00 -2.34920E+00 -2.41357E+00 -2.47208E+00 -2.52540E+00 -2.57409E+00 -2.61868E+00 -2.65961E+00 -2.69731E+00 -2.73210E+00
  -2.76431E+00 -2.79420E+00 -2.82202E+00 -2.84797E+00 -2.87225E+00 -2.89500E+00 -2.91639E+00 -2.93652E+00 -2.95553E+00 -2.97349E+00
  -2.99052E+00 -3.00667E+00 -3.02203E+00 -3.03666E+00 -3.05062E+00 -3.06394E+00 -3.07670E+00 -3.08891E+00 -3.10064E+00 -3.11189E+00
  -3.12273E+00 -3.13316E+00 -3.14322E+00 -3.15293E+00 -3.16231E+00 -3.17139E+00 -3.18018E+00 -3.18870E+00 -3.19697E+00 -3.20500E+00
  -3.21281E+00 -3.22041E+00 -3.22780E+00 -3.23501E+00 -3.24204E+00 -3.24890E+00 -3.25561E+00 -3.26216E+00 -3.26858E+00 -3.27486E+00
  -3.28101E+00 -3.28705E+00 -3.29297E+00 -3.29879E+00 -3.30451E+00 -3.31013E+00 -3.31567E+00 -3.32112E+00 -3.32650E+00 -3.33180E+00
  -3.33704E+00 -3.34222E+00 -3.34734E+00 -3.35241E+00 -3.35743E+00 -3.36241E+00 -3.36735E+00 -3.37227E+00
 NY background values follow
    -2.870E+00   -2.872E+00   -2.874E+00   -2.875E+00   -2.877E+00   -2.879E+00   -2.881E+00   -2.883E+00   -2.885E+00   -2.886E+00
    -2.888E+00   -2.890E+00   -2.892E+00   -2.894E+00   -2.895E+00   -2.897E+00   -2.899E+00   -2.901E+00   -2.903E+00   -2.905E+00
    -2.906E+00   -2.908E+00   -2.910E+00   -2.912E+00   -2.914E+00   -2.915E+00   -2.917E+00   -2.919E+00   -2.921E+00   -2.923E+00
    -2.925E+00   -2.926E+00   -2.928E+00   -2.930E+00   -2.932E+00   -2.934E+00   -2.935E+00   -2.937E+00   -2.939E+00   -2.941E+00
    -2.943E+00   -2.945E+00   -2.946E+00   -2.948E+00   -2.950E+00   -2.952E+00   -2.954E+00   -2.955E+00   -2.957E+00   -2.959E+00
    -2.961E+00   -2.963E+00   -2.964E+00   -2.966E+00   -2.968E+00   -2.970E+00   -2.972E+00   -2.973E+00   -2.975E+00   -2.977E+00
    -2.979E+00   -2.981E+00   -2.983E+00   -2.984E+00   -2.986E+00   -2.988E+00   -2.990E+00   -2.992E+00   -2.993E+00   -2.995E+00
    -2.997E+00   -2.999E+00   -3.001E+00   -3.002E+00   -3.004E+00   -3.006E+00   -3.008E+00   -3.010E+00   -3.011E+00   -3.013E+00
    -3.015E+00   -3.017E+00   -3.019E+00   -3.020E+00   -3.022E+00   -3.024E+00   -3.026E+00   -3.027E+00   -3.029E+00   -3.031E+00
    -3.033E+00   -3.035E+00   -3.036E+00   -3.038E+00   -3.040E+00   -3.042E+00   -3.044E+00   -3.045E+00   -3.047E+00   -3.049E+00
    -3.051E+00   -3.053E+00   -3.054E+00   -3.056E+00   -3.058E+00   -3.060E+00   -3.061E+00   -3.063E+00   -3.065E+00   -3.067E+00
    -3.069E+00   -3.070E+00   -3.072E+00   -3.074E+00   -3.076E+00   -3.077E+00   -3.079E+00   -3.081E+00   -3.083E+00   -3.085E+00
    -3.086E+00   -3.088E+00   -3.090E+00   -3.092E+00   -3.093E+00   -3.095E+00   -3.097E+00   -3.099E+00   -3.101E+00   -3.102E+00
    -3.104E+00   -3.106E+00   -3.108E+00   -3.109E+00   -3.111E+00   -3.113E+00   -3.115E+00   -3.117E+00   -3.118E+00   -3.120E+00
    -3.122E+00   -3.124E+00   -3.125E+00   -3.127E+00   -3.129E+00   -3.131E+00   -3.132E+00   -3.134E+00   -3.136E+00   -3.138E+00
    -3.139E+00   -3.141E+00   -3.143E+00   -3.145E+00   -3.146E+00   -3.148E+00   -3.150E+00   -3.152E+00   -3.154E+00   -3.155E+00
    -3.157E+00   -3.159E+00   -3.161E+00   -3.162E+00   -3.164E+00   -3.166E+00   -3.168E+00   -3.169E+00   -3.171E+00   -3.173E+00
    -3.175E+00   -3.176E+00   -3.178E+00   -3.180E+00   -3.182E+00   -3.183E+00   -3.185E+00   -3.187E+00   -3.189E+00   -3.190E+00
    -3.192E+00   -3.194E+00   -3.196E+00   -3.197E+00   -3.199E+00   -3.201E+00   -3.203E+00   -3.204E+00   -3.206E+00   -3.208E+00
    -3.209E+00   -3.211E+00   -3.213E+00   -3.215E+00   -3.216E+00   -3.218E+00   -3.220E+00   -3.222E+00   -3.223E+00   -3.225E+00
    -3.227E+00   -3.229E+00   -3.230E+00   -3.232E+00   -3.234E+00   -3.236E+00   -3.237E+00   -3.239E+00   -3.241E+00   -3.242E+00
    -3.244E+00   -3.246E+00   -3.248E+00   -3.249E+00   -3.251E+00   -3.253E+00   -3.255E+00   -3.256E+00   -3.258E+00   -3.260E+00
    -3.261E+00   -3.263E+00   -3.265E+00   -3.267E+00   -3.268E+00   -3.270E+00   -3.272E+00   -3.273E+00   -3.275E+00   -3.277E+00
    -3.279E+00   -3.280E+00   -3.282E+00   -3.284E+00   -3.285E+00   -3.287E+00   -3.289E+00   -3.291E+00   -3.292E+00   -3.294E+00
    -3.296E+00   -3.297E+00   -3.299E+00   -3.301E+00   -3.303E+00   -3.304E+00   -3.306E+00   -3.308E+00   -3.309E+00   -3.311E+00
    -3.313E+00   -3.315E+00   -3.316E+00   -3.318E+00   -3.320E+00   -3.321E+00   -3.323E+00   -3.325E+00   -3.326E+00   -3.328E+00
    -3.330E+00   -3.332E+00   -3.333E+00   -3.335E+00   -3.337E+00   -3.338E+00   -3.340E+00   -3.342E+00   -3.343E+00   -3.345E+00
    -3.347E+00   -3.348E+00   -3.350E+00   -3.352E+00   -3.354E+00   -3.355E+00   -3.357E+00   -3.359E+00   -3.360E+00   -3.362E+00
    -3.364E+00   -3.365E+00   -3.367E+00   -3.369E+00   -3.370E+00   -3.372E+00   -3.374E+00   -3.375E+00   -3.377E+00   -3.379E+00
    -3.380E+00   -3.382E+00   -3.384E+00   -3.385E+00   -3.387E+00   -3.389E+00   -3.391E+00   -3.392E+00   -3.394E+00   -3.396E+00
    -3.397E+00   -3.399E+00   -3.401E+00   -3.402E+00   -3.404E+00   -3.406E+00   -3.407E+00   -3.409E+00   -3.411E+00   -3.412E+00
    -3.414E+00   -3.416E+00   -3.417E+00   -3.419E+00   -3.421E+00   -3.422E+00   -3.424E+00   -3.426E+00   -3.427E+00   -3.429E+00
    -3.430E+00   -3.432E+00   -3.434E+00   -3.435E+00   -3.437E+00   -3.439E+00   -3.440E+00   -3.442E+00   -3.444E+00   -3.445E+00
    -3.447E+00   -3.449E+00   -3.450E+00   -3.452E+00   -3.454E+00   -3.455E+00   -3.457E+00   -3.459E+00   -3.460E+00   -3.462E+00
    -3.464E+00   -3.465E+00   -3.467E+00   -3.468E+00   -3.470E+00   -3.472E+00   -3.473E+00   -3.475E+00   -3.477E+00   -3.478E+00
    -3.480E+00   -3.482E+00   -3.483E+00   -3.485E+00   -3.486E+00   -3.488E+00   -3.490E+00   -3.491E+00   -3.493E+00   -3.495E+00
    -3.496E+00   -3.498E+00   -3.499E+00   -3.501E+00   -3.503E+00   -3.504E+00   -3.506E+00   -3.508E+00   -3.509E+00   -3.511E+00
    -3.512E+00   -3.514E+00   -3.516E+00   -3.517E+00   -3.519E+00   -3.521E+00   -3.522E+00   -3.524E+00   -3.525E+00   -3.527E+00
    -3.529E+00   -3.530E+00   -3.532E+00   -3.534E+00   -3.535E+00   -3.537E+00   -3.538E+00   -3.540E+00   -3.542E+00   -3.543E+00
    -3.545E+00   -3.546E+00   -3.548E+00   -3.550E+00   -3.551E+00   -3.553E+00   -3.554E+00   -3.556E+00   -3.558E+00   -3.559E+00
    -3.561E+00   -3.562E+00   -3.564E+00   -3.566E+00   -3.567E+00   -3.569E+00   -3.570E+00   -3.572E+00   -3.574E+00   -3.575E+00
    -3.577E+00   -3.578E+00   -3.580E+00   -3.582E+00   -3.583E+00   -3.585E+00   -3.586E+00   -3.588E+00   -3.589E+00   -3.591E+00
    -3.593E+00   -3.594E+00   -3.596E+00   -3.597E+00   -3.599E+00   -3.601E+00   -3.602E+00   -3.604E+00   -3.605E+00   -3.607E+00
    -3.608E+00   -3.610E+00   -3.612E+00   -3.613E+00   -3.615E+00   -3.616E+00   -3.618E+00   -3.619E+00   -3.621E+00   -3.623E+00
    -3.624E+00   -3.626E+00   -3.627E+00   -3.629E+00   -3.630E+00   -3.632E+00   -3.634E+00   -3.635E+00   -3.637E+00   -3.638E+00
    -3.640E+00   -3.641E+00   -3.643E+00   -3.645E+00   -3.646E+00   -3.648E+00   -3.649E+00   -3.651E+00   -3.652E+00   -3.654E+00
    -3.655E+00   -3.657E+00   -3.659E+00   -3.660E+00   -3.662E+00   -3.663E+00   -3.665E+00   -3.666E+00   -3.668E+00   -3.669E+00
    -3.671E+00   -3.672E+00   -3.674E+00   -3.676E+00   -3.677E+00   -3.679E+00   -3.680E+00   -3.682E+00   -3.683E+00   -3.685E+00
    -3.686E+00   -3.688E+00   -3.689E+00   -3.691E+00   -3.692E+00   -3.694E+00   -3.695E+00   -3.697E+00   -3.699E+00   -3.700E+00
    -3.702E+00   -3.703E+00   -3.705E+00   -3.706E+00   -3.708E+00   -3.709E+00   -3.711E+00   -3.712E+00
 Ala      Conc. = 1.73E+02
