 LCModel (Version 6.3-1L) Copyright: S.W. Provencher.          Ref.: Magn. Reson. Med. 30:672-679 (1993).                
 Slice#2 Row#12 Col#11  PD_24_press_1_raw_act
 36 lines in following concentration table = NCONC+1
    Conc.  %SD /Cr+PCr  Metabolite                                         
    0.000 999%   0.000 Ala                                                 
    0.000 999%   0.000 Asp                                                 
  209.055  32%   0.950 Cr                                                  
   10.905 603% 5.0E-02 PCr                                                 
    5.577 612% 2.5E-02 GABA                                                
   11.787 289% 5.4E-02 Glc                                                 
    0.000 999%   0.000 Gln                                                 
  261.553  35%   1.189 Glu                                                 
   72.590  13%   0.330 GPC                                                 
    0.000 999%   0.000 PCh                                                 
   53.249  50%   0.242 GSH                                                 
  197.273  47%   0.897 Ins                                                 
    0.000 999%   0.000 Lac                                                 
   83.060  48%   0.378 NAA                                                 
  352.013  12%   1.600 NAAG                                                
    0.000 999%   0.000 Scyllo                                              
    0.000 999%   0.000 Tau                                                 
  110.946  32%   0.504 -CrCH2                                              
   72.590  13%   0.330 GPC+PCh                                             
  435.073  11%   1.978 NAA+NAAG                                            
  219.960  13%   1.000 Cr+PCr                                              
  261.553  35%   1.189 Glu+Gln                                             
    0.000 999%   0.000 Lip13a                                              
    0.000 999%   0.000 Lip13b                                              
    0.000 999%   0.000 Lip09                                               
 1.37E+03  11%   6.245 MM09                                                
   33.821 141%   0.154 Lip20                                               
 2.39E+03  10%  10.873 MM20                                                
  637.219  17%   2.897 MM12                                                
    0.000 999%   0.000 MM14                                                
  575.100  29%   2.615 MM17                                                
    0.000 999%   0.000 Lip13a+Lip13b                                       
  637.219  17%   2.897 MM14+Lip13a+Lip13b+MM12                             
 1.37E+03  11%   6.245 MM09+Lip09                                          
 2.43E+03  10%  11.027 MM20+Lip20                                          
   6 lines in following misc. output table
  FWHM = 0.061 ppm    S/N =   6                                            
  Data shift =-0.008 ppm                                                   
  Ph:  94 deg      46.4 deg/ppm                                            
  alphaB,S = 8.8E-01,   2.5E+01                                            
   14 spline knots.   Ns = 8(1)                                            
  (12) 2 infls.   (13) 1 extrs.                                            
  498 points on ppm-axis = NY
      4.000000     3.992357     3.984714     3.977070     3.969427     3.961784     3.954141     3.946497     3.938854     3.931211
      3.923568     3.915925     3.908281     3.900638     3.892995     3.885352     3.877708     3.870065     3.862422     3.854779
      3.847136     3.839492     3.831849     3.824206     3.816563     3.808919     3.801276     3.793633     3.785990     3.778347
      3.770703     3.763060     3.755417     3.747774     3.740130     3.732487     3.724844     3.717201     3.709558     3.701914
      3.694271     3.686628     3.678985     3.671341     3.663698     3.656055     3.648412     3.640769     3.633125     3.625482
      3.617839     3.610196     3.602552     3.594909     3.587266     3.579623     3.571980     3.564336     3.556693     3.549050
      3.541407     3.533763     3.526120     3.518477     3.510834     3.503191     3.495547     3.487904     3.480261     3.472618
      3.464974     3.457331     3.449688     3.442045     3.434402     3.426758     3.419115     3.411472     3.403829     3.396185
      3.388542     3.380899     3.373256     3.365613     3.357969     3.350326     3.342683     3.335040     3.327396     3.319753
      3.312110     3.304467     3.296824     3.289180     3.281537     3.273894     3.266251     3.258607     3.250964     3.243321
      3.235678     3.228034     3.220391     3.212748     3.205105     3.197462     3.189818     3.182175     3.174532     3.166889
      3.159245     3.151602     3.143959     3.136316     3.128673     3.121029     3.113386     3.105743     3.098100     3.090456
      3.082813     3.075170     3.067527     3.059884     3.052240     3.044597     3.036954     3.029311     3.021667     3.014024
      3.006381     2.998738     2.991095     2.983451     2.975808     2.968165     2.960522     2.952878     2.945235     2.937592
      2.929949     2.922306     2.914662     2.907019     2.899376     2.891733     2.884089     2.876446     2.868803     2.861160
      2.853517     2.845873     2.838230     2.830587     2.822944     2.815300     2.807657     2.800014     2.792371     2.784728
      2.777084     2.769441     2.761798     2.754155     2.746511     2.738868     2.731225     2.723582     2.715939     2.708295
      2.700652     2.693009     2.685366     2.677722     2.670079     2.662436     2.654793     2.647150     2.639506     2.631863
      2.624220     2.616577     2.608933     2.601290     2.593647     2.586004     2.578361     2.570717     2.563074     2.555431
      2.547788     2.540144     2.532501     2.524858     2.517215     2.509572     2.501928     2.494285     2.486642     2.478999
      2.471355     2.463712     2.456069     2.448426     2.440783     2.433139     2.425496     2.417853     2.410210     2.402566
      2.394923     2.387280     2.379637     2.371994     2.364350     2.356707     2.349064     2.341421     2.333777     2.326134
      2.318491     2.310848     2.303205     2.295561     2.287918     2.280275     2.272632     2.264988     2.257345     2.249702
      2.242059     2.234416     2.226772     2.219129     2.211486     2.203843     2.196199     2.188556     2.180913     2.173270
      2.165627     2.157983     2.150340     2.142697     2.135054     2.127410     2.119767     2.112124     2.104481     2.096838
      2.089194     2.081551     2.073908     2.066265     2.058621     2.050978     2.043335     2.035692     2.028049     2.020405
      2.012762     2.005119     1.997476     1.989833     1.982190     1.974546     1.966903     1.959260     1.951617     1.943974
      1.936331     1.928688     1.921045     1.913402     1.905759     1.898115     1.890472     1.882829     1.875186     1.867543
      1.859900     1.852257     1.844614     1.836971     1.829327     1.821684     1.814041     1.806398     1.798755     1.791112
      1.783469     1.775826     1.768183     1.760540     1.752896     1.745253     1.737610     1.729967     1.722324     1.714681
      1.707038     1.699395     1.691752     1.684108     1.676465     1.668822     1.661179     1.653536     1.645893     1.638250
      1.630607     1.622964     1.615321     1.607677     1.600034     1.592391     1.584748     1.577105     1.569462     1.561819
      1.554176     1.546533     1.538890     1.531246     1.523603     1.515960     1.508317     1.500674     1.493031     1.485388
      1.477745     1.470102     1.462458     1.454815     1.447172     1.439529     1.431886     1.424243     1.416600     1.408957
      1.401314     1.393671     1.386027     1.378384     1.370741     1.363098     1.355455     1.347812     1.340169     1.332526
      1.324883     1.317240     1.309596     1.301953     1.294310     1.286667     1.279024     1.271381     1.263738     1.256095
      1.248452     1.240808     1.233165     1.225522     1.217879     1.210236     1.202593     1.194950     1.187307     1.179664
      1.172021     1.164377     1.156734     1.149091     1.141448     1.133805     1.126162     1.118519     1.110876     1.103233
      1.095590     1.087946     1.080303     1.072660     1.065017     1.057374     1.049731     1.042088     1.034445     1.026802
      1.019158     1.011515     1.003872     0.996229     0.988586     0.980943     0.973300     0.965657     0.958014     0.950371
      0.942727     0.935084     0.927441     0.919798     0.912155     0.904512     0.896869     0.889226     0.881583     0.873940
      0.866296     0.858653     0.851010     0.843367     0.835724     0.828081     0.820438     0.812795     0.805152     0.797508
      0.789865     0.782222     0.774579     0.766936     0.759293     0.751650     0.744007     0.736364     0.728721     0.721077
      0.713434     0.705791     0.698148     0.690505     0.682862     0.675219     0.667576     0.659933     0.652290     0.644646
      0.637003     0.629360     0.621717     0.614074     0.606431     0.598788     0.591145     0.583502     0.575858     0.568215
      0.560572     0.552929     0.545286     0.537643     0.530000     0.522357     0.514714     0.507071     0.499427     0.491784
      0.484141     0.476498     0.468855     0.461212     0.453569     0.445925     0.438282     0.430639     0.422996     0.415353
      0.407710     0.400067     0.392424     0.384780     0.377137     0.369494     0.361851     0.354208     0.346565     0.338922
      0.331278     0.323635     0.315992     0.308349     0.300706     0.293063     0.285420     0.277777     0.270133     0.262490
      0.254847     0.247204     0.239561     0.231918     0.224275     0.216631     0.208988     0.201345
 NY phased data points follow
   3.03527E+00  2.47350E+00  3.64844E+00  3.78402E+00  5.25508E+00  3.44275E+00  4.05173E+00  1.93843E+00  6.81880E+00  5.23845E+00
   5.08978E+00  6.91375E+00  9.70879E+00  8.37989E+00  9.64724E+00  7.84810E+00  8.00753E+00  7.46346E+00  4.52332E+00  3.77006E+00
   6.17184E+00  4.57825E+00  5.72581E+00  2.60729E+00  4.59316E+00  6.13389E+00  1.12540E+00  4.07815E+00  4.75674E+00  4.74641E+00
   4.51851E+00  3.50918E+00  5.98091E+00  6.68873E+00  6.44316E+00  4.75361E+00  4.13354E+00  2.11138E+00  5.18688E+00  3.10668E+00
   3.46226E+00  2.74720E+00  5.68636E+00  5.62716E+00  4.32767E+00  6.25025E+00  5.51147E+00  3.74672E+00  9.02740E+00  4.65878E+00
   6.53586E+00  6.35298E+00  4.86597E+00  6.20214E+00  4.21361E+00  4.68917E+00  8.12250E+00  5.12673E+00  4.15624E+00  6.24554E+00
   1.21324E+00  2.32464E+00  1.40559E+00  1.46539E+00  3.54756E+00  7.82625E-01  3.33382E+00  1.36459E-01  4.06172E+00  2.83122E+00
  -7.24060E-01  3.38008E+00 -1.32690E-01  4.67521E+00  1.87586E+00  1.73733E+00  4.23279E+00  3.81532E+00  2.21948E+00  4.15702E+00
   7.49320E-01  2.44536E+00  3.30027E+00  1.92527E+00  1.16738E+00  1.82647E+00  4.17583E+00 -2.99826E-01  1.99909E+00  2.51656E+00
   1.90921E+00  4.52558E-01  4.12290E+00  1.95595E+00  2.45939E+00  1.26076E+00  3.57923E+00  1.44723E+00  4.23898E+00  2.46161E+00
   9.46349E+00  1.09946E+01  1.19385E+01  1.30337E+01  1.40994E+01  9.09286E+00  1.16868E+01  1.14475E+01  9.29925E+00  7.59093E+00
   5.84914E+00  3.21430E+00  3.79267E+00  4.50511E+00  3.49380E+00 -5.30412E-01  3.41387E+00  7.50278E-03  2.64521E+00  7.49098E-01
   2.47639E+00  6.60335E-01  4.51371E+00  4.95837E+00  7.92185E+00  8.31198E+00  9.34179E+00  1.27242E+01  1.18372E+01  1.12071E+01
   1.35500E+01  1.37929E+01  1.19001E+01  8.43880E+00  8.00437E+00  8.05534E+00  2.82242E+00  5.20724E+00  2.31276E+00  3.34460E+00
   7.03535E-01  3.01555E+00  3.54592E+00  1.91216E+00  1.67100E+00  3.05723E+00  1.53101E+00  2.64244E+00  1.55674E+00  2.65484E+00
   2.21977E+00  5.35875E+00  3.12922E+00  1.30986E+00  5.09390E+00  2.84506E+00  1.37764E+00  2.60298E+00  2.48019E+00  2.38798E+00
  -9.28421E-02 -6.35767E-01  1.06129E+00  3.35875E+00  1.62275E+00  2.45935E-01  3.28377E+00  1.30863E+00  3.68707E+00  1.94590E+00
   1.35832E+00 -3.86675E+00 -2.37956E-01 -2.25648E+00 -2.75036E+00 -2.31795E+00 -1.01568E+00 -1.81665E+00 -1.25439E+00 -4.66050E+00
   5.47692E-01 -6.87860E-01 -1.98231E+00  1.54331E-01 -8.73099E-01 -1.28686E+00  1.68183E+00 -2.34248E+00  8.29425E-02  8.36948E-01
  -1.83345E-01  1.78223E+00 -2.39700E+00  6.18166E-01  2.47908E+00  1.47998E+00 -2.40741E+00  9.80969E-01  2.23059E-01  1.82401E+00
   1.01834E+00  1.32510E+00  5.49144E-01  3.97315E-01  1.53134E+00  1.97481E+00  1.81394E+00  3.88982E-01 -5.87797E-01 -2.14215E-01
   9.61001E-01  2.37952E+00  1.65595E+00  2.16840E+00  3.27102E+00  5.15597E+00  4.27130E+00  3.89823E+00  1.88673E+00  1.50103E+00
   3.05461E+00  3.41114E+00  2.01104E+00  1.07394E+00  2.54794E+00  4.79140E-02 -2.44282E-01  1.73348E+00  2.19144E+00  6.02735E-01
   3.41166E+00  2.58453E+00  2.91030E+00  4.27251E+00  5.89262E+00  2.98791E+00  1.78286E+00  2.82098E+00  3.51893E-01  1.00572E+00
   3.28832E-01  2.46521E+00  2.86719E+00  3.15290E+00 -7.80435E-01  1.30523E+00  1.86880E+00  4.47539E+00  2.97212E+00  1.19639E+00
   2.53490E+00  2.04520E+00  1.29787E+00  3.65769E+00  5.53361E+00  5.88612E+00  1.29538E+01  1.44131E+01  1.64685E+01  1.99871E+01
   2.01559E+01  1.88130E+01  2.02155E+01  1.53642E+01  1.59143E+01  1.07349E+01  1.00633E+01  3.43054E+00  5.28777E+00  4.24755E+00
  -2.42833E-02  2.41055E+00  6.48099E-01 -1.04502E+00 -1.00308E+00  1.15185E+00 -1.03762E+00 -1.07435E-01  2.20123E+00  5.92270E-02
   2.02386E+00 -4.60009E-01 -4.09128E+00 -1.07591E+00 -1.52422E+00 -3.22390E-01 -5.61769E-02 -1.68738E+00 -3.59587E-01 -1.55354E+00
  -1.87282E-01 -5.14050E-01 -1.83761E+00 -6.97728E-01 -7.52662E-01 -1.42435E+00  7.26413E-01 -3.04893E+00 -5.58155E-01 -3.51429E+00
  -1.09904E-01 -2.88536E+00 -1.27194E+00 -2.23699E+00  1.20358E+00 -1.54659E+00  2.88943E-01  1.71928E+00 -3.18361E+00 -3.91282E+00
  -1.87582E+00 -8.38748E-01 -2.57351E+00 -2.90120E-01 -2.37043E+00 -4.80222E-01 -1.64403E+00 -2.72067E+00 -2.76378E+00 -2.45517E+00
  -4.69440E+00 -2.48561E+00 -6.12714E+00 -4.44571E+00 -4.13051E+00 -2.78596E+00 -4.00226E+00 -3.64520E+00 -2.13599E+00 -4.94214E+00
  -2.97766E+00 -5.10468E+00 -6.43562E+00 -5.34392E+00 -3.31694E+00 -5.78213E+00 -5.22749E+00 -6.79074E+00 -5.29763E+00 -3.91434E+00
  -5.40655E+00 -8.94705E+00 -7.83216E+00 -6.11103E+00 -8.32940E+00 -1.01006E+01 -8.12764E+00 -8.10852E+00 -8.04547E+00 -8.53848E+00
  -1.00853E+01 -8.54430E+00 -9.49485E+00 -1.02222E+01 -1.09114E+01 -6.63731E+00 -6.87269E+00 -8.81563E+00 -8.43895E+00 -6.34164E+00
  -7.66210E+00 -6.52249E+00 -5.15324E+00 -6.87731E+00 -5.70491E+00 -5.45534E+00 -6.40143E+00 -5.64990E+00 -1.30280E+00 -5.04258E+00
  -1.80856E+00 -3.14066E+00 -3.96096E+00 -2.67979E+00 -3.54652E+00 -2.67132E+00 -1.97547E+00 -1.34310E+00 -4.28707E+00 -1.25341E+00
  -3.68104E+00 -1.69666E+00 -3.27895E+00 -2.59831E+00 -1.79070E+00 -1.73429E+00  1.42721E+00 -4.57727E+00 -3.55248E+00 -1.92700E+00
  -3.31750E+00 -9.11915E-01 -8.81265E-01  2.02679E+00  1.12104E+00  7.30264E-01  1.35394E+00 -9.96591E-01  7.34637E-01  1.45400E+00
   1.67622E+00  9.97513E-01  1.38766E+00  1.94506E+00  1.90226E+00  8.26939E-01  2.33429E+00 -1.37257E+00  1.59873E+00  2.09985E+00
  -1.01324E+00 -9.72150E-01  4.36165E+00  1.28178E+00 -6.81219E-01  2.49917E+00  3.11797E+00 -3.37609E-01  2.77937E-01  5.53309E-01
   4.38263E-01  2.44925E+00 -2.41667E-01 -1.97384E+00  1.33060E+00  2.21113E-01  1.10042E+00  2.64786E-01  1.60415E-01 -1.38875E+00
   1.44931E+00 -2.10589E+00  1.14147E+00 -9.84007E-01 -1.83320E+00 -5.93643E-01  1.15053E+00 -1.37214E-01  1.09162E+00  4.54608E-01
  -2.89155E-01  1.54991E+00 -5.92630E-01 -1.06499E+00 -1.58021E+00 -3.92440E-02 -8.29471E-02  1.86191E+00  6.27158E-01  3.28109E+00
  -6.99942E-01 -1.73457E+00  8.18230E-01  7.41701E-01  1.18242E+00 -1.97984E+00  4.35992E-01  6.58846E-02  6.71857E-01  9.21175E-01
   3.52785E-01 -1.09000E+00  1.16474E+00 -8.79893E-02 -1.17427E+00  1.95433E+00  3.81226E-01 -2.18067E-01 -1.98924E+00  2.40670E-01
  -2.44270E+00 -1.59789E-01 -8.64648E-01  1.08599E+00 -1.04178E+00  1.19298E+00  3.33123E-01 -1.59598E+00  1.20911E+00 -1.44534E+00
   3.97753E+00 -6.62030E-03  2.67897E-02  1.07938E+00  1.47620E+00 -1.28909E+00  3.40573E-01  4.64912E-02 -1.97318E+00  3.57255E-01
   1.26381E-01  4.84537E-01  4.40961E-01 -2.50825E+00  1.17737E+00  1.05213E+00 -9.05483E-01  6.72343E-01
 NY points of the fit to the data follow
   4.13570E+00  4.10908E+00  3.79596E+00  3.14046E+00  2.56954E+00  2.71267E+00  3.31582E+00  4.12522E+00  5.05756E+00  6.02907E+00
   6.91132E+00  7.58680E+00  7.92149E+00  8.00696E+00  7.96354E+00  7.66768E+00  6.96254E+00  6.01231E+00  4.91351E+00  3.78179E+00
   2.91326E+00  2.57345E+00  2.73090E+00  2.97446E+00  3.21328E+00  3.48063E+00  3.83981E+00  4.30156E+00  4.77337E+00  5.18409E+00
   5.47610E+00  5.59674E+00  5.61612E+00  5.56155E+00  5.33126E+00  4.97011E+00  4.61840E+00  4.20304E+00  3.68483E+00  3.28656E+00
   3.26331E+00  3.50987E+00  3.94278E+00  4.48082E+00  5.01292E+00  5.42544E+00  5.69058E+00  5.78269E+00  5.68598E+00  5.49910E+00
   5.24989E+00  4.85542E+00  4.39856E+00  4.00414E+00  3.70338E+00  3.52216E+00  3.52686E+00  3.73515E+00  4.02592E+00  4.24537E+00
   4.36089E+00  4.38578E+00  4.35647E+00  4.26852E+00  4.14502E+00  4.04219E+00  3.97892E+00  3.94386E+00  3.94963E+00  4.03231E+00
   4.17030E+00  4.33045E+00  4.46932E+00  4.55265E+00  4.58722E+00  4.57818E+00  4.53339E+00  4.48047E+00  4.44621E+00  4.44134E+00
   4.42780E+00  4.39419E+00  4.33751E+00  4.23976E+00  4.10800E+00  3.95792E+00  3.81315E+00  3.70366E+00  3.63901E+00  3.64338E+00
   3.71251E+00  3.81600E+00  3.91535E+00  3.93966E+00  3.65183E+00  2.87625E+00  2.71982E+00  3.47429E+00  4.68809E+00  6.20733E+00
   7.93400E+00  9.54866E+00  1.09394E+01  1.19569E+01  1.23464E+01  1.22662E+01  1.18775E+01  1.09039E+01  9.30933E+00  7.44280E+00
   5.59072E+00  3.85884E+00  2.60044E+00  2.49960E+00  2.85991E+00  3.14331E+00  3.32749E+00  3.39999E+00  3.27764E+00  2.67740E+00
   1.89682E+00  1.98620E+00  2.88184E+00  4.23004E+00  5.92891E+00  7.76653E+00  9.47921E+00  1.10046E+01  1.20775E+01  1.25159E+01
   1.25124E+01  1.20179E+01  1.07823E+01  8.94409E+00  6.85752E+00  4.76073E+00  2.82870E+00  1.63523E+00  1.47840E+00  1.56402E+00
   1.64309E+00  1.71210E+00  1.78510E+00  1.87889E+00  1.98511E+00  2.05676E+00  2.09606E+00  2.07962E+00  1.96724E+00  1.79388E+00
   1.58696E+00  1.37414E+00  1.24228E+00  1.17596E+00  1.12823E+00  1.09784E+00  1.08004E+00  1.04914E+00  1.02787E+00  1.02977E+00
   1.03570E+00  1.05139E+00  1.07717E+00  1.01599E+00  8.20599E-01  5.67835E-01  3.41665E-01  1.97920E-01  1.55650E-01  1.55065E-01
   1.32922E-01  1.01694E-01  6.86087E-02  4.66756E-02  7.19590E-02  1.25384E-01  1.04620E-01  3.44043E-02 -5.74241E-02 -1.76008E-01
  -3.30599E-01 -4.52181E-01 -5.09139E-01 -5.12381E-01 -4.69272E-01 -3.79856E-01 -2.23047E-01  2.77674E-02  3.49186E-01  6.98234E-01
   1.02772E+00  1.23081E+00  1.24674E+00  1.12439E+00  9.77060E-01  8.14312E-01  6.20548E-01  4.01328E-01  2.06797E-01  1.18276E-01
   1.24263E-01  2.54774E-01  5.08820E-01  7.76954E-01  9.42792E-01  9.65405E-01  8.09076E-01  4.53066E-01 -8.98746E-02 -5.16849E-01
  -6.89739E-01 -6.51248E-01 -4.24554E-01  1.81521E-02  6.58371E-01  1.30926E+00  1.72944E+00  1.84932E+00  1.76727E+00  1.44013E+00
   8.97216E-01  2.43987E-01 -3.95388E-01 -8.46838E-01 -1.07256E+00 -1.08432E+00 -7.68017E-01 -2.86633E-01  2.33800E-01  7.67260E-01
   1.30386E+00  1.77758E+00  2.12032E+00  2.34956E+00  2.61374E+00  2.92482E+00  3.15290E+00  3.29194E+00  3.36960E+00  3.41065E+00
   3.43056E+00  3.42843E+00  3.43216E+00  3.48494E+00  3.57418E+00  3.69073E+00  3.83069E+00  3.63913E+00  2.18870E+00  6.30723E-01
   1.75242E-01  6.18153E-01  1.52716E+00  2.97667E+00  5.12979E+00  7.87991E+00  1.09609E+01  1.38104E+01  1.62615E+01  1.84196E+01
   1.98326E+01  1.98994E+01  1.87013E+01  1.66984E+01  1.39301E+01  1.05726E+01  8.15636E+00  6.69360E+00  5.36569E+00  4.03596E+00
   2.96726E+00  2.33641E+00  1.89312E+00  1.53988E+00  1.25077E+00  9.66769E-01  6.68943E-01  3.84729E-01  1.04482E-01 -1.79912E-01
  -4.70767E-01 -7.56451E-01 -1.00706E+00 -1.20229E+00 -1.35854E+00 -1.47403E+00 -1.53860E+00 -1.58708E+00 -1.63730E+00 -1.67782E+00
  -1.70291E+00 -1.70520E+00 -1.68542E+00 -1.64628E+00 -1.57652E+00 -1.48695E+00 -1.38222E+00 -1.27346E+00 -1.17320E+00 -1.08830E+00
  -1.02513E+00 -9.98462E-01 -9.97855E-01 -1.01222E+00 -1.03924E+00 -1.08057E+00 -1.13807E+00 -1.21132E+00 -1.30026E+00 -1.41564E+00
  -1.55900E+00 -1.72309E+00 -1.90408E+00 -2.09714E+00 -2.29822E+00 -2.50391E+00 -2.71115E+00 -2.91742E+00 -3.12054E+00 -3.31862E+00
  -3.51017E+00 -3.69425E+00 -3.87018E+00 -4.03737E+00 -4.19593E+00 -4.34619E+00 -4.48861E+00 -4.62376E+00 -4.75228E+00 -4.87483E+00
  -4.99203E+00 -5.10453E+00 -5.21295E+00 -5.31791E+00 -5.41995E+00 -5.51953E+00 -5.61704E+00 -5.71281E+00 -5.80712E+00 -5.90016E+00
  -5.99201E+00 -6.08258E+00 -6.17163E+00 -6.25878E+00 -6.34342E+00 -6.42472E+00 -6.50150E+00 -6.57229E+00 -6.63528E+00 -6.68838E+00
  -6.72917E+00 -6.75498E+00 -6.76288E+00 -6.74991E+00 -6.71317E+00 -6.65004E+00 -6.55830E+00 -6.43637E+00 -6.28351E+00 -6.10002E+00
  -5.88737E+00 -5.64833E+00 -5.38692E+00 -5.10831E+00 -4.81871E+00 -4.52515E+00 -4.23509E+00 -3.95611E+00 -3.69539E+00 -3.45936E+00
  -3.25335E+00 -3.08124E+00 -2.94525E+00 -2.84576E+00 -2.78128E+00 -2.74857E+00 -2.74281E+00 -2.75791E+00 -2.78678E+00 -2.82171E+00
  -2.85473E+00 -2.87800E+00 -2.88420E+00 -2.86679E+00 -2.82024E+00 -2.74021E+00 -2.62371E+00 -2.46918E+00 -2.27654E+00 -2.04710E+00
  -1.78353E+00 -1.48969E+00 -1.17053E+00 -8.31895E-01 -4.80335E-01 -1.22823E-01  2.33492E-01  5.81535E-01  9.14515E-01  1.22616E+00
   1.51095E+00  1.76424E+00  1.98247E+00  2.16316E+00  2.30493E+00  2.40748E+00  2.47155E+00  2.49880E+00  2.49168E+00  2.45325E+00
   2.38700E+00  2.29669E+00  2.18622E+00  2.05948E+00  1.92024E+00  1.77202E+00  1.61799E+00  1.46099E+00  1.30351E+00  1.14763E+00
   9.95097E-01  8.47249E-01  7.05115E-01  5.69454E-01  4.40794E-01  3.19464E-01  2.05605E-01  9.92129E-02  1.83278E-04 -9.16536E-02
  -1.76506E-01 -2.54631E-01 -3.26325E-01 -3.91900E-01 -4.51667E-01 -5.05911E-01 -5.54911E-01 -5.98940E-01 -6.38280E-01 -6.73192E-01
  -7.03911E-01 -7.30643E-01 -7.53587E-01 -7.72938E-01 -7.88891E-01 -8.01618E-01 -8.11266E-01 -8.17960E-01 -8.21834E-01 -8.23022E-01
  -8.21655E-01 -8.17837E-01 -8.11655E-01 -8.03192E-01 -7.92540E-01 -7.79791E-01 -7.65029E-01 -7.48317E-01 -7.29709E-01 -7.09259E-01
  -6.87038E-01 -6.63112E-01 -6.37536E-01 -6.10341E-01 -5.81566E-01 -5.51255E-01 -5.19463E-01 -4.86237E-01 -4.51609E-01 -4.15597E-01
  -3.78232E-01 -3.39551E-01 -2.99599E-01 -2.58404E-01 -2.15985E-01 -1.72354E-01 -1.27538E-01 -8.15725E-02 -3.44890E-02  1.36964E-02
   6.29725E-02  1.13329E-01  1.64735E-01  2.17162E-01  2.70586E-01  3.25002E-01  3.80399E-01  4.36763E-01  4.94067E-01  5.52285E-01
   6.11403E-01  6.71419E-01  7.32321E-01  7.94093E-01  8.56708E-01  9.20146E-01  9.84400E-01  1.04947E+00
 NY background values follow
     1.644E+00    1.663E+00    1.682E+00    1.701E+00    1.719E+00    1.737E+00    1.754E+00    1.771E+00    1.788E+00    1.804E+00
     1.820E+00    1.836E+00    1.851E+00    1.866E+00    1.880E+00    1.894E+00    1.907E+00    1.921E+00    1.933E+00    1.946E+00
     1.958E+00    1.969E+00    1.980E+00    1.991E+00    2.001E+00    2.011E+00    2.021E+00    2.030E+00    2.039E+00    2.048E+00
     2.056E+00    2.063E+00    2.071E+00    2.078E+00    2.084E+00    2.090E+00    2.096E+00    2.101E+00    2.106E+00    2.111E+00
     2.115E+00    2.119E+00    2.123E+00    2.126E+00    2.129E+00    2.131E+00    2.133E+00    2.135E+00    2.136E+00    2.137E+00
     2.138E+00    2.138E+00    2.138E+00    2.137E+00    2.137E+00    2.135E+00    2.134E+00    2.132E+00    2.130E+00    2.127E+00
     2.124E+00    2.121E+00    2.117E+00    2.113E+00    2.109E+00    2.104E+00    2.099E+00    2.094E+00    2.088E+00    2.082E+00
     2.076E+00    2.069E+00    2.062E+00    2.055E+00    2.047E+00    2.039E+00    2.031E+00    2.022E+00    2.013E+00    2.004E+00
     1.994E+00    1.984E+00    1.974E+00    1.963E+00    1.952E+00    1.941E+00    1.930E+00    1.918E+00    1.906E+00    1.894E+00
     1.881E+00    1.868E+00    1.855E+00    1.841E+00    1.827E+00    1.813E+00    1.799E+00    1.784E+00    1.769E+00    1.753E+00
     1.738E+00    1.722E+00    1.706E+00    1.689E+00    1.672E+00    1.655E+00    1.638E+00    1.620E+00    1.602E+00    1.584E+00
     1.565E+00    1.546E+00    1.527E+00    1.508E+00    1.488E+00    1.468E+00    1.448E+00    1.427E+00    1.406E+00    1.385E+00
     1.364E+00    1.342E+00    1.320E+00    1.297E+00    1.275E+00    1.252E+00    1.229E+00    1.205E+00    1.181E+00    1.157E+00
     1.133E+00    1.108E+00    1.083E+00    1.058E+00    1.032E+00    1.006E+00    9.799E-01    9.534E-01    9.267E-01    8.996E-01
     8.723E-01    8.446E-01    8.167E-01    7.885E-01    7.600E-01    7.312E-01    7.021E-01    6.728E-01    6.432E-01    6.133E-01
     5.831E-01    5.526E-01    5.219E-01    4.909E-01    4.597E-01    4.282E-01    3.964E-01    3.643E-01    3.320E-01    2.995E-01
     2.666E-01    2.335E-01    2.002E-01    1.666E-01    1.328E-01    9.869E-02    6.436E-02    2.978E-02   -5.040E-03   -4.010E-02
    -7.540E-02   -1.109E-01   -1.467E-01   -1.827E-01   -2.189E-01   -2.554E-01   -2.921E-01   -3.290E-01   -3.661E-01   -4.035E-01
    -4.410E-01   -4.788E-01   -5.168E-01   -5.550E-01   -5.934E-01   -6.320E-01   -6.708E-01   -7.098E-01   -7.490E-01   -7.884E-01
    -8.280E-01   -8.678E-01   -9.078E-01   -9.479E-01   -9.883E-01   -1.029E+00   -1.069E+00   -1.110E+00   -1.151E+00   -1.193E+00
    -1.234E+00   -1.275E+00   -1.317E+00   -1.359E+00   -1.401E+00   -1.443E+00   -1.485E+00   -1.528E+00   -1.570E+00   -1.613E+00
    -1.656E+00   -1.699E+00   -1.742E+00   -1.785E+00   -1.828E+00   -1.872E+00   -1.915E+00   -1.959E+00   -2.002E+00   -2.046E+00
    -2.090E+00   -2.134E+00   -2.178E+00   -2.223E+00   -2.267E+00   -2.311E+00   -2.356E+00   -2.400E+00   -2.445E+00   -2.490E+00
    -2.534E+00   -2.579E+00   -2.624E+00   -2.669E+00   -2.714E+00   -2.759E+00   -2.803E+00   -2.848E+00   -2.893E+00   -2.938E+00
    -2.983E+00   -3.028E+00   -3.073E+00   -3.118E+00   -3.163E+00   -3.208E+00   -3.253E+00   -3.298E+00   -3.342E+00   -3.387E+00
    -3.432E+00   -3.476E+00   -3.521E+00   -3.565E+00   -3.610E+00   -3.654E+00   -3.698E+00   -3.742E+00   -3.786E+00   -3.830E+00
    -3.874E+00   -3.917E+00   -3.961E+00   -4.004E+00   -4.047E+00   -4.090E+00   -4.133E+00   -4.176E+00   -4.219E+00   -4.261E+00
    -4.303E+00   -4.345E+00   -4.387E+00   -4.429E+00   -4.470E+00   -4.512E+00   -4.553E+00   -4.593E+00   -4.634E+00   -4.674E+00
    -4.714E+00   -4.754E+00   -4.794E+00   -4.833E+00   -4.873E+00   -4.911E+00   -4.950E+00   -4.988E+00   -5.026E+00   -5.064E+00
    -5.102E+00   -5.139E+00   -5.176E+00   -5.212E+00   -5.248E+00   -5.284E+00   -5.320E+00   -5.355E+00   -5.390E+00   -5.425E+00
    -5.459E+00   -5.493E+00   -5.527E+00   -5.560E+00   -5.593E+00   -5.625E+00   -5.657E+00   -5.689E+00   -5.720E+00   -5.751E+00
    -5.782E+00   -5.812E+00   -5.841E+00   -5.871E+00   -5.900E+00   -5.928E+00   -5.956E+00   -5.984E+00   -6.011E+00   -6.038E+00
    -6.064E+00   -6.090E+00   -6.115E+00   -6.140E+00   -6.165E+00   -6.188E+00   -6.212E+00   -6.235E+00   -6.258E+00   -6.280E+00
    -6.301E+00   -6.322E+00   -6.343E+00   -6.363E+00   -6.382E+00   -6.401E+00   -6.420E+00   -6.438E+00   -6.455E+00   -6.472E+00
    -6.488E+00   -6.504E+00   -6.519E+00   -6.534E+00   -6.548E+00   -6.562E+00   -6.575E+00   -6.587E+00   -6.599E+00   -6.610E+00
    -6.621E+00   -6.631E+00   -6.641E+00   -6.649E+00   -6.658E+00   -6.666E+00   -6.673E+00   -6.679E+00   -6.685E+00   -6.690E+00
    -6.695E+00   -6.699E+00   -6.703E+00   -6.705E+00   -6.708E+00   -6.709E+00   -6.710E+00   -6.710E+00   -6.710E+00   -6.709E+00
    -6.708E+00   -6.705E+00   -6.702E+00   -6.699E+00   -6.695E+00   -6.690E+00   -6.684E+00   -6.678E+00   -6.671E+00   -6.664E+00
    -6.656E+00   -6.647E+00   -6.638E+00   -6.628E+00   -6.617E+00   -6.606E+00   -6.594E+00   -6.581E+00   -6.568E+00   -6.553E+00
    -6.539E+00   -6.523E+00   -6.507E+00   -6.491E+00   -6.473E+00   -6.455E+00   -6.436E+00   -6.417E+00   -6.397E+00   -6.376E+00
    -6.355E+00   -6.333E+00   -6.310E+00   -6.286E+00   -6.262E+00   -6.237E+00   -6.212E+00   -6.186E+00   -6.159E+00   -6.131E+00
    -6.103E+00   -6.074E+00   -6.044E+00   -6.014E+00   -5.983E+00   -5.951E+00   -5.919E+00   -5.886E+00   -5.852E+00   -5.818E+00
    -5.783E+00   -5.747E+00   -5.710E+00   -5.673E+00   -5.635E+00   -5.597E+00   -5.557E+00   -5.518E+00   -5.477E+00   -5.436E+00
    -5.394E+00   -5.351E+00   -5.308E+00   -5.264E+00   -5.219E+00   -5.173E+00   -5.127E+00   -5.081E+00   -5.033E+00   -4.985E+00
    -4.936E+00   -4.887E+00   -4.837E+00   -4.786E+00   -4.734E+00   -4.682E+00   -4.629E+00   -4.575E+00   -4.521E+00   -4.466E+00
    -4.411E+00   -4.354E+00   -4.297E+00   -4.240E+00   -4.182E+00   -4.123E+00   -4.063E+00   -4.003E+00   -3.942E+00   -3.880E+00
    -3.818E+00   -3.755E+00   -3.691E+00   -3.627E+00   -3.562E+00   -3.496E+00   -3.430E+00   -3.363E+00   -3.295E+00   -3.227E+00
    -3.158E+00   -3.089E+00   -3.018E+00   -2.948E+00   -2.876E+00   -2.804E+00   -2.731E+00   -2.658E+00   -2.584E+00   -2.509E+00
    -2.433E+00   -2.357E+00   -2.281E+00   -2.204E+00   -2.126E+00   -2.047E+00   -1.968E+00   -1.888E+00   -1.808E+00   -1.727E+00
    -1.645E+00   -1.563E+00   -1.480E+00   -1.397E+00   -1.313E+00   -1.228E+00   -1.143E+00   -1.057E+00
 Cr       Conc. = 2.09E+02
