 LCModel (Version 6.3-1L) Copyright: S.W. Provencher.          Ref.: Magn. Reson. Med. 30:672-679 (1993).                
 Slice#3 Row#4 Col#11  PD_24_press_1_raw_act
 36 lines in following concentration table = NCONC+1
    Conc.  %SD /Cr+PCr  Metabolite                                         
 2.81E+03  18%   1.807 Ala                                                 
    0.000 999%   0.000 Asp                                                 
   14.980 999% 9.6E-03 Cr                                                  
 1.54E+03  27%   0.990 PCr                                                 
   84.252 164% 5.4E-02 GABA                                                
  143.960  95% 9.3E-02 Glc                                                 
 3.02E+03  27%   1.944 Gln                                                 
 1.70E+03  54%   1.092 Glu                                                 
  469.894  10%   0.302 GPC                                                 
    0.000 999%   0.000 PCh                                                 
  634.081  27%   0.408 GSH                                                 
 2.96E+03  19%   1.907 Ins                                                 
    0.000 999%   0.000 Lac                                                 
 1.12E+03  11%   0.721 NAA                                                 
    0.000 999%   0.000 NAAG                                                
  101.484  37% 6.5E-02 Scyllo                                              
  140.046 150% 9.0E-02 Tau                                                 
  807.672  32%   0.520 -CrCH2                                              
  469.894  10%   0.302 GPC+PCh                                             
 1.12E+03  11%   0.721 NAA+NAAG                                            
 1.55E+03   7%   1.000 Cr+PCr                                              
 4.72E+03  32%   3.036 Glu+Gln                                             
 2.86E+04  10%  18.393 Lip13a                                              
    0.000 999%   0.000 Lip13b                                              
 5.29E+03  17%   3.403 Lip09                                               
    0.000 999%   0.000 MM09                                                
 4.42E+03  14%   2.845 Lip20                                               
    0.000 999%   0.000 MM20                                                
    0.000 999%   0.000 MM12                                                
 5.48E+03  16%   3.525+MM14                                                
 2.25E+03  30%   1.445 MM17                                                
 2.86E+04  10%  18.393 Lip13a+Lip13b                                       
 3.41E+04   8%  21.918 MM14+Lip13a+Lip13b+MM12                             
 5.29E+03  17%   3.403 MM09+Lip09                                          
 4.42E+03  14%   2.845 MM20+Lip20                                          
   6 lines in following misc. output table
  FWHM = 0.107 ppm    S/N =  13                                            
  Data shift = 0.084 ppm                                                   
  Ph:  40 deg     -27.6 deg/ppm                                            
  alphaB,S = 2.6E+00,   5.9E+01                                            
    7 spline knots.   Ns = 9(2)                                            
  (12) 6 infls.   ( 9) 3 extrs.                                            
  498 points on ppm-axis = NY
      4.000000     3.992357     3.984714     3.977070     3.969427     3.961784     3.954141     3.946497     3.938854     3.931211
      3.923568     3.915925     3.908281     3.900638     3.892995     3.885352     3.877708     3.870065     3.862422     3.854779
      3.847136     3.839492     3.831849     3.824206     3.816563     3.808919     3.801276     3.793633     3.785990     3.778347
      3.770703     3.763060     3.755417     3.747774     3.740130     3.732487     3.724844     3.717201     3.709558     3.701914
      3.694271     3.686628     3.678985     3.671341     3.663698     3.656055     3.648412     3.640769     3.633125     3.625482
      3.617839     3.610196     3.602552     3.594909     3.587266     3.579623     3.571980     3.564336     3.556693     3.549050
      3.541407     3.533763     3.526120     3.518477     3.510834     3.503191     3.495547     3.487904     3.480261     3.472618
      3.464974     3.457331     3.449688     3.442045     3.434402     3.426758     3.419115     3.411472     3.403829     3.396185
      3.388542     3.380899     3.373256     3.365613     3.357969     3.350326     3.342683     3.335040     3.327396     3.319753
      3.312110     3.304467     3.296824     3.289180     3.281537     3.273894     3.266251     3.258607     3.250964     3.243321
      3.235678     3.228034     3.220391     3.212748     3.205105     3.197462     3.189818     3.182175     3.174532     3.166889
      3.159245     3.151602     3.143959     3.136316     3.128673     3.121029     3.113386     3.105743     3.098100     3.090456
      3.082813     3.075170     3.067527     3.059884     3.052240     3.044597     3.036954     3.029311     3.021667     3.014024
      3.006381     2.998738     2.991095     2.983451     2.975808     2.968165     2.960522     2.952878     2.945235     2.937592
      2.929949     2.922306     2.914662     2.907019     2.899376     2.891733     2.884089     2.876446     2.868803     2.861160
      2.853517     2.845873     2.838230     2.830587     2.822944     2.815300     2.807657     2.800014     2.792371     2.784728
      2.777084     2.769441     2.761798     2.754155     2.746511     2.738868     2.731225     2.723582     2.715939     2.708295
      2.700652     2.693009     2.685366     2.677722     2.670079     2.662436     2.654793     2.647150     2.639506     2.631863
      2.624220     2.616577     2.608933     2.601290     2.593647     2.586004     2.578361     2.570717     2.563074     2.555431
      2.547788     2.540144     2.532501     2.524858     2.517215     2.509572     2.501928     2.494285     2.486642     2.478999
      2.471355     2.463712     2.456069     2.448426     2.440783     2.433139     2.425496     2.417853     2.410210     2.402566
      2.394923     2.387280     2.379637     2.371994     2.364350     2.356707     2.349064     2.341421     2.333777     2.326134
      2.318491     2.310848     2.303205     2.295561     2.287918     2.280275     2.272632     2.264988     2.257345     2.249702
      2.242059     2.234416     2.226772     2.219129     2.211486     2.203843     2.196199     2.188556     2.180913     2.173270
      2.165627     2.157983     2.150340     2.142697     2.135054     2.127410     2.119767     2.112124     2.104481     2.096838
      2.089194     2.081551     2.073908     2.066265     2.058621     2.050978     2.043335     2.035692     2.028049     2.020405
      2.012762     2.005119     1.997476     1.989833     1.982190     1.974546     1.966903     1.959260     1.951617     1.943974
      1.936331     1.928688     1.921045     1.913402     1.905759     1.898115     1.890472     1.882829     1.875186     1.867543
      1.859900     1.852257     1.844614     1.836971     1.829327     1.821684     1.814041     1.806398     1.798755     1.791112
      1.783469     1.775826     1.768183     1.760540     1.752896     1.745253     1.737610     1.729967     1.722324     1.714681
      1.707038     1.699395     1.691752     1.684108     1.676465     1.668822     1.661179     1.653536     1.645893     1.638250
      1.630607     1.622964     1.615321     1.607677     1.600034     1.592391     1.584748     1.577105     1.569462     1.561819
      1.554176     1.546533     1.538890     1.531246     1.523603     1.515960     1.508317     1.500674     1.493031     1.485388
      1.477745     1.470102     1.462458     1.454815     1.447172     1.439529     1.431886     1.424243     1.416600     1.408957
      1.401314     1.393671     1.386027     1.378384     1.370741     1.363098     1.355455     1.347812     1.340169     1.332526
      1.324883     1.317240     1.309596     1.301953     1.294310     1.286667     1.279024     1.271381     1.263738     1.256095
      1.248452     1.240808     1.233165     1.225522     1.217879     1.210236     1.202593     1.194950     1.187307     1.179664
      1.172021     1.164377     1.156734     1.149091     1.141448     1.133805     1.126162     1.118519     1.110876     1.103233
      1.095590     1.087946     1.080303     1.072660     1.065017     1.057374     1.049731     1.042088     1.034445     1.026802
      1.019158     1.011515     1.003872     0.996229     0.988586     0.980943     0.973300     0.965657     0.958014     0.950371
      0.942727     0.935084     0.927441     0.919798     0.912155     0.904512     0.896869     0.889226     0.881583     0.873940
      0.866296     0.858653     0.851010     0.843367     0.835724     0.828081     0.820438     0.812795     0.805152     0.797508
      0.789865     0.782222     0.774579     0.766936     0.759293     0.751650     0.744007     0.736364     0.728721     0.721077
      0.713434     0.705791     0.698148     0.690505     0.682862     0.675219     0.667576     0.659933     0.652290     0.644646
      0.637003     0.629360     0.621717     0.614074     0.606431     0.598788     0.591145     0.583502     0.575858     0.568215
      0.560572     0.552929     0.545286     0.537643     0.530000     0.522357     0.514714     0.507071     0.499427     0.491784
      0.484141     0.476498     0.468855     0.461212     0.453569     0.445925     0.438282     0.430639     0.422996     0.415353
      0.407710     0.400067     0.392424     0.384780     0.377137     0.369494     0.361851     0.354208     0.346565     0.338922
      0.331278     0.323635     0.315992     0.308349     0.300706     0.293063     0.285420     0.277777     0.270133     0.262490
      0.254847     0.247204     0.239561     0.231918     0.224275     0.216631     0.208988     0.201345
 NY phased data points follow
  -1.56985E+00 -2.25625E+00 -4.11915E-01  1.08054E+00  5.46978E-01 -2.30574E+00 -3.01180E+00 -6.39886E+00 -7.40704E-01 -4.04290E+00
  -2.92532E+00 -5.38572E+00 -6.67114E+00 -5.88453E+00 -7.11980E+00 -6.13030E+00 -6.36652E+00 -2.31323E+00 -5.03378E+00 -4.83700E+00
  -6.25966E+00 -5.36419E+00 -6.08812E+00 -4.21577E+00 -2.72057E+00 -5.96796E+00 -6.21053E+00 -5.13209E+00 -5.54081E+00 -3.20123E+00
  -9.89600E-01 -6.21192E+00 -5.67734E+00 -6.06936E+00 -9.63046E+00 -4.73573E+00 -4.28859E+00 -5.66554E+00 -3.50389E+00 -4.17792E-01
   7.79383E-01 -5.41683E+00 -2.75569E+00 -6.45957E+00 -4.15213E+00 -8.94832E+00 -6.34172E+00 -4.17222E+00 -7.94219E+00 -4.93771E+00
  -5.15448E+00 -4.31895E+00 -7.26828E+00 -8.20128E+00 -1.07472E+01 -1.11025E+01 -1.06745E+01 -1.19676E+01 -1.18516E+01 -1.02971E+01
  -1.13187E+01 -1.31919E+01 -1.13766E+01 -1.06187E+01 -1.27418E+01 -1.72815E+01 -1.64998E+01 -1.38807E+01 -1.40556E+01 -1.79190E+01
  -1.21762E+01 -1.19469E+01 -1.12879E+01 -1.58294E+01 -1.60187E+01 -1.58372E+01 -1.71005E+01 -1.91313E+01 -1.35449E+01 -1.36168E+01
  -1.65760E+01 -1.75918E+01 -1.40423E+01 -1.64634E+01 -1.86685E+01 -1.87833E+01 -1.70389E+01 -1.83485E+01 -1.95298E+01 -1.82654E+01
  -1.94028E+01 -1.98378E+01 -1.03247E+01 -3.35119E+00  1.76136E-01 -1.70387E-01 -9.64012E-01 -1.82766E+00 -4.63398E+00 -9.31484E+00
  -8.95074E+00 -1.25115E+01 -1.38857E+01 -1.50344E+01 -1.30797E+01 -1.74969E+01 -1.40505E+01 -1.69015E+01 -1.78591E+01 -1.90923E+01
  -1.93574E+01 -1.72494E+01 -1.72797E+01 -1.76586E+01 -1.35489E+01 -1.29432E+01 -9.53973E+00 -4.57280E+00  7.94697E-01  1.27659E-01
   3.56589E-01  1.15338E+00  3.14610E+00 -6.97947E+00 -5.11507E+00 -9.51032E+00 -9.41253E+00 -9.12425E+00 -1.31137E+01 -1.11993E+01
  -7.98271E+00 -1.36223E+01 -1.41631E+01 -1.31056E+01 -1.50982E+01 -1.24128E+01 -1.56793E+01 -1.41781E+01 -1.37439E+01 -1.28598E+01
  -1.47003E+01 -1.66940E+01 -1.32082E+01 -1.82715E+01 -1.51205E+01 -1.81265E+01 -1.69882E+01 -1.71121E+01 -1.39438E+01 -1.19021E+01
  -1.19767E+01 -1.47880E+01 -1.74024E+01 -1.78649E+01 -1.71195E+01 -1.90098E+01 -1.85438E+01 -1.87333E+01 -1.86904E+01 -2.30165E+01
  -1.98655E+01 -2.26036E+01 -2.05355E+01 -2.36722E+01 -2.10564E+01 -2.12863E+01 -2.60323E+01 -2.94707E+01 -2.57013E+01 -2.57372E+01
  -2.56699E+01 -2.75712E+01 -2.51429E+01 -2.73795E+01 -2.49004E+01 -3.00348E+01 -2.75364E+01 -3.01526E+01 -2.85168E+01 -2.79961E+01
  -2.79604E+01 -2.79615E+01 -3.05994E+01 -2.69850E+01 -2.97277E+01 -2.68622E+01 -2.70273E+01 -3.08749E+01 -2.64215E+01 -2.84756E+01
  -3.18416E+01 -3.07496E+01 -3.05342E+01 -2.82495E+01 -2.97191E+01 -2.88057E+01 -2.94195E+01 -2.68876E+01 -2.41217E+01 -2.98577E+01
  -2.65582E+01 -2.64437E+01 -2.93029E+01 -2.56676E+01 -2.14690E+01 -2.33853E+01 -2.60300E+01 -1.80524E+01 -1.73369E+01 -1.76476E+01
  -1.12561E+01 -1.35328E+01 -1.21218E+01 -1.39885E+01 -1.60183E+01 -1.44555E+01 -1.16653E+01 -1.50973E+01 -1.01519E+01 -1.12742E+01
  -1.34948E+01 -1.14606E+01 -1.20705E+01 -1.34245E+01 -1.63291E+01 -1.19803E+01 -1.18242E+01 -1.19133E+01 -9.75134E+00 -1.02554E+01
  -1.08760E+01 -9.49270E+00 -1.04286E+01 -1.12992E+01 -9.45108E+00 -8.75760E+00 -7.46988E+00 -7.03904E+00 -4.02966E+00 -8.74426E+00
  -7.39939E+00 -3.87135E+00 -2.01591E+00 -5.38228E+00  1.49107E+00 -1.79063E+00 -5.22885E+00 -3.44808E+00 -2.04836E+00  1.56847E+00
   1.04958E+01  1.76271E+01  2.37111E+01  2.05618E+01  2.11006E+01  1.99733E+01  2.21363E+01  1.97253E+01  1.60255E+01  1.51740E+01
   1.66875E+01  1.22878E+01  1.08890E+01  1.24551E+01  9.10334E+00  1.18485E+01  8.08017E+00  7.53669E+00  8.26273E+00  7.93952E+00
   8.26956E+00  1.00057E+01  7.60551E+00  1.28162E+01  9.04001E+00  9.93592E+00  6.21721E+00  1.04264E+01  7.42665E+00  8.74994E+00
   1.24496E+01  1.21553E+01  1.05475E+01  6.88755E+00  1.41624E+01  1.06887E+01  1.45166E+01  9.68719E+00  8.78845E+00  9.70755E+00
   1.07141E+01  1.32692E+01  1.09221E+01  1.13358E+01  1.28411E+01  1.51590E+01  1.66812E+01  1.93293E+01  2.20841E+01  1.97375E+01
   2.09803E+01  2.07581E+01  2.68371E+01  2.93502E+01  2.69212E+01  3.05221E+01  3.05349E+01  3.33230E+01  3.16245E+01  3.73480E+01
   3.14918E+01  3.64060E+01  3.96298E+01  3.76327E+01  4.50821E+01  4.33615E+01  4.44303E+01  5.16562E+01  5.79720E+01  5.72862E+01
   5.82767E+01  5.78297E+01  6.42152E+01  6.05854E+01  6.29256E+01  6.69356E+01  6.32933E+01  6.51533E+01  6.70914E+01  6.74098E+01
   7.11196E+01  7.30664E+01  7.74701E+01  8.17782E+01  8.90230E+01  8.84799E+01  9.69825E+01  1.00670E+02  1.01067E+02  1.03999E+02
   1.02530E+02  1.01688E+02  1.01867E+02  9.45005E+01  9.48159E+01  9.30604E+01  9.15283E+01  9.22881E+01  8.81972E+01  8.68626E+01
   8.54406E+01  8.40564E+01  8.41987E+01  8.13501E+01  8.31159E+01  8.47260E+01  8.15857E+01  8.32932E+01  7.82418E+01  8.07786E+01
   8.18711E+01  8.26296E+01  8.03614E+01  7.81854E+01  7.95735E+01  7.80111E+01  7.48617E+01  7.81745E+01  7.36606E+01  7.44900E+01
   7.55977E+01  7.68518E+01  7.39389E+01  7.35481E+01  7.09990E+01  7.14118E+01  7.34820E+01  7.27376E+01  7.38781E+01  6.88260E+01
   6.88992E+01  6.69743E+01  6.81050E+01  6.79529E+01  6.53532E+01  6.71664E+01  6.30710E+01  6.75455E+01  6.60713E+01  6.22482E+01
   6.26878E+01  6.15972E+01  6.20320E+01  6.12069E+01  5.88876E+01  6.00787E+01  5.81115E+01  6.31405E+01  5.83313E+01  6.11614E+01
   6.27669E+01  5.90988E+01  5.68644E+01  5.86433E+01  5.82639E+01  5.78602E+01  5.66441E+01  6.03928E+01  5.40777E+01  5.54678E+01
   5.42237E+01  5.42397E+01  5.36009E+01  5.45813E+01  5.31233E+01  5.03958E+01  4.96982E+01  4.93276E+01  5.04769E+01  5.09488E+01
   4.51196E+01  4.35415E+01  4.57448E+01  4.80968E+01  4.54244E+01  4.59568E+01  4.26734E+01  4.21563E+01  4.15961E+01  4.25381E+01
   4.23130E+01  4.08169E+01  4.43516E+01  3.92129E+01  3.89992E+01  3.88107E+01  3.99538E+01  3.79972E+01  3.73725E+01  3.58532E+01
   3.57582E+01  3.67018E+01  3.74154E+01  3.48702E+01  3.54677E+01  3.41470E+01  3.93676E+01  3.37398E+01  3.41696E+01  2.97298E+01
   3.42943E+01  3.36064E+01  3.58383E+01  3.31722E+01  3.39432E+01  3.31537E+01  3.11229E+01  3.12515E+01  3.01937E+01  2.77360E+01
   3.11333E+01  2.83301E+01  3.22422E+01  2.96463E+01  3.19019E+01  2.45056E+01  2.56653E+01  3.02369E+01  2.51747E+01  2.53128E+01
   2.54971E+01  2.56548E+01  2.31381E+01  2.38858E+01  2.81316E+01  2.46845E+01  2.52594E+01  2.59504E+01  2.83282E+01  2.48399E+01
   2.34817E+01  2.64687E+01  2.70869E+01  2.52671E+01  2.34464E+01  2.24085E+01  2.10757E+01  2.41203E+01  2.46927E+01  2.05794E+01
   2.60478E+01  2.17444E+01  2.49815E+01  2.26538E+01  2.52873E+01  2.16238E+01  1.67264E+01  2.17557E+01
 NY points of the fit to the data follow
  -5.74382E-01 -1.76243E+00 -3.94037E-01 -1.29945E+00 -1.94327E-01 -1.28106E+00 -9.56186E-01 -2.08122E+00 -2.16740E+00 -3.76698E+00
  -4.29856E+00 -5.54316E+00 -5.68671E+00 -6.61837E+00 -6.30398E+00 -6.47832E+00 -5.91160E+00 -6.53433E+00 -5.84710E+00 -6.87571E+00
  -5.54109E+00 -6.16026E+00 -3.92843E+00 -4.65457E+00 -2.65007E+00 -3.26072E+00 -2.38957E+00 -3.23500E+00 -4.10455E+00 -4.15778E+00
  -4.35536E+00 -4.54785E+00 -5.42222E+00 -5.29287E+00 -6.28394E+00 -5.64191E+00 -6.44714E+00 -5.09442E+00 -5.08934E+00 -3.49531E+00
  -3.52536E+00 -2.87802E+00 -3.23124E+00 -3.26361E+00 -3.95126E+00 -4.63813E+00 -5.70881E+00 -5.83902E+00 -6.56723E+00 -6.85039E+00
  -8.17202E+00 -8.45545E+00 -9.57168E+00 -1.00928E+01 -1.09604E+01 -1.14204E+01 -1.13226E+01 -1.12913E+01 -1.10719E+01 -1.12173E+01
  -1.11996E+01 -1.14483E+01 -1.13140E+01 -1.17965E+01 -1.15701E+01 -1.24111E+01 -1.25864E+01 -1.37743E+01 -1.40430E+01 -1.45894E+01
  -1.41557E+01 -1.45171E+01 -1.42256E+01 -1.47826E+01 -1.45655E+01 -1.52350E+01 -1.49237E+01 -1.59779E+01 -1.59147E+01 -1.74606E+01
  -1.76836E+01 -1.90111E+01 -1.87914E+01 -1.95091E+01 -1.83549E+01 -1.89412E+01 -1.78382E+01 -1.86048E+01 -1.79417E+01 -1.83052E+01
  -1.63691E+01 -1.57724E+01 -1.11984E+01 -1.06598E+01 -5.95232E+00 -6.68162E+00 -3.87141E+00 -5.62975E+00 -3.68318E+00 -6.29923E+00
  -5.96986E+00 -8.72527E+00 -8.80302E+00 -1.14201E+01 -1.19290E+01 -1.42663E+01 -1.50844E+01 -1.66818E+01 -1.69752E+01 -1.77635E+01
  -1.71022E+01 -1.74569E+01 -1.59947E+01 -1.59454E+01 -1.33147E+01 -1.23274E+01 -7.08776E+00 -6.13109E+00 -1.11163E+00 -1.57203E+00
   6.09669E-01 -1.19366E+00 -1.45636E+00 -3.24178E+00 -3.19080E+00 -5.26647E+00 -5.91188E+00 -8.25982E+00 -9.53224E+00 -1.16911E+01
  -1.28909E+01 -1.48410E+01 -1.60584E+01 -1.72712E+01 -1.67375E+01 -1.71756E+01 -1.54371E+01 -1.58377E+01 -1.46182E+01 -1.52803E+01
  -1.46487E+01 -1.52835E+01 -1.48292E+01 -1.56350E+01 -1.59525E+01 -1.73874E+01 -1.94672E+01 -2.02351E+01 -2.02138E+01 -2.03428E+01
  -2.01739E+01 -2.03498E+01 -2.01317E+01 -2.03746E+01 -2.01874E+01 -2.02088E+01 -2.00211E+01 -2.01320E+01 -2.01565E+01 -2.04177E+01
  -2.06968E+01 -2.10230E+01 -2.14710E+01 -2.18059E+01 -2.22505E+01 -2.26135E+01 -2.30879E+01 -2.34497E+01 -2.38812E+01 -2.43085E+01
  -2.46332E+01 -2.51296E+01 -2.52898E+01 -2.57256E+01 -2.57561E+01 -2.62134E+01 -2.63174E+01 -2.68053E+01 -2.67870E+01 -2.70634E+01
  -2.67790E+01 -2.67214E+01 -2.63799E+01 -2.62409E+01 -2.62406E+01 -2.62227E+01 -2.67258E+01 -2.67089E+01 -2.74668E+01 -2.71863E+01
  -2.76386E+01 -2.67285E+01 -2.67344E+01 -2.51309E+01 -2.47558E+01 -2.29246E+01 -2.27125E+01 -2.16452E+01 -2.24567E+01 -2.23766E+01
  -2.44964E+01 -2.41784E+01 -2.59233E+01 -2.50134E+01 -2.55155E+01 -2.42297E+01 -2.37253E+01 -2.24142E+01 -2.13077E+01 -2.04773E+01
  -1.96274E+01 -1.91508E+01 -1.83464E+01 -1.79232E+01 -1.68823E+01 -1.59789E+01 -1.45931E+01 -1.37844E+01 -1.34497E+01 -1.29109E+01
  -1.31906E+01 -1.26475E+01 -1.30204E+01 -1.21457E+01 -1.21010E+01 -1.12883E+01 -1.12855E+01 -9.87070E+00 -9.31520E+00 -7.44058E+00
  -6.35971E+00 -5.64058E+00 -5.97308E+00 -6.30073E+00 -6.39357E+00 -7.55514E+00 -7.50928E+00 -8.35791E+00 -7.48219E+00 -8.37548E+00
  -6.98546E+00 -7.06578E+00 -4.59489E+00 -4.21564E+00 -2.39476E+00 -1.95780E+00 -4.94633E-01  4.48183E-01  3.06339E+00  5.15670E+00
   9.79640E+00  1.23448E+01  1.63096E+01  1.77547E+01  1.95349E+01  2.00614E+01  2.11083E+01  2.05772E+01  1.94949E+01  1.84645E+01
   1.70154E+01  1.59203E+01  1.43228E+01  1.39556E+01  1.22438E+01  1.16423E+01  9.67108E+00  9.17997E+00  8.38505E+00  8.37774E+00
   8.58182E+00  8.64413E+00  8.52238E+00  8.46363E+00  8.11552E+00  8.08789E+00  7.88888E+00  7.95508E+00  7.45779E+00  7.26231E+00
   5.61993E+00  5.50417E+00  5.78080E+00  6.27928E+00  6.75967E+00  7.44052E+00  8.11251E+00  8.86798E+00  9.64443E+00  1.05141E+01
   1.13989E+01  1.23517E+01  1.33278E+01  1.43419E+01  1.53701E+01  1.64691E+01  1.75861E+01  1.87613E+01  1.99528E+01  2.11907E+01
   2.24328E+01  2.37128E+01  2.49730E+01  2.62669E+01  2.75422E+01  2.88556E+01  3.01644E+01  3.15448E+01  3.29830E+01  3.46291E+01
   3.64763E+01  3.78304E+01  3.94746E+01  4.08952E+01  4.27847E+01  4.50038E+01  4.81000E+01  5.05737E+01  5.51396E+01  5.61900E+01
   5.91067E+01  5.84035E+01  5.90958E+01  5.78081E+01  5.87076E+01  5.78184E+01  6.04387E+01  6.29616E+01  6.69581E+01  7.16403E+01
   7.48743E+01  7.98061E+01  8.26287E+01  8.76455E+01  8.91644E+01  9.37474E+01  9.53226E+01  9.86568E+01  9.92849E+01  1.00432E+02
   9.93665E+01  9.90218E+01  9.64922E+01  9.47754E+01  9.25475E+01  9.07934E+01  8.91248E+01  8.81925E+01  8.63488E+01  8.73022E+01
   8.71648E+01  8.77142E+01  8.73560E+01  8.78477E+01  8.72648E+01  8.74369E+01  8.53697E+01  8.38382E+01  8.27807E+01  8.19589E+01
   8.12166E+01  8.05545E+01  7.98942E+01  7.92681E+01  7.86147E+01  7.79768E+01  7.73001E+01  7.66327E+01  7.59246E+01  7.52273E+01
   7.44935E+01  7.37766E+01  7.30306E+01  7.23099E+01  7.15691E+01  7.08626E+01  7.01452E+01  6.94708E+01  6.87934E+01  6.81661E+01
   6.75419E+01  6.69730E+01  6.64112E+01  6.59072E+01  6.54118E+01  6.49743E+01  6.45442E+01  6.41695E+01  6.37987E+01  6.34785E+01
   6.31561E+01  6.28775E+01  6.25891E+01  6.23360E+01  6.20641E+01  6.18182E+01  6.15439E+01  6.12859E+01  6.09903E+01  6.07021E+01
   6.03679E+01  6.00336E+01  5.96467E+01  5.92541E+01  5.88046E+01  5.83465E+01  5.78298E+01  5.73041E+01  5.67208E+01  5.61306E+01
   5.54862E+01  5.48394E+01  5.41436E+01  5.34513E+01  5.27166E+01  5.19923E+01  5.12329E+01  5.04910E+01  4.97209E+01  4.89752E+01
   4.82079E+01  4.74710E+01  4.67180E+01  4.60003E+01  4.52709E+01  4.45804E+01  4.38814E+01  4.32239E+01  4.25599E+01  4.19388E+01
   4.13121E+01  4.07288E+01  4.01401E+01  3.95946E+01  3.90433E+01  3.85345E+01  3.80190E+01  3.75449E+01  3.70630E+01  3.66212E+01
   3.61703E+01  3.57583E+01  3.53357E+01  3.49506E+01  3.45537E+01  3.41929E+01  3.38191E+01  3.34802E+01  3.31270E+01  3.28076E+01
   3.24729E+01  3.21710E+01  3.18527E+01  3.15663E+01  3.12627E+01  3.09901E+01  3.06996E+01  3.04393E+01  3.01604E+01  2.99111E+01
   2.96427E+01  2.94032E+01  2.91441E+01  2.89134E+01  2.86626E+01  2.84398E+01  2.81966E+01  2.79810E+01  2.77445E+01  2.75353E+01
   2.73050E+01  2.71017E+01  2.68770E+01  2.66791E+01  2.64595E+01  2.62665E+01  2.60516E+01  2.58631E+01  2.56527E+01  2.54684E+01
   2.52621E+01  2.50817E+01  2.48792E+01  2.47026E+01  2.45038E+01  2.43307E+01  2.41353E+01  2.39656E+01  2.37735E+01  2.36071E+01
   2.34183E+01  2.32551E+01  2.30695E+01  2.29095E+01  2.27271E+01  2.25703E+01  2.23912E+01  2.22378E+01
 NY background values follow
    -1.629E+01   -1.636E+01   -1.642E+01   -1.649E+01   -1.656E+01   -1.663E+01   -1.671E+01   -1.678E+01   -1.686E+01   -1.694E+01
    -1.701E+01   -1.709E+01   -1.717E+01   -1.726E+01   -1.734E+01   -1.743E+01   -1.751E+01   -1.760E+01   -1.769E+01   -1.778E+01
    -1.787E+01   -1.796E+01   -1.805E+01   -1.814E+01   -1.824E+01   -1.833E+01   -1.843E+01   -1.853E+01   -1.862E+01   -1.872E+01
    -1.882E+01   -1.892E+01   -1.902E+01   -1.912E+01   -1.923E+01   -1.933E+01   -1.943E+01   -1.954E+01   -1.964E+01   -1.975E+01
    -1.986E+01   -1.996E+01   -2.007E+01   -2.018E+01   -2.029E+01   -2.040E+01   -2.051E+01   -2.062E+01   -2.073E+01   -2.084E+01
    -2.095E+01   -2.106E+01   -2.117E+01   -2.128E+01   -2.139E+01   -2.150E+01   -2.162E+01   -2.173E+01   -2.184E+01   -2.195E+01
    -2.207E+01   -2.218E+01   -2.229E+01   -2.240E+01   -2.252E+01   -2.263E+01   -2.274E+01   -2.285E+01   -2.296E+01   -2.308E+01
    -2.319E+01   -2.330E+01   -2.341E+01   -2.352E+01   -2.363E+01   -2.374E+01   -2.385E+01   -2.396E+01   -2.407E+01   -2.418E+01
    -2.429E+01   -2.440E+01   -2.451E+01   -2.461E+01   -2.472E+01   -2.483E+01   -2.493E+01   -2.504E+01   -2.514E+01   -2.524E+01
    -2.535E+01   -2.545E+01   -2.555E+01   -2.565E+01   -2.575E+01   -2.585E+01   -2.595E+01   -2.604E+01   -2.614E+01   -2.624E+01
    -2.633E+01   -2.643E+01   -2.652E+01   -2.661E+01   -2.670E+01   -2.679E+01   -2.688E+01   -2.697E+01   -2.705E+01   -2.714E+01
    -2.722E+01   -2.730E+01   -2.738E+01   -2.746E+01   -2.754E+01   -2.762E+01   -2.770E+01   -2.777E+01   -2.785E+01   -2.792E+01
    -2.799E+01   -2.806E+01   -2.813E+01   -2.819E+01   -2.826E+01   -2.832E+01   -2.838E+01   -2.844E+01   -2.850E+01   -2.856E+01
    -2.861E+01   -2.866E+01   -2.872E+01   -2.877E+01   -2.881E+01   -2.886E+01   -2.891E+01   -2.895E+01   -2.899E+01   -2.903E+01
    -2.907E+01   -2.910E+01   -2.914E+01   -2.917E+01   -2.920E+01   -2.923E+01   -2.925E+01   -2.928E+01   -2.930E+01   -2.932E+01
    -2.934E+01   -2.936E+01   -2.937E+01   -2.938E+01   -2.939E+01   -2.940E+01   -2.941E+01   -2.941E+01   -2.941E+01   -2.941E+01
    -2.941E+01   -2.941E+01   -2.940E+01   -2.939E+01   -2.938E+01   -2.937E+01   -2.935E+01   -2.933E+01   -2.931E+01   -2.929E+01
    -2.927E+01   -2.924E+01   -2.921E+01   -2.918E+01   -2.914E+01   -2.911E+01   -2.907E+01   -2.903E+01   -2.898E+01   -2.894E+01
    -2.889E+01   -2.884E+01   -2.878E+01   -2.873E+01   -2.867E+01   -2.860E+01   -2.854E+01   -2.847E+01   -2.840E+01   -2.833E+01
    -2.826E+01   -2.818E+01   -2.810E+01   -2.802E+01   -2.793E+01   -2.784E+01   -2.775E+01   -2.766E+01   -2.756E+01   -2.746E+01
    -2.736E+01   -2.725E+01   -2.715E+01   -2.704E+01   -2.692E+01   -2.680E+01   -2.668E+01   -2.656E+01   -2.644E+01   -2.631E+01
    -2.618E+01   -2.604E+01   -2.590E+01   -2.576E+01   -2.562E+01   -2.547E+01   -2.532E+01   -2.517E+01   -2.501E+01   -2.485E+01
    -2.469E+01   -2.453E+01   -2.436E+01   -2.419E+01   -2.401E+01   -2.383E+01   -2.365E+01   -2.346E+01   -2.328E+01   -2.308E+01
    -2.289E+01   -2.269E+01   -2.249E+01   -2.228E+01   -2.207E+01   -2.186E+01   -2.165E+01   -2.143E+01   -2.121E+01   -2.098E+01
    -2.075E+01   -2.052E+01   -2.028E+01   -2.004E+01   -1.980E+01   -1.955E+01   -1.930E+01   -1.904E+01   -1.879E+01   -1.852E+01
    -1.826E+01   -1.799E+01   -1.772E+01   -1.744E+01   -1.716E+01   -1.688E+01   -1.659E+01   -1.631E+01   -1.601E+01   -1.572E+01
    -1.542E+01   -1.512E+01   -1.482E+01   -1.451E+01   -1.420E+01   -1.389E+01   -1.357E+01   -1.326E+01   -1.294E+01   -1.262E+01
    -1.229E+01   -1.197E+01   -1.164E+01   -1.131E+01   -1.098E+01   -1.064E+01   -1.031E+01   -9.971E+00   -9.631E+00   -9.290E+00
    -8.948E+00   -8.604E+00   -8.258E+00   -7.912E+00   -7.564E+00   -7.214E+00   -6.864E+00   -6.512E+00   -6.160E+00   -5.806E+00
    -5.452E+00   -5.096E+00   -4.740E+00   -4.384E+00   -4.026E+00   -3.669E+00   -3.310E+00   -2.952E+00   -2.593E+00   -2.233E+00
    -1.874E+00   -1.514E+00   -1.154E+00   -7.946E-01   -4.350E-01   -7.549E-02    2.838E-01    6.428E-01    1.001E+00    1.360E+00
     1.717E+00    2.075E+00    2.431E+00    2.787E+00    3.142E+00    3.496E+00    3.850E+00    4.202E+00    4.554E+00    4.904E+00
     5.253E+00    5.601E+00    5.947E+00    6.292E+00    6.636E+00    6.978E+00    7.319E+00    7.658E+00    7.995E+00    8.331E+00
     8.664E+00    8.996E+00    9.325E+00    9.653E+00    9.978E+00    1.030E+01    1.062E+01    1.094E+01    1.126E+01    1.157E+01
     1.188E+01    1.219E+01    1.250E+01    1.280E+01    1.310E+01    1.340E+01    1.369E+01    1.398E+01    1.427E+01    1.456E+01
     1.484E+01    1.512E+01    1.539E+01    1.566E+01    1.593E+01    1.620E+01    1.646E+01    1.672E+01    1.697E+01    1.722E+01
     1.747E+01    1.771E+01    1.794E+01    1.818E+01    1.841E+01    1.863E+01    1.885E+01    1.907E+01    1.928E+01    1.949E+01
     1.969E+01    1.989E+01    2.008E+01    2.027E+01    2.046E+01    2.064E+01    2.081E+01    2.098E+01    2.114E+01    2.130E+01
     2.146E+01    2.161E+01    2.176E+01    2.190E+01    2.204E+01    2.217E+01    2.230E+01    2.242E+01    2.254E+01    2.266E+01
     2.277E+01    2.288E+01    2.298E+01    2.308E+01    2.317E+01    2.326E+01    2.335E+01    2.343E+01    2.351E+01    2.359E+01
     2.366E+01    2.373E+01    2.379E+01    2.385E+01    2.391E+01    2.396E+01    2.401E+01    2.405E+01    2.410E+01    2.414E+01
     2.417E+01    2.420E+01    2.423E+01    2.426E+01    2.428E+01    2.430E+01    2.431E+01    2.433E+01    2.434E+01    2.434E+01
     2.434E+01    2.435E+01    2.434E+01    2.434E+01    2.433E+01    2.432E+01    2.430E+01    2.429E+01    2.427E+01    2.424E+01
     2.422E+01    2.419E+01    2.416E+01    2.413E+01    2.409E+01    2.406E+01    2.402E+01    2.398E+01    2.393E+01    2.388E+01
     2.384E+01    2.378E+01    2.373E+01    2.368E+01    2.362E+01    2.356E+01    2.350E+01    2.343E+01    2.337E+01    2.330E+01
     2.323E+01    2.316E+01    2.309E+01    2.301E+01    2.294E+01    2.286E+01    2.278E+01    2.270E+01    2.262E+01    2.253E+01
     2.245E+01    2.236E+01    2.227E+01    2.218E+01    2.209E+01    2.200E+01    2.191E+01    2.181E+01    2.172E+01    2.162E+01
     2.152E+01    2.142E+01    2.133E+01    2.122E+01    2.112E+01    2.102E+01    2.092E+01    2.081E+01    2.071E+01    2.060E+01
     2.050E+01    2.039E+01    2.029E+01    2.018E+01    2.007E+01    1.996E+01    1.985E+01    1.974E+01    1.963E+01    1.952E+01
     1.941E+01    1.930E+01    1.919E+01    1.908E+01    1.897E+01    1.886E+01    1.875E+01    1.864E+01
 Ala      Conc. = 2.81E+03
