 LCModel (Version 6.3-1L) Copyright: S.W. Provencher.          Ref.: Magn. Reson. Med. 30:672-679 (1993).                
 Slice#3 Row#10 Col#7  PD_24_press_1_raw_act
 36 lines in following concentration table = NCONC+1
    Conc.  %SD /Cr+PCr  Metabolite                                         
    0.000 999%   0.000 Ala                                                 
  205.749 111%   0.116 Asp                                                 
  850.605  23%   0.479 Cr                                                  
  923.455  22%   0.521 PCr                                                 
    0.000 999%   0.000 GABA                                                
   19.227 786% 1.1E-02 Glc                                                 
  590.853  35%   0.333 Gln                                                 
 1.75E+03  13%   0.986 Glu                                                 
  637.277   4%   0.359 GPC                                                 
    0.000 999%   0.000 PCh                                                 
  628.490  11%   0.354 GSH                                                 
 1.46E+03  17%   0.822 Ins                                                 
  134.135  80% 7.6E-02 Lac                                                 
 2.16E+03   5%   1.217 NAA                                                 
   11.286 999% 6.4E-03 NAAG                                                
   70.584  37% 4.0E-02 Scyllo                                              
    0.000 999%   0.000 Tau                                                 
    0.000 999%   0.000 -CrCH2                                              
  637.277   4%   0.359 GPC+PCh                                             
 2.17E+03   4%   1.223 NAA+NAAG                                            
 1.77E+03   3%   1.000 Cr+PCr                                              
 2.34E+03  13%   1.319 Glu+Gln                                             
 2.42E+03  23%   1.366 Lip13a                                              
    0.000 999%   0.000 Lip13b                                              
    0.000 999%   0.000 Lip09                                               
 1.64E+03  13%   0.923 MM09                                                
  266.565  88%   0.150 Lip20                                               
 3.25E+03  13%   1.833 MM20                                                
  585.503  31%   0.330 MM12                                                
 2.43E+03  19%   1.369 MM14                                                
 1.46E+03  21%   0.825 MM17                                                
 2.42E+03  23%   1.366 Lip13a+Lip13b                                       
 5.44E+03   9%   3.065 MM14+Lip13a+Lip13b+MM12                             
 1.64E+03  13%   0.923 MM09+Lip09                                          
 3.52E+03  12%   1.983 MM20+Lip20                                          
   6 lines in following misc. output table
  FWHM = 0.046 ppm    S/N =  12                                            
  Data shift = 0.015 ppm                                                   
  Ph:   9 deg       2.4 deg/ppm                                            
  alphaB,S = 1.2E+00,   4.4E+01                                            
   14 spline knots.   Ns = 6(1)                                            
  ( 9) 4 infls.   ( 5) 1 extrs.                                            
  498 points on ppm-axis = NY
      4.000000     3.992357     3.984714     3.977070     3.969427     3.961784     3.954141     3.946497     3.938854     3.931211
      3.923568     3.915925     3.908281     3.900638     3.892995     3.885352     3.877708     3.870065     3.862422     3.854779
      3.847136     3.839492     3.831849     3.824206     3.816563     3.808919     3.801276     3.793633     3.785990     3.778347
      3.770703     3.763060     3.755417     3.747774     3.740130     3.732487     3.724844     3.717201     3.709558     3.701914
      3.694271     3.686628     3.678985     3.671341     3.663698     3.656055     3.648412     3.640769     3.633125     3.625482
      3.617839     3.610196     3.602552     3.594909     3.587266     3.579623     3.571980     3.564336     3.556693     3.549050
      3.541407     3.533763     3.526120     3.518477     3.510834     3.503191     3.495547     3.487904     3.480261     3.472618
      3.464974     3.457331     3.449688     3.442045     3.434402     3.426758     3.419115     3.411472     3.403829     3.396185
      3.388542     3.380899     3.373256     3.365613     3.357969     3.350326     3.342683     3.335040     3.327396     3.319753
      3.312110     3.304467     3.296824     3.289180     3.281537     3.273894     3.266251     3.258607     3.250964     3.243321
      3.235678     3.228034     3.220391     3.212748     3.205105     3.197462     3.189818     3.182175     3.174532     3.166889
      3.159245     3.151602     3.143959     3.136316     3.128673     3.121029     3.113386     3.105743     3.098100     3.090456
      3.082813     3.075170     3.067527     3.059884     3.052240     3.044597     3.036954     3.029311     3.021667     3.014024
      3.006381     2.998738     2.991095     2.983451     2.975808     2.968165     2.960522     2.952878     2.945235     2.937592
      2.929949     2.922306     2.914662     2.907019     2.899376     2.891733     2.884089     2.876446     2.868803     2.861160
      2.853517     2.845873     2.838230     2.830587     2.822944     2.815300     2.807657     2.800014     2.792371     2.784728
      2.777084     2.769441     2.761798     2.754155     2.746511     2.738868     2.731225     2.723582     2.715939     2.708295
      2.700652     2.693009     2.685366     2.677722     2.670079     2.662436     2.654793     2.647150     2.639506     2.631863
      2.624220     2.616577     2.608933     2.601290     2.593647     2.586004     2.578361     2.570717     2.563074     2.555431
      2.547788     2.540144     2.532501     2.524858     2.517215     2.509572     2.501928     2.494285     2.486642     2.478999
      2.471355     2.463712     2.456069     2.448426     2.440783     2.433139     2.425496     2.417853     2.410210     2.402566
      2.394923     2.387280     2.379637     2.371994     2.364350     2.356707     2.349064     2.341421     2.333777     2.326134
      2.318491     2.310848     2.303205     2.295561     2.287918     2.280275     2.272632     2.264988     2.257345     2.249702
      2.242059     2.234416     2.226772     2.219129     2.211486     2.203843     2.196199     2.188556     2.180913     2.173270
      2.165627     2.157983     2.150340     2.142697     2.135054     2.127410     2.119767     2.112124     2.104481     2.096838
      2.089194     2.081551     2.073908     2.066265     2.058621     2.050978     2.043335     2.035692     2.028049     2.020405
      2.012762     2.005119     1.997476     1.989833     1.982190     1.974546     1.966903     1.959260     1.951617     1.943974
      1.936331     1.928688     1.921045     1.913402     1.905759     1.898115     1.890472     1.882829     1.875186     1.867543
      1.859900     1.852257     1.844614     1.836971     1.829327     1.821684     1.814041     1.806398     1.798755     1.791112
      1.783469     1.775826     1.768183     1.760540     1.752896     1.745253     1.737610     1.729967     1.722324     1.714681
      1.707038     1.699395     1.691752     1.684108     1.676465     1.668822     1.661179     1.653536     1.645893     1.638250
      1.630607     1.622964     1.615321     1.607677     1.600034     1.592391     1.584748     1.577105     1.569462     1.561819
      1.554176     1.546533     1.538890     1.531246     1.523603     1.515960     1.508317     1.500674     1.493031     1.485388
      1.477745     1.470102     1.462458     1.454815     1.447172     1.439529     1.431886     1.424243     1.416600     1.408957
      1.401314     1.393671     1.386027     1.378384     1.370741     1.363098     1.355455     1.347812     1.340169     1.332526
      1.324883     1.317240     1.309596     1.301953     1.294310     1.286667     1.279024     1.271381     1.263738     1.256095
      1.248452     1.240808     1.233165     1.225522     1.217879     1.210236     1.202593     1.194950     1.187307     1.179664
      1.172021     1.164377     1.156734     1.149091     1.141448     1.133805     1.126162     1.118519     1.110876     1.103233
      1.095590     1.087946     1.080303     1.072660     1.065017     1.057374     1.049731     1.042088     1.034445     1.026802
      1.019158     1.011515     1.003872     0.996229     0.988586     0.980943     0.973300     0.965657     0.958014     0.950371
      0.942727     0.935084     0.927441     0.919798     0.912155     0.904512     0.896869     0.889226     0.881583     0.873940
      0.866296     0.858653     0.851010     0.843367     0.835724     0.828081     0.820438     0.812795     0.805152     0.797508
      0.789865     0.782222     0.774579     0.766936     0.759293     0.751650     0.744007     0.736364     0.728721     0.721077
      0.713434     0.705791     0.698148     0.690505     0.682862     0.675219     0.667576     0.659933     0.652290     0.644646
      0.637003     0.629360     0.621717     0.614074     0.606431     0.598788     0.591145     0.583502     0.575858     0.568215
      0.560572     0.552929     0.545286     0.537643     0.530000     0.522357     0.514714     0.507071     0.499427     0.491784
      0.484141     0.476498     0.468855     0.461212     0.453569     0.445925     0.438282     0.430639     0.422996     0.415353
      0.407710     0.400067     0.392424     0.384780     0.377137     0.369494     0.361851     0.354208     0.346565     0.338922
      0.331278     0.323635     0.315992     0.308349     0.300706     0.293063     0.285420     0.277777     0.270133     0.262490
      0.254847     0.247204     0.239561     0.231918     0.224275     0.216631     0.208988     0.201345
 NY phased data points follow
   1.48154E+01  1.15863E+01  1.20467E+01  1.48453E+01  2.06301E+01  2.52468E+01  2.64692E+01  3.81130E+01  4.97669E+01  4.87115E+01
   6.13273E+01  6.14735E+01  6.45069E+01  5.65730E+01  4.82725E+01  3.51807E+01  3.60396E+01  2.70545E+01  2.69411E+01  1.94930E+01
   2.20695E+01  1.42378E+01  1.63090E+01  1.73326E+01  2.18381E+01  1.95166E+01  2.38546E+01  2.74569E+01  3.06195E+01  2.45084E+01
   2.99610E+01  2.93122E+01  2.73346E+01  2.41929E+01  2.68861E+01  2.38737E+01  2.05646E+01  2.01562E+01  2.07950E+01  2.08910E+01
   2.52428E+01  1.61930E+01  1.91210E+01  1.48176E+01  2.12748E+01  2.22573E+01  2.47904E+01  2.61589E+01  2.97755E+01  1.82000E+01
   2.29918E+01  2.24113E+01  1.45977E+01  1.33107E+01  1.60116E+01  1.05030E+01  1.86041E+01  1.48336E+01  1.91382E+01  1.48698E+01
   1.65949E+01  1.04817E+01  1.42058E+01  1.13262E+01  1.73573E+00  2.45101E+00  9.32354E+00  6.17630E+00  1.77081E+00  2.08977E+00
   8.23274E+00 -4.73324E-01  4.22627E+00  5.27850E+00  1.23085E+01  8.91934E+00  9.45805E+00  8.43809E+00  3.84008E+00 -1.28509E+00
   8.80628E+00  4.61902E+00  2.95202E+00  6.61110E+00  4.63711E+00  7.72212E+00  9.20545E+00  4.05305E+00  6.79963E+00  4.05291E+00
   9.53994E+00  5.70898E+00  8.90930E+00  2.46284E+00  7.32214E+00  7.64106E+00  4.64021E+00  1.65924E+00  7.57804E+00  1.10842E+01
   2.29984E+01  4.11956E+01  5.81124E+01  6.70683E+01  7.53093E+01  6.63959E+01  4.86541E+01  3.72766E+01  2.11098E+01  1.59128E+01
   1.24190E+01  9.97146E+00  7.83990E+00  1.17102E+01  5.50301E+00  1.07437E+00  4.09162E+00  3.97748E+00  2.67531E+00  3.41696E+00
   2.19744E+00  3.64850E+00  1.07632E+01  1.48256E+01  2.32682E+01  3.69597E+01  5.06300E+01  5.80608E+01  7.31892E+01  5.72357E+01
   5.37056E+01  3.95617E+01  3.00395E+01  1.64636E+01  1.67930E+01  1.08008E+01  8.80657E+00 -4.96085E+00  5.30228E+00  4.43466E+00
   3.10266E+00  1.79184E+00  1.37871E+00 -9.09715E-01  1.35035E+00 -1.68018E+00  5.20370E-01 -5.79490E+00 -1.30177E+00  6.26326E+00
  -1.17965E+00 -5.27022E+00 -1.64524E+00 -3.05386E+00  3.41012E-01  1.10136E+00 -4.44954E+00 -4.83327E+00 -5.47407E+00 -2.34300E+00
  -2.47167E+00 -6.64709E+00 -6.20628E+00 -9.86153E+00 -3.56873E+00 -1.79607E+00  2.13927E+00 -2.01791E+00 -1.72433E+00 -4.73145E+00
  -5.29031E+00 -1.04602E+01 -6.98227E+00 -6.02483E+00 -8.47724E+00 -1.37696E+01 -7.75363E+00 -1.14066E+01 -1.28964E+01 -7.37384E+00
  -1.14878E+01 -1.25808E+01 -1.26241E+01 -1.19960E+01 -1.23445E+01 -1.14726E+01 -9.17823E+00 -9.40297E+00 -8.60278E+00 -5.66022E+00
  -2.35099E+00 -2.10542E-01  2.52714E+00  8.03466E+00  3.21180E+00 -7.52169E-01  7.53422E-01 -2.32328E+00 -3.05040E+00 -9.73031E+00
  -2.57083E+00 -1.73145E-01  4.60683E+00 -2.75665E+00  3.10791E+00  3.48082E+00 -4.83775E-01 -5.90392E+00 -5.40941E+00 -3.80630E+00
  -8.48933E+00 -1.28725E+01 -1.06106E+00 -2.98111E+00  8.76494E+00  6.79935E+00  1.59912E+01  1.23380E+01  6.49775E+00  3.78119E+00
  -1.46630E+00 -1.18828E+01 -1.01729E+01  1.16689E+00 -1.67163E+00  2.16220E+00  5.45577E+00  5.34637E+00  2.89326E+00  6.40582E+00
   6.80569E+00  6.88384E+00  5.71036E+00  8.75797E+00  5.17137E+00  7.63933E+00  6.59009E+00  8.14778E+00  6.39719E+00  2.52307E+00
   5.68902E+00 -1.22815E+00  1.37723E+00  3.90330E-01  6.34672E+00  5.25981E+00  6.90707E+00  1.12307E+01  1.18814E+01  1.37955E+01
   9.74010E+00  1.02540E+01  1.07129E+01  1.01385E+01  1.31389E+01  1.85878E+01  3.04321E+01  4.16658E+01  6.34702E+01  7.48848E+01
   8.57750E+01  8.81766E+01  7.19500E+01  6.09699E+01  4.07963E+01  2.55827E+01  2.19180E+01  1.14877E+01  1.39647E+01  8.46452E+00
   4.92525E+00  6.95127E+00  2.44282E+00 -2.00643E+00  7.21679E+00  3.00802E+00  3.19852E+00  2.26740E+00  3.43592E+00  1.54314E+00
  -7.95068E-01  1.28278E+00  5.95226E+00  1.61337E+00  1.86003E+00 -2.58915E+00  2.29141E+00  2.65168E-01  6.98562E+00  6.29105E-01
   4.86596E+00  5.75727E+00  4.54727E+00  1.57268E+00 -1.68747E+00  1.97887E-01  3.10992E+00  1.13444E+00  1.87419E+00  5.06257E+00
   4.05090E+00  2.27637E+00  1.04498E+00 -1.40106E+00  9.97237E+00  3.31988E+00  8.77821E+00  8.98559E+00  9.37818E+00  4.93193E+00
   1.25274E+01  5.82327E+00  9.52426E+00  1.32579E+01  5.39235E+00  9.10342E+00  9.45673E+00  7.04632E+00  6.57809E+00  6.06671E+00
   8.98436E+00  1.29212E+01  5.02841E+00  8.77785E+00  1.46008E+01  8.19759E+00  7.50982E+00  9.79078E+00  5.81174E+00  7.79913E+00
   6.45174E+00  1.02774E+01  1.22231E+01  1.70550E+01  1.67520E+01  1.21644E+01  1.28893E+01  1.12156E+01  1.04278E+01  1.02467E+01
   1.42241E+01  9.92176E+00  1.28977E+01  1.28392E+01  1.85987E+01  1.78183E+01  1.56346E+01  1.52686E+01  1.43092E+01  9.90317E+00
   1.22258E+01  1.46726E+01  1.05755E+01  1.12087E+01  1.32923E+01  1.63649E+01  1.04461E+01  1.26436E+01  1.25761E+01  1.48450E+01
   1.06897E+01  7.01493E+00  1.01321E+01  7.78769E+00  1.14289E+01  7.77449E+00  1.26978E+01  4.97183E+00  5.65420E+00  7.66585E+00
   1.03659E+01  9.33179E+00  9.11890E+00  6.54949E+00  3.19204E+00  6.68328E+00  7.85552E+00  7.93692E+00  6.52972E+00  7.77521E+00
   5.10264E+00  2.88884E+00  1.04795E+00  9.24564E-01  3.20809E-01  3.11362E+00  6.79715E+00  2.15267E+00  8.72024E+00  5.29792E-01
   2.31656E+00 -1.69047E+00  1.10324E+00 -1.15602E+00  1.67734E+00  4.20798E+00  4.46158E+00  3.66393E+00  5.31577E+00  8.27282E+00
   7.16691E+00  6.32134E+00  3.90172E+00  5.09959E+00  6.25069E+00  8.30400E+00  1.11572E+01  1.07441E+01  1.22984E+01  1.08979E+01
   1.16797E+01  1.13669E+01  3.57941E+00  3.95796E+00  5.90091E+00  8.43764E+00  7.61700E+00  6.23149E+00  2.49393E+00  5.55338E+00
   5.23655E-01  2.79599E+00  2.77193E+00  2.09982E+00  1.70584E+00  4.03266E+00  4.78323E+00  1.28384E+00  2.25893E+00  1.78921E+00
  -4.83184E+00  1.51390E+00  2.44389E+00 -4.60503E-01  2.29338E+00 -5.86445E+00 -2.52631E+00 -3.17329E+00  1.73169E+00  1.36903E+00
   5.44741E-01  5.59055E-01 -5.12759E+00  2.89756E+00 -4.17997E+00  1.88877E+00 -2.43614E+00 -3.59580E+00 -2.63397E+00 -3.44516E+00
  -2.56783E+00 -3.96440E+00 -7.16637E+00 -3.06539E+00  4.90127E-01 -3.58321E+00 -3.75244E+00 -7.22091E-02 -4.32581E+00 -3.12179E+00
  -1.38225E+00  7.19873E-01  4.18725E+00 -3.40625E+00 -6.52791E+00  1.45313E+00 -3.88521E+00  3.82607E+00  3.84144E+00  2.16568E-01
   4.29119E+00 -3.40317E+00 -1.06850E+00  2.47905E-01 -1.71306E+00 -2.22472E+00 -9.17261E-01 -5.18160E-01  1.79298E+00  2.42177E+00
  -1.59607E+00  5.03905E-01 -2.36225E+00  3.46369E-01 -2.77081E+00 -7.06202E+00 -3.83137E+00 -6.04489E+00 -1.96186E+00 -5.30568E+00
  -2.17862E+00  2.81028E+00 -1.03508E+00 -4.97944E+00 -9.34469E+00 -5.08140E+00 -1.70706E+00 -3.15418E+00
 NY points of the fit to the data follow
   1.79776E+01  1.74890E+01  1.74558E+01  1.77710E+01  1.89956E+01  2.15896E+01  2.61417E+01  3.30097E+01  4.16376E+01  5.05124E+01
   5.74908E+01  6.03035E+01  5.81210E+01  5.16919E+01  4.33878E+01  3.59273E+01  3.04082E+01  2.61630E+01  2.28796E+01  2.02174E+01
   1.87205E+01  1.79316E+01  1.73816E+01  1.69968E+01  1.70236E+01  1.76944E+01  1.94839E+01  2.23901E+01  2.55866E+01  2.86263E+01
   3.08055E+01  3.10822E+01  2.97031E+01  2.71364E+01  2.40010E+01  2.12519E+01  1.82579E+01  1.53591E+01  1.40389E+01  1.35671E+01
   1.37373E+01  1.44827E+01  1.56200E+01  1.74398E+01  1.97415E+01  2.22143E+01  2.43873E+01  2.53767E+01  2.46990E+01  2.25144E+01
   1.93320E+01  1.60964E+01  1.38497E+01  1.26253E+01  1.16711E+01  1.11117E+01  1.14306E+01  1.22764E+01  1.30749E+01  1.36907E+01
   1.38047E+01  1.32748E+01  1.21527E+01  1.06684E+01  9.37601E+00  8.62173E+00  8.34732E+00  8.49924E+00  8.95010E+00  9.50146E+00
   1.00187E+01  1.03327E+01  1.04065E+01  1.01800E+01  9.69826E+00  9.12679E+00  8.57563E+00  8.18224E+00  7.88389E+00  7.56784E+00
   7.37411E+00  7.33802E+00  7.43700E+00  7.64947E+00  7.84200E+00  7.76669E+00  7.31410E+00  6.47869E+00  5.35596E+00  4.38044E+00
   3.90082E+00  3.98202E+00  4.47234E+00  4.91269E+00  5.07396E+00  5.16285E+00  5.19006E+00  5.87822E+00  8.87554E+00  1.53281E+01
   2.66331E+01  4.20742E+01  5.73978E+01  6.87429E+01  7.26831E+01  6.60655E+01  5.26140E+01  3.76202E+01  2.51630E+01  1.81166E+01
   1.29572E+01  6.82295E+00  4.46616E+00  3.89893E+00  3.67267E+00  3.53979E+00  3.44021E+00  3.36414E+00  3.34493E+00  3.44577E+00
   3.83140E+00  5.11043E+00  8.51325E+00  1.48846E+01  2.52178E+01  3.91743E+01  5.34479E+01  6.45764E+01  6.95809E+01  6.55000E+01
   5.45585E+01  4.12286E+01  2.90367E+01  2.07127E+01  1.42177E+01  6.91514E+00  2.75063E+00  1.55328E+00  1.78690E+00  2.74523E+00
   3.62881E+00  4.23742E+00  4.49153E+00  4.25144E+00  3.76631E+00  3.21896E+00  2.61504E+00  2.05460E+00  1.41577E+00  8.32130E-01
   3.50695E-01 -6.45244E-02 -3.97153E-01 -6.43787E-01 -7.95892E-01 -9.30908E-01 -1.13817E+00 -1.50419E+00 -2.07040E+00 -2.69618E+00
  -3.21408E+00 -3.43827E+00 -3.24382E+00 -2.83470E+00 -2.46288E+00 -2.33497E+00 -2.64538E+00 -3.18256E+00 -3.63030E+00 -4.04634E+00
  -4.43179E+00 -4.88369E+00 -5.50493E+00 -6.09444E+00 -6.59375E+00 -6.91946E+00 -7.02396E+00 -6.90705E+00 -6.70010E+00 -6.62754E+00
  -6.73894E+00 -7.01932E+00 -7.26298E+00 -7.23755E+00 -7.06967E+00 -6.75045E+00 -5.96946E+00 -4.63013E+00 -2.70260E+00 -7.63684E-01
   5.23414E-01  8.93272E-01  3.17147E-01 -9.13817E-01 -2.25618E+00 -3.46841E+00 -4.25594E+00 -4.36233E+00 -3.72833E+00 -2.37614E+00
  -5.21633E-01  1.44131E+00  3.07473E+00  4.07758E+00  4.22858E+00  3.33996E+00  1.35157E+00 -1.39245E+00 -4.23701E+00 -6.42394E+00
  -7.49937E+00 -6.85807E+00 -4.38894E+00 -6.96892E-01  3.46347E+00  6.78607E+00  8.21235E+00  7.47633E+00  4.20962E+00 -5.99882E-01
  -5.35485E+00 -8.87652E+00 -1.03590E+01 -9.92010E+00 -7.47584E+00 -3.49257E+00  3.20357E-01  2.98509E+00  4.18078E+00  4.42793E+00
   4.42281E+00  4.21179E+00  4.05355E+00  4.52789E+00  5.50033E+00  6.51445E+00  7.16681E+00  7.26258E+00  6.82282E+00  5.86375E+00
   4.58785E+00  3.51013E+00  3.20348E+00  3.77591E+00  4.92534E+00  6.51769E+00  8.10741E+00  9.16861E+00  9.53385E+00  9.38142E+00
   9.38381E+00  9.60165E+00  1.00301E+01  1.11094E+01  1.40513E+01  1.97800E+01  2.93265E+01  4.38863E+01  6.12043E+01  7.66229E+01
   8.65178E+01  8.64077E+01  7.53710E+01  5.88235E+01  4.20104E+01  2.95051E+01  2.21509E+01  1.46745E+01  8.20117E+00  5.74743E+00
   4.58561E+00  3.80651E+00  3.29723E+00  3.10164E+00  2.98800E+00  2.86298E+00  2.66963E+00  2.37574E+00  2.00425E+00  1.64138E+00
   1.30822E+00  9.95973E-01  7.48699E-01  5.90488E-01  5.00206E-01  4.52927E-01  4.29134E-01  4.34365E-01  4.86038E-01  5.70554E-01
   6.92589E-01  8.59460E-01  1.07234E+00  1.33023E+00  1.62903E+00  1.96646E+00  2.34047E+00  2.74328E+00  3.17077E+00  3.61885E+00
   4.07949E+00  4.54446E+00  5.00500E+00  5.45160E+00  5.87456E+00  6.26458E+00  6.61464E+00  6.91943E+00  7.17611E+00  7.38427E+00
   7.54417E+00  7.65812E+00  7.73185E+00  7.77198E+00  7.78676E+00  7.78563E+00  7.77856E+00  7.77541E+00  7.78559E+00  7.81765E+00
   7.87895E+00  7.97511E+00  8.10976E+00  8.28443E+00  8.49871E+00  8.75042E+00  9.03577E+00  9.34947E+00  9.68505E+00  1.00353E+01
   1.03929E+01  1.07505E+01  1.11015E+01  1.14399E+01  1.17608E+01  1.20606E+01  1.23377E+01  1.25927E+01  1.28285E+01  1.30522E+01
   1.32794E+01  1.35415E+01  1.38462E+01  1.41769E+01  1.44872E+01  1.46393E+01  1.45069E+01  1.40619E+01  1.33026E+01  1.24085E+01
   1.16693E+01  1.12615E+01  1.13058E+01  1.17046E+01  1.21978E+01  1.27723E+01  1.32581E+01  1.33795E+01  1.31680E+01  1.27258E+01
   1.22265E+01  1.17678E+01  1.12118E+01  1.06141E+01  1.00638E+01  9.52827E+00  8.99377E+00  8.45824E+00  7.92340E+00  7.39263E+00
   6.87011E+00  6.36029E+00  5.86759E+00  5.39619E+00  4.94992E+00  4.53225E+00  4.14628E+00  3.79469E+00  3.47979E+00  3.20349E+00
   2.96744E+00  2.77305E+00  2.62163E+00  2.51432E+00  2.45214E+00  2.43599E+00  2.46669E+00  2.54493E+00  2.67119E+00  2.84559E+00
   3.06776E+00  3.33671E+00  3.65065E+00  4.00691E+00  4.40164E+00  4.82975E+00  5.28479E+00  5.75897E+00  6.24325E+00  6.72745E+00
   7.20047E+00  7.65058E+00  8.06586E+00  8.43467E+00  8.74611E+00  8.99052E+00  9.15987E+00  9.24818E+00  9.25181E+00  9.16965E+00
   9.00320E+00  8.75639E+00  8.43538E+00  8.04825E+00  7.60462E+00  7.11514E+00  6.59106E+00  6.04362E+00  5.48371E+00  4.92145E+00
   4.36592E+00  3.82497E+00  3.30504E+00  2.81114E+00  2.34685E+00  1.91450E+00  1.51526E+00  1.14932E+00  8.16065E-01  5.14216E-01
   2.42050E-01 -2.44589E-03 -2.21438E-01 -4.17165E-01 -5.91866E-01 -7.47712E-01 -8.86737E-01 -1.01080E+00 -1.12158E+00 -1.22060E+00
  -1.30924E+00 -1.38873E+00 -1.46014E+00 -1.52436E+00 -1.58221E+00 -1.63440E+00 -1.68157E+00 -1.72427E+00 -1.76296E+00 -1.79805E+00
  -1.82987E+00 -1.85876E+00 -1.88502E+00 -1.90888E+00 -1.93055E+00 -1.95020E+00 -1.96800E+00 -1.98412E+00 -1.99872E+00 -2.01192E+00
  -2.02380E+00 -2.03446E+00 -2.04400E+00 -2.05250E+00 -2.06005E+00 -2.06670E+00 -2.07251E+00 -2.07752E+00 -2.08180E+00 -2.08541E+00
  -2.08840E+00 -2.09079E+00 -2.09258E+00 -2.09383E+00 -2.09458E+00 -2.09487E+00 -2.09472E+00 -2.09413E+00 -2.09312E+00 -2.09174E+00
  -2.09001E+00 -2.08795E+00 -2.08557E+00 -2.08286E+00 -2.07984E+00 -2.07655E+00 -2.07300E+00 -2.06920E+00 -2.06514E+00 -2.06082E+00
  -2.05627E+00 -2.05151E+00 -2.04655E+00 -2.04137E+00 -2.03597E+00 -2.03035E+00 -2.02453E+00 -2.01852E+00
 NY background values follow
     1.404E+01    1.391E+01    1.379E+01    1.367E+01    1.354E+01    1.342E+01    1.329E+01    1.317E+01    1.304E+01    1.292E+01
     1.279E+01    1.267E+01    1.254E+01    1.242E+01    1.229E+01    1.217E+01    1.205E+01    1.192E+01    1.180E+01    1.167E+01
     1.155E+01    1.142E+01    1.130E+01    1.117E+01    1.105E+01    1.092E+01    1.080E+01    1.068E+01    1.055E+01    1.043E+01
     1.030E+01    1.018E+01    1.006E+01    9.932E+00    9.808E+00    9.684E+00    9.561E+00    9.437E+00    9.314E+00    9.191E+00
     9.068E+00    8.945E+00    8.822E+00    8.699E+00    8.577E+00    8.454E+00    8.332E+00    8.210E+00    8.088E+00    7.966E+00
     7.844E+00    7.723E+00    7.602E+00    7.481E+00    7.360E+00    7.240E+00    7.119E+00    6.999E+00    6.879E+00    6.760E+00
     6.641E+00    6.522E+00    6.403E+00    6.285E+00    6.167E+00    6.049E+00    5.932E+00    5.815E+00    5.698E+00    5.582E+00
     5.466E+00    5.351E+00    5.235E+00    5.121E+00    5.007E+00    4.893E+00    4.779E+00    4.666E+00    4.554E+00    4.442E+00
     4.330E+00    4.219E+00    4.109E+00    3.999E+00    3.889E+00    3.780E+00    3.672E+00    3.564E+00    3.456E+00    3.350E+00
     3.243E+00    3.138E+00    3.033E+00    2.928E+00    2.824E+00    2.721E+00    2.618E+00    2.516E+00    2.415E+00    2.314E+00
     2.214E+00    2.114E+00    2.016E+00    1.917E+00    1.820E+00    1.723E+00    1.627E+00    1.531E+00    1.436E+00    1.342E+00
     1.248E+00    1.155E+00    1.063E+00    9.714E-01    8.806E-01    7.904E-01    7.010E-01    6.123E-01    5.243E-01    4.370E-01
     3.505E-01    2.647E-01    1.796E-01    9.522E-02    1.162E-02   -7.123E-02   -1.533E-01   -2.347E-01   -3.152E-01   -3.950E-01
    -4.741E-01   -5.523E-01   -6.298E-01   -7.065E-01   -7.823E-01   -8.574E-01   -9.317E-01   -1.005E+00   -1.078E+00   -1.150E+00
    -1.221E+00   -1.291E+00   -1.361E+00   -1.429E+00   -1.497E+00   -1.564E+00   -1.630E+00   -1.696E+00   -1.760E+00   -1.824E+00
    -1.887E+00   -1.949E+00   -2.011E+00   -2.071E+00   -2.131E+00   -2.190E+00   -2.248E+00   -2.306E+00   -2.362E+00   -2.418E+00
    -2.473E+00   -2.527E+00   -2.581E+00   -2.633E+00   -2.685E+00   -2.736E+00   -2.786E+00   -2.836E+00   -2.884E+00   -2.932E+00
    -2.979E+00   -3.025E+00   -3.071E+00   -3.115E+00   -3.159E+00   -3.202E+00   -3.244E+00   -3.286E+00   -3.327E+00   -3.366E+00
    -3.405E+00   -3.444E+00   -3.481E+00   -3.518E+00   -3.553E+00   -3.589E+00   -3.623E+00   -3.657E+00   -3.689E+00   -3.721E+00
    -3.753E+00   -3.784E+00   -3.814E+00   -3.843E+00   -3.872E+00   -3.899E+00   -3.927E+00   -3.953E+00   -3.979E+00   -4.005E+00
    -4.030E+00   -4.054E+00   -4.077E+00   -4.100E+00   -4.122E+00   -4.144E+00   -4.165E+00   -4.186E+00   -4.206E+00   -4.226E+00
    -4.245E+00   -4.263E+00   -4.281E+00   -4.299E+00   -4.316E+00   -4.332E+00   -4.348E+00   -4.364E+00   -4.379E+00   -4.394E+00
    -4.408E+00   -4.422E+00   -4.435E+00   -4.449E+00   -4.461E+00   -4.473E+00   -4.485E+00   -4.497E+00   -4.508E+00   -4.519E+00
    -4.529E+00   -4.539E+00   -4.549E+00   -4.558E+00   -4.567E+00   -4.576E+00   -4.584E+00   -4.593E+00   -4.600E+00   -4.608E+00
    -4.615E+00   -4.622E+00   -4.628E+00   -4.634E+00   -4.640E+00   -4.646E+00   -4.651E+00   -4.656E+00   -4.661E+00   -4.665E+00
    -4.669E+00   -4.673E+00   -4.677E+00   -4.680E+00   -4.683E+00   -4.686E+00   -4.688E+00   -4.691E+00   -4.693E+00   -4.694E+00
    -4.696E+00   -4.697E+00   -4.698E+00   -4.699E+00   -4.700E+00   -4.700E+00   -4.701E+00   -4.701E+00   -4.700E+00   -4.700E+00
    -4.699E+00   -4.699E+00   -4.697E+00   -4.696E+00   -4.695E+00   -4.693E+00   -4.692E+00   -4.690E+00   -4.688E+00   -4.685E+00
    -4.683E+00   -4.680E+00   -4.677E+00   -4.674E+00   -4.671E+00   -4.668E+00   -4.664E+00   -4.661E+00   -4.657E+00   -4.653E+00
    -4.649E+00   -4.645E+00   -4.641E+00   -4.636E+00   -4.631E+00   -4.627E+00   -4.622E+00   -4.617E+00   -4.612E+00   -4.606E+00
    -4.601E+00   -4.595E+00   -4.590E+00   -4.584E+00   -4.578E+00   -4.572E+00   -4.566E+00   -4.560E+00   -4.553E+00   -4.547E+00
    -4.540E+00   -4.534E+00   -4.527E+00   -4.520E+00   -4.513E+00   -4.506E+00   -4.499E+00   -4.492E+00   -4.485E+00   -4.477E+00
    -4.470E+00   -4.462E+00   -4.455E+00   -4.447E+00   -4.439E+00   -4.432E+00   -4.424E+00   -4.416E+00   -4.408E+00   -4.400E+00
    -4.392E+00   -4.383E+00   -4.375E+00   -4.367E+00   -4.358E+00   -4.350E+00   -4.341E+00   -4.333E+00   -4.324E+00   -4.315E+00
    -4.306E+00   -4.297E+00   -4.289E+00   -4.280E+00   -4.271E+00   -4.261E+00   -4.252E+00   -4.243E+00   -4.234E+00   -4.225E+00
    -4.215E+00   -4.206E+00   -4.196E+00   -4.187E+00   -4.177E+00   -4.168E+00   -4.158E+00   -4.148E+00   -4.139E+00   -4.129E+00
    -4.119E+00   -4.109E+00   -4.099E+00   -4.089E+00   -4.079E+00   -4.069E+00   -4.059E+00   -4.049E+00   -4.039E+00   -4.029E+00
    -4.019E+00   -4.008E+00   -3.998E+00   -3.988E+00   -3.977E+00   -3.967E+00   -3.956E+00   -3.946E+00   -3.935E+00   -3.925E+00
    -3.914E+00   -3.903E+00   -3.892E+00   -3.882E+00   -3.871E+00   -3.860E+00   -3.849E+00   -3.838E+00   -3.827E+00   -3.816E+00
    -3.805E+00   -3.794E+00   -3.782E+00   -3.771E+00   -3.760E+00   -3.748E+00   -3.737E+00   -3.725E+00   -3.714E+00   -3.702E+00
    -3.691E+00   -3.679E+00   -3.667E+00   -3.655E+00   -3.643E+00   -3.632E+00   -3.620E+00   -3.608E+00   -3.596E+00   -3.583E+00
    -3.571E+00   -3.559E+00   -3.547E+00   -3.534E+00   -3.522E+00   -3.510E+00   -3.497E+00   -3.485E+00   -3.472E+00   -3.460E+00
    -3.447E+00   -3.434E+00   -3.422E+00   -3.409E+00   -3.396E+00   -3.383E+00   -3.371E+00   -3.358E+00   -3.345E+00   -3.332E+00
    -3.319E+00   -3.306E+00   -3.293E+00   -3.280E+00   -3.267E+00   -3.254E+00   -3.242E+00   -3.229E+00   -3.216E+00   -3.203E+00
    -3.189E+00   -3.176E+00   -3.163E+00   -3.150E+00   -3.137E+00   -3.124E+00   -3.111E+00   -3.098E+00   -3.085E+00   -3.072E+00
    -3.059E+00   -3.046E+00   -3.033E+00   -3.020E+00   -3.007E+00   -2.994E+00   -2.982E+00   -2.969E+00   -2.956E+00   -2.943E+00
    -2.930E+00   -2.917E+00   -2.904E+00   -2.892E+00   -2.879E+00   -2.866E+00   -2.853E+00   -2.840E+00   -2.828E+00   -2.815E+00
    -2.802E+00   -2.789E+00   -2.777E+00   -2.764E+00   -2.751E+00   -2.739E+00   -2.726E+00   -2.714E+00   -2.701E+00   -2.688E+00
    -2.676E+00   -2.663E+00   -2.651E+00   -2.638E+00   -2.626E+00   -2.613E+00   -2.601E+00   -2.588E+00   -2.576E+00   -2.563E+00
    -2.551E+00   -2.539E+00   -2.526E+00   -2.514E+00   -2.502E+00   -2.489E+00   -2.477E+00   -2.465E+00
 Asp      Conc. = 2.06E+02
