 LCModel (Version 6.3-1L) Copyright: S.W. Provencher.          Ref.: Magn. Reson. Med. 30:672-679 (1993).                
 Slice#3 Row#6 Col#7  PD_24_press_1_raw_act
 36 lines in following concentration table = NCONC+1
    Conc.  %SD /Cr+PCr  Metabolite                                         
  109.064 119% 5.7E-02 Ala                                                 
   47.803 509% 2.5E-02 Asp                                                 
  485.957  51%   0.255 Cr                                                  
 1.42E+03  18%   0.745 PCr                                                 
    0.000 999%   0.000 GABA                                                
    0.000 999%   0.000 Glc                                                 
  644.928  40%   0.338 Gln                                                 
 1.45E+03  20%   0.759 Glu                                                 
  714.377   4%   0.374 GPC                                                 
    0.000 999%   0.000 PCh                                                 
  527.884  15%   0.277 GSH                                                 
  859.577  34%   0.451 Ins                                                 
  575.365  30%   0.302 Lac                                                 
 2.07E+03   6%   1.082 NAA                                                 
   18.624 665% 9.8E-03 NAAG                                                
   41.331  75% 2.2E-02 Scyllo                                              
    0.000 999%   0.000 Tau                                                 
    0.000 999%   0.000 -CrCH2                                              
  714.377   4%   0.374 GPC+PCh                                             
 2.08E+03   4%   1.092 NAA+NAAG                                            
 1.91E+03   4%   1.000 Cr+PCr                                              
 2.09E+03  20%   1.097 Glu+Gln                                             
    0.000 999%   0.000 Lip13a                                              
 1.06E+03  36%   0.556 Lip13b                                              
    0.000 999%   0.000 Lip09                                               
 1.33E+03  18%   0.695 MM09                                                
  156.180  90% 8.2E-02 Lip20                                               
 2.98E+03  14%   1.563 MM20                                                
  392.056  38%   0.206 MM12                                                
 3.14E+03  14%   1.648+MM14                                                
 1.87E+03  17%   0.980 MM17                                                
 1.06E+03  36%   0.556 Lip13a+Lip13b                                       
 4.60E+03  12%   2.409 MM14+Lip13a+Lip13b+MM12                             
 1.33E+03  18%   0.695 MM09+Lip09                                          
 3.14E+03  13%   1.645 MM20+Lip20                                          
   6 lines in following misc. output table
  FWHM = 0.054 ppm    S/N =  10                                            
  Data shift = 0.000 ppm                                                   
  Ph: -15 deg      -2.5 deg/ppm                                            
  alphaB,S = 6.8E-01,   2.6E+01                                            
   14 spline knots.   Ns = 7(1)                                            
  (10) 6 infls.   (11) 3 extrs.                                            
  498 points on ppm-axis = NY
      4.000000     3.992357     3.984714     3.977070     3.969427     3.961784     3.954141     3.946497     3.938854     3.931211
      3.923568     3.915925     3.908281     3.900638     3.892995     3.885352     3.877708     3.870065     3.862422     3.854779
      3.847136     3.839492     3.831849     3.824206     3.816563     3.808919     3.801276     3.793633     3.785990     3.778347
      3.770703     3.763060     3.755417     3.747774     3.740130     3.732487     3.724844     3.717201     3.709558     3.701914
      3.694271     3.686628     3.678985     3.671341     3.663698     3.656055     3.648412     3.640769     3.633125     3.625482
      3.617839     3.610196     3.602552     3.594909     3.587266     3.579623     3.571980     3.564336     3.556693     3.549050
      3.541407     3.533763     3.526120     3.518477     3.510834     3.503191     3.495547     3.487904     3.480261     3.472618
      3.464974     3.457331     3.449688     3.442045     3.434402     3.426758     3.419115     3.411472     3.403829     3.396185
      3.388542     3.380899     3.373256     3.365613     3.357969     3.350326     3.342683     3.335040     3.327396     3.319753
      3.312110     3.304467     3.296824     3.289180     3.281537     3.273894     3.266251     3.258607     3.250964     3.243321
      3.235678     3.228034     3.220391     3.212748     3.205105     3.197462     3.189818     3.182175     3.174532     3.166889
      3.159245     3.151602     3.143959     3.136316     3.128673     3.121029     3.113386     3.105743     3.098100     3.090456
      3.082813     3.075170     3.067527     3.059884     3.052240     3.044597     3.036954     3.029311     3.021667     3.014024
      3.006381     2.998738     2.991095     2.983451     2.975808     2.968165     2.960522     2.952878     2.945235     2.937592
      2.929949     2.922306     2.914662     2.907019     2.899376     2.891733     2.884089     2.876446     2.868803     2.861160
      2.853517     2.845873     2.838230     2.830587     2.822944     2.815300     2.807657     2.800014     2.792371     2.784728
      2.777084     2.769441     2.761798     2.754155     2.746511     2.738868     2.731225     2.723582     2.715939     2.708295
      2.700652     2.693009     2.685366     2.677722     2.670079     2.662436     2.654793     2.647150     2.639506     2.631863
      2.624220     2.616577     2.608933     2.601290     2.593647     2.586004     2.578361     2.570717     2.563074     2.555431
      2.547788     2.540144     2.532501     2.524858     2.517215     2.509572     2.501928     2.494285     2.486642     2.478999
      2.471355     2.463712     2.456069     2.448426     2.440783     2.433139     2.425496     2.417853     2.410210     2.402566
      2.394923     2.387280     2.379637     2.371994     2.364350     2.356707     2.349064     2.341421     2.333777     2.326134
      2.318491     2.310848     2.303205     2.295561     2.287918     2.280275     2.272632     2.264988     2.257345     2.249702
      2.242059     2.234416     2.226772     2.219129     2.211486     2.203843     2.196199     2.188556     2.180913     2.173270
      2.165627     2.157983     2.150340     2.142697     2.135054     2.127410     2.119767     2.112124     2.104481     2.096838
      2.089194     2.081551     2.073908     2.066265     2.058621     2.050978     2.043335     2.035692     2.028049     2.020405
      2.012762     2.005119     1.997476     1.989833     1.982190     1.974546     1.966903     1.959260     1.951617     1.943974
      1.936331     1.928688     1.921045     1.913402     1.905759     1.898115     1.890472     1.882829     1.875186     1.867543
      1.859900     1.852257     1.844614     1.836971     1.829327     1.821684     1.814041     1.806398     1.798755     1.791112
      1.783469     1.775826     1.768183     1.760540     1.752896     1.745253     1.737610     1.729967     1.722324     1.714681
      1.707038     1.699395     1.691752     1.684108     1.676465     1.668822     1.661179     1.653536     1.645893     1.638250
      1.630607     1.622964     1.615321     1.607677     1.600034     1.592391     1.584748     1.577105     1.569462     1.561819
      1.554176     1.546533     1.538890     1.531246     1.523603     1.515960     1.508317     1.500674     1.493031     1.485388
      1.477745     1.470102     1.462458     1.454815     1.447172     1.439529     1.431886     1.424243     1.416600     1.408957
      1.401314     1.393671     1.386027     1.378384     1.370741     1.363098     1.355455     1.347812     1.340169     1.332526
      1.324883     1.317240     1.309596     1.301953     1.294310     1.286667     1.279024     1.271381     1.263738     1.256095
      1.248452     1.240808     1.233165     1.225522     1.217879     1.210236     1.202593     1.194950     1.187307     1.179664
      1.172021     1.164377     1.156734     1.149091     1.141448     1.133805     1.126162     1.118519     1.110876     1.103233
      1.095590     1.087946     1.080303     1.072660     1.065017     1.057374     1.049731     1.042088     1.034445     1.026802
      1.019158     1.011515     1.003872     0.996229     0.988586     0.980943     0.973300     0.965657     0.958014     0.950371
      0.942727     0.935084     0.927441     0.919798     0.912155     0.904512     0.896869     0.889226     0.881583     0.873940
      0.866296     0.858653     0.851010     0.843367     0.835724     0.828081     0.820438     0.812795     0.805152     0.797508
      0.789865     0.782222     0.774579     0.766936     0.759293     0.751650     0.744007     0.736364     0.728721     0.721077
      0.713434     0.705791     0.698148     0.690505     0.682862     0.675219     0.667576     0.659933     0.652290     0.644646
      0.637003     0.629360     0.621717     0.614074     0.606431     0.598788     0.591145     0.583502     0.575858     0.568215
      0.560572     0.552929     0.545286     0.537643     0.530000     0.522357     0.514714     0.507071     0.499427     0.491784
      0.484141     0.476498     0.468855     0.461212     0.453569     0.445925     0.438282     0.430639     0.422996     0.415353
      0.407710     0.400067     0.392424     0.384780     0.377137     0.369494     0.361851     0.354208     0.346565     0.338922
      0.331278     0.323635     0.315992     0.308349     0.300706     0.293063     0.285420     0.277777     0.270133     0.262490
      0.254847     0.247204     0.239561     0.231918     0.224275     0.216631     0.208988     0.201345
 NY phased data points follow
   4.74163E+01  5.12926E+01  5.34137E+01  4.96812E+01  5.57414E+01  6.07301E+01  7.11269E+01  6.95531E+01  8.26598E+01  8.60325E+01
   9.48826E+01  9.60328E+01  9.64390E+01  9.45213E+01  8.60729E+01  7.47898E+01  6.82731E+01  6.68687E+01  5.83382E+01  5.40224E+01
   5.56965E+01  5.11869E+01  5.03418E+01  4.25084E+01  4.96330E+01  5.15885E+01  4.85295E+01  5.24225E+01  4.75960E+01  5.90699E+01
   6.00111E+01  5.82269E+01  5.05402E+01  5.14272E+01  5.16950E+01  4.85344E+01  4.53580E+01  4.56913E+01  5.49799E+01  4.67604E+01
   4.65037E+01  4.48856E+01  4.58325E+01  4.05722E+01  4.77909E+01  4.70737E+01  5.07323E+01  4.48045E+01  4.92920E+01  4.84255E+01
   4.39276E+01  4.39826E+01  4.38690E+01  4.02481E+01  3.52888E+01  3.91655E+01  3.83382E+01  3.54769E+01  4.02492E+01  3.99834E+01
   4.13325E+01  3.65068E+01  3.29484E+01  3.09770E+01  2.80375E+01  2.48927E+01  2.74895E+01  2.34798E+01  2.28614E+01  2.21929E+01
   2.49181E+01  3.18747E+01  2.14205E+01  2.42411E+01  2.66739E+01  2.37821E+01  2.74682E+01  2.32574E+01  2.55475E+01  2.33291E+01
   2.26897E+01  2.55233E+01  1.89519E+01  2.29347E+01  2.38048E+01  2.29867E+01  2.53329E+01  2.65036E+01  1.95612E+01  1.92429E+01
   1.98136E+01  2.57053E+01  2.58076E+01  2.21482E+01  2.17244E+01  1.90067E+01  1.95590E+01  1.62413E+01  1.83389E+01  3.43423E+01
   4.58425E+01  6.26213E+01  7.64689E+01  8.35748E+01  8.30757E+01  7.47321E+01  6.79061E+01  5.60971E+01  5.59693E+01  3.84687E+01
   3.78801E+01  3.45703E+01  2.94664E+01  2.88803E+01  2.19369E+01  1.79602E+01  2.66248E+01  2.33985E+01  1.96078E+01  1.05374E+01
   1.52345E+01  9.28678E+00  1.87737E+01  2.64356E+01  4.03247E+01  4.93516E+01  6.31300E+01  6.76720E+01  7.52439E+01  6.91917E+01
   6.44799E+01  5.13533E+01  4.87303E+01  4.46268E+01  3.01103E+01  3.10885E+01  2.61347E+01  1.71891E+01  1.93363E+01  1.68261E+01
   1.19131E+01  1.05328E+01  1.51885E+01  1.33465E+01  1.43599E+01  8.00918E+00  1.26627E+01  1.38997E+01  1.13496E+01  1.09109E+01
   4.65484E+00  1.31080E+01  1.23212E+01  1.02884E+01  6.85958E+00  6.73208E+00  8.49192E+00  1.06061E+01  6.10199E+00  6.21870E+00
   6.14030E+00  5.80487E+00  1.99889E+00  6.51824E+00  6.33855E+00  7.11237E+00  9.77994E+00  7.90818E+00  6.93189E+00  2.92119E+00
   6.49317E+00  2.00513E+00  4.64837E+00 -2.40011E+00 -4.57354E+00 -3.20364E+00 -4.43289E+00 -3.82446E+00  4.36679E+00 -1.49607E+00
   3.27973E+00  2.20148E+00  2.60975E-01 -3.07874E+00 -3.58804E+00 -5.16353E+00 -3.69977E+00  5.37151E-01  3.68622E+00  6.65154E+00
   7.32664E+00  1.11463E+01  1.75762E+01  1.26595E+01  1.03571E+01  1.69290E+01  8.62204E+00  1.56728E+01  9.62996E+00  1.32750E+01
   8.33808E+00  8.40843E+00  1.04878E+01  1.10146E+01  1.31102E+01  8.24895E+00  1.13092E+01  1.27560E+01  9.76940E+00 -9.92517E-01
   4.90910E+00  6.51141E+00  1.00917E+01  1.30221E+01  1.02880E+01  1.95445E+01  2.50819E+01  1.65543E+01  1.83893E+01  1.80487E+01
   7.77242E+00  1.08358E+01  9.10720E+00  9.30614E+00  8.27777E+00  1.32921E+01  1.43985E+01  1.98766E+01  2.09777E+01  1.85107E+01
   1.35926E+01  1.29000E+01  1.59630E+01  1.70248E+01  1.63068E+01  2.24219E+01  2.10644E+01  1.87003E+01  1.61145E+01  2.29696E+01
   1.45209E+01  1.74599E+01  2.02648E+01  1.42717E+01  1.69952E+01  2.05676E+01  2.55656E+01  2.04983E+01  1.79872E+01  2.86817E+01
   2.30514E+01  2.07474E+01  2.36366E+01  2.61239E+01  2.53129E+01  2.83568E+01  3.58651E+01  4.84517E+01  6.04415E+01  7.73759E+01
   8.88464E+01  8.77324E+01  8.56756E+01  6.93068E+01  5.47911E+01  5.25328E+01  3.80984E+01  3.90093E+01  3.30774E+01  2.63261E+01
   2.23532E+01  2.03380E+01  2.38596E+01  2.08017E+01  1.86343E+01  1.96212E+01  1.66772E+01  1.61212E+01  2.11488E+01  1.21375E+01
   1.41240E+01  1.73282E+01  1.58224E+01  1.95734E+01  1.66454E+01  1.66907E+01  1.55284E+01  9.59407E+00  1.59449E+01  1.51282E+01
   2.10014E+01  1.44998E+01  1.38143E+01  1.83163E+01  1.69346E+01  1.93472E+01  1.92779E+01  1.79508E+01  2.22248E+01  2.44406E+01
   2.35023E+01  1.82750E+01  1.85965E+01  2.28568E+01  2.21278E+01  2.09764E+01  2.71208E+01  2.61295E+01  2.66322E+01  2.52195E+01
   2.75664E+01  2.62404E+01  2.45224E+01  2.58457E+01  2.58314E+01  3.34581E+01  2.86235E+01  3.20618E+01  2.77163E+01  2.29375E+01
   2.61116E+01  3.22093E+01  2.90133E+01  2.96251E+01  2.64125E+01  2.44758E+01  2.59060E+01  2.31500E+01  2.79984E+01  2.63862E+01
   3.12433E+01  2.19820E+01  2.89762E+01  2.98106E+01  2.65734E+01  2.74404E+01  3.28331E+01  2.30752E+01  2.84560E+01  2.89074E+01
   2.94315E+01  2.65605E+01  2.97175E+01  2.97549E+01  2.93071E+01  2.80216E+01  3.04986E+01  3.27227E+01  1.90831E+01  1.88569E+01
   2.16645E+01  1.60848E+01  2.12036E+01  2.33259E+01  2.41706E+01  1.93869E+01  2.00202E+01  2.10595E+01  2.68350E+01  2.18699E+01
   1.64920E+01  1.59660E+01  1.47853E+01  1.55387E+01  1.51442E+01  1.42414E+01  1.65563E+01  8.41817E+00  1.14521E+01  1.14600E+01
   1.09123E+01  5.31438E+00  1.32350E+01  4.33942E+00  9.59411E+00  8.60206E+00  1.14243E+01  6.46118E+00  7.45697E+00  6.02214E+00
   6.39158E+00  4.67979E+00  7.13495E+00  9.01508E+00  9.69018E+00  1.04405E+01  7.59314E+00  4.64278E+00  7.59424E+00  9.29012E+00
   1.48525E+00 -1.00206E+00  7.94306E+00  9.76351E+00  2.81079E+00  1.23530E+01  9.44123E+00  8.83584E+00  8.64548E+00  5.94977E+00
   1.23944E+01  8.04178E+00  8.62916E+00  9.75201E+00  1.50573E+01  8.81140E+00  1.02434E+01  1.40557E+01  1.76676E+01  1.56505E+01
   9.79874E+00  9.94941E+00  8.30967E+00  9.44053E+00  2.53992E+00  8.77964E+00  7.12194E+00  5.37677E+00  9.42084E+00  6.80539E-01
   6.64561E+00  4.12832E+00  6.88942E+00  2.24133E+00  4.80684E+00  7.69244E+00  3.12669E+00  1.59598E+00  4.57659E+00  8.85802E+00
   1.29485E+00  6.54854E-01  3.61243E+00  3.36754E+00 -1.26676E+00  1.99092E+00  6.69570E-01  1.39777E+00  2.47607E+00  3.65351E+00
   2.55877E+00 -1.39150E+00  4.05117E+00  6.23784E+00 -1.56633E+00  1.29804E+00  2.81137E+00  2.18783E+00 -2.30050E+00 -1.92851E+00
   3.46837E+00  3.38361E-01 -1.53006E+00  6.58944E+00  2.53890E+00  1.06241E+00 -4.30331E+00  3.24175E+00 -3.65588E+00  2.79464E+00
  -4.16595E+00 -1.92609E+00 -1.58193E+00 -1.14982E+00  7.96597E-01 -2.55995E+00  4.73108E-01  1.81043E-01  1.22850E+00  1.63046E+00
   1.50167E+00  6.11721E+00  3.72601E-03  2.20005E-01 -1.15985E+00 -2.26847E+00  1.73412E-01  6.32086E+00 -2.75769E+00 -2.53719E+00
  -5.05992E-01 -4.22139E+00 -3.22822E+00 -7.66506E-01  3.10434E+00  1.23378E+00 -1.48027E+00  5.51740E+00 -1.94690E+00  1.73118E+00
  -2.53667E+00  2.54842E+00 -1.65626E+00 -3.56118E+00  6.61289E+00  2.81192E+00 -9.40049E-01 -6.12099E-01
 NY points of the fit to the data follow
   5.45561E+01  5.36300E+01  5.30272E+01  5.23075E+01  5.27162E+01  5.65264E+01  6.31823E+01  7.11020E+01  7.98163E+01  8.78817E+01
   9.28704E+01  9.34418E+01  8.99221E+01  8.41934E+01  7.87415E+01  7.34151E+01  6.88144E+01  6.61572E+01  6.19725E+01  5.68079E+01
   5.35525E+01  5.19489E+01  5.06913E+01  4.89560E+01  4.75728E+01  4.73417E+01  4.78592E+01  4.91939E+01  5.16272E+01  5.46630E+01
   5.69429E+01  5.77092E+01  5.69019E+01  5.49541E+01  5.28595E+01  5.01061E+01  4.78598E+01  4.67796E+01  4.50324E+01  4.35074E+01
   4.26257E+01  4.23176E+01  4.27697E+01  4.33636E+01  4.43689E+01  4.54263E+01  4.61948E+01  4.66530E+01  4.59834E+01  4.43790E+01
   4.29792E+01  4.16679E+01  3.99217E+01  3.86118E+01  3.79828E+01  3.70703E+01  3.60297E+01  3.56657E+01  3.56699E+01  3.54155E+01
   3.49683E+01  3.42152E+01  3.33073E+01  3.23902E+01  3.14513E+01  3.06716E+01  3.02885E+01  3.00445E+01  2.98153E+01  2.96348E+01
   2.94274E+01  2.92722E+01  2.90309E+01  2.86847E+01  2.82635E+01  2.77797E+01  2.73182E+01  2.68069E+01  2.63473E+01  2.59159E+01
   2.54876E+01  2.53267E+01  2.52521E+01  2.51032E+01  2.48922E+01  2.45458E+01  2.39472E+01  2.31313E+01  2.23041E+01  2.16533E+01
   2.13301E+01  2.12002E+01  2.11571E+01  2.12071E+01  2.09540E+01  2.03649E+01  1.88998E+01  1.80073E+01  2.35711E+01  3.43423E+01
   4.67660E+01  6.07737E+01  7.48958E+01  8.40471E+01  8.51599E+01  7.88884E+01  6.84493E+01  5.88334E+01  5.08202E+01  4.21925E+01
   3.84903E+01  3.41081E+01  2.38691E+01  1.94376E+01  1.81943E+01  1.75972E+01  1.72034E+01  1.69082E+01  1.66536E+01  1.63760E+01
   1.55714E+01  1.47204E+01  1.84021E+01  2.74957E+01  3.87262E+01  5.11048E+01  6.39975E+01  7.36369E+01  7.69035E+01  7.34873E+01
   6.53161E+01  5.64554E+01  4.89964E+01  4.07276E+01  3.49668E+01  3.05728E+01  2.15844E+01  1.54807E+01  1.40833E+01  1.39354E+01
   1.42929E+01  1.45761E+01  1.42807E+01  1.39870E+01  1.37996E+01  1.34490E+01  1.31860E+01  1.28353E+01  1.23391E+01  1.18771E+01
   1.12008E+01  1.06732E+01  1.02859E+01  1.00057E+01  9.84047E+00  9.72538E+00  9.47085E+00  9.04090E+00  8.51711E+00  8.01025E+00
   7.68180E+00  7.51430E+00  7.51217E+00  7.72984E+00  7.92840E+00  7.80494E+00  7.44891E+00  6.99448E+00  6.43599E+00  6.14561E+00
   6.00050E+00  5.49195E+00  4.95494E+00  4.33169E+00  3.76866E+00  3.53521E+00  3.40025E+00  3.42450E+00  3.61296E+00  3.75231E+00
   3.68899E+00  3.49177E+00  3.26801E+00  3.01259E+00  3.01592E+00  3.46438E+00  4.04885E+00  5.11214E+00  6.47145E+00  8.00356E+00
   9.43006E+00  1.01322E+01  1.00209E+01  9.43200E+00  8.57578E+00  7.98193E+00  7.82452E+00  7.70857E+00  8.05386E+00  9.05054E+00
   1.03748E+01  1.18225E+01  1.30908E+01  1.39940E+01  1.40037E+01  1.28700E+01  1.14342E+01  9.64569E+00  7.62522E+00  5.97895E+00
   5.55638E+00  6.85603E+00  8.91765E+00  1.12410E+01  1.36635E+01  1.60196E+01  1.71034E+01  1.60368E+01  1.40487E+01  1.13582E+01
   8.66893E+00  6.74519E+00  6.01548E+00  6.90452E+00  8.45874E+00  1.02063E+01  1.22410E+01  1.37246E+01  1.48239E+01  1.53151E+01
   1.52886E+01  1.57262E+01  1.64803E+01  1.70125E+01  1.77738E+01  1.87468E+01  1.97219E+01  2.03319E+01  2.00410E+01  1.91701E+01
   1.84414E+01  1.77970E+01  1.72574E+01  1.73823E+01  1.84962E+01  1.96712E+01  2.04266E+01  2.10701E+01  2.17196E+01  2.21533E+01
   2.25082E+01  2.32098E+01  2.39504E+01  2.35634E+01  2.27963E+01  2.81330E+01  3.87401E+01  5.06545E+01  6.38289E+01  7.75602E+01
   8.68057E+01  8.80371E+01  8.17365E+01  7.09081E+01  6.05015E+01  5.20931E+01  4.28661E+01  3.84326E+01  3.45180E+01  2.39226E+01
   1.87024E+01  1.74051E+01  1.67991E+01  1.63955E+01  1.63059E+01  1.61597E+01  1.59317E+01  1.57018E+01  1.54764E+01  1.52277E+01
   1.50340E+01  1.48976E+01  1.47588E+01  1.46368E+01  1.45694E+01  1.45502E+01  1.45806E+01  1.46438E+01  1.47463E+01  1.49244E+01
   1.51519E+01  1.54259E+01  1.57563E+01  1.61468E+01  1.65983E+01  1.71061E+01  1.76690E+01  1.82872E+01  1.89497E+01  1.96480E+01
   2.03726E+01  2.11099E+01  2.18446E+01  2.25614E+01  2.32445E+01  2.38781E+01  2.44485E+01  2.49466E+01  2.53642E+01  2.56968E+01
   2.59453E+01  2.61128E+01  2.62062E+01  2.62389E+01  2.62252E+01  2.61818E+01  2.61257E+01  2.60745E+01  2.60446E+01  2.60483E+01
   2.61094E+01  2.63405E+01  2.67006E+01  2.70317E+01  2.73055E+01  2.75150E+01  2.75627E+01  2.74017E+01  2.70445E+01  2.66528E+01
   2.64809E+01  2.65373E+01  2.66593E+01  2.69522E+01  2.73567E+01  2.75443E+01  2.76753E+01  2.77204E+01  2.75486E+01  2.73093E+01
   2.70512E+01  2.73681E+01  2.84222E+01  2.91358E+01  2.92583E+01  2.90889E+01  2.81585E+01  2.60995E+01  2.29910E+01  2.00225E+01
   1.84255E+01  1.81929E+01  1.85717E+01  1.99517E+01  2.20416E+01  2.29212E+01  2.32422E+01  2.33598E+01  2.25384E+01  2.14653E+01
   1.99011E+01  1.83685E+01  1.75443E+01  1.59314E+01  1.40854E+01  1.28309E+01  1.19043E+01  1.11764E+01  1.05894E+01  1.01076E+01
   9.70527E+00  9.36368E+00  9.06916E+00  8.81223E+00  8.58649E+00  8.38771E+00  8.21316E+00  8.06132E+00  7.93169E+00  7.82456E+00
   7.74061E+00  7.68065E+00  7.64555E+00  7.63630E+00  7.65415E+00  7.70038E+00  7.77612E+00  7.88213E+00  8.01881E+00  8.18624E+00
   8.38411E+00  8.61147E+00  8.86644E+00  9.14608E+00  9.44644E+00  9.76261E+00  1.00887E+01  1.04178E+01  1.07419E+01  1.10523E+01
   1.13399E+01  1.15954E+01  1.18101E+01  1.19757E+01  1.20847E+01  1.21311E+01  1.21106E+01  1.20209E+01  1.18617E+01  1.16349E+01
   1.13437E+01  1.09938E+01  1.05921E+01  1.01469E+01  9.66715E+00  9.16224E+00  8.64138E+00  8.11355E+00  7.58714E+00  7.06963E+00
   6.56736E+00  6.08536E+00  5.62750E+00  5.19656E+00  4.79433E+00  4.42158E+00  4.07819E+00  3.76331E+00  3.47564E+00  3.21363E+00
   2.97551E+00  2.75934E+00  2.56302E+00  2.38451E+00  2.22192E+00  2.07360E+00  1.93797E+00  1.81356E+00  1.69897E+00  1.59299E+00
   1.49465E+00  1.40314E+00  1.31772E+00  1.23763E+00  1.16223E+00  1.09098E+00  1.02352E+00  9.59532E-01  8.98666E-01  8.40555E-01
   7.84893E-01  7.31480E-01  6.80204E-01  6.30931E-01  5.83462E-01  5.37585E-01  4.93160E-01  4.50132E-01  4.08469E-01  3.68086E-01
   3.28833E-01  2.90584E-01  2.53288E-01  2.16957E-01  1.81581E-01  1.47071E-01  1.13306E-01  8.02144E-02  4.78034E-02  1.61006E-02
  -1.49130E-02 -4.53243E-02 -7.52263E-02 -1.04642E-01 -1.33534E-01 -1.61876E-01 -1.89715E-01 -2.17144E-01 -2.44215E-01 -2.70917E-01
  -2.97204E-01 -3.23068E-01 -3.48572E-01 -3.73795E-01 -3.98756E-01 -4.23412E-01 -4.47722E-01 -4.71705E-01 -4.95430E-01 -5.18951E-01
  -5.42248E-01 -5.65266E-01 -5.87978E-01 -6.10421E-01 -6.32652E-01 -6.54684E-01 -6.76465E-01 -6.97928E-01
 NY background values follow
     5.239E+01    5.202E+01    5.164E+01    5.127E+01    5.089E+01    5.052E+01    5.014E+01    4.977E+01    4.939E+01    4.902E+01
     4.864E+01    4.826E+01    4.789E+01    4.751E+01    4.714E+01    4.676E+01    4.639E+01    4.601E+01    4.564E+01    4.526E+01
     4.489E+01    4.451E+01    4.414E+01    4.376E+01    4.339E+01    4.301E+01    4.264E+01    4.227E+01    4.190E+01    4.152E+01
     4.115E+01    4.078E+01    4.041E+01    4.004E+01    3.967E+01    3.930E+01    3.893E+01    3.856E+01    3.820E+01    3.783E+01
     3.746E+01    3.710E+01    3.673E+01    3.637E+01    3.601E+01    3.565E+01    3.528E+01    3.492E+01    3.456E+01    3.421E+01
     3.385E+01    3.349E+01    3.314E+01    3.278E+01    3.243E+01    3.208E+01    3.173E+01    3.138E+01    3.103E+01    3.068E+01
     3.034E+01    2.999E+01    2.965E+01    2.931E+01    2.897E+01    2.863E+01    2.829E+01    2.796E+01    2.763E+01    2.730E+01
     2.697E+01    2.664E+01    2.631E+01    2.599E+01    2.567E+01    2.535E+01    2.503E+01    2.471E+01    2.440E+01    2.408E+01
     2.377E+01    2.347E+01    2.316E+01    2.286E+01    2.256E+01    2.226E+01    2.196E+01    2.167E+01    2.138E+01    2.109E+01
     2.080E+01    2.052E+01    2.024E+01    1.996E+01    1.968E+01    1.941E+01    1.914E+01    1.887E+01    1.860E+01    1.834E+01
     1.808E+01    1.782E+01    1.757E+01    1.731E+01    1.706E+01    1.682E+01    1.657E+01    1.633E+01    1.609E+01    1.586E+01
     1.563E+01    1.540E+01    1.517E+01    1.494E+01    1.472E+01    1.450E+01    1.429E+01    1.408E+01    1.387E+01    1.366E+01
     1.346E+01    1.325E+01    1.306E+01    1.286E+01    1.267E+01    1.248E+01    1.229E+01    1.211E+01    1.193E+01    1.175E+01
     1.158E+01    1.141E+01    1.124E+01    1.108E+01    1.091E+01    1.076E+01    1.060E+01    1.045E+01    1.030E+01    1.015E+01
     1.001E+01    9.871E+00    9.734E+00    9.601E+00    9.470E+00    9.343E+00    9.219E+00    9.098E+00    8.981E+00    8.866E+00
     8.755E+00    8.646E+00    8.541E+00    8.439E+00    8.340E+00    8.244E+00    8.151E+00    8.061E+00    7.974E+00    7.891E+00
     7.811E+00    7.733E+00    7.659E+00    7.588E+00    7.520E+00    7.455E+00    7.393E+00    7.334E+00    7.279E+00    7.226E+00
     7.177E+00    7.130E+00    7.087E+00    7.047E+00    7.009E+00    6.975E+00    6.944E+00    6.916E+00    6.891E+00    6.870E+00
     6.851E+00    6.835E+00    6.823E+00    6.813E+00    6.806E+00    6.802E+00    6.801E+00    6.803E+00    6.807E+00    6.813E+00
     6.823E+00    6.834E+00    6.848E+00    6.865E+00    6.883E+00    6.904E+00    6.927E+00    6.951E+00    6.978E+00    7.007E+00
     7.037E+00    7.069E+00    7.103E+00    7.139E+00    7.176E+00    7.214E+00    7.254E+00    7.295E+00    7.337E+00    7.381E+00
     7.426E+00    7.472E+00    7.518E+00    7.566E+00    7.615E+00    7.664E+00    7.714E+00    7.765E+00    7.816E+00    7.868E+00
     7.920E+00    7.972E+00    8.025E+00    8.078E+00    8.132E+00    8.185E+00    8.239E+00    8.292E+00    8.345E+00    8.398E+00
     8.451E+00    8.504E+00    8.557E+00    8.610E+00    8.662E+00    8.714E+00    8.766E+00    8.817E+00    8.868E+00    8.919E+00
     8.969E+00    9.018E+00    9.068E+00    9.116E+00    9.165E+00    9.212E+00    9.259E+00    9.306E+00    9.351E+00    9.396E+00
     9.441E+00    9.484E+00    9.527E+00    9.569E+00    9.610E+00    9.650E+00    9.690E+00    9.728E+00    9.766E+00    9.802E+00
     9.838E+00    9.872E+00    9.905E+00    9.937E+00    9.969E+00    9.999E+00    1.003E+01    1.005E+01    1.008E+01    1.011E+01
     1.013E+01    1.015E+01    1.017E+01    1.019E+01    1.021E+01    1.023E+01    1.024E+01    1.026E+01    1.027E+01    1.028E+01
     1.029E+01    1.030E+01    1.031E+01    1.031E+01    1.032E+01    1.032E+01    1.032E+01    1.032E+01    1.032E+01    1.031E+01
     1.031E+01    1.030E+01    1.030E+01    1.029E+01    1.028E+01    1.027E+01    1.025E+01    1.024E+01    1.022E+01    1.020E+01
     1.018E+01    1.016E+01    1.014E+01    1.012E+01    1.009E+01    1.007E+01    1.004E+01    1.001E+01    9.976E+00    9.943E+00
     9.909E+00    9.873E+00    9.836E+00    9.797E+00    9.756E+00    9.714E+00    9.670E+00    9.625E+00    9.579E+00    9.530E+00
     9.481E+00    9.430E+00    9.377E+00    9.323E+00    9.268E+00    9.211E+00    9.153E+00    9.094E+00    9.034E+00    8.973E+00
     8.910E+00    8.846E+00    8.781E+00    8.715E+00    8.648E+00    8.580E+00    8.511E+00    8.441E+00    8.370E+00    8.298E+00
     8.226E+00    8.152E+00    8.078E+00    8.003E+00    7.927E+00    7.851E+00    7.774E+00    7.696E+00    7.618E+00    7.539E+00
     7.460E+00    7.380E+00    7.299E+00    7.218E+00    7.137E+00    7.056E+00    6.974E+00    6.891E+00    6.809E+00    6.726E+00
     6.643E+00    6.559E+00    6.476E+00    6.392E+00    6.308E+00    6.225E+00    6.141E+00    6.057E+00    5.973E+00    5.889E+00
     5.805E+00    5.721E+00    5.637E+00    5.554E+00    5.470E+00    5.387E+00    5.304E+00    5.221E+00    5.138E+00    5.056E+00
     4.974E+00    4.892E+00    4.810E+00    4.729E+00    4.649E+00    4.568E+00    4.488E+00    4.409E+00    4.330E+00    4.252E+00
     4.174E+00    4.097E+00    4.020E+00    3.944E+00    3.869E+00    3.794E+00    3.720E+00    3.647E+00    3.574E+00    3.503E+00
     3.432E+00    3.362E+00    3.292E+00    3.224E+00    3.156E+00    3.090E+00    3.024E+00    2.960E+00    2.896E+00    2.833E+00
     2.772E+00    2.711E+00    2.651E+00    2.592E+00    2.534E+00    2.477E+00    2.421E+00    2.365E+00    2.311E+00    2.257E+00
     2.205E+00    2.153E+00    2.102E+00    2.051E+00    2.002E+00    1.953E+00    1.905E+00    1.858E+00    1.812E+00    1.766E+00
     1.721E+00    1.676E+00    1.633E+00    1.590E+00    1.548E+00    1.506E+00    1.465E+00    1.425E+00    1.385E+00    1.346E+00
     1.307E+00    1.269E+00    1.232E+00    1.195E+00    1.159E+00    1.123E+00    1.088E+00    1.053E+00    1.019E+00    9.855E-01
     9.523E-01    9.195E-01    8.872E-01    8.553E-01    8.238E-01    7.928E-01    7.621E-01    7.319E-01    7.020E-01    6.725E-01
     6.433E-01    6.146E-01    5.861E-01    5.580E-01    5.302E-01    5.027E-01    4.756E-01    4.487E-01    4.220E-01    3.957E-01
     3.696E-01    3.438E-01    3.182E-01    2.928E-01    2.676E-01    2.427E-01    2.179E-01    1.933E-01    1.689E-01    1.447E-01
     1.206E-01    9.669E-02    7.288E-02    4.919E-02    2.562E-02    2.145E-03   -2.124E-02   -4.454E-02   -6.777E-02   -9.094E-02
    -1.141E-01   -1.371E-01   -1.602E-01   -1.832E-01   -2.063E-01   -2.293E-01   -2.523E-01   -2.754E-01
 Ala      Conc. = 1.09E+02
