 LCModel (Version 6.3-1L) Copyright: S.W. Provencher.          Ref.: Magn. Reson. Med. 30:672-679 (1993).                
 Slice#1 Row#13 Col#11  PD_24_press_1_raw_act
 36 lines in following concentration table = NCONC+1
    Conc.  %SD /Cr+PCr  Metabolite                                         
   14.718 135%   0.376 Ala                                                 
    5.023 131%   0.128 Asp                                                 
    0.000 999%   0.000 Cr                                                  
   39.098  33%   1.000 PCr                                                 
    3.145 125% 8.0E-02 GABA                                                
    3.504 113% 9.0E-02 Glc                                                 
   32.806 118%   0.839 Gln                                                 
   28.586 147%   0.731 Glu                                                 
    0.000 999%   0.000 GPC                                                 
   10.662  43%   0.273 PCh                                                 
   41.030  40%   1.049 GSH                                                 
   14.269 328%   0.365 Ins                                                 
    5.277 392%   0.135 Lac                                                 
   41.494  36%   1.061 NAA                                                 
    0.000 999%   0.000 NAAG                                                
    1.152 113% 2.9E-02 Scyllo                                              
    5.432 120%   0.139 Tau                                                 
   11.347  87%   0.290 -CrCH2                                              
   10.662  43%   0.273 GPC+PCh                                             
   41.494  36%   1.061 NAA+NAAG                                            
   39.098  33%   1.000 Cr+PCr                                              
   61.392  86%   1.570 Glu+Gln                                             
    0.000 999%   0.000 Lip13a                                              
    0.000 999%   0.000 Lip13b                                              
   36.793  87%   0.941 Lip09                                               
  172.378  28%   4.409 MM09                                                
    0.000 999%   0.000 Lip20                                               
   76.731  99%   1.963 MM20                                                
   53.385  55%   1.365 MM12                                                
    0.000 999%   0.000 MM14                                                
   67.660  74%   1.731 MM17                                                
    0.000 999%   0.000 Lip13a+Lip13b                                       
   53.385  55%   1.365 MM14+Lip13a+Lip13b+MM12                             
  209.172  21%   5.350 MM09+Lip09                                          
   76.731  99%   1.963 MM20+Lip20                                          
   6 lines in following misc. output table
  FWHM = 0.038 ppm    S/N =   1                                            
  Data shift =-0.015 ppm                                                   
  Ph:  79 deg      12.9 deg/ppm                                            
  alphaB,S = 6.5E+00,   2.6E+01                                            
   14 spline knots.   Ns = 5(1)                                            
   3 inflections.     2 extrema                                            
  498 points on ppm-axis = NY
      4.000000     3.992357     3.984714     3.977070     3.969427     3.961784     3.954141     3.946497     3.938854     3.931211
      3.923568     3.915925     3.908281     3.900638     3.892995     3.885352     3.877708     3.870065     3.862422     3.854779
      3.847136     3.839492     3.831849     3.824206     3.816563     3.808919     3.801276     3.793633     3.785990     3.778347
      3.770703     3.763060     3.755417     3.747774     3.740130     3.732487     3.724844     3.717201     3.709558     3.701914
      3.694271     3.686628     3.678985     3.671341     3.663698     3.656055     3.648412     3.640769     3.633125     3.625482
      3.617839     3.610196     3.602552     3.594909     3.587266     3.579623     3.571980     3.564336     3.556693     3.549050
      3.541407     3.533763     3.526120     3.518477     3.510834     3.503191     3.495547     3.487904     3.480261     3.472618
      3.464974     3.457331     3.449688     3.442045     3.434402     3.426758     3.419115     3.411472     3.403829     3.396185
      3.388542     3.380899     3.373256     3.365613     3.357969     3.350326     3.342683     3.335040     3.327396     3.319753
      3.312110     3.304467     3.296824     3.289180     3.281537     3.273894     3.266251     3.258607     3.250964     3.243321
      3.235678     3.228034     3.220391     3.212748     3.205105     3.197462     3.189818     3.182175     3.174532     3.166889
      3.159245     3.151602     3.143959     3.136316     3.128673     3.121029     3.113386     3.105743     3.098100     3.090456
      3.082813     3.075170     3.067527     3.059884     3.052240     3.044597     3.036954     3.029311     3.021667     3.014024
      3.006381     2.998738     2.991095     2.983451     2.975808     2.968165     2.960522     2.952878     2.945235     2.937592
      2.929949     2.922306     2.914662     2.907019     2.899376     2.891733     2.884089     2.876446     2.868803     2.861160
      2.853517     2.845873     2.838230     2.830587     2.822944     2.815300     2.807657     2.800014     2.792371     2.784728
      2.777084     2.769441     2.761798     2.754155     2.746511     2.738868     2.731225     2.723582     2.715939     2.708295
      2.700652     2.693009     2.685366     2.677722     2.670079     2.662436     2.654793     2.647150     2.639506     2.631863
      2.624220     2.616577     2.608933     2.601290     2.593647     2.586004     2.578361     2.570717     2.563074     2.555431
      2.547788     2.540144     2.532501     2.524858     2.517215     2.509572     2.501928     2.494285     2.486642     2.478999
      2.471355     2.463712     2.456069     2.448426     2.440783     2.433139     2.425496     2.417853     2.410210     2.402566
      2.394923     2.387280     2.379637     2.371994     2.364350     2.356707     2.349064     2.341421     2.333777     2.326134
      2.318491     2.310848     2.303205     2.295561     2.287918     2.280275     2.272632     2.264988     2.257345     2.249702
      2.242059     2.234416     2.226772     2.219129     2.211486     2.203843     2.196199     2.188556     2.180913     2.173270
      2.165627     2.157983     2.150340     2.142697     2.135054     2.127410     2.119767     2.112124     2.104481     2.096838
      2.089194     2.081551     2.073908     2.066265     2.058621     2.050978     2.043335     2.035692     2.028049     2.020405
      2.012762     2.005119     1.997476     1.989833     1.982190     1.974546     1.966903     1.959260     1.951617     1.943974
      1.936331     1.928688     1.921045     1.913402     1.905759     1.898115     1.890472     1.882829     1.875186     1.867543
      1.859900     1.852257     1.844614     1.836971     1.829327     1.821684     1.814041     1.806398     1.798755     1.791112
      1.783469     1.775826     1.768183     1.760540     1.752896     1.745253     1.737610     1.729967     1.722324     1.714681
      1.707038     1.699395     1.691752     1.684108     1.676465     1.668822     1.661179     1.653536     1.645893     1.638250
      1.630607     1.622964     1.615321     1.607677     1.600034     1.592391     1.584748     1.577105     1.569462     1.561819
      1.554176     1.546533     1.538890     1.531246     1.523603     1.515960     1.508317     1.500674     1.493031     1.485388
      1.477745     1.470102     1.462458     1.454815     1.447172     1.439529     1.431886     1.424243     1.416600     1.408957
      1.401314     1.393671     1.386027     1.378384     1.370741     1.363098     1.355455     1.347812     1.340169     1.332526
      1.324883     1.317240     1.309596     1.301953     1.294310     1.286667     1.279024     1.271381     1.263738     1.256095
      1.248452     1.240808     1.233165     1.225522     1.217879     1.210236     1.202593     1.194950     1.187307     1.179664
      1.172021     1.164377     1.156734     1.149091     1.141448     1.133805     1.126162     1.118519     1.110876     1.103233
      1.095590     1.087946     1.080303     1.072660     1.065017     1.057374     1.049731     1.042088     1.034445     1.026802
      1.019158     1.011515     1.003872     0.996229     0.988586     0.980943     0.973300     0.965657     0.958014     0.950371
      0.942727     0.935084     0.927441     0.919798     0.912155     0.904512     0.896869     0.889226     0.881583     0.873940
      0.866296     0.858653     0.851010     0.843367     0.835724     0.828081     0.820438     0.812795     0.805152     0.797508
      0.789865     0.782222     0.774579     0.766936     0.759293     0.751650     0.744007     0.736364     0.728721     0.721077
      0.713434     0.705791     0.698148     0.690505     0.682862     0.675219     0.667576     0.659933     0.652290     0.644646
      0.637003     0.629360     0.621717     0.614074     0.606431     0.598788     0.591145     0.583502     0.575858     0.568215
      0.560572     0.552929     0.545286     0.537643     0.530000     0.522357     0.514714     0.507071     0.499427     0.491784
      0.484141     0.476498     0.468855     0.461212     0.453569     0.445925     0.438282     0.430639     0.422996     0.415353
      0.407710     0.400067     0.392424     0.384780     0.377137     0.369494     0.361851     0.354208     0.346565     0.338922
      0.331278     0.323635     0.315992     0.308349     0.300706     0.293063     0.285420     0.277777     0.270133     0.262490
      0.254847     0.247204     0.239561     0.231918     0.224275     0.216631     0.208988     0.201345
 NY phased data points follow
  -3.58537E+00 -1.15459E+00 -5.10688E+00 -2.88789E+00 -2.83650E+00 -6.02220E-01 -3.19229E+00 -8.41433E-02 -3.30263E+00 -3.85618E-01
  -4.75279E+00 -1.08394E+00 -3.70640E+00 -2.01438E+00 -2.14738E+00 -2.08812E+00 -2.63073E+00 -2.84665E-01 -2.49890E+00 -9.25876E-01
  -3.49533E+00  5.48559E-01 -3.51707E+00 -2.32756E+00 -1.84706E+00 -1.36703E+00 -1.51610E-01  7.21084E-01 -3.21845E-01 -1.48987E+00
  -2.00885E+00  5.21077E-01 -5.30767E+00 -2.21812E+00 -4.63962E+00 -8.09996E-01 -2.92537E+00 -1.03995E+00 -2.06591E+00 -2.29862E+00
  -3.15406E+00 -5.83533E-01 -1.69937E+00 -9.94377E-01 -1.88901E+00 -2.32307E+00 -2.37925E+00 -3.29845E-01 -1.75834E+00 -3.55406E+00
  -2.28920E+00 -2.31565E+00 -6.69966E-01 -3.09520E+00 -2.81535E+00 -1.80530E+00 -2.20519E+00 -1.38364E+00 -1.67370E+00  1.76612E+00
  -2.92941E+00 -1.08555E+00 -3.75342E+00  3.51051E-02 -2.63886E+00 -1.00812E+00 -1.47240E-01 -2.15774E+00 -1.98455E+00 -2.09369E+00
  -1.82258E+00 -2.07006E+00 -1.98091E+00  4.44783E-01 -2.05778E+00 -1.01322E+00 -9.11270E-01 -1.32868E+00 -4.91572E-01 -1.75772E+00
  -1.29322E+00 -8.98033E-01 -2.25704E+00  6.46894E-02 -5.19415E-01 -7.27208E-01 -5.19561E+00 -5.23589E-01 -2.30485E+00  7.39156E-01
  -2.04492E+00 -2.70674E+00 -2.00844E+00 -1.70331E+00 -1.84111E+00 -2.41546E+00 -4.14941E+00 -1.08896E+00 -3.05643E+00  3.38945E-01
  -2.53551E+00 -7.55277E-01  1.72454E+00  1.58806E+00 -3.02236E+00  1.10548E+00 -4.17344E+00 -2.64335E+00 -2.62065E+00 -3.28617E-01
   4.48552E-01 -1.93236E+00 -1.81043E+00  9.34258E-01  2.09268E-02 -1.23120E+00 -1.26378E+00  2.11969E-01 -1.99106E+00 -1.25409E+00
  -3.06311E+00  2.36850E-01 -1.24281E+00 -1.13912E+00 -7.96023E-01  2.97792E+00  1.46991E+00  1.70753E+00 -7.30286E-01 -2.02529E+00
  -2.41268E+00 -3.12031E+00 -2.22925E+00  1.87294E-01  7.63009E-01 -1.52329E+00 -7.27061E-01  4.76978E-01 -1.63164E+00  8.09389E-02
  -4.16429E-01  1.27243E+00 -1.15730E+00 -1.23098E-03 -3.09310E+00 -6.71798E-01 -1.48840E+00 -1.36127E+00 -2.45366E-01 -1.34486E+00
  -3.26767E+00 -8.23375E-01  1.07103E-01 -1.07430E+00 -6.50628E-01 -1.45233E+00 -5.96308E-01 -1.15904E-01 -2.85361E+00 -1.38781E+00
  -2.45809E-01  4.22217E-02 -1.09015E+00  5.22493E-01 -1.04650E+00  6.94858E-01 -2.24235E+00  5.39129E-01 -2.08233E+00  5.58307E-01
  -5.59087E-01  1.52047E+00 -2.76517E+00 -1.29685E-01  5.34421E-02 -6.87771E-01 -2.01493E-01 -6.57405E-01 -8.08240E-01  4.00218E-01
  -3.04880E+00 -1.50264E+00 -1.15937E+00 -3.63258E-01 -1.07536E+00  7.80156E-01 -1.77851E+00 -1.45537E+00  4.62204E-02  1.18015E+00
   1.49761E-01 -2.42721E-01 -1.06912E+00  7.25231E-01 -2.87810E+00 -1.18513E-01 -1.71386E+00 -1.75231E-01 -1.98355E+00  1.30484E-01
  -2.11884E+00  1.62893E+00 -5.65036E-01  3.55641E-01 -3.37410E-01 -1.91539E+00 -1.87165E+00 -1.31415E+00  5.17576E-01 -9.05916E-01
  -1.49683E+00 -2.17968E-01  1.37839E+00  8.51559E-01 -1.26429E-01  1.33122E+00 -1.21553E+00 -4.91500E-02 -4.05575E-01 -1.26047E+00
  -1.42598E+00 -2.42500E-01 -2.97000E+00 -1.75649E-03 -1.12264E+00  2.42392E+00 -2.51854E+00 -1.26006E+00 -2.43303E+00 -5.78701E-01
  -2.33911E+00 -1.00198E+00 -8.23248E-01 -2.15731E+00 -1.37415E+00 -5.56885E-01  9.29574E-02 -5.76423E-01 -3.70003E-01 -1.35838E+00
  -2.28119E+00  1.14657E-01 -3.61686E+00 -6.45665E-01 -2.62387E+00  6.26548E-01 -1.72581E+00 -1.40133E+00 -9.56342E-01 -4.25249E-01
  -2.48930E+00 -1.91388E-01 -2.83932E+00 -1.05235E+00  1.35874E-01 -3.92045E-02 -1.09585E-01 -3.30033E-01  2.10533E+00  2.31229E+00
   2.52068E+00  1.90074E+00 -4.01599E+00 -2.67358E+00 -1.92796E+00  4.67351E-01  1.68384E+00  1.35981E-01 -1.02451E+00  8.84586E-01
  -1.92616E-01 -4.53773E-01 -7.61295E-01 -2.46728E-01  4.11283E-01  3.46401E-01 -1.29201E+00  5.84218E-01 -6.74169E-01 -4.88408E-01
  -1.33329E+00 -1.54449E+00 -3.71748E-01 -6.55652E-01 -1.98314E+00  1.09023E+00 -1.83114E+00  9.70298E-01  3.61346E-01  1.08986E+00
  -1.26116E+00  1.64485E+00 -3.25473E-02  4.36413E-03  2.12195E-01  1.58040E+00 -2.34650E+00  9.33530E-01 -1.63836E+00  2.49783E-01
   6.52750E-01  5.84019E-01 -9.52298E-01 -2.50354E+00  8.15565E-02 -8.09319E-01  1.14727E-01 -1.39958E+00  1.30819E+00  2.23934E-01
   4.59388E-01 -6.29550E-01 -2.22523E+00  8.30672E-01 -1.13927E+00  3.17699E-01 -4.88548E-01  1.86729E+00 -3.21000E-01  1.95004E+00
  -7.09863E-01 -3.85443E-01  6.14379E-01  9.86416E-01 -2.72901E+00 -2.28638E+00 -2.77842E-02 -1.01578E+00 -1.50638E+00 -2.47622E+00
  -3.11992E+00  6.54932E-01 -3.85902E-01 -1.63602E+00 -1.55834E+00 -4.50071E-01 -7.91243E-01  1.08049E+00 -1.75136E+00 -1.15994E+00
   1.11071E-01 -1.14316E+00 -1.12984E+00 -1.27653E-01 -2.73809E+00  6.11382E-01 -2.90368E+00 -1.74756E+00 -3.35666E-02 -3.41011E+00
   2.23122E-01 -2.66288E+00 -1.26754E+00 -7.53106E-01 -3.58964E-01 -1.29410E+00  5.59340E-01 -1.45696E+00 -1.03208E+00 -1.32396E+00
   1.40402E-02  1.66610E+00 -5.56375E-02 -5.06759E-01  5.65062E-01  1.66497E+00  1.93474E+00  1.18177E+00 -1.92789E+00  1.88686E+00
   5.57439E-01  5.40795E-01  1.50798E+00  2.38224E+00 -2.05783E-01  5.99754E-01  8.36461E-01  1.96617E-01 -8.89286E-01  2.52215E+00
  -1.68324E+00  3.13027E-01  2.33914E+00  2.72011E+00 -6.10743E-01  8.84939E-01  2.14363E+00  1.18830E+00  5.03989E-01 -4.42741E-01
   1.18619E+00  1.07294E+00  7.19502E-01  2.68641E+00  1.18755E+00  2.74277E+00  1.29920E+00  2.00787E+00  6.94737E-01  1.64447E+00
   1.34536E+00  1.04605E+00 -5.50895E-01  1.87625E-01  3.84649E+00  5.12106E-01  2.66900E+00  2.16508E+00  1.09293E+00  2.18375E+00
   9.98675E-01  1.68537E+00  5.89874E-02  1.18927E+00  2.48326E+00  1.80751E+00  2.15060E+00  2.55065E+00  1.00790E+00  6.67363E-01
   5.71824E-01  5.96967E-01  3.64947E+00  3.41977E-01 -1.55872E+00  3.15515E+00  1.06556E+00 -1.19305E+00 -1.19355E+00 -2.63483E-01
  -6.40459E-01  3.66347E-02  4.46753E-01  5.23641E-02  8.30655E-01  9.66122E-02  6.58133E-01  4.08509E-01 -8.88270E-01 -2.45878E-01
   2.70707E+00  9.64306E-01  1.80282E+00 -8.12377E-01 -5.58179E-01 -5.17567E-01  7.02844E-01  1.49437E+00 -2.00835E-01 -5.01335E-01
  -2.02633E-01  3.91925E-01 -1.25597E+00 -1.17065E+00  1.36028E+00  4.33861E-01 -3.87997E-01  6.14501E-01  1.64397E+00  1.08281E+00
  -2.51776E-01  2.63761E-01 -7.18000E-01 -1.73815E-01  9.82776E-02  8.81398E-01  4.38969E-01 -2.14599E-01 -1.87776E-01  4.37000E-01
  -3.36043E-01 -2.64098E-01  4.46337E-02 -8.63872E-01 -1.62630E+00 -3.39577E-01  7.25009E-02 -5.00027E-01 -7.04597E-01 -9.45675E-02
  -1.57872E+00  1.10782E+00 -3.17695E-01 -8.59166E-02  2.93744E-01 -5.13147E-03  9.88599E-01 -8.83773E-03  4.01764E-01 -2.00661E-01
  -7.97569E-01 -9.33995E-01 -3.89321E-01  1.61126E+00  3.36886E-01  9.58777E-01 -1.42239E+00 -1.14512E+00
 NY points of the fit to the data follow
  -2.04636E+00 -2.03297E+00 -2.01435E+00 -1.96607E+00 -1.79480E+00 -1.50633E+00 -1.20887E+00 -1.00888E+00 -9.88483E-01 -1.16739E+00
  -1.48045E+00 -1.80169E+00 -2.00997E+00 -2.06715E+00 -2.02555E+00 -1.97050E+00 -1.93720E+00 -1.90341E+00 -1.85855E+00 -1.82119E+00
  -1.79683E+00 -1.80390E+00 -1.85467E+00 -1.93053E+00 -1.91346E+00 -1.61520E+00 -1.11099E+00 -5.73136E-01 -1.87121E-01 -1.11384E-01
  -3.97987E-01 -9.51164E-01 -1.54136E+00 -1.95120E+00 -2.10454E+00 -2.07255E+00 -1.97579E+00 -1.86954E+00 -1.77312E+00 -1.71477E+00
  -1.70408E+00 -1.72331E+00 -1.73555E+00 -1.71517E+00 -1.66746E+00 -1.61778E+00 -1.59665E+00 -1.61906E+00 -1.67611E+00 -1.74376E+00
  -1.79310E+00 -1.80594E+00 -1.78650E+00 -1.75691E+00 -1.73363E+00 -1.71684E+00 -1.69996E+00 -1.67978E+00 -1.66190E+00 -1.65451E+00
  -1.66164E+00 -1.67998E+00 -1.69960E+00 -1.71147E+00 -1.70889E+00 -1.69534E+00 -1.67967E+00 -1.66495E+00 -1.65260E+00 -1.64302E+00
  -1.63120E+00 -1.61301E+00 -1.59363E+00 -1.58095E+00 -1.58023E+00 -1.59310E+00 -1.61541E+00 -1.63712E+00 -1.64874E+00 -1.64527E+00
  -1.62635E+00 -1.59102E+00 -1.55000E+00 -1.52124E+00 -1.51494E+00 -1.53231E+00 -1.56578E+00 -1.60086E+00 -1.62389E+00 -1.62772E+00
  -1.61547E+00 -1.59821E+00 -1.58711E+00 -1.58222E+00 -1.57256E+00 -1.55483E+00 -1.52999E+00 -1.48367E+00 -1.30927E+00 -8.93800E-01
  -3.75165E-01  5.46211E-02  2.28274E-01  5.67630E-02 -4.12357E-01 -9.99221E-01 -1.47199E+00 -1.68291E+00 -1.65916E+00 -1.54783E+00
  -1.47419E+00 -1.45034E+00 -1.43945E+00 -1.42883E+00 -1.41977E+00 -1.41740E+00 -1.42120E+00 -1.42715E+00 -1.42962E+00 -1.41735E+00
  -1.37038E+00 -1.20878E+00 -7.47136E-01 -8.24889E-02  5.34381E-01  8.80801E-01  8.14343E-01  3.53642E-01 -2.95292E-01 -8.58888E-01
  -1.17101E+00 -1.24979E+00 -1.26508E+00 -1.37979E+00 -1.56548E+00 -1.68258E+00 -1.63444E+00 -1.42750E+00 -1.16213E+00 -9.53829E-01
  -8.69689E-01 -9.04922E-01 -1.01045E+00 -1.12682E+00 -1.20638E+00 -1.23912E+00 -1.24311E+00 -1.24221E+00 -1.25074E+00 -1.26828E+00
  -1.28853E+00 -1.30156E+00 -1.30129E+00 -1.28811E+00 -1.26759E+00 -1.25033E+00 -1.24943E+00 -1.26662E+00 -1.29238E+00 -1.31137E+00
  -1.30752E+00 -1.28303E+00 -1.25122E+00 -1.22709E+00 -1.22113E+00 -1.23299E+00 -1.25194E+00 -1.26418E+00 -1.26275E+00 -1.25318E+00
  -1.24763E+00 -1.25757E+00 -1.28172E+00 -1.30378E+00 -1.31267E+00 -1.30517E+00 -1.28960E+00 -1.27586E+00 -1.26922E+00 -1.27211E+00
  -1.28783E+00 -1.30843E+00 -1.32778E+00 -1.33715E+00 -1.31872E+00 -1.25008E+00 -1.11938E+00 -9.46611E-01 -7.92293E-01 -7.22659E-01
  -7.67727E-01 -9.19691E-01 -1.14302E+00 -1.37341E+00 -1.51907E+00 -1.53253E+00 -1.41370E+00 -1.19894E+00 -9.50079E-01 -7.33080E-01
  -5.96492E-01 -5.61453E-01 -6.15512E-01 -7.22668E-01 -8.62453E-01 -1.04636E+00 -1.23335E+00 -1.35707E+00 -1.38342E+00 -1.30157E+00
  -1.12833E+00 -8.99255E-01 -6.86044E-01 -5.54829E-01 -5.27975E-01 -5.90176E-01 -7.11000E-01 -8.69305E-01 -1.03110E+00 -1.13524E+00
  -1.14218E+00 -1.06208E+00 -9.27602E-01 -7.78297E-01 -6.54682E-01 -5.96728E-01 -6.35464E-01 -7.51571E-01 -8.75395E-01 -9.47331E-01
  -9.44527E-01 -8.73680E-01 -7.30669E-01 -5.50235E-01 -4.16732E-01 -3.82035E-01 -4.40354E-01 -5.65337E-01 -7.37609E-01 -9.13217E-01
  -1.02159E+00 -1.01672E+00 -9.10912E-01 -7.52579E-01 -5.97158E-01 -4.82718E-01 -4.31403E-01 -4.44073E-01 -4.85754E-01 -5.12843E-01
  -5.07245E-01 -4.81068E-01 -4.50171E-01 -4.19727E-01 -3.55132E-01 -7.16686E-02  5.15061E-01  1.17993E+00  1.67145E+00  1.78639E+00
   1.44030E+00  7.39113E-01 -4.68122E-02 -6.18015E-01 -8.28363E-01 -7.64235E-01 -6.33957E-01 -5.72949E-01 -5.67074E-01 -5.67447E-01
  -5.62306E-01 -5.50600E-01 -5.34743E-01 -5.20872E-01 -5.14201E-01 -5.15971E-01 -5.24304E-01 -5.34903E-01 -5.43551E-01 -5.47902E-01
  -5.47056E-01 -5.40839E-01 -5.30146E-01 -5.16789E-01 -5.02220E-01 -4.87143E-01 -4.71891E-01 -4.56318E-01 -4.39837E-01 -4.22051E-01
  -4.02717E-01 -3.81944E-01 -3.60032E-01 -3.37212E-01 -3.13693E-01 -2.89892E-01 -2.66342E-01 -2.43577E-01 -2.22084E-01 -2.02400E-01
  -1.84978E-01 -1.70183E-01 -1.58324E-01 -1.49644E-01 -1.44251E-01 -1.42145E-01 -1.43178E-01 -1.47120E-01 -1.53657E-01 -1.62433E-01
  -1.73007E-01 -1.84877E-01 -1.97482E-01 -2.10254E-01 -2.22599E-01 -2.33927E-01 -2.43582E-01 -2.50809E-01 -2.54574E-01 -2.53247E-01
  -2.43554E-01 -2.17113E-01 -1.62078E-01 -1.13781E-01 -1.21465E-01 -2.01627E-01 -3.44371E-01 -5.14813E-01 -6.65652E-01 -7.57745E-01
  -7.47222E-01 -6.22793E-01 -4.36854E-01 -2.49491E-01 -1.02135E-01 -2.12469E-02 -2.10427E-02 -8.72546E-02 -1.74143E-01 -2.33393E-01
  -2.45473E-01 -2.23617E-01 -1.87173E-01 -1.53620E-01 -1.39933E-01 -1.52970E-01 -1.90541E-01 -2.41193E-01 -2.87587E-01 -3.12279E-01
  -2.94029E-01 -2.31310E-01 -1.46381E-01 -6.43630E-02 -2.20387E-03  3.25077E-02  3.87537E-02  2.48118E-02  7.79392E-03  2.38725E-03
   1.15600E-02  2.75349E-02  4.24453E-02  5.48703E-02  6.57517E-02  7.53984E-02  8.39280E-02  9.14256E-02  9.80199E-02  1.03865E-01
   1.09177E-01  1.14198E-01  1.19226E-01  1.24577E-01  1.30609E-01  1.37692E-01  1.46227E-01  1.56620E-01  1.69303E-01  1.84705E-01
   2.03274E-01  2.25446E-01  2.51666E-01  2.82349E-01  3.17897E-01  3.58654E-01  4.04910E-01  4.56850E-01  5.14550E-01  5.77922E-01
   6.46709E-01  7.20430E-01  7.98384E-01  8.79608E-01  9.62905E-01  1.04683E+00  1.12974E+00  1.20982E+00  1.28518E+00  1.35387E+00
   1.41403E+00  1.46394E+00  1.50213E+00  1.52741E+00  1.53901E+00  1.53657E+00  1.52019E+00  1.49037E+00  1.44809E+00  1.39462E+00
   1.33158E+00  1.26077E+00  1.18410E+00  1.10353E+00  1.02096E+00  9.38136E-01  8.56652E-01  7.77844E-01  7.02818E-01  6.32399E-01
   5.67178E-01  5.07492E-01  4.53487E-01  4.05120E-01  3.62222E-01  3.24504E-01  2.91617E-01  2.63155E-01  2.38704E-01  2.17837E-01
   2.00154E-01  1.85266E-01  1.72825E-01  1.62504E-01  1.54026E-01  1.47134E-01  1.41617E-01  1.37279E-01  1.33965E-01  1.31527E-01
   1.29855E-01  1.28842E-01  1.28410E-01  1.28479E-01  1.28992E-01  1.29889E-01  1.31132E-01  1.32674E-01  1.34490E-01  1.36543E-01
   1.38814E-01  1.41274E-01  1.43912E-01  1.46704E-01  1.49643E-01  1.52707E-01  1.55892E-01  1.59178E-01  1.62566E-01  1.66039E-01
   1.69598E-01  1.73228E-01  1.76931E-01  1.80695E-01  1.84522E-01  1.88400E-01  1.92331E-01  1.96305E-01  2.00325E-01  2.04382E-01
   2.08482E-01  2.12614E-01  2.16782E-01  2.20977E-01  2.25204E-01  2.29456E-01  2.33737E-01  2.38038E-01  2.42365E-01  2.46710E-01
   2.51079E-01  2.55464E-01  2.59872E-01  2.64294E-01  2.68735E-01  2.73189E-01  2.77663E-01  2.82149E-01  2.86653E-01  2.91167E-01
   2.95699E-01  3.00241E-01  3.04801E-01  3.09373E-01  3.13961E-01  3.18560E-01  3.23177E-01  3.27807E-01
 NY background values follow
    -2.031E+00   -2.027E+00   -2.022E+00   -2.017E+00   -2.012E+00   -2.008E+00   -2.003E+00   -1.998E+00   -1.993E+00   -1.989E+00
    -1.984E+00   -1.979E+00   -1.974E+00   -1.970E+00   -1.965E+00   -1.960E+00   -1.955E+00   -1.951E+00   -1.946E+00   -1.941E+00
    -1.936E+00   -1.932E+00   -1.927E+00   -1.922E+00   -1.917E+00   -1.912E+00   -1.908E+00   -1.903E+00   -1.898E+00   -1.893E+00
    -1.889E+00   -1.884E+00   -1.879E+00   -1.874E+00   -1.870E+00   -1.865E+00   -1.860E+00   -1.855E+00   -1.850E+00   -1.846E+00
    -1.841E+00   -1.836E+00   -1.831E+00   -1.827E+00   -1.822E+00   -1.817E+00   -1.812E+00   -1.807E+00   -1.803E+00   -1.798E+00
    -1.793E+00   -1.788E+00   -1.784E+00   -1.779E+00   -1.774E+00   -1.769E+00   -1.764E+00   -1.760E+00   -1.755E+00   -1.750E+00
    -1.745E+00   -1.741E+00   -1.736E+00   -1.731E+00   -1.726E+00   -1.721E+00   -1.717E+00   -1.712E+00   -1.707E+00   -1.702E+00
    -1.697E+00   -1.693E+00   -1.688E+00   -1.683E+00   -1.678E+00   -1.673E+00   -1.669E+00   -1.664E+00   -1.659E+00   -1.654E+00
    -1.649E+00   -1.645E+00   -1.640E+00   -1.635E+00   -1.630E+00   -1.625E+00   -1.621E+00   -1.616E+00   -1.611E+00   -1.606E+00
    -1.601E+00   -1.597E+00   -1.592E+00   -1.587E+00   -1.582E+00   -1.577E+00   -1.573E+00   -1.568E+00   -1.563E+00   -1.558E+00
    -1.553E+00   -1.549E+00   -1.544E+00   -1.539E+00   -1.534E+00   -1.529E+00   -1.525E+00   -1.520E+00   -1.515E+00   -1.510E+00
    -1.505E+00   -1.501E+00   -1.496E+00   -1.491E+00   -1.486E+00   -1.481E+00   -1.477E+00   -1.472E+00   -1.467E+00   -1.462E+00
    -1.457E+00   -1.453E+00   -1.448E+00   -1.443E+00   -1.438E+00   -1.433E+00   -1.429E+00   -1.424E+00   -1.419E+00   -1.414E+00
    -1.409E+00   -1.404E+00   -1.400E+00   -1.395E+00   -1.390E+00   -1.385E+00   -1.380E+00   -1.376E+00   -1.371E+00   -1.366E+00
    -1.361E+00   -1.356E+00   -1.352E+00   -1.347E+00   -1.342E+00   -1.337E+00   -1.332E+00   -1.328E+00   -1.323E+00   -1.318E+00
    -1.313E+00   -1.308E+00   -1.304E+00   -1.299E+00   -1.294E+00   -1.289E+00   -1.284E+00   -1.279E+00   -1.275E+00   -1.270E+00
    -1.265E+00   -1.260E+00   -1.255E+00   -1.251E+00   -1.246E+00   -1.241E+00   -1.236E+00   -1.231E+00   -1.227E+00   -1.222E+00
    -1.217E+00   -1.212E+00   -1.207E+00   -1.203E+00   -1.198E+00   -1.193E+00   -1.188E+00   -1.183E+00   -1.179E+00   -1.174E+00
    -1.169E+00   -1.164E+00   -1.159E+00   -1.155E+00   -1.150E+00   -1.145E+00   -1.140E+00   -1.135E+00   -1.131E+00   -1.126E+00
    -1.121E+00   -1.116E+00   -1.111E+00   -1.107E+00   -1.102E+00   -1.097E+00   -1.092E+00   -1.087E+00   -1.083E+00   -1.078E+00
    -1.073E+00   -1.068E+00   -1.063E+00   -1.059E+00   -1.054E+00   -1.049E+00   -1.044E+00   -1.039E+00   -1.035E+00   -1.030E+00
    -1.025E+00   -1.020E+00   -1.015E+00   -1.011E+00   -1.006E+00   -1.001E+00   -9.963E-01   -9.915E-01   -9.867E-01   -9.819E-01
    -9.771E-01   -9.723E-01   -9.675E-01   -9.627E-01   -9.579E-01   -9.531E-01   -9.483E-01   -9.435E-01   -9.387E-01   -9.339E-01
    -9.292E-01   -9.244E-01   -9.196E-01   -9.148E-01   -9.100E-01   -9.052E-01   -9.004E-01   -8.956E-01   -8.908E-01   -8.860E-01
    -8.812E-01   -8.765E-01   -8.717E-01   -8.669E-01   -8.621E-01   -8.573E-01   -8.525E-01   -8.477E-01   -8.429E-01   -8.381E-01
    -8.334E-01   -8.286E-01   -8.238E-01   -8.190E-01   -8.142E-01   -8.094E-01   -8.046E-01   -7.998E-01   -7.951E-01   -7.903E-01
    -7.855E-01   -7.807E-01   -7.759E-01   -7.711E-01   -7.663E-01   -7.616E-01   -7.568E-01   -7.520E-01   -7.472E-01   -7.424E-01
    -7.376E-01   -7.329E-01   -7.281E-01   -7.233E-01   -7.185E-01   -7.137E-01   -7.089E-01   -7.042E-01   -6.994E-01   -6.946E-01
    -6.898E-01   -6.850E-01   -6.802E-01   -6.755E-01   -6.707E-01   -6.659E-01   -6.611E-01   -6.563E-01   -6.516E-01   -6.468E-01
    -6.420E-01   -6.372E-01   -6.324E-01   -6.277E-01   -6.229E-01   -6.181E-01   -6.133E-01   -6.085E-01   -6.038E-01   -5.990E-01
    -5.942E-01   -5.894E-01   -5.847E-01   -5.799E-01   -5.751E-01   -5.703E-01   -5.655E-01   -5.608E-01   -5.560E-01   -5.512E-01
    -5.464E-01   -5.417E-01   -5.369E-01   -5.321E-01   -5.273E-01   -5.226E-01   -5.178E-01   -5.130E-01   -5.082E-01   -5.035E-01
    -4.987E-01   -4.939E-01   -4.891E-01   -4.844E-01   -4.796E-01   -4.748E-01   -4.701E-01   -4.653E-01   -4.605E-01   -4.557E-01
    -4.510E-01   -4.462E-01   -4.414E-01   -4.367E-01   -4.319E-01   -4.271E-01   -4.223E-01   -4.176E-01   -4.128E-01   -4.080E-01
    -4.033E-01   -3.985E-01   -3.937E-01   -3.890E-01   -3.842E-01   -3.794E-01   -3.747E-01   -3.699E-01   -3.651E-01   -3.604E-01
    -3.556E-01   -3.508E-01   -3.461E-01   -3.413E-01   -3.365E-01   -3.318E-01   -3.270E-01   -3.223E-01   -3.175E-01   -3.127E-01
    -3.080E-01   -3.032E-01   -2.984E-01   -2.937E-01   -2.889E-01   -2.842E-01   -2.794E-01   -2.746E-01   -2.699E-01   -2.651E-01
    -2.604E-01   -2.556E-01   -2.508E-01   -2.461E-01   -2.413E-01   -2.366E-01   -2.318E-01   -2.271E-01   -2.223E-01   -2.176E-01
    -2.128E-01   -2.080E-01   -2.033E-01   -1.985E-01   -1.938E-01   -1.890E-01   -1.843E-01   -1.795E-01   -1.748E-01   -1.700E-01
    -1.653E-01   -1.605E-01   -1.558E-01   -1.510E-01   -1.463E-01   -1.415E-01   -1.368E-01   -1.320E-01   -1.273E-01   -1.226E-01
    -1.178E-01   -1.131E-01   -1.083E-01   -1.036E-01   -9.883E-02   -9.409E-02   -8.935E-02   -8.461E-02   -7.987E-02   -7.513E-02
    -7.039E-02   -6.565E-02   -6.091E-02   -5.617E-02   -5.144E-02   -4.670E-02   -4.196E-02   -3.723E-02   -3.249E-02   -2.776E-02
    -2.302E-02   -1.829E-02   -1.356E-02   -8.825E-03   -4.094E-03    6.375E-04    5.368E-03    1.010E-02    1.483E-02    1.956E-02
     2.428E-02    2.901E-02    3.374E-02    3.847E-02    4.319E-02    4.792E-02    5.264E-02    5.737E-02    6.209E-02    6.681E-02
     7.154E-02    7.626E-02    8.098E-02    8.570E-02    9.042E-02    9.514E-02    9.986E-02    1.046E-01    1.093E-01    1.140E-01
     1.187E-01    1.234E-01    1.282E-01    1.329E-01    1.376E-01    1.423E-01    1.470E-01    1.517E-01    1.564E-01    1.612E-01
     1.659E-01    1.706E-01    1.753E-01    1.800E-01    1.847E-01    1.894E-01    1.941E-01    1.988E-01    2.035E-01    2.082E-01
     2.130E-01    2.177E-01    2.224E-01    2.271E-01    2.318E-01    2.365E-01    2.412E-01    2.459E-01    2.506E-01    2.553E-01
     2.600E-01    2.647E-01    2.694E-01    2.741E-01    2.788E-01    2.835E-01    2.882E-01    2.929E-01    2.975E-01    3.022E-01
     3.069E-01    3.116E-01    3.163E-01    3.210E-01    3.257E-01    3.304E-01    3.351E-01    3.398E-01
 Ala      Conc. = 1.47E+01
