 LCModel (Version 6.3-1L) Copyright: S.W. Provencher.          Ref.: Magn. Reson. Med. 30:672-679 (1993).                
 Slice#2 Row#9 Col#8  PD_24_press_1_raw_act
 36 lines in following concentration table = NCONC+1
    Conc.  %SD /Cr+PCr  Metabolite                                         
   21.168 550% 1.4E-02 Ala                                                 
   23.985 999% 1.6E-02 Asp                                                 
  446.664  50%   0.302 Cr                                                  
 1.03E+03  22%   0.698 PCr                                                 
    0.000 999%   0.000 GABA                                                
    0.000 999%   0.000 Glc                                                 
  630.082  38%   0.426 Gln                                                 
 1.49E+03  18%   1.007 Glu                                                 
  748.480   3%   0.506 GPC                                                 
    0.000 999%   0.000 PCh                                                 
  358.758  22%   0.243 GSH                                                 
 1.91E+03  13%   1.290 Ins                                                 
    0.000 999%   0.000 Lac                                                 
 2.22E+03   5%   1.501 NAA                                                 
  177.463  73%   0.120 NAAG                                                
   85.724  34% 5.8E-02 Scyllo                                              
    0.000 999%   0.000 Tau                                                 
    0.000 999%   0.000 -CrCH2                                              
  748.480   3%   0.506 GPC+PCh                                             
 2.40E+03   4%   1.621 NAA+NAAG                                            
 1.48E+03   4%   1.000 Cr+PCr                                              
 2.12E+03  17%   1.434 Glu+Gln                                             
 2.05E+03  21%   1.386 Lip13a                                              
    0.000 999%   0.000 Lip13b                                              
  303.944 100%   0.206 Lip09                                               
 1.81E+03  18%   1.226 MM09                                                
  362.789  62%   0.245 Lip20                                               
 3.69E+03  11%   2.494 MM20                                                
  805.122  30%   0.545 MM12                                                
    0.000 999%   0.000 MM14                                                
  951.571  22%   0.644 MM17                                                
 2.05E+03  21%   1.386 Lip13a+Lip13b                                       
 2.85E+03  12%   1.931 MM14+Lip13a+Lip13b+MM12                             
 2.12E+03  10%   1.431 MM09+Lip09                                          
 4.05E+03  10%   2.739 MM20+Lip20                                          
   6 lines in following misc. output table
  FWHM = 0.046 ppm    S/N =  11                                            
  Data shift = 0.008 ppm                                                   
  Ph: -31 deg      -6.8 deg/ppm                                            
  alphaB,S = 8.5E+01,   1.0E+02                                            
   14 spline knots.   Ns = 6(1)                                            
   2 inflections.     1 extrema                                            
  498 points on ppm-axis = NY
      4.000000     3.992357     3.984714     3.977070     3.969427     3.961784     3.954141     3.946497     3.938854     3.931211
      3.923568     3.915925     3.908281     3.900638     3.892995     3.885352     3.877708     3.870065     3.862422     3.854779
      3.847136     3.839492     3.831849     3.824206     3.816563     3.808919     3.801276     3.793633     3.785990     3.778347
      3.770703     3.763060     3.755417     3.747774     3.740130     3.732487     3.724844     3.717201     3.709558     3.701914
      3.694271     3.686628     3.678985     3.671341     3.663698     3.656055     3.648412     3.640769     3.633125     3.625482
      3.617839     3.610196     3.602552     3.594909     3.587266     3.579623     3.571980     3.564336     3.556693     3.549050
      3.541407     3.533763     3.526120     3.518477     3.510834     3.503191     3.495547     3.487904     3.480261     3.472618
      3.464974     3.457331     3.449688     3.442045     3.434402     3.426758     3.419115     3.411472     3.403829     3.396185
      3.388542     3.380899     3.373256     3.365613     3.357969     3.350326     3.342683     3.335040     3.327396     3.319753
      3.312110     3.304467     3.296824     3.289180     3.281537     3.273894     3.266251     3.258607     3.250964     3.243321
      3.235678     3.228034     3.220391     3.212748     3.205105     3.197462     3.189818     3.182175     3.174532     3.166889
      3.159245     3.151602     3.143959     3.136316     3.128673     3.121029     3.113386     3.105743     3.098100     3.090456
      3.082813     3.075170     3.067527     3.059884     3.052240     3.044597     3.036954     3.029311     3.021667     3.014024
      3.006381     2.998738     2.991095     2.983451     2.975808     2.968165     2.960522     2.952878     2.945235     2.937592
      2.929949     2.922306     2.914662     2.907019     2.899376     2.891733     2.884089     2.876446     2.868803     2.861160
      2.853517     2.845873     2.838230     2.830587     2.822944     2.815300     2.807657     2.800014     2.792371     2.784728
      2.777084     2.769441     2.761798     2.754155     2.746511     2.738868     2.731225     2.723582     2.715939     2.708295
      2.700652     2.693009     2.685366     2.677722     2.670079     2.662436     2.654793     2.647150     2.639506     2.631863
      2.624220     2.616577     2.608933     2.601290     2.593647     2.586004     2.578361     2.570717     2.563074     2.555431
      2.547788     2.540144     2.532501     2.524858     2.517215     2.509572     2.501928     2.494285     2.486642     2.478999
      2.471355     2.463712     2.456069     2.448426     2.440783     2.433139     2.425496     2.417853     2.410210     2.402566
      2.394923     2.387280     2.379637     2.371994     2.364350     2.356707     2.349064     2.341421     2.333777     2.326134
      2.318491     2.310848     2.303205     2.295561     2.287918     2.280275     2.272632     2.264988     2.257345     2.249702
      2.242059     2.234416     2.226772     2.219129     2.211486     2.203843     2.196199     2.188556     2.180913     2.173270
      2.165627     2.157983     2.150340     2.142697     2.135054     2.127410     2.119767     2.112124     2.104481     2.096838
      2.089194     2.081551     2.073908     2.066265     2.058621     2.050978     2.043335     2.035692     2.028049     2.020405
      2.012762     2.005119     1.997476     1.989833     1.982190     1.974546     1.966903     1.959260     1.951617     1.943974
      1.936331     1.928688     1.921045     1.913402     1.905759     1.898115     1.890472     1.882829     1.875186     1.867543
      1.859900     1.852257     1.844614     1.836971     1.829327     1.821684     1.814041     1.806398     1.798755     1.791112
      1.783469     1.775826     1.768183     1.760540     1.752896     1.745253     1.737610     1.729967     1.722324     1.714681
      1.707038     1.699395     1.691752     1.684108     1.676465     1.668822     1.661179     1.653536     1.645893     1.638250
      1.630607     1.622964     1.615321     1.607677     1.600034     1.592391     1.584748     1.577105     1.569462     1.561819
      1.554176     1.546533     1.538890     1.531246     1.523603     1.515960     1.508317     1.500674     1.493031     1.485388
      1.477745     1.470102     1.462458     1.454815     1.447172     1.439529     1.431886     1.424243     1.416600     1.408957
      1.401314     1.393671     1.386027     1.378384     1.370741     1.363098     1.355455     1.347812     1.340169     1.332526
      1.324883     1.317240     1.309596     1.301953     1.294310     1.286667     1.279024     1.271381     1.263738     1.256095
      1.248452     1.240808     1.233165     1.225522     1.217879     1.210236     1.202593     1.194950     1.187307     1.179664
      1.172021     1.164377     1.156734     1.149091     1.141448     1.133805     1.126162     1.118519     1.110876     1.103233
      1.095590     1.087946     1.080303     1.072660     1.065017     1.057374     1.049731     1.042088     1.034445     1.026802
      1.019158     1.011515     1.003872     0.996229     0.988586     0.980943     0.973300     0.965657     0.958014     0.950371
      0.942727     0.935084     0.927441     0.919798     0.912155     0.904512     0.896869     0.889226     0.881583     0.873940
      0.866296     0.858653     0.851010     0.843367     0.835724     0.828081     0.820438     0.812795     0.805152     0.797508
      0.789865     0.782222     0.774579     0.766936     0.759293     0.751650     0.744007     0.736364     0.728721     0.721077
      0.713434     0.705791     0.698148     0.690505     0.682862     0.675219     0.667576     0.659933     0.652290     0.644646
      0.637003     0.629360     0.621717     0.614074     0.606431     0.598788     0.591145     0.583502     0.575858     0.568215
      0.560572     0.552929     0.545286     0.537643     0.530000     0.522357     0.514714     0.507071     0.499427     0.491784
      0.484141     0.476498     0.468855     0.461212     0.453569     0.445925     0.438282     0.430639     0.422996     0.415353
      0.407710     0.400067     0.392424     0.384780     0.377137     0.369494     0.361851     0.354208     0.346565     0.338922
      0.331278     0.323635     0.315992     0.308349     0.300706     0.293063     0.285420     0.277777     0.270133     0.262490
      0.254847     0.247204     0.239561     0.231918     0.224275     0.216631     0.208988     0.201345
 NY phased data points follow
  -1.03630E+01  7.66748E-01 -6.70234E+00 -3.16627E-01  2.57427E+00  1.85664E+01  1.62258E+01  2.87102E+01  3.56098E+01  4.05492E+01
   3.34275E+01  4.06689E+01  2.34033E+01  2.66807E+01  1.18320E+01  1.67217E+01  3.54522E+00  3.85502E+00 -6.92596E+00  2.38181E+00
  -1.88510E+00  2.89608E+00 -6.27720E+00  3.39293E+00 -6.19853E+00  6.88313E+00  3.93017E+00  8.16237E+00 -2.23813E+00  1.06935E+01
   6.39834E+00  1.38837E+01  8.04415E+00  8.59102E+00  7.50974E+00  8.96445E+00 -3.74818E-01  6.23953E+00  5.67993E+00  7.76943E+00
  -3.54064E-01  7.89728E+00  1.89887E+00  1.24662E+01  7.33475E+00  1.79562E+01  1.35789E+01  2.43760E+01  1.59659E+01  1.83807E+01
   5.77012E+00  1.44271E+01  3.35473E+00  6.95443E+00  2.04907E+00  5.21904E+00  5.92111E+00  1.18420E+01  4.30720E-01  9.77407E+00
   2.50764E+00  3.58951E+00 -6.94831E+00 -3.74777E+00 -3.12716E+00 -1.71353E+00 -7.98217E+00 -6.94559E+00 -8.34923E+00 -3.59570E+00
  -8.38992E-01  5.60104E-01 -3.84541E+00 -4.29525E+00 -1.78527E-01  2.12118E+00  1.12893E-01 -2.19884E+00 -2.09360E+00  2.85720E+00
  -4.07042E+00  4.07477E-01 -9.60119E-01  4.86373E+00 -1.70067E+00  1.83183E+00 -7.19049E-02  3.85562E+00 -1.42063E+00  2.37466E+00
  -1.93188E-01  1.99141E+00 -4.25764E+00 -2.20205E+00  6.42935E-01  1.21574E+01  1.00567E+01  1.71744E+01  1.93622E+01  3.30291E+01
   4.16588E+01  5.68573E+01  7.01409E+01  7.52012E+01  5.87401E+01  5.07159E+01  3.39565E+01  3.15253E+01  1.36835E+01  9.20994E+00
   6.81410E+00  9.81188E+00  1.38349E+00  5.46028E+00  5.90798E-01  1.98934E+00 -6.99892E+00  3.61543E+00 -3.17400E+00  9.55787E+00
   1.50479E+00  1.12277E+01  8.80850E+00  1.78087E+01  2.39291E+01  3.77096E+01  5.27830E+01  5.26750E+01  5.01367E+01  3.58008E+01
   2.59467E+01  2.04671E+01  1.77014E+01  1.10007E+01  6.02289E+00  5.88919E+00  5.20057E-01  2.01501E+00 -3.25642E+00  5.48634E-01
   5.33161E-01  1.23836E+00 -2.14408E+00  2.76400E+00  7.91191E-01 -4.52688E+00 -2.63766E-02 -3.71672E+00 -3.41777E+00  3.70794E+00
  -2.08665E+00 -5.03246E-01 -7.71155E+00 -4.41117E+00 -6.50761E+00  9.91789E-01 -3.79586E+00 -4.21977E+00  3.07363E+00 -6.99743E+00
   2.48953E-01 -1.92197E+00 -3.73618E+00 -8.36039E-01 -4.25690E-01  4.25260E+00  9.39360E-01  2.32413E+00 -3.47659E+00  5.20451E-01
  -6.24177E+00 -3.14521E+00 -4.76271E+00  4.42856E-01 -5.86270E+00 -1.43031E+01 -9.66242E+00 -1.48555E+01 -1.38101E+01 -8.21325E+00
  -6.31255E+00 -1.00506E+01 -1.77785E+01 -7.57473E+00 -5.70377E+00 -1.04740E+01 -7.67876E+00  3.40141E+00  7.17243E-01  1.40539E+00
   1.71778E+00  8.01837E+00  6.59980E+00  7.39235E+00  7.96276E+00  5.22926E+00  6.09137E+00  6.02706E-02  1.11088E+00  2.16073E+00
  -3.83438E+00  4.86643E+00  6.86728E+00  2.46628E+00 -1.92826E+00  6.52146E+00 -1.97885E+00  1.57231E+00 -3.23056E+00 -5.91750E+00
  -7.56151E+00  2.97632E-01  1.21505E+00  1.00853E+01  1.14375E+01  1.88938E+01  1.61022E+01  1.13604E+01  9.88662E+00  7.88533E+00
  -3.66023E+00 -1.67395E+00  1.39758E+00  3.01402E+00  5.81112E+00  6.34679E+00  7.56713E+00  1.25068E+01  1.01871E+01  8.62288E+00
   1.03555E+01  8.17500E+00  9.02408E+00  1.26101E+01  8.40127E+00  9.18701E+00  1.30608E+01  9.89322E+00  1.33515E+01  5.58017E+00
   9.66524E+00  6.73444E+00  7.33693E+00  8.11706E+00  1.15437E+01  1.49493E+01  9.19583E+00  1.71478E+01  1.62947E+01  1.73704E+01
   1.71172E+01  2.19312E+01  1.56232E+01  2.83324E+01  3.29739E+01  3.83603E+01  4.00532E+01  6.05255E+01  7.52050E+01  9.52542E+01
   1.06310E+02  8.50554E+01  7.38113E+01  5.64035E+01  4.57997E+01  3.58700E+01  2.76291E+01  1.96661E+01  1.74179E+01  1.43068E+01
   1.09056E+01  8.12362E+00  1.69221E+01  9.71273E+00  3.86550E+00  1.14421E+01  4.61679E+00  9.84992E+00  4.76707E+00  3.96920E+00
   4.14948E+00  8.61370E+00  3.56500E+00  9.28782E+00  9.42508E+00  3.60320E+00  2.47744E+00  1.00427E+01  8.35264E+00  1.01157E+01
   7.52566E-01  3.59260E+00  1.64156E+00  3.20133E+00  4.46002E+00  7.75354E+00  3.64436E+00  4.51031E+00  7.93705E+00  9.84619E+00
   8.53826E+00  6.66881E+00  1.22341E+01  7.13796E+00  5.14238E+00  8.79335E+00  9.72995E+00  1.43953E+01  1.28928E+01  1.31339E+01
   1.05629E+01  8.64964E+00  4.88867E+00  1.36843E+01  7.94641E+00  9.02065E+00  7.16215E+00  8.51508E+00  6.90129E+00  1.02583E+01
   5.04252E+00  5.37241E+00  5.62366E+00  5.95367E+00  2.16850E+00  5.11934E+00  5.88862E+00  3.14233E+00 -1.52133E+00  5.23534E+00
   6.37156E+00 -1.38970E+00 -9.10760E-01  4.15847E+00  2.42614E+00  8.06635E+00  2.60530E+00  6.59872E+00  9.14219E-01  1.02918E+01
   2.76731E+00  2.82182E+00  1.90003E+00  4.53062E+00  5.64792E+00  7.03761E+00  1.24177E+01  1.49432E+01  7.18613E+00  8.28815E+00
   8.36165E+00  1.35480E+01  1.87406E+01  1.60394E+01  1.57523E+01  1.85552E+01  1.34467E+01  1.51939E+01  1.39274E+01  1.90159E+01
   1.70980E+01  1.82245E+01  1.55042E+01  1.53797E+01  1.59937E+01  1.39083E+01  2.26025E+01  1.37981E+01  2.17879E+01  1.78838E+01
   2.16647E+01  2.32480E+01  1.85001E+01  1.40840E+01  1.33246E+01  1.92077E+01  1.70512E+01  1.23257E+01  1.62127E+01  9.69691E+00
   1.24270E+01  1.18297E+01  5.38963E+00  1.22201E+01  1.09807E+01  1.04686E+01  9.20133E+00  1.05532E+01  1.13810E+01  1.53720E+01
   1.37232E+01  1.67499E+01  1.22195E+01  1.58066E+01  7.55504E+00  1.28774E+01  1.26026E+01  1.38107E+01  1.53894E+01  1.69507E+01
   1.67467E+01  1.74808E+01  1.38446E+01  1.96392E+01  1.76453E+01  2.17556E+01  2.20783E+01  1.73921E+01  2.46698E+01  2.63802E+01
   2.07738E+01  1.91344E+01  1.74525E+01  1.49665E+01  1.48433E+01  1.47178E+01  1.23645E+01  1.67832E+01  1.94342E+01  1.21103E+01
   1.57052E+01  8.44773E+00  1.29777E+01  1.12455E+01  1.67116E+01  1.27062E+01  1.32175E+01  1.05568E+01  1.10317E+01  6.08752E+00
   8.16111E+00  4.71271E+00  6.14626E+00  1.06037E+01  1.10502E+01  7.66274E+00  6.13813E+00  4.16040E+00  5.60848E+00  5.65852E+00
   7.85688E+00  9.56150E+00  8.16557E+00  9.21060E+00  7.94578E+00  7.60516E+00  8.96407E+00  7.57508E+00  8.84460E+00  9.37068E+00
   7.64560E+00  4.83287E+00  3.48189E+00  5.93133E+00  8.89680E+00  1.19953E+01  6.52686E+00  6.15407E+00  5.96270E+00  1.29530E+01
   4.05196E+00  5.22029E+00  7.73721E-01  5.80765E+00  3.88230E+00  1.10828E+01  7.57851E+00  9.66338E+00  1.27768E+01  9.26245E+00
   1.12776E+01  4.34506E+00  2.47212E+00  6.89255E+00  5.20701E+00  8.59326E+00  4.72486E+00  5.73914E+00  6.13359E+00  8.66304E+00
   8.92229E+00  4.75859E+00  8.03328E+00  9.66193E+00  8.05664E+00  4.00536E+00  5.29783E+00  6.06288E+00  8.05796E+00  6.84974E+00
   8.28980E+00  5.28277E+00  3.17695E+00  9.31488E+00  7.74528E+00  7.85110E+00  6.48165E+00  4.86371E+00
 NY points of the fit to the data follow
   1.43632E+00  1.37742E+00  1.92295E+00  3.62924E+00  7.08395E+00  1.19007E+01  1.79800E+01  2.50259E+01  3.17525E+01  3.59110E+01
   3.57845E+01  3.17135E+01  2.56734E+01  1.96880E+01  1.46693E+01  1.04758E+01  6.81733E+00  4.01956E+00  2.44511E+00  1.69902E+00
   1.36468E+00  1.09592E+00  6.49193E-01  1.46941E-01 -2.26242E-02  1.57667E-01  8.42177E-01  2.44479E+00  5.09501E+00  8.16084E+00
   1.05170E+01  1.14925E+01  1.10911E+01  9.68701E+00  7.76753E+00  5.67726E+00  3.71457E+00  2.25701E+00  1.46692E+00  1.14803E+00
   1.41326E+00  2.55826E+00  4.52272E+00  6.95105E+00  9.74861E+00  1.28112E+01  1.53480E+01  1.61137E+01  1.45601E+01  1.13045E+01
   7.66280E+00  4.60875E+00  2.29838E+00  6.73552E-01 -1.82834E-01 -1.46832E-01  7.23578E-01  2.01584E+00  3.33826E+00  4.24918E+00
   4.35482E+00  3.58882E+00  2.24661E+00  8.49845E-01 -1.81785E-01 -6.73186E-01 -6.08357E-01 -1.27481E-01  5.99822E-01  1.41752E+00
   2.20971E+00  2.76232E+00  2.90537E+00  2.64315E+00  2.15151E+00  1.65982E+00  1.27383E+00  9.88693E-01  7.62843E-01  6.31935E-01
   7.83423E-01  1.12772E+00  1.45814E+00  1.77952E+00  2.03287E+00  1.90987E+00  1.13252E+00 -1.19169E-01 -1.22999E+00 -1.69930E+00
  -1.43249E+00 -7.20055E-01  8.89228E-02  8.88588E-01  1.78085E+00  2.87400E+00  5.04580E+00  1.06078E+01  1.90888E+01  3.03362E+01
   4.49177E+01  6.04658E+01  7.12914E+01  7.21969E+01  6.33682E+01  4.98576E+01  3.67083E+01  2.58838E+01  1.68050E+01  8.76359E+00
   2.55962E+00 -1.13742E-01 -6.58477E-01 -7.05267E-01 -6.09265E-01 -4.56339E-01 -2.61243E-01 -1.75400E-02  3.20223E-01  8.82468E-01
   2.16985E+00  5.75908E+00  1.18507E+01  1.96222E+01  2.95885E+01  4.09770E+01  5.03621E+01  5.35486E+01  4.92974E+01  4.04537E+01
   3.10423E+01  2.31563E+01  1.65322E+01  1.02824E+01  4.58721E+00  1.00494E+00 -2.85784E-01 -6.15420E-01 -4.03788E-01  1.05391E-01
   6.62520E-01  1.09854E+00  1.33536E+00  1.34051E+00  1.17385E+00  9.24761E-01  6.33186E-01  3.28317E-01  3.63276E-02 -2.41605E-01
  -4.64915E-01 -6.50432E-01 -7.98402E-01 -8.87552E-01 -9.35168E-01 -1.03239E+00 -1.17822E+00 -1.41437E+00 -1.78963E+00 -2.20483E+00
  -2.52579E+00 -2.52674E+00 -2.16993E+00 -1.74342E+00 -1.61317E+00 -1.91668E+00 -2.46833E+00 -2.98380E+00 -3.36289E+00 -3.72731E+00
  -4.17125E+00 -4.64979E+00 -5.06172E+00 -5.40871E+00 -5.71487E+00 -5.86541E+00 -5.66558E+00 -5.22824E+00 -4.90287E+00 -4.88168E+00
  -5.02175E+00 -5.07307E+00 -4.87005E+00 -4.57222E+00 -4.37875E+00 -4.08101E+00 -3.26974E+00 -1.86439E+00 -1.85999E-01  1.28267E+00
   2.24731E+00  2.64716E+00  2.47586E+00  1.95795E+00  1.30520E+00  6.22675E-01  1.04977E-01  4.86637E-03  5.53303E-01  1.73737E+00
   3.30127E+00  4.83754E+00  5.98886E+00  6.46005E+00  5.90557E+00  4.46101E+00  2.27741E+00 -2.97946E-01 -2.53621E+00 -3.74305E+00
  -3.39381E+00 -1.69628E+00  9.49094E-01  4.21176E+00  7.43944E+00  9.58140E+00  9.70439E+00  7.77824E+00  4.63490E+00  1.33075E+00
  -1.58909E+00 -3.58917E+00 -3.94129E+00 -2.40187E+00  5.40169E-01  3.67205E+00  6.14359E+00  7.87188E+00  8.95318E+00  9.38208E+00
   9.16688E+00  8.74437E+00  8.63617E+00  8.96780E+00  9.58618E+00  1.04550E+01  1.14075E+01  1.20652E+01  1.22361E+01  1.18693E+01
   1.11463E+01  1.04489E+01  1.02087E+01  1.06085E+01  1.14987E+01  1.26293E+01  1.37111E+01  1.45850E+01  1.52522E+01  1.59207E+01
   1.69001E+01  1.81781E+01  1.98616E+01  2.25757E+01  2.86507E+01  3.78474E+01  4.85931E+01  6.21516E+01  7.82135E+01  9.20032E+01
   9.67554E+01  9.00176E+01  7.58975E+01  6.06388E+01  4.77510E+01  3.70364E+01  2.72345E+01  1.85917E+01  1.34141E+01  1.14572E+01
   1.04018E+01  9.70866E+00  9.28576E+00  9.00461E+00  8.71491E+00  8.37041E+00  7.97273E+00  7.55623E+00  7.14660E+00  6.75118E+00
   6.37978E+00  6.06506E+00  5.82764E+00  5.65060E+00  5.50629E+00  5.38234E+00  5.28741E+00  5.23053E+00  5.21329E+00  5.23740E+00
   5.31382E+00  5.44714E+00  5.63146E+00  5.85498E+00  6.11259E+00  6.40077E+00  6.71435E+00  7.04885E+00  7.40040E+00  7.76379E+00
   8.13252E+00  8.49422E+00  8.83413E+00  9.13846E+00  9.39551E+00  9.59584E+00  9.73180E+00  9.79762E+00  9.79234E+00  9.71751E+00
   9.57637E+00  9.37471E+00  9.12020E+00  8.82211E+00  8.49129E+00  8.13901E+00  7.77629E+00  7.41362E+00  7.06105E+00  6.72846E+00
   6.42639E+00  6.16601E+00  5.94176E+00  5.74702E+00  5.58207E+00  5.43309E+00  5.27670E+00  5.10132E+00  4.92417E+00  4.78999E+00
   4.73075E+00  4.74374E+00  4.82711E+00  4.98729E+00  5.22299E+00  5.51016E+00  5.80441E+00  6.08451E+00  6.36569E+00  6.66925E+00
   7.00650E+00  7.37823E+00  7.78401E+00  8.23492E+00  8.74063E+00  9.29493E+00  9.89197E+00  1.05264E+01  1.11921E+01  1.18812E+01
   1.25843E+01  1.32910E+01  1.39899E+01  1.46687E+01  1.53150E+01  1.59158E+01  1.64586E+01  1.69323E+01  1.73272E+01  1.76354E+01
   1.78512E+01  1.79711E+01  1.79942E+01  1.79223E+01  1.77598E+01  1.75134E+01  1.71916E+01  1.68042E+01  1.63625E+01  1.58788E+01
   1.53656E+01  1.48353E+01  1.42996E+01  1.37699E+01  1.32564E+01  1.27687E+01  1.23152E+01  1.19027E+01  1.15372E+01  1.12236E+01
   1.09661E+01  1.07682E+01  1.06325E+01  1.05611E+01  1.05556E+01  1.06171E+01  1.07465E+01  1.09444E+01  1.12102E+01  1.15428E+01
   1.19402E+01  1.23991E+01  1.29153E+01  1.34828E+01  1.40938E+01  1.47386E+01  1.54063E+01  1.60841E+01  1.67581E+01  1.74131E+01
   1.80335E+01  1.86036E+01  1.91083E+01  1.95343E+01  1.98696E+01  2.01047E+01  2.02330E+01  2.02508E+01  2.01582E+01  1.99583E+01
   1.96573E+01  1.92639E+01  1.87892E+01  1.82458E+01  1.76478E+01  1.70095E+01  1.63449E+01  1.56673E+01  1.49888E+01  1.43205E+01
   1.36717E+01  1.30498E+01  1.24603E+01  1.19071E+01  1.13928E+01  1.09184E+01  1.04842E+01  1.00890E+01  9.73103E+00  9.40822E+00
   9.11813E+00  8.85826E+00  8.62597E+00  8.41855E+00  8.23338E+00  8.06810E+00  7.92065E+00  7.78914E+00  7.67177E+00  7.56684E+00
   7.47288E+00  7.38871E+00  7.31335E+00  7.24589E+00  7.18541E+00  7.13108E+00  7.08223E+00  7.03841E+00  6.99920E+00  6.96416E+00
   6.93280E+00  6.90471E+00  6.87963E+00  6.85741E+00  6.83786E+00  6.82070E+00  6.80565E+00  6.79249E+00  6.78116E+00  6.77161E+00
   6.76371E+00  6.75725E+00  6.75207E+00  6.74808E+00  6.74529E+00  6.74370E+00  6.74318E+00  6.74356E+00  6.74473E+00  6.74672E+00
   6.74956E+00  6.75322E+00  6.75758E+00  6.76250E+00  6.76797E+00  6.77403E+00  6.78073E+00  6.78800E+00  6.79570E+00  6.80375E+00
   6.81219E+00  6.82109E+00  6.83045E+00  6.84017E+00  6.85015E+00  6.86036E+00  6.87086E+00  6.88172E+00  6.89289E+00  6.90426E+00
   6.91575E+00  6.92738E+00  6.93923E+00  6.95133E+00  6.96360E+00  6.97591E+00  6.98824E+00  7.00063E+00
 NY background values follow
    -5.940E+00   -5.917E+00   -5.893E+00   -5.870E+00   -5.846E+00   -5.822E+00   -5.799E+00   -5.775E+00   -5.752E+00   -5.728E+00
    -5.704E+00   -5.681E+00   -5.657E+00   -5.634E+00   -5.610E+00   -5.586E+00   -5.563E+00   -5.539E+00   -5.516E+00   -5.492E+00
    -5.468E+00   -5.445E+00   -5.421E+00   -5.397E+00   -5.374E+00   -5.350E+00   -5.326E+00   -5.303E+00   -5.279E+00   -5.255E+00
    -5.232E+00   -5.208E+00   -5.184E+00   -5.161E+00   -5.137E+00   -5.113E+00   -5.090E+00   -5.066E+00   -5.042E+00   -5.018E+00
    -4.995E+00   -4.971E+00   -4.947E+00   -4.924E+00   -4.900E+00   -4.876E+00   -4.852E+00   -4.829E+00   -4.805E+00   -4.781E+00
    -4.757E+00   -4.734E+00   -4.710E+00   -4.686E+00   -4.662E+00   -4.639E+00   -4.615E+00   -4.591E+00   -4.567E+00   -4.543E+00
    -4.520E+00   -4.496E+00   -4.472E+00   -4.448E+00   -4.425E+00   -4.401E+00   -4.377E+00   -4.353E+00   -4.329E+00   -4.305E+00
    -4.282E+00   -4.258E+00   -4.234E+00   -4.210E+00   -4.186E+00   -4.163E+00   -4.139E+00   -4.115E+00   -4.091E+00   -4.067E+00
    -4.043E+00   -4.020E+00   -3.996E+00   -3.972E+00   -3.948E+00   -3.924E+00   -3.900E+00   -3.876E+00   -3.853E+00   -3.829E+00
    -3.805E+00   -3.781E+00   -3.757E+00   -3.733E+00   -3.709E+00   -3.685E+00   -3.661E+00   -3.638E+00   -3.614E+00   -3.590E+00
    -3.566E+00   -3.542E+00   -3.518E+00   -3.494E+00   -3.470E+00   -3.446E+00   -3.422E+00   -3.399E+00   -3.375E+00   -3.351E+00
    -3.327E+00   -3.303E+00   -3.279E+00   -3.255E+00   -3.231E+00   -3.207E+00   -3.183E+00   -3.159E+00   -3.135E+00   -3.111E+00
    -3.087E+00   -3.063E+00   -3.039E+00   -3.016E+00   -2.992E+00   -2.968E+00   -2.944E+00   -2.920E+00   -2.896E+00   -2.872E+00
    -2.848E+00   -2.824E+00   -2.800E+00   -2.776E+00   -2.752E+00   -2.728E+00   -2.704E+00   -2.680E+00   -2.656E+00   -2.632E+00
    -2.608E+00   -2.584E+00   -2.560E+00   -2.536E+00   -2.512E+00   -2.488E+00   -2.464E+00   -2.440E+00   -2.416E+00   -2.392E+00
    -2.368E+00   -2.344E+00   -2.320E+00   -2.296E+00   -2.272E+00   -2.248E+00   -2.224E+00   -2.200E+00   -2.176E+00   -2.152E+00
    -2.128E+00   -2.104E+00   -2.080E+00   -2.056E+00   -2.032E+00   -2.008E+00   -1.984E+00   -1.960E+00   -1.936E+00   -1.912E+00
    -1.888E+00   -1.864E+00   -1.840E+00   -1.815E+00   -1.791E+00   -1.767E+00   -1.743E+00   -1.719E+00   -1.695E+00   -1.671E+00
    -1.647E+00   -1.623E+00   -1.599E+00   -1.575E+00   -1.551E+00   -1.527E+00   -1.503E+00   -1.479E+00   -1.455E+00   -1.431E+00
    -1.407E+00   -1.383E+00   -1.359E+00   -1.334E+00   -1.310E+00   -1.286E+00   -1.262E+00   -1.238E+00   -1.214E+00   -1.190E+00
    -1.166E+00   -1.142E+00   -1.118E+00   -1.094E+00   -1.070E+00   -1.046E+00   -1.022E+00   -9.975E-01   -9.734E-01   -9.494E-01
    -9.253E-01   -9.012E-01   -8.771E-01   -8.531E-01   -8.290E-01   -8.049E-01   -7.808E-01   -7.568E-01   -7.327E-01   -7.086E-01
    -6.845E-01   -6.605E-01   -6.364E-01   -6.123E-01   -5.882E-01   -5.641E-01   -5.401E-01   -5.160E-01   -4.919E-01   -4.678E-01
    -4.437E-01   -4.197E-01   -3.956E-01   -3.715E-01   -3.474E-01   -3.233E-01   -2.993E-01   -2.752E-01   -2.511E-01   -2.270E-01
    -2.029E-01   -1.788E-01   -1.548E-01   -1.307E-01   -1.066E-01   -8.252E-02   -5.844E-02   -3.436E-02   -1.028E-02    1.380E-02
     3.788E-02    6.196E-02    8.604E-02    1.101E-01    1.342E-01    1.583E-01    1.824E-01    2.064E-01    2.305E-01    2.546E-01
     2.787E-01    3.028E-01    3.268E-01    3.509E-01    3.750E-01    3.991E-01    4.231E-01    4.472E-01    4.713E-01    4.954E-01
     5.194E-01    5.435E-01    5.676E-01    5.917E-01    6.157E-01    6.398E-01    6.639E-01    6.879E-01    7.120E-01    7.361E-01
     7.601E-01    7.842E-01    8.083E-01    8.323E-01    8.564E-01    8.805E-01    9.045E-01    9.286E-01    9.527E-01    9.767E-01
     1.001E+00    1.025E+00    1.049E+00    1.073E+00    1.097E+00    1.121E+00    1.145E+00    1.169E+00    1.193E+00    1.217E+00
     1.241E+00    1.265E+00    1.289E+00    1.313E+00    1.338E+00    1.362E+00    1.386E+00    1.410E+00    1.434E+00    1.458E+00
     1.482E+00    1.506E+00    1.530E+00    1.554E+00    1.578E+00    1.602E+00    1.626E+00    1.650E+00    1.674E+00    1.698E+00
     1.722E+00    1.746E+00    1.770E+00    1.794E+00    1.818E+00    1.842E+00    1.866E+00    1.890E+00    1.914E+00    1.938E+00
     1.962E+00    1.986E+00    2.010E+00    2.034E+00    2.058E+00    2.082E+00    2.106E+00    2.130E+00    2.154E+00    2.178E+00
     2.202E+00    2.226E+00    2.250E+00    2.274E+00    2.298E+00    2.322E+00    2.346E+00    2.370E+00    2.394E+00    2.418E+00
     2.442E+00    2.466E+00    2.490E+00    2.514E+00    2.538E+00    2.562E+00    2.586E+00    2.610E+00    2.634E+00    2.658E+00
     2.682E+00    2.706E+00    2.730E+00    2.754E+00    2.778E+00    2.802E+00    2.826E+00    2.850E+00    2.873E+00    2.897E+00
     2.921E+00    2.945E+00    2.969E+00    2.993E+00    3.017E+00    3.041E+00    3.065E+00    3.089E+00    3.113E+00    3.137E+00
     3.161E+00    3.185E+00    3.208E+00    3.232E+00    3.256E+00    3.280E+00    3.304E+00    3.328E+00    3.352E+00    3.376E+00
     3.400E+00    3.423E+00    3.447E+00    3.471E+00    3.495E+00    3.519E+00    3.543E+00    3.567E+00    3.591E+00    3.614E+00
     3.638E+00    3.662E+00    3.686E+00    3.710E+00    3.734E+00    3.758E+00    3.781E+00    3.805E+00    3.829E+00    3.853E+00
     3.877E+00    3.901E+00    3.924E+00    3.948E+00    3.972E+00    3.996E+00    4.020E+00    4.044E+00    4.067E+00    4.091E+00
     4.115E+00    4.139E+00    4.163E+00    4.186E+00    4.210E+00    4.234E+00    4.258E+00    4.281E+00    4.305E+00    4.329E+00
     4.353E+00    4.377E+00    4.400E+00    4.424E+00    4.448E+00    4.472E+00    4.495E+00    4.519E+00    4.543E+00    4.567E+00
     4.590E+00    4.614E+00    4.638E+00    4.661E+00    4.685E+00    4.709E+00    4.733E+00    4.756E+00    4.780E+00    4.804E+00
     4.827E+00    4.851E+00    4.875E+00    4.898E+00    4.922E+00    4.946E+00    4.969E+00    4.993E+00    5.017E+00    5.040E+00
     5.064E+00    5.088E+00    5.111E+00    5.135E+00    5.159E+00    5.182E+00    5.206E+00    5.230E+00    5.253E+00    5.277E+00
     5.300E+00    5.324E+00    5.348E+00    5.371E+00    5.395E+00    5.419E+00    5.442E+00    5.466E+00    5.489E+00    5.513E+00
     5.536E+00    5.560E+00    5.584E+00    5.607E+00    5.631E+00    5.654E+00    5.678E+00    5.701E+00    5.725E+00    5.748E+00
     5.772E+00    5.795E+00    5.819E+00    5.843E+00    5.866E+00    5.890E+00    5.913E+00    5.937E+00
 Ala      Conc. = 2.12E+01
