 LCModel (Version 6.3-1L) Copyright: S.W. Provencher.          Ref.: Magn. Reson. Med. 30:672-679 (1993).                
 Slice#2 Row#12 Col#4  PD_24_press_1_raw_act
 36 lines in following concentration table = NCONC+1
    Conc.  %SD /Cr+PCr  Metabolite                                         
  856.948  44%   1.255 Ala                                                 
   56.189 297% 8.2E-02 Asp                                                 
  682.821  11%   1.000 Cr                                                  
    0.000 999%   0.000 PCr                                                 
   80.259 136%   0.118 GABA                                                
   17.241 625% 2.5E-02 Glc                                                 
 6.10E+03  15%   8.938 Gln                                                 
 7.04E+03  16%  10.306 Glu                                                 
  341.622  10%   0.500 GPC                                                 
    0.000 999%   0.000 PCh                                                 
  549.545  25%   0.805 GSH                                                 
 2.23E+03  30%   3.262 Ins                                                 
  836.202  65%   1.225 Lac                                                 
 1.11E+03   8%   1.622 NAA                                                 
    0.000 999%   0.000 NAAG                                                
   98.262  31%   0.144 Scyllo                                              
  140.643 124%   0.206 Tau                                                 
  163.019 111%   0.239 -CrCH2                                              
  341.622  10%   0.500 GPC+PCh                                             
 1.11E+03   8%   1.622 NAA+NAAG                                            
  682.821  11%   1.000 Cr+PCr                                              
 1.31E+04  15%  19.245 Glu+Gln                                             
    0.000 999%   0.000 Lip13a                                              
  444.076  61%   0.650 Lip13b                                              
  120.485  66%   0.176 Lip09                                               
  594.817  31%   0.871 MM09                                                
   66.594  70% 9.8E-02 Lip20                                               
  535.673  66%   0.784 MM20                                                
  158.862  67%   0.233 MM12                                                
 1.15E+03  26%   1.680 MM14                                                
  367.132  56%   0.538 MM17                                                
  444.076  61%   0.650 Lip13a+Lip13b                                       
 1.75E+03  23%   2.563 MM14+Lip13a+Lip13b+MM12                             
  715.302  24%   1.048 MM09+Lip09                                          
  602.267  57%   0.882 MM20+Lip20                                          
   6 lines in following misc. output table
  FWHM = 0.122 ppm    S/N =   5                                            
  Data shift = 0.015 ppm                                                   
  Ph: -76 deg     -28.1 deg/ppm                                            
  alphaB,S = 5.0E-01,   1.3E+01                                            
   14 spline knots.   Ns = 8(2)                                            
  (10)11 infls.   ( 7) 5 extrs.                                            
  498 points on ppm-axis = NY
      4.000000     3.992357     3.984714     3.977070     3.969427     3.961784     3.954141     3.946497     3.938854     3.931211
      3.923568     3.915925     3.908281     3.900638     3.892995     3.885352     3.877708     3.870065     3.862422     3.854779
      3.847136     3.839492     3.831849     3.824206     3.816563     3.808919     3.801276     3.793633     3.785990     3.778347
      3.770703     3.763060     3.755417     3.747774     3.740130     3.732487     3.724844     3.717201     3.709558     3.701914
      3.694271     3.686628     3.678985     3.671341     3.663698     3.656055     3.648412     3.640769     3.633125     3.625482
      3.617839     3.610196     3.602552     3.594909     3.587266     3.579623     3.571980     3.564336     3.556693     3.549050
      3.541407     3.533763     3.526120     3.518477     3.510834     3.503191     3.495547     3.487904     3.480261     3.472618
      3.464974     3.457331     3.449688     3.442045     3.434402     3.426758     3.419115     3.411472     3.403829     3.396185
      3.388542     3.380899     3.373256     3.365613     3.357969     3.350326     3.342683     3.335040     3.327396     3.319753
      3.312110     3.304467     3.296824     3.289180     3.281537     3.273894     3.266251     3.258607     3.250964     3.243321
      3.235678     3.228034     3.220391     3.212748     3.205105     3.197462     3.189818     3.182175     3.174532     3.166889
      3.159245     3.151602     3.143959     3.136316     3.128673     3.121029     3.113386     3.105743     3.098100     3.090456
      3.082813     3.075170     3.067527     3.059884     3.052240     3.044597     3.036954     3.029311     3.021667     3.014024
      3.006381     2.998738     2.991095     2.983451     2.975808     2.968165     2.960522     2.952878     2.945235     2.937592
      2.929949     2.922306     2.914662     2.907019     2.899376     2.891733     2.884089     2.876446     2.868803     2.861160
      2.853517     2.845873     2.838230     2.830587     2.822944     2.815300     2.807657     2.800014     2.792371     2.784728
      2.777084     2.769441     2.761798     2.754155     2.746511     2.738868     2.731225     2.723582     2.715939     2.708295
      2.700652     2.693009     2.685366     2.677722     2.670079     2.662436     2.654793     2.647150     2.639506     2.631863
      2.624220     2.616577     2.608933     2.601290     2.593647     2.586004     2.578361     2.570717     2.563074     2.555431
      2.547788     2.540144     2.532501     2.524858     2.517215     2.509572     2.501928     2.494285     2.486642     2.478999
      2.471355     2.463712     2.456069     2.448426     2.440783     2.433139     2.425496     2.417853     2.410210     2.402566
      2.394923     2.387280     2.379637     2.371994     2.364350     2.356707     2.349064     2.341421     2.333777     2.326134
      2.318491     2.310848     2.303205     2.295561     2.287918     2.280275     2.272632     2.264988     2.257345     2.249702
      2.242059     2.234416     2.226772     2.219129     2.211486     2.203843     2.196199     2.188556     2.180913     2.173270
      2.165627     2.157983     2.150340     2.142697     2.135054     2.127410     2.119767     2.112124     2.104481     2.096838
      2.089194     2.081551     2.073908     2.066265     2.058621     2.050978     2.043335     2.035692     2.028049     2.020405
      2.012762     2.005119     1.997476     1.989833     1.982190     1.974546     1.966903     1.959260     1.951617     1.943974
      1.936331     1.928688     1.921045     1.913402     1.905759     1.898115     1.890472     1.882829     1.875186     1.867543
      1.859900     1.852257     1.844614     1.836971     1.829327     1.821684     1.814041     1.806398     1.798755     1.791112
      1.783469     1.775826     1.768183     1.760540     1.752896     1.745253     1.737610     1.729967     1.722324     1.714681
      1.707038     1.699395     1.691752     1.684108     1.676465     1.668822     1.661179     1.653536     1.645893     1.638250
      1.630607     1.622964     1.615321     1.607677     1.600034     1.592391     1.584748     1.577105     1.569462     1.561819
      1.554176     1.546533     1.538890     1.531246     1.523603     1.515960     1.508317     1.500674     1.493031     1.485388
      1.477745     1.470102     1.462458     1.454815     1.447172     1.439529     1.431886     1.424243     1.416600     1.408957
      1.401314     1.393671     1.386027     1.378384     1.370741     1.363098     1.355455     1.347812     1.340169     1.332526
      1.324883     1.317240     1.309596     1.301953     1.294310     1.286667     1.279024     1.271381     1.263738     1.256095
      1.248452     1.240808     1.233165     1.225522     1.217879     1.210236     1.202593     1.194950     1.187307     1.179664
      1.172021     1.164377     1.156734     1.149091     1.141448     1.133805     1.126162     1.118519     1.110876     1.103233
      1.095590     1.087946     1.080303     1.072660     1.065017     1.057374     1.049731     1.042088     1.034445     1.026802
      1.019158     1.011515     1.003872     0.996229     0.988586     0.980943     0.973300     0.965657     0.958014     0.950371
      0.942727     0.935084     0.927441     0.919798     0.912155     0.904512     0.896869     0.889226     0.881583     0.873940
      0.866296     0.858653     0.851010     0.843367     0.835724     0.828081     0.820438     0.812795     0.805152     0.797508
      0.789865     0.782222     0.774579     0.766936     0.759293     0.751650     0.744007     0.736364     0.728721     0.721077
      0.713434     0.705791     0.698148     0.690505     0.682862     0.675219     0.667576     0.659933     0.652290     0.644646
      0.637003     0.629360     0.621717     0.614074     0.606431     0.598788     0.591145     0.583502     0.575858     0.568215
      0.560572     0.552929     0.545286     0.537643     0.530000     0.522357     0.514714     0.507071     0.499427     0.491784
      0.484141     0.476498     0.468855     0.461212     0.453569     0.445925     0.438282     0.430639     0.422996     0.415353
      0.407710     0.400067     0.392424     0.384780     0.377137     0.369494     0.361851     0.354208     0.346565     0.338922
      0.331278     0.323635     0.315992     0.308349     0.300706     0.293063     0.285420     0.277777     0.270133     0.262490
      0.254847     0.247204     0.239561     0.231918     0.224275     0.216631     0.208988     0.201345
 NY phased data points follow
  -3.31989E+02 -3.27218E+02 -3.22243E+02 -3.19260E+02 -3.13724E+02 -3.08774E+02 -3.01879E+02 -2.97238E+02 -2.96908E+02 -2.89698E+02
  -2.86648E+02 -2.81782E+02 -2.75922E+02 -2.76094E+02 -2.70501E+02 -2.70889E+02 -2.68873E+02 -2.65167E+02 -2.63686E+02 -2.66062E+02
  -2.57267E+02 -2.57676E+02 -2.54780E+02 -2.51793E+02 -2.42845E+02 -2.41544E+02 -2.43266E+02 -2.33957E+02 -2.31445E+02 -2.27458E+02
  -2.25168E+02 -2.27159E+02 -2.20037E+02 -2.16261E+02 -2.16536E+02 -2.12077E+02 -2.07381E+02 -2.05741E+02 -2.03893E+02 -2.01152E+02
  -2.03168E+02 -1.96459E+02 -1.98222E+02 -1.92716E+02 -1.93813E+02 -1.90376E+02 -1.92685E+02 -1.85362E+02 -1.87161E+02 -1.85150E+02
  -1.84440E+02 -1.83009E+02 -1.78711E+02 -1.79154E+02 -1.77409E+02 -1.76568E+02 -1.70872E+02 -1.72476E+02 -1.70446E+02 -1.71722E+02
  -1.67303E+02 -1.68468E+02 -1.64567E+02 -1.61315E+02 -1.62581E+02 -1.61528E+02 -1.58046E+02 -1.56123E+02 -1.56031E+02 -1.52402E+02
  -1.54276E+02 -1.50802E+02 -1.51299E+02 -1.49027E+02 -1.46359E+02 -1.46426E+02 -1.43494E+02 -1.38819E+02 -1.39022E+02 -1.37531E+02
  -1.38439E+02 -1.37545E+02 -1.34340E+02 -1.36765E+02 -1.32829E+02 -1.29922E+02 -1.30210E+02 -1.30097E+02 -1.23327E+02 -1.24082E+02
  -1.22328E+02 -1.20019E+02 -1.19558E+02 -1.19015E+02 -1.16019E+02 -1.12065E+02 -1.09756E+02 -1.11337E+02 -1.07321E+02 -1.05078E+02
  -1.05221E+02 -9.85117E+01 -9.98363E+01 -1.00173E+02 -1.02775E+02 -9.98243E+01 -9.94582E+01 -9.67710E+01 -9.88383E+01 -1.00248E+02
  -1.00182E+02 -1.02378E+02 -9.70688E+01 -9.84401E+01 -9.65122E+01 -9.69400E+01 -9.67994E+01 -9.52026E+01 -9.15087E+01 -9.31355E+01
  -9.09341E+01 -9.02488E+01 -8.64557E+01 -8.66673E+01 -8.28722E+01 -7.96564E+01 -8.24802E+01 -7.94455E+01 -7.88455E+01 -7.95241E+01
  -7.85429E+01 -7.68948E+01 -8.06159E+01 -7.48120E+01 -8.03161E+01 -7.92400E+01 -8.04253E+01 -8.03961E+01 -7.90902E+01 -7.96849E+01
  -7.64341E+01 -7.67957E+01 -7.72176E+01 -7.86566E+01 -7.79261E+01 -7.40830E+01 -7.20770E+01 -7.70549E+01 -7.66324E+01 -7.37380E+01
  -7.40903E+01 -6.93704E+01 -6.89425E+01 -6.99011E+01 -6.81990E+01 -6.77778E+01 -6.76223E+01 -6.38907E+01 -6.49537E+01 -6.60485E+01
  -6.69930E+01 -6.19533E+01 -6.46074E+01 -6.05442E+01 -5.87350E+01 -5.81781E+01 -6.26655E+01 -5.54504E+01 -5.87079E+01 -5.88594E+01
  -5.46448E+01 -5.84321E+01 -5.47568E+01 -5.83304E+01 -5.49394E+01 -5.62109E+01 -5.29340E+01 -5.23753E+01 -5.38274E+01 -5.44370E+01
  -5.38730E+01 -5.67201E+01 -5.23431E+01 -5.33544E+01 -5.10339E+01 -5.28426E+01 -4.85191E+01 -5.37312E+01 -4.69276E+01 -4.76021E+01
  -4.77075E+01 -4.47655E+01 -4.68068E+01 -4.22659E+01 -4.47242E+01 -4.47907E+01 -4.17990E+01 -4.20615E+01 -4.00904E+01 -4.12913E+01
  -3.89853E+01 -4.06294E+01 -3.84035E+01 -3.85799E+01 -3.68361E+01 -3.74892E+01 -3.74326E+01 -3.54148E+01 -3.24535E+01 -3.36130E+01
  -3.49196E+01 -3.44711E+01 -3.22936E+01 -3.40643E+01 -3.51944E+01 -3.43398E+01 -3.08593E+01 -3.01761E+01 -3.09040E+01 -2.94804E+01
  -3.19671E+01 -2.81571E+01 -2.66419E+01 -2.72395E+01 -2.68562E+01 -2.68279E+01 -2.78196E+01 -2.61494E+01 -2.47801E+01 -2.45225E+01
  -2.45051E+01 -2.51327E+01 -2.34787E+01 -2.28383E+01 -2.02891E+01 -2.04392E+01 -2.34459E+01 -2.20470E+01 -2.16969E+01 -2.21562E+01
  -1.91997E+01 -1.81439E+01 -2.07822E+01 -1.83877E+01 -2.00441E+01 -1.71289E+01 -1.94769E+01 -1.94013E+01 -1.75050E+01 -1.00844E+01
  -1.30456E+01 -1.06760E+01 -4.13598E+00  1.34930E-02  4.86224E-01  4.09209E-01 -4.26939E+00 -8.16150E-01  8.73119E+00  1.18794E+01
   1.08246E+01  7.88967E+00  3.39344E+00  6.07847E+00  5.21097E+00  4.43013E+00  2.67738E+00  2.20749E+00 -1.34345E+00 -5.49468E-01
  -5.91836E-01 -8.39314E-01 -8.30206E-01 -1.77428E+00 -2.54629E+00 -4.52072E+00 -1.88949E+00  9.25665E-02  6.66490E-01 -1.10183E-01
  -1.00501E+00 -2.83976E+00 -2.15751E+00 -3.42529E+00 -3.30881E+00 -1.58765E+00 -1.87802E+00  1.25052E+00 -2.99952E+00 -1.76860E+00
   1.41699E+00  1.30353E+00 -6.07156E-01  1.36428E+00  1.16991E+00  4.61701E+00  1.02401E+00  3.34735E+00  2.43757E+00  3.73655E+00
   2.05612E+00  7.44744E+00  4.92927E+00  7.37028E+00  7.49729E+00  7.19402E+00  9.28725E+00  8.75272E+00  9.69247E+00  9.46712E+00
   5.75240E+00  1.21346E+01  1.19178E+01  9.69594E+00  1.49589E+01  1.42499E+01  1.08509E+01  1.22877E+01  1.25029E+01  1.21913E+01
   1.41253E+01  1.49706E+01  1.27096E+01  1.45132E+01  1.60646E+01  1.38396E+01  1.39251E+01  1.50213E+01  1.50857E+01  1.72405E+01
   1.79024E+01  1.83548E+01  1.83682E+01  1.78557E+01  1.76831E+01  1.91400E+01  1.53356E+01  1.88369E+01  1.83174E+01  1.94649E+01
   2.51043E+01  2.04593E+01  1.79253E+01  1.61550E+01  2.13605E+01  2.13362E+01  1.87427E+01  1.81329E+01  2.11122E+01  1.80185E+01
   1.83440E+01  1.96114E+01  2.23310E+01  1.92559E+01  1.99971E+01  1.94315E+01  1.50585E+01  1.88958E+01  1.67324E+01  2.11502E+01
   2.08832E+01  1.72078E+01  1.61311E+01  1.49181E+01  1.59317E+01  1.93495E+01  1.26281E+01  1.57315E+01  9.22399E+00  1.78746E+01
   1.39838E+01  1.36874E+01  1.53228E+01  1.62148E+01  1.30140E+01  1.57509E+01  1.46595E+01  1.47455E+01  1.26028E+01  1.15675E+01
   1.24433E+01  1.35140E+01  1.57388E+01  1.46726E+01  1.35950E+01  1.35528E+01  1.65577E+01  1.83317E+01  1.64148E+01  1.68400E+01
   1.43310E+01  1.58049E+01  1.34669E+01  1.85996E+01  1.76946E+01  1.69997E+01  1.71692E+01  1.44925E+01  2.10045E+01  2.03486E+01
   1.88471E+01  1.73364E+01  1.92081E+01  2.16597E+01  1.56080E+01  1.82630E+01  1.80925E+01  2.09843E+01  2.04571E+01  1.88393E+01
   1.71225E+01  1.79248E+01  1.87764E+01  2.32963E+01  1.91151E+01  2.09185E+01  1.68473E+01  1.67717E+01  1.75618E+01  1.55564E+01
   1.49532E+01  1.75934E+01  1.62484E+01  1.76085E+01  1.63705E+01  1.52424E+01  1.82532E+01  1.47621E+01  1.36100E+01  1.71724E+01
   1.85447E+01  1.37381E+01  1.35169E+01  1.42687E+01  1.40121E+01  1.61567E+01  1.63624E+01  1.32724E+01  1.45123E+01  1.63837E+01
   1.25238E+01  1.38684E+01  1.56714E+01  1.29369E+01  1.56427E+01  1.74605E+01  1.67626E+01  1.33687E+01  1.73909E+01  1.42795E+01
   1.46891E+01  1.12118E+01  1.83243E+01  1.78870E+01  1.50127E+01  1.65325E+01  1.71352E+01  1.19444E+01  1.95209E+01  1.80122E+01
   1.60057E+01  1.66421E+01  1.49078E+01  1.67849E+01  2.11061E+01  1.62335E+01  1.53411E+01  1.54395E+01  1.57195E+01  1.69336E+01
   1.71943E+01  1.35477E+01  1.69232E+01  1.66184E+01  1.81402E+01  1.70926E+01  1.57347E+01  1.51871E+01  1.64400E+01  1.72063E+01
   1.57901E+01  1.59406E+01  1.45430E+01  1.62618E+01  1.48558E+01  2.06036E+01  1.81011E+01  1.79532E+01  1.68715E+01  1.29241E+01
   1.93622E+01  1.62329E+01  1.48113E+01  1.63844E+01  1.65445E+01  1.30557E+01  1.60097E+01  1.44610E+01
 NY points of the fit to the data follow
  -3.22965E+02 -3.20061E+02 -3.17546E+02 -3.14219E+02 -3.10230E+02 -3.06407E+02 -3.03530E+02 -2.99931E+02 -2.96343E+02 -2.92159E+02
  -2.88890E+02 -2.85532E+02 -2.82838E+02 -2.79004E+02 -2.76477E+02 -2.73164E+02 -2.68704E+02 -2.64576E+02 -2.63084E+02 -2.61427E+02
  -2.57485E+02 -2.55310E+02 -2.51915E+02 -2.47911E+02 -2.42688E+02 -2.41626E+02 -2.38269E+02 -2.36057E+02 -2.31351E+02 -2.29075E+02
  -2.25425E+02 -2.23775E+02 -2.20741E+02 -2.19497E+02 -2.16404E+02 -2.13114E+02 -2.09881E+02 -2.08087E+02 -2.06399E+02 -2.04522E+02
  -2.02450E+02 -2.00464E+02 -1.98771E+02 -1.95961E+02 -1.93568E+02 -1.91816E+02 -1.90398E+02 -1.88445E+02 -1.86792E+02 -1.85017E+02
  -1.83397E+02 -1.81455E+02 -1.80355E+02 -1.79303E+02 -1.78407E+02 -1.76330E+02 -1.74779E+02 -1.72880E+02 -1.71818E+02 -1.69820E+02
  -1.68732E+02 -1.66865E+02 -1.65620E+02 -1.62974E+02 -1.61727E+02 -1.59762E+02 -1.58745E+02 -1.56674E+02 -1.55483E+02 -1.53290E+02
  -1.51871E+02 -1.50123E+02 -1.49029E+02 -1.47288E+02 -1.45811E+02 -1.44386E+02 -1.43107E+02 -1.41749E+02 -1.40159E+02 -1.39239E+02
  -1.37900E+02 -1.37064E+02 -1.35576E+02 -1.34638E+02 -1.32951E+02 -1.32335E+02 -1.30621E+02 -1.28751E+02 -1.27208E+02 -1.26299E+02
  -1.24125E+02 -1.21338E+02 -1.20219E+02 -1.18590E+02 -1.16499E+02 -1.11965E+02 -1.10866E+02 -1.08268E+02 -1.07867E+02 -1.04970E+02
  -1.04321E+02 -1.00575E+02 -1.01029E+02 -9.95349E+01 -1.00458E+02 -9.91488E+01 -9.93824E+01 -9.70727E+01 -9.82927E+01 -9.89323E+01
  -9.96412E+01 -9.91021E+01 -9.84739E+01 -9.77312E+01 -9.78035E+01 -9.74811E+01 -9.57420E+01 -9.49547E+01 -9.38056E+01 -9.21549E+01
  -8.93169E+01 -8.83410E+01 -8.67804E+01 -8.56346E+01 -8.40903E+01 -8.28387E+01 -8.06024E+01 -7.96640E+01 -7.94761E+01 -7.90455E+01
  -7.89089E+01 -7.82474E+01 -7.72673E+01 -7.69025E+01 -7.81437E+01 -7.79820E+01 -7.83090E+01 -7.77705E+01 -7.75639E+01 -7.69893E+01
  -7.74579E+01 -7.68881E+01 -7.67977E+01 -7.59892E+01 -7.52787E+01 -7.44598E+01 -7.42978E+01 -7.35405E+01 -7.30211E+01 -7.22742E+01
  -7.16225E+01 -7.08553E+01 -7.02832E+01 -6.96167E+01 -6.90379E+01 -6.83686E+01 -6.76795E+01 -6.69060E+01 -6.62992E+01 -6.56957E+01
  -6.51223E+01 -6.44100E+01 -6.37075E+01 -6.30170E+01 -6.24862E+01 -6.19675E+01 -6.12740E+01 -6.06157E+01 -6.00199E+01 -5.94919E+01
  -5.88603E+01 -5.83884E+01 -5.76638E+01 -5.71699E+01 -5.65578E+01 -5.59917E+01 -5.51374E+01 -5.45706E+01 -5.41064E+01 -5.35284E+01
  -5.30258E+01 -5.23929E+01 -5.20317E+01 -5.12745E+01 -5.10088E+01 -5.01222E+01 -4.98206E+01 -4.88788E+01 -4.88050E+01 -4.71633E+01
  -4.66397E+01 -4.58253E+01 -4.54823E+01 -4.39468E+01 -4.38336E+01 -4.23832E+01 -4.09494E+01 -4.03189E+01 -4.11064E+01 -3.88749E+01
  -3.72280E+01 -3.88853E+01 -4.03543E+01 -3.83667E+01 -3.71371E+01 -3.79943E+01 -3.69097E+01 -3.57352E+01 -3.57050E+01 -3.65288E+01
  -3.52730E+01 -3.51006E+01 -3.27958E+01 -3.49713E+01 -3.60841E+01 -3.59142E+01 -3.15719E+01 -3.23633E+01 -3.02359E+01 -3.12128E+01
  -3.08306E+01 -3.14377E+01 -2.77687E+01 -2.82214E+01 -2.71793E+01 -2.72261E+01 -2.61600E+01 -2.51571E+01 -2.31007E+01 -2.17700E+01
  -2.15883E+01 -2.06702E+01 -2.02815E+01 -1.91682E+01 -2.12263E+01 -2.05153E+01 -2.03425E+01 -2.02612E+01 -2.16195E+01 -2.02869E+01
  -2.17131E+01 -2.22588E+01 -2.17621E+01 -2.10368E+01 -1.97538E+01 -1.81996E+01 -1.85447E+01 -1.85056E+01 -1.49100E+01 -1.28482E+01
  -1.17921E+01 -9.47047E+00 -5.55272E+00 -2.85485E+00 -1.65604E+00  8.90884E-01  1.87408E+00  4.47038E+00  5.73050E+00  7.76806E+00
   6.02815E+00  6.92396E+00  5.05556E+00  5.82371E+00  5.72923E+00  6.66147E+00  2.98672E+00  2.25146E+00  6.58545E-01  1.67844E-01
  -5.00388E-01 -5.07984E-01 -1.94276E+00 -2.50268E+00 -3.06946E+00 -3.22376E+00 -2.73509E+00 -2.28980E+00 -2.72677E+00 -2.75366E+00
  -2.56612E+00 -2.34157E+00 -2.03378E+00 -1.66188E+00 -1.46054E+00 -1.10514E+00 -8.45937E-01 -4.98957E-01 -1.90637E-01  2.22751E-01
   5.59281E-01  9.39837E-01  1.29594E+00  1.71974E+00  2.13073E+00  2.55534E+00  2.97495E+00  3.43659E+00  3.89053E+00  4.35528E+00
   4.81844E+00  5.28801E+00  5.75289E+00  6.21949E+00  6.67951E+00  7.14571E+00  7.61291E+00  8.08452E+00  8.56862E+00  9.09177E+00
   9.71090E+00  1.04089E+01  1.05906E+01  1.10171E+01  1.16267E+01  1.25161E+01  1.23189E+01  1.26578E+01  1.29721E+01  1.43680E+01
   1.38001E+01  1.39353E+01  1.32576E+01  1.43888E+01  1.42636E+01  1.48261E+01  1.36332E+01  1.46951E+01  1.48197E+01  1.56536E+01
   1.59642E+01  1.71243E+01  1.65870E+01  1.70405E+01  1.81673E+01  1.90686E+01  1.93849E+01  1.90240E+01  1.94180E+01  2.06514E+01
   2.13029E+01  1.98538E+01  1.97231E+01  1.95457E+01  1.97319E+01  1.89877E+01  1.88604E+01  1.84456E+01  1.89773E+01  1.85439E+01
   1.90738E+01  1.93083E+01  1.95293E+01  1.90716E+01  1.97007E+01  1.94702E+01  1.96035E+01  1.90485E+01  1.87843E+01  1.85865E+01
   1.86492E+01  1.76785E+01  1.72460E+01  1.67171E+01  1.62919E+01  1.57681E+01  1.56282E+01  1.52197E+01  1.49786E+01  1.46426E+01
   1.44669E+01  1.44708E+01  1.44676E+01  1.42543E+01  1.41516E+01  1.41114E+01  1.41047E+01  1.41188E+01  1.41517E+01  1.41989E+01
   1.42621E+01  1.43389E+01  1.44322E+01  1.45401E+01  1.46656E+01  1.48073E+01  1.49680E+01  1.51465E+01  1.53455E+01  1.55629E+01
   1.58005E+01  1.60552E+01  1.63279E+01  1.66142E+01  1.69134E+01  1.72192E+01  1.75290E+01  1.78354E+01  1.81344E+01  1.84175E+01
   1.86802E+01  1.89137E+01  1.91141E+01  1.92739E+01  1.93908E+01  1.94598E+01  1.94812E+01  1.94529E+01  1.93783E+01  1.92586E+01
   1.90998E+01  1.89056E+01  1.86840E+01  1.84399E+01  1.81819E+01  1.79154E+01  1.76483E+01  1.73848E+01  1.71314E+01  1.68906E+01
   1.66671E+01  1.64617E+01  1.62772E+01  1.61126E+01  1.59692E+01  1.58449E+01  1.57402E+01  1.56524E+01  1.55813E+01  1.55239E+01
   1.54799E+01  1.54465E+01  1.54237E+01  1.54087E+01  1.54016E+01  1.54001E+01  1.54044E+01  1.54126E+01  1.54252E+01  1.54403E+01
   1.54587E+01  1.54785E+01  1.55008E+01  1.55241E+01  1.55491E+01  1.55746E+01  1.56015E+01  1.56284E+01  1.56563E+01  1.56841E+01
   1.57127E+01  1.57410E+01  1.57697E+01  1.57980E+01  1.58267E+01  1.58547E+01  1.58830E+01  1.59104E+01  1.59378E+01  1.59643E+01
   1.59908E+01  1.60162E+01  1.60414E+01  1.60654E+01  1.60890E+01  1.61114E+01  1.61334E+01  1.61540E+01  1.61741E+01  1.61927E+01
   1.62107E+01  1.62272E+01  1.62430E+01  1.62572E+01  1.62705E+01  1.62822E+01  1.62929E+01  1.63021E+01  1.63101E+01  1.63165E+01
   1.63216E+01  1.63251E+01  1.63274E+01  1.63279E+01  1.63272E+01  1.63246E+01  1.63207E+01  1.63151E+01  1.63081E+01  1.62994E+01
   1.62892E+01  1.62774E+01  1.62642E+01  1.62495E+01  1.62335E+01  1.62161E+01  1.61977E+01  1.61781E+01
 NY background values follow
    -3.313E+02   -3.282E+02   -3.252E+02   -3.222E+02   -3.192E+02   -3.162E+02   -3.132E+02   -3.102E+02   -3.072E+02   -3.042E+02
    -3.013E+02   -2.983E+02   -2.954E+02   -2.924E+02   -2.895E+02   -2.866E+02   -2.836E+02   -2.808E+02   -2.779E+02   -2.750E+02
    -2.721E+02   -2.693E+02   -2.665E+02   -2.637E+02   -2.609E+02   -2.581E+02   -2.553E+02   -2.526E+02   -2.498E+02   -2.471E+02
    -2.444E+02   -2.418E+02   -2.391E+02   -2.365E+02   -2.339E+02   -2.313E+02   -2.288E+02   -2.262E+02   -2.237E+02   -2.213E+02
    -2.188E+02   -2.164E+02   -2.140E+02   -2.116E+02   -2.092E+02   -2.069E+02   -2.046E+02   -2.024E+02   -2.001E+02   -1.979E+02
    -1.958E+02   -1.936E+02   -1.915E+02   -1.894E+02   -1.873E+02   -1.853E+02   -1.833E+02   -1.813E+02   -1.793E+02   -1.774E+02
    -1.755E+02   -1.736E+02   -1.717E+02   -1.699E+02   -1.681E+02   -1.663E+02   -1.645E+02   -1.628E+02   -1.611E+02   -1.594E+02
    -1.577E+02   -1.561E+02   -1.544E+02   -1.528E+02   -1.513E+02   -1.497E+02   -1.481E+02   -1.466E+02   -1.451E+02   -1.436E+02
    -1.422E+02   -1.407E+02   -1.393E+02   -1.379E+02   -1.365E+02   -1.352E+02   -1.338E+02   -1.325E+02   -1.312E+02   -1.299E+02
    -1.286E+02   -1.273E+02   -1.261E+02   -1.249E+02   -1.237E+02   -1.225E+02   -1.213E+02   -1.201E+02   -1.190E+02   -1.178E+02
    -1.167E+02   -1.156E+02   -1.145E+02   -1.134E+02   -1.123E+02   -1.113E+02   -1.102E+02   -1.092E+02   -1.081E+02   -1.071E+02
    -1.061E+02   -1.051E+02   -1.041E+02   -1.032E+02   -1.022E+02   -1.012E+02   -1.003E+02   -9.933E+01   -9.840E+01   -9.747E+01
    -9.655E+01   -9.563E+01   -9.472E+01   -9.382E+01   -9.292E+01   -9.203E+01   -9.114E+01   -9.026E+01   -8.938E+01   -8.851E+01
    -8.764E+01   -8.677E+01   -8.591E+01   -8.505E+01   -8.419E+01   -8.333E+01   -8.248E+01   -8.163E+01   -8.077E+01   -7.992E+01
    -7.908E+01   -7.823E+01   -7.739E+01   -7.655E+01   -7.571E+01   -7.488E+01   -7.405E+01   -7.322E+01   -7.240E+01   -7.158E+01
    -7.076E+01   -6.995E+01   -6.915E+01   -6.834E+01   -6.755E+01   -6.675E+01   -6.597E+01   -6.519E+01   -6.441E+01   -6.364E+01
    -6.288E+01   -6.212E+01   -6.137E+01   -6.062E+01   -5.989E+01   -5.916E+01   -5.843E+01   -5.772E+01   -5.701E+01   -5.631E+01
    -5.562E+01   -5.493E+01   -5.425E+01   -5.359E+01   -5.293E+01   -5.228E+01   -5.164E+01   -5.101E+01   -5.038E+01   -4.977E+01
    -4.917E+01   -4.858E+01   -4.800E+01   -4.742E+01   -4.686E+01   -4.631E+01   -4.576E+01   -4.523E+01   -4.470E+01   -4.419E+01
    -4.368E+01   -4.317E+01   -4.268E+01   -4.219E+01   -4.171E+01   -4.124E+01   -4.077E+01   -4.031E+01   -3.986E+01   -3.941E+01
    -3.897E+01   -3.853E+01   -3.810E+01   -3.767E+01   -3.724E+01   -3.682E+01   -3.641E+01   -3.600E+01   -3.559E+01   -3.518E+01
    -3.478E+01   -3.438E+01   -3.398E+01   -3.359E+01   -3.320E+01   -3.280E+01   -3.241E+01   -3.202E+01   -3.164E+01   -3.125E+01
    -3.086E+01   -3.047E+01   -3.009E+01   -2.970E+01   -2.931E+01   -2.892E+01   -2.853E+01   -2.813E+01   -2.774E+01   -2.735E+01
    -2.695E+01   -2.655E+01   -2.615E+01   -2.575E+01   -2.535E+01   -2.495E+01   -2.455E+01   -2.414E+01   -2.374E+01   -2.333E+01
    -2.293E+01   -2.252E+01   -2.211E+01   -2.170E+01   -2.130E+01   -2.089E+01   -2.048E+01   -2.007E+01   -1.966E+01   -1.925E+01
    -1.884E+01   -1.843E+01   -1.802E+01   -1.761E+01   -1.720E+01   -1.679E+01   -1.638E+01   -1.597E+01   -1.557E+01   -1.516E+01
    -1.475E+01   -1.434E+01   -1.394E+01   -1.353E+01   -1.313E+01   -1.273E+01   -1.232E+01   -1.192E+01   -1.152E+01   -1.112E+01
    -1.072E+01   -1.032E+01   -9.928E+00   -9.533E+00   -9.139E+00   -8.747E+00   -8.357E+00   -7.968E+00   -7.582E+00   -7.197E+00
    -6.814E+00   -6.434E+00   -6.055E+00   -5.679E+00   -5.305E+00   -4.934E+00   -4.566E+00   -4.200E+00   -3.837E+00   -3.477E+00
    -3.120E+00   -2.767E+00   -2.416E+00   -2.069E+00   -1.725E+00   -1.385E+00   -1.048E+00   -7.150E-01   -3.859E-01   -6.069E-02
     2.605E-01    5.776E-01    8.904E-01    1.199E+00    1.503E+00    1.803E+00    2.098E+00    2.388E+00    2.673E+00    2.954E+00
     3.229E+00    3.500E+00    3.765E+00    4.025E+00    4.279E+00    4.528E+00    4.772E+00    5.009E+00    5.241E+00    5.468E+00
     5.689E+00    5.904E+00    6.115E+00    6.320E+00    6.520E+00    6.715E+00    6.905E+00    7.091E+00    7.271E+00    7.447E+00
     7.619E+00    7.786E+00    7.949E+00    8.108E+00    8.262E+00    8.413E+00    8.559E+00    8.702E+00    8.841E+00    8.976E+00
     9.108E+00    9.237E+00    9.362E+00    9.483E+00    9.602E+00    9.718E+00    9.830E+00    9.940E+00    1.005E+01    1.015E+01
     1.025E+01    1.035E+01    1.045E+01    1.054E+01    1.064E+01    1.073E+01    1.081E+01    1.090E+01    1.098E+01    1.107E+01
     1.115E+01    1.123E+01    1.131E+01    1.138E+01    1.146E+01    1.153E+01    1.160E+01    1.168E+01    1.175E+01    1.182E+01
     1.188E+01    1.195E+01    1.202E+01    1.208E+01    1.214E+01    1.221E+01    1.227E+01    1.233E+01    1.239E+01    1.245E+01
     1.251E+01    1.256E+01    1.262E+01    1.268E+01    1.273E+01    1.279E+01    1.284E+01    1.289E+01    1.295E+01    1.300E+01
     1.305E+01    1.310E+01    1.315E+01    1.320E+01    1.325E+01    1.330E+01    1.335E+01    1.340E+01    1.345E+01    1.349E+01
     1.354E+01    1.359E+01    1.364E+01    1.369E+01    1.373E+01    1.378E+01    1.383E+01    1.388E+01    1.392E+01    1.397E+01
     1.402E+01    1.407E+01    1.411E+01    1.416E+01    1.421E+01    1.426E+01    1.430E+01    1.435E+01    1.440E+01    1.444E+01
     1.449E+01    1.454E+01    1.458E+01    1.463E+01    1.468E+01    1.472E+01    1.477E+01    1.481E+01    1.486E+01    1.490E+01
     1.495E+01    1.499E+01    1.503E+01    1.508E+01    1.512E+01    1.516E+01    1.521E+01    1.525E+01    1.529E+01    1.533E+01
     1.537E+01    1.541E+01    1.546E+01    1.549E+01    1.553E+01    1.557E+01    1.561E+01    1.565E+01    1.569E+01    1.572E+01
     1.576E+01    1.580E+01    1.583E+01    1.587E+01    1.590E+01    1.593E+01    1.596E+01    1.600E+01    1.603E+01    1.606E+01
     1.609E+01    1.612E+01    1.614E+01    1.617E+01    1.619E+01    1.622E+01    1.624E+01    1.626E+01    1.629E+01    1.631E+01
     1.632E+01    1.634E+01    1.636E+01    1.637E+01    1.638E+01    1.639E+01    1.640E+01    1.641E+01    1.642E+01    1.643E+01
     1.643E+01    1.643E+01    1.643E+01    1.643E+01    1.643E+01    1.642E+01    1.641E+01    1.640E+01    1.639E+01    1.638E+01
     1.636E+01    1.635E+01    1.633E+01    1.630E+01    1.628E+01    1.625E+01    1.622E+01    1.619E+01
 Ala      Conc. = 8.57E+02
