 LCModel (Version 6.3-1L) Copyright: S.W. Provencher.          Ref.: Magn. Reson. Med. 30:672-679 (1993).                
 Slice#1 Row#3 Col#5  PD_24_press_1_raw_act
 36 lines in following concentration table = NCONC+1
    Conc.  %SD /Cr+PCr  Metabolite                                         
  364.569  56%   0.388 Ala                                                 
   66.545 293% 7.1E-02 Asp                                                 
    0.000 999%   0.000 Cr                                                  
  940.399   7%   1.000 PCr                                                 
   24.568 540% 2.6E-02 GABA                                                
  167.416  76%   0.178 Glc                                                 
 1.11E+03  39%   1.180 Gln                                                 
  952.847  53%   1.013 Glu                                                 
  398.582   6%   0.424 GPC                                                 
    0.000 999%   0.000 PCh                                                 
  254.401  40%   0.271 GSH                                                 
 1.20E+03  25%   1.281 Ins                                                 
    0.000 999%   0.000 Lac                                                 
 1.68E+03   5%   1.784 NAA                                                 
    0.000 999%   0.000 NAAG                                                
  107.824  27%   0.115 Scyllo                                              
  156.117 113%   0.166 Tau                                                 
   67.143 177% 7.1E-02 -CrCH2                                              
  398.582   6%   0.424 GPC+PCh                                             
 1.68E+03   5%   1.784 NAA+NAAG                                            
  940.399   7%   1.000 Cr+PCr                                              
 2.06E+03  39%   2.193 Glu+Gln                                             
 6.93E+03  12%   7.366 Lip13a                                              
    0.000 999%   0.000 Lip13b                                              
 1.97E+03  19%   2.091 Lip09                                               
  475.976  87%   0.506 MM09                                                
 1.35E+03  22%   1.431 Lip20                                               
 1.28E+03  33%   1.363 MM20                                                
    0.000 999%   0.000 MM12                                                
  945.560  39%   1.005 MM14                                                
  779.834  34%   0.829 MM17                                                
 6.93E+03  12%   7.366 Lip13a+Lip13b                                       
 7.87E+03   9%   8.372 MM14+Lip13a+Lip13b+MM12                             
 2.44E+03  10%   2.597 MM09+Lip09                                          
 2.63E+03  15%   2.794 MM20+Lip20                                          
   6 lines in following misc. output table
  FWHM = 0.099 ppm    S/N =   7                                            
  Data shift = 0.054 ppm                                                   
  Ph: -70 deg     -20.8 deg/ppm                                            
  alphaB,S = 2.3E+00,   4.8E+02                                            
   14 spline knots.   Ns =11(1)                                            
  ( 6) 4 infls.   ( 2) 1 extrs.                                            
  498 points on ppm-axis = NY
      4.000000     3.992357     3.984714     3.977070     3.969427     3.961784     3.954141     3.946497     3.938854     3.931211
      3.923568     3.915925     3.908281     3.900638     3.892995     3.885352     3.877708     3.870065     3.862422     3.854779
      3.847136     3.839492     3.831849     3.824206     3.816563     3.808919     3.801276     3.793633     3.785990     3.778347
      3.770703     3.763060     3.755417     3.747774     3.740130     3.732487     3.724844     3.717201     3.709558     3.701914
      3.694271     3.686628     3.678985     3.671341     3.663698     3.656055     3.648412     3.640769     3.633125     3.625482
      3.617839     3.610196     3.602552     3.594909     3.587266     3.579623     3.571980     3.564336     3.556693     3.549050
      3.541407     3.533763     3.526120     3.518477     3.510834     3.503191     3.495547     3.487904     3.480261     3.472618
      3.464974     3.457331     3.449688     3.442045     3.434402     3.426758     3.419115     3.411472     3.403829     3.396185
      3.388542     3.380899     3.373256     3.365613     3.357969     3.350326     3.342683     3.335040     3.327396     3.319753
      3.312110     3.304467     3.296824     3.289180     3.281537     3.273894     3.266251     3.258607     3.250964     3.243321
      3.235678     3.228034     3.220391     3.212748     3.205105     3.197462     3.189818     3.182175     3.174532     3.166889
      3.159245     3.151602     3.143959     3.136316     3.128673     3.121029     3.113386     3.105743     3.098100     3.090456
      3.082813     3.075170     3.067527     3.059884     3.052240     3.044597     3.036954     3.029311     3.021667     3.014024
      3.006381     2.998738     2.991095     2.983451     2.975808     2.968165     2.960522     2.952878     2.945235     2.937592
      2.929949     2.922306     2.914662     2.907019     2.899376     2.891733     2.884089     2.876446     2.868803     2.861160
      2.853517     2.845873     2.838230     2.830587     2.822944     2.815300     2.807657     2.800014     2.792371     2.784728
      2.777084     2.769441     2.761798     2.754155     2.746511     2.738868     2.731225     2.723582     2.715939     2.708295
      2.700652     2.693009     2.685366     2.677722     2.670079     2.662436     2.654793     2.647150     2.639506     2.631863
      2.624220     2.616577     2.608933     2.601290     2.593647     2.586004     2.578361     2.570717     2.563074     2.555431
      2.547788     2.540144     2.532501     2.524858     2.517215     2.509572     2.501928     2.494285     2.486642     2.478999
      2.471355     2.463712     2.456069     2.448426     2.440783     2.433139     2.425496     2.417853     2.410210     2.402566
      2.394923     2.387280     2.379637     2.371994     2.364350     2.356707     2.349064     2.341421     2.333777     2.326134
      2.318491     2.310848     2.303205     2.295561     2.287918     2.280275     2.272632     2.264988     2.257345     2.249702
      2.242059     2.234416     2.226772     2.219129     2.211486     2.203843     2.196199     2.188556     2.180913     2.173270
      2.165627     2.157983     2.150340     2.142697     2.135054     2.127410     2.119767     2.112124     2.104481     2.096838
      2.089194     2.081551     2.073908     2.066265     2.058621     2.050978     2.043335     2.035692     2.028049     2.020405
      2.012762     2.005119     1.997476     1.989833     1.982190     1.974546     1.966903     1.959260     1.951617     1.943974
      1.936331     1.928688     1.921045     1.913402     1.905759     1.898115     1.890472     1.882829     1.875186     1.867543
      1.859900     1.852257     1.844614     1.836971     1.829327     1.821684     1.814041     1.806398     1.798755     1.791112
      1.783469     1.775826     1.768183     1.760540     1.752896     1.745253     1.737610     1.729967     1.722324     1.714681
      1.707038     1.699395     1.691752     1.684108     1.676465     1.668822     1.661179     1.653536     1.645893     1.638250
      1.630607     1.622964     1.615321     1.607677     1.600034     1.592391     1.584748     1.577105     1.569462     1.561819
      1.554176     1.546533     1.538890     1.531246     1.523603     1.515960     1.508317     1.500674     1.493031     1.485388
      1.477745     1.470102     1.462458     1.454815     1.447172     1.439529     1.431886     1.424243     1.416600     1.408957
      1.401314     1.393671     1.386027     1.378384     1.370741     1.363098     1.355455     1.347812     1.340169     1.332526
      1.324883     1.317240     1.309596     1.301953     1.294310     1.286667     1.279024     1.271381     1.263738     1.256095
      1.248452     1.240808     1.233165     1.225522     1.217879     1.210236     1.202593     1.194950     1.187307     1.179664
      1.172021     1.164377     1.156734     1.149091     1.141448     1.133805     1.126162     1.118519     1.110876     1.103233
      1.095590     1.087946     1.080303     1.072660     1.065017     1.057374     1.049731     1.042088     1.034445     1.026802
      1.019158     1.011515     1.003872     0.996229     0.988586     0.980943     0.973300     0.965657     0.958014     0.950371
      0.942727     0.935084     0.927441     0.919798     0.912155     0.904512     0.896869     0.889226     0.881583     0.873940
      0.866296     0.858653     0.851010     0.843367     0.835724     0.828081     0.820438     0.812795     0.805152     0.797508
      0.789865     0.782222     0.774579     0.766936     0.759293     0.751650     0.744007     0.736364     0.728721     0.721077
      0.713434     0.705791     0.698148     0.690505     0.682862     0.675219     0.667576     0.659933     0.652290     0.644646
      0.637003     0.629360     0.621717     0.614074     0.606431     0.598788     0.591145     0.583502     0.575858     0.568215
      0.560572     0.552929     0.545286     0.537643     0.530000     0.522357     0.514714     0.507071     0.499427     0.491784
      0.484141     0.476498     0.468855     0.461212     0.453569     0.445925     0.438282     0.430639     0.422996     0.415353
      0.407710     0.400067     0.392424     0.384780     0.377137     0.369494     0.361851     0.354208     0.346565     0.338922
      0.331278     0.323635     0.315992     0.308349     0.300706     0.293063     0.285420     0.277777     0.270133     0.262490
      0.254847     0.247204     0.239561     0.231918     0.224275     0.216631     0.208988     0.201345
 NY phased data points follow
  -3.42788E+00  9.03746E-01  7.06910E-01  4.47503E+00  3.92374E+00  5.88375E+00  1.05085E+01  1.91825E+01  1.09561E+01  1.44925E+01
   9.89217E+00  9.81617E+00  6.13183E+00  6.69465E+00  1.53821E+00  3.82897E+00  1.72854E+00  4.08231E-01 -3.02366E+00  3.55699E+00
   1.79521E-01 -1.49323E+00 -3.02332E-01  1.44725E+00 -1.15782E+00  3.10838E+00  1.69413E+00  2.30957E+00  4.15254E+00  5.22318E+00
   3.31002E+00  1.67880E+00  2.83073E+00  1.45861E+00 -4.53501E-01  3.43472E+00  7.36456E-01  6.75362E-01  2.82236E+00  2.15553E+00
  -1.85526E+00  4.91011E+00  4.12520E+00  8.20614E+00  4.65978E+00  1.19855E+01  4.88993E+00  4.92804E+00  1.61101E+00  3.33696E+00
   2.14992E-01  4.58903E+00  2.98318E+00  5.08391E+00  7.81738E+00  2.97744E+00  1.14536E+00  3.84013E+00 -4.92793E-01  2.22962E-01
  -1.72120E+00  1.35508E+00 -1.10908E+00  6.65588E-01 -1.70372E+00 -1.61431E+00 -4.10032E+00  5.83648E-01 -2.31897E-01  2.91203E-01
  -2.91227E-01  1.42477E+00  3.12728E+00 -6.65088E-02  1.82606E+00 -1.28164E+00  1.84170E+00  3.24604E+00 -1.09119E-01  4.83806E+00
   4.04182E+00  9.09229E-01  1.42947E+00  2.03871E+00  4.51341E+00  4.08982E+00 -1.31071E-01  3.17290E+00  5.59930E+00  6.03403E-01
   4.73200E-01  1.14223E+00 -4.13724E+00 -2.07769E+00  4.49945E+00  7.86641E+00  1.19994E+01  1.41900E+01  1.61548E+01  1.82153E+01
   2.22941E+01  2.55060E+01  1.93083E+01  1.71545E+01  1.82877E+01  1.72578E+01  1.48465E+01  1.63011E+01  1.11230E+01  1.46603E+01
   1.04650E+01  8.60784E+00  5.50354E+00  6.78385E+00 -2.08255E+00  3.13930E+00  7.90425E-01 -4.49605E+00  2.76712E+00  5.73544E+00
   7.37835E+00  6.33264E+00  1.19357E+01  1.66261E+01  1.88746E+01  2.39121E+01  2.18183E+01  2.14222E+01  1.59186E+01  1.49086E+01
   1.48479E+01  1.28483E+01  1.33403E+01  1.51160E+01  8.18113E+00  1.08808E+01  2.88911E+00  3.44476E+00  4.12903E+00  4.62040E+00
   1.11956E+00  1.73643E+00  1.86432E+00 -3.40778E-01 -4.30547E-01  3.86769E+00 -2.11717E-01  1.46281E+00 -3.18479E-01  1.60297E+00
  -1.43156E+00  1.55560E+00 -1.83777E+00 -4.10476E-01  1.66984E-01  6.57696E+00 -4.27382E-01  4.18132E+00  2.58429E+00  2.82995E+00
   3.42033E+00  3.90464E+00  1.03753E+00  2.23215E+00  1.22566E+00  1.76498E+00  1.81456E+00  4.60090E+00 -2.81105E+00 -1.26316E+00
  -1.51634E+00 -2.08349E+00 -7.15852E-03 -3.66892E+00 -4.01729E+00 -2.51133E+00 -3.00114E+00 -4.26374E+00 -3.91733E+00 -7.16208E+00
  -3.69801E+00 -2.61050E+00 -3.83374E+00 -4.76797E-01 -5.18921E+00 -6.91363E-01 -1.62127E+00  2.71327E+00 -1.58850E+00  2.26855E+00
   3.19763E+00  5.73504E+00  2.92824E+00  2.67955E+00  2.94663E+00  7.94452E-01  6.26743E-01 -1.29048E+00 -1.92986E+00  3.67827E+00
   2.14286E+00  5.48935E+00 -8.92475E-01  1.84257E+00  3.14194E+00  1.59947E+00 -1.33789E+00  3.56309E+00  3.59705E-01  3.48202E+00
   6.09537E+00  5.01404E+00  8.83191E+00  7.95552E+00  7.59963E+00  6.13536E+00  6.56032E+00  9.43602E+00  7.58160E+00  7.04632E+00
   4.97941E+00  8.06597E+00  1.04938E+01  3.46833E+00  5.74914E+00  9.35599E+00  3.59869E+00  1.04377E+01  9.96284E+00  6.98037E+00
   3.63175E+00  9.23638E+00  1.08892E+01  8.70856E+00  6.71506E+00  1.14211E+01  1.04992E+01  8.71099E+00  9.38414E+00  1.00974E+01
   6.50438E+00  7.37520E+00  8.46635E+00  1.27030E+01  7.64870E+00  1.10693E+01  3.91686E+00  7.39085E+00  6.13250E+00  9.45682E+00
   5.32599E+00  6.39119E+00  1.03352E+01  1.45961E+01  2.10777E+01  2.76374E+01  3.22220E+01  4.19402E+01  3.99959E+01  4.64602E+01
   4.02615E+01  4.06842E+01  3.64504E+01  4.25587E+01  3.74020E+01  3.47292E+01  2.99341E+01  2.92023E+01  2.92289E+01  2.42928E+01
   1.98659E+01  2.20506E+01  1.43370E+01  1.44762E+01  1.43334E+01  7.89208E+00  7.71019E+00  8.20643E+00  8.98836E+00  9.49260E+00
   5.04763E+00  3.44026E+00  4.28513E+00  4.10221E+00  6.21404E+00  9.53636E+00  7.58010E+00  6.91480E+00  1.06157E+01  6.48129E+00
   8.26256E+00  6.38729E+00  6.90949E+00  9.66187E+00  7.98884E+00  7.90695E+00  5.22076E+00  5.37973E+00  4.06896E+00  1.14268E+01
   6.70292E+00  6.67364E+00  8.22720E+00  1.18585E+01  7.55226E+00  1.20726E+01  1.11902E+01  9.25296E+00  9.27417E+00  1.05739E+01
   1.24902E+01  1.36174E+01  8.55304E+00  1.24786E+01  1.24290E+01  1.39954E+01  1.37324E+01  1.86061E+01  1.37585E+01  1.44827E+01
   1.46808E+01  1.06831E+01  1.63313E+01  1.21805E+01  1.24751E+01  1.52543E+01  1.43541E+01  1.34791E+01  1.36583E+01  1.53040E+01
   1.43762E+01  1.43464E+01  1.47744E+01  1.44259E+01  1.83507E+01  2.05080E+01  1.72512E+01  1.47639E+01  1.85840E+01  1.89723E+01
   1.92276E+01  1.86989E+01  2.03140E+01  2.17937E+01  1.99329E+01  2.04468E+01  2.06706E+01  2.25726E+01  2.14634E+01  2.02905E+01
   1.75003E+01  2.11579E+01  1.84420E+01  2.02845E+01  1.49865E+01  1.89786E+01  1.52123E+01  1.56569E+01  1.45629E+01  1.97845E+01
   1.84070E+01  1.67864E+01  1.87505E+01  1.40429E+01  2.04755E+01  1.41682E+01  1.25107E+01  7.57607E+00  1.25156E+01  1.61331E+01
   1.33029E+01  1.96060E+01  1.69082E+01  1.81195E+01  1.83549E+01  2.07354E+01  1.55798E+01  1.85626E+01  1.50856E+01  1.78102E+01
   1.38121E+01  2.03469E+01  1.68146E+01  1.69473E+01  1.67702E+01  1.42463E+01  1.47781E+01  1.48494E+01  1.25978E+01  1.24998E+01
   1.21413E+01  1.64275E+01  1.65669E+01  1.44769E+01  1.72184E+01  1.73055E+01  1.35539E+01  1.45329E+01  1.15606E+01  1.81473E+01
   1.44276E+01  1.82384E+01  1.98144E+01  1.65240E+01  2.27776E+01  2.10810E+01  2.03390E+01  2.02504E+01  1.91786E+01  1.36833E+01
   1.91548E+01  1.90265E+01  1.48699E+01  1.86954E+01  1.43671E+01  1.44733E+01  1.47192E+01  1.10882E+01  1.56254E+01  9.74791E+00
   1.17674E+01  1.24300E+01  1.41171E+01  1.32807E+01  1.03909E+01  6.05168E+00  8.70474E+00  3.45869E+00  6.51396E+00  7.15447E+00
   1.79409E+00  3.81030E+00  1.73023E+00  4.52365E+00  2.05013E+00  5.35767E+00  2.60612E-01  2.63945E+00  1.17621E-01  3.83231E+00
   1.31861E+00  1.60108E+00 -1.00239E+00  2.20242E+00  3.64201E+00  2.01178E+00  1.02110E+00  3.04395E+00  1.89714E+00 -8.25718E-01
   2.40617E+00 -2.16373E+00  1.39682E+00  5.83485E-01  2.72222E+00  2.03117E+00  3.47174E+00  3.05871E+00 -2.11343E+00  3.91973E+00
   1.51723E+00  7.18593E+00  1.25059E+00  2.89594E+00  2.99594E-01  3.23799E+00  3.98932E+00  3.62930E+00  1.68683E+00  2.56560E-01
   3.29598E+00  5.38855E+00 -7.74207E-01  1.41112E+00  2.12817E+00 -3.06545E-01  3.26178E+00  1.13976E+00  3.04861E+00  9.64598E-01
  -9.26144E-01 -1.25852E+00  3.82782E-01  2.79769E+00  1.28207E+00  2.50350E+00  8.95153E-01 -3.57625E+00 -1.77963E+00  7.91539E-02
   5.54139E+00  4.27756E+00 -7.27375E-01 -2.01149E+00 -1.00174E+00  1.57009E+00  4.40552E+00 -5.69190E-01
 NY points of the fit to the data follow
  -1.55145E-01  1.01983E+00  2.56841E+00  4.30230E+00  6.00896E+00  7.52972E+00  8.73153E+00  9.47307E+00  9.74401E+00  9.65438E+00
   9.31338E+00  8.80958E+00  8.20854E+00  7.55843E+00  6.87867E+00  6.16348E+00  5.36899E+00  4.44409E+00  3.35949E+00  2.13882E+00
   9.50568E-01  1.03146E-01 -2.21703E-01 -2.18031E-01  5.29335E-02  5.82116E-01  1.30277E+00  2.10496E+00  2.86392E+00  3.47123E+00
   3.83710E+00  3.92195E+00  3.76433E+00  3.45112E+00  3.07411E+00  2.71155E+00  2.42155E+00  2.25912E+00  2.28238E+00  2.47892E+00
   2.79834E+00  3.16227E+00  3.53687E+00  3.93201E+00  4.26699E+00  4.48965E+00  4.55768E+00  4.45806E+00  4.20984E+00  3.85291E+00
   3.47311E+00  3.15399E+00  2.92439E+00  2.75637E+00  2.62197E+00  2.47193E+00  2.23255E+00  1.86413E+00  1.40606E+00  9.47174E-01
   5.94654E-01  4.01143E-01  3.37704E-01  3.49236E-01  4.11727E-01  5.13388E-01  6.41946E-01  7.83247E-01  9.15610E-01  1.01778E+00
   1.06817E+00  1.06477E+00  1.04656E+00  1.04048E+00  1.04336E+00  1.04570E+00  1.07783E+00  1.20112E+00  1.42563E+00  1.70723E+00
   1.98514E+00  2.19729E+00  2.30453E+00  2.27526E+00  2.10911E+00  1.83767E+00  1.49907E+00  1.15090E+00  8.43220E-01  5.90404E-01
   3.69493E-01  1.94321E-01  3.81423E-01  1.36918E+00  3.32411E+00  6.10507E+00  9.39344E+00  1.28258E+01  1.60639E+01  1.88010E+01
   2.06857E+01  2.15040E+01  2.13616E+01  2.05577E+01  1.93807E+01  1.80179E+01  1.65764E+01  1.51068E+01  1.35861E+01  1.19273E+01
   1.00281E+01  7.86334E+00  5.52161E+00  3.21086E+00  1.34133E+00  3.90561E-01  2.72402E-01  9.11161E-01  2.43614E+00  4.77267E+00
   7.65385E+00  1.07492E+01  1.37202E+01  1.62598E+01  1.81252E+01  1.91732E+01  1.94225E+01  1.90517E+01  1.82742E+01  1.72451E+01
   1.60657E+01  1.48072E+01  1.34975E+01  1.21046E+01  1.05721E+01  8.87760E+00  7.06280E+00  5.25051E+00  3.69247E+00  2.76788E+00
   2.48778E+00  2.38634E+00  2.31362E+00  2.25149E+00  2.20491E+00  2.18455E+00  2.19965E+00  2.23649E+00  2.25963E+00  2.25346E+00
   2.21821E+00  2.15879E+00  2.07772E+00  1.97151E+00  1.84033E+00  1.69510E+00  1.55354E+00  1.43605E+00  1.34961E+00  1.29098E+00
   1.25123E+00  1.21874E+00  1.17744E+00  1.10735E+00  9.95985E-01  8.42383E-01  6.52064E-01  4.22621E-01  1.52200E-01 -1.37636E-01
  -4.14749E-01 -6.56176E-01 -8.65380E-01 -1.05947E+00 -1.25268E+00 -1.45207E+00 -1.63307E+00 -1.78034E+00 -1.89796E+00 -1.98593E+00
  -2.04369E+00 -2.04147E+00 -1.94382E+00 -1.73589E+00 -1.42776E+00 -1.04529E+00 -6.37791E-01 -2.68468E-01  8.43200E-03  1.62310E-01
   2.00750E-01  2.00268E-01  2.62359E-01  4.41847E-01  7.58224E-01  1.22711E+00  1.86201E+00  2.61782E+00  3.37893E+00  4.00105E+00
   4.30960E+00  4.21089E+00  3.77426E+00  3.13017E+00  2.39883E+00  1.70599E+00  1.19411E+00  9.95439E-01  1.16029E+00  1.61862E+00
   2.24537E+00  2.90066E+00  3.44469E+00  3.76775E+00  3.83000E+00  3.67315E+00  3.41147E+00  3.21628E+00  3.23385E+00  3.48482E+00
   3.93252E+00  4.49030E+00  5.01748E+00  5.38939E+00  5.64956E+00  5.81805E+00  5.85101E+00  5.77506E+00  5.72327E+00  5.83432E+00
   6.15022E+00  6.63667E+00  7.25818E+00  7.91675E+00  8.48146E+00  8.83210E+00  8.92336E+00  8.81527E+00  8.60065E+00  8.34268E+00
   8.11047E+00  7.97449E+00  7.97682E+00  8.12114E+00  8.37553E+00  8.71002E+00  9.11018E+00  9.53510E+00  9.92247E+00  1.02573E+01
   1.06805E+01  1.16885E+01  1.39092E+01  1.75643E+01  2.23846E+01  2.77843E+01  3.31202E+01  3.78422E+01  4.14640E+01  4.36184E+01
   4.41745E+01  4.33421E+01  4.15530E+01  3.92250E+01  3.66362E+01  3.39553E+01  3.12783E+01  2.85852E+01  2.57467E+01  2.26293E+01
   1.92127E+01  1.56173E+01  1.21443E+01  9.36343E+00  7.88314E+00  7.34098E+00  7.04134E+00  6.82687E+00  6.66295E+00  6.52993E+00
   6.43004E+00  6.35999E+00  6.31227E+00  6.28115E+00  6.26372E+00  6.25889E+00  6.27241E+00  6.31257E+00  6.38231E+00  6.48085E+00
   6.60708E+00  6.75939E+00  6.93577E+00  7.13323E+00  7.34824E+00  7.57985E+00  7.82691E+00  8.08722E+00  8.35832E+00  8.63721E+00
   8.92021E+00  9.20332E+00  9.48278E+00  9.75533E+00  1.00178E+01  1.02675E+01  1.05028E+01  1.07228E+01  1.09279E+01  1.11195E+01
   1.13002E+01  1.14738E+01  1.16455E+01  1.18217E+01  1.20111E+01  1.22252E+01  1.24843E+01  1.28294E+01  1.32732E+01  1.37643E+01
   1.42228E+01  1.45774E+01  1.47804E+01  1.48040E+01  1.46334E+01  1.43078E+01  1.39479E+01  1.36943E+01  1.36464E+01  1.38351E+01
   1.42387E+01  1.48068E+01  1.54692E+01  1.61428E+01  1.67499E+01  1.72499E+01  1.76551E+01  1.80102E+01  1.83670E+01  1.87708E+01
   1.92276E+01  1.96471E+01  1.99637E+01  2.01766E+01  2.02789E+01  2.02642E+01  2.01369E+01  1.99361E+01  1.97614E+01  1.96632E+01
   1.95983E+01  1.95422E+01  1.94842E+01  1.94185E+01  1.93411E+01  1.92491E+01  1.91406E+01  1.90139E+01  1.88682E+01  1.87028E+01
   1.85178E+01  1.83134E+01  1.80905E+01  1.78503E+01  1.75944E+01  1.73248E+01  1.70436E+01  1.67535E+01  1.64570E+01  1.61572E+01
   1.58570E+01  1.55595E+01  1.52679E+01  1.49853E+01  1.47149E+01  1.44599E+01  1.42234E+01  1.40084E+01  1.38180E+01  1.36553E+01
   1.35230E+01  1.34240E+01  1.33611E+01  1.33367E+01  1.33533E+01  1.34127E+01  1.35166E+01  1.36660E+01  1.38614E+01  1.41023E+01
   1.43872E+01  1.47138E+01  1.50781E+01  1.54750E+01  1.58979E+01  1.63387E+01  1.67881E+01  1.72355E+01  1.76694E+01  1.80774E+01
   1.84472E+01  1.87665E+01  1.90235E+01  1.92078E+01  1.93103E+01  1.93241E+01  1.92445E+01  1.90693E+01  1.87990E+01  1.84366E+01
   1.79877E+01  1.74598E+01  1.68624E+01  1.62065E+01  1.55038E+01  1.47665E+01  1.40068E+01  1.32366E+01  1.24668E+01  1.17072E+01
   1.09664E+01  1.02516E+01  9.56842E+00  8.92115E+00  8.31266E+00  7.74460E+00  7.21757E+00  6.73121E+00  6.28447E+00  5.87570E+00
   5.50285E+00  5.16362E+00  4.85554E+00  4.57608E+00  4.32275E+00  4.09313E+00  3.88494E+00  3.69603E+00  3.52444E+00  3.36836E+00
   3.22616E+00  3.09638E+00  2.97771E+00  2.86898E+00  2.76917E+00  2.67734E+00  2.59269E+00  2.51449E+00  2.44213E+00  2.37505E+00
   2.31273E+00  2.25476E+00  2.20072E+00  2.15028E+00  2.10314E+00  2.05900E+00  2.01764E+00  1.97882E+00  1.94234E+00  1.90803E+00
   1.87573E+00  1.84530E+00  1.81659E+00  1.78949E+00  1.76389E+00  1.73969E+00  1.71681E+00  1.69515E+00  1.67465E+00  1.65523E+00
   1.63683E+00  1.61940E+00  1.60288E+00  1.58722E+00  1.57238E+00  1.55832E+00  1.54500E+00  1.53238E+00  1.52044E+00  1.50915E+00
   1.49847E+00  1.48839E+00  1.47889E+00  1.46995E+00  1.46154E+00  1.45367E+00  1.44630E+00  1.43944E+00  1.43309E+00  1.42722E+00
   1.42185E+00  1.41697E+00  1.41258E+00  1.40870E+00  1.40533E+00  1.40250E+00  1.40022E+00  1.39852E+00
 NY background values follow
    -4.195E+00   -4.173E+00   -4.151E+00   -4.128E+00   -4.106E+00   -4.084E+00   -4.062E+00   -4.040E+00   -4.017E+00   -3.995E+00
    -3.973E+00   -3.951E+00   -3.928E+00   -3.906E+00   -3.884E+00   -3.861E+00   -3.839E+00   -3.817E+00   -3.794E+00   -3.772E+00
    -3.750E+00   -3.727E+00   -3.705E+00   -3.683E+00   -3.660E+00   -3.638E+00   -3.616E+00   -3.593E+00   -3.571E+00   -3.548E+00
    -3.526E+00   -3.504E+00   -3.481E+00   -3.459E+00   -3.436E+00   -3.414E+00   -3.392E+00   -3.369E+00   -3.347E+00   -3.324E+00
    -3.302E+00   -3.279E+00   -3.257E+00   -3.235E+00   -3.212E+00   -3.190E+00   -3.167E+00   -3.145E+00   -3.122E+00   -3.100E+00
    -3.078E+00   -3.055E+00   -3.033E+00   -3.010E+00   -2.988E+00   -2.965E+00   -2.943E+00   -2.921E+00   -2.898E+00   -2.876E+00
    -2.853E+00   -2.831E+00   -2.809E+00   -2.786E+00   -2.764E+00   -2.742E+00   -2.719E+00   -2.697E+00   -2.675E+00   -2.652E+00
    -2.630E+00   -2.608E+00   -2.585E+00   -2.563E+00   -2.541E+00   -2.518E+00   -2.496E+00   -2.474E+00   -2.452E+00   -2.430E+00
    -2.407E+00   -2.385E+00   -2.363E+00   -2.341E+00   -2.319E+00   -2.297E+00   -2.275E+00   -2.252E+00   -2.230E+00   -2.208E+00
    -2.186E+00   -2.164E+00   -2.142E+00   -2.120E+00   -2.098E+00   -2.076E+00   -2.054E+00   -2.033E+00   -2.011E+00   -1.989E+00
    -1.967E+00   -1.945E+00   -1.923E+00   -1.902E+00   -1.880E+00   -1.858E+00   -1.837E+00   -1.815E+00   -1.793E+00   -1.772E+00
    -1.750E+00   -1.728E+00   -1.707E+00   -1.685E+00   -1.664E+00   -1.642E+00   -1.621E+00   -1.599E+00   -1.578E+00   -1.557E+00
    -1.535E+00   -1.514E+00   -1.493E+00   -1.471E+00   -1.450E+00   -1.429E+00   -1.408E+00   -1.387E+00   -1.365E+00   -1.344E+00
    -1.323E+00   -1.302E+00   -1.281E+00   -1.260E+00   -1.239E+00   -1.218E+00   -1.197E+00   -1.177E+00   -1.156E+00   -1.135E+00
    -1.114E+00   -1.094E+00   -1.073E+00   -1.052E+00   -1.032E+00   -1.011E+00   -9.904E-01   -9.699E-01   -9.494E-01   -9.290E-01
    -9.086E-01   -8.882E-01   -8.679E-01   -8.477E-01   -8.275E-01   -8.073E-01   -7.872E-01   -7.671E-01   -7.470E-01   -7.270E-01
    -7.071E-01   -6.872E-01   -6.674E-01   -6.476E-01   -6.278E-01   -6.081E-01   -5.885E-01   -5.689E-01   -5.494E-01   -5.299E-01
    -5.105E-01   -4.911E-01   -4.718E-01   -4.526E-01   -4.334E-01   -4.143E-01   -3.952E-01   -3.762E-01   -3.572E-01   -3.384E-01
    -3.195E-01   -3.008E-01   -2.821E-01   -2.635E-01   -2.449E-01   -2.264E-01   -2.080E-01   -1.896E-01   -1.713E-01   -1.531E-01
    -1.350E-01   -1.169E-01   -9.887E-02   -8.094E-02   -6.309E-02   -4.530E-02   -2.760E-02   -9.972E-03    7.578E-03    2.505E-02
     4.244E-02    5.975E-02    7.698E-02    9.413E-02    1.112E-01    1.282E-01    1.451E-01    1.619E-01    1.786E-01    1.953E-01
     2.118E-01    2.283E-01    2.447E-01    2.609E-01    2.771E-01    2.932E-01    3.093E-01    3.252E-01    3.410E-01    3.567E-01
     3.724E-01    3.879E-01    4.033E-01    4.187E-01    4.339E-01    4.491E-01    4.641E-01    4.790E-01    4.939E-01    5.086E-01
     5.232E-01    5.378E-01    5.522E-01    5.666E-01    5.808E-01    5.949E-01    6.090E-01    6.229E-01    6.367E-01    6.505E-01
     6.641E-01    6.776E-01    6.911E-01    7.044E-01    7.177E-01    7.308E-01    7.439E-01    7.568E-01    7.697E-01    7.824E-01
     7.951E-01    8.076E-01    8.201E-01    8.325E-01    8.447E-01    8.569E-01    8.690E-01    8.810E-01    8.929E-01    9.047E-01
     9.164E-01    9.280E-01    9.395E-01    9.509E-01    9.622E-01    9.734E-01    9.845E-01    9.956E-01    1.007E+00    1.017E+00
     1.028E+00    1.039E+00    1.049E+00    1.060E+00    1.070E+00    1.081E+00    1.091E+00    1.101E+00    1.111E+00    1.121E+00
     1.131E+00    1.140E+00    1.150E+00    1.160E+00    1.169E+00    1.178E+00    1.188E+00    1.197E+00    1.206E+00    1.215E+00
     1.224E+00    1.233E+00    1.242E+00    1.251E+00    1.259E+00    1.268E+00    1.276E+00    1.285E+00    1.293E+00    1.301E+00
     1.309E+00    1.317E+00    1.325E+00    1.333E+00    1.341E+00    1.349E+00    1.356E+00    1.364E+00    1.371E+00    1.379E+00
     1.386E+00    1.393E+00    1.401E+00    1.408E+00    1.415E+00    1.422E+00    1.429E+00    1.435E+00    1.442E+00    1.449E+00
     1.455E+00    1.462E+00    1.468E+00    1.475E+00    1.481E+00    1.487E+00    1.494E+00    1.500E+00    1.506E+00    1.512E+00
     1.517E+00    1.523E+00    1.529E+00    1.535E+00    1.540E+00    1.546E+00    1.551E+00    1.557E+00    1.562E+00    1.567E+00
     1.573E+00    1.578E+00    1.583E+00    1.588E+00    1.593E+00    1.598E+00    1.603E+00    1.608E+00    1.612E+00    1.617E+00
     1.622E+00    1.626E+00    1.631E+00    1.635E+00    1.639E+00    1.644E+00    1.648E+00    1.652E+00    1.656E+00    1.661E+00
     1.665E+00    1.669E+00    1.673E+00    1.676E+00    1.680E+00    1.684E+00    1.688E+00    1.691E+00    1.695E+00    1.699E+00
     1.702E+00    1.706E+00    1.709E+00    1.713E+00    1.716E+00    1.719E+00    1.722E+00    1.726E+00    1.729E+00    1.732E+00
     1.735E+00    1.738E+00    1.741E+00    1.744E+00    1.747E+00    1.749E+00    1.752E+00    1.755E+00    1.758E+00    1.760E+00
     1.763E+00    1.766E+00    1.768E+00    1.771E+00    1.773E+00    1.776E+00    1.778E+00    1.780E+00    1.783E+00    1.785E+00
     1.787E+00    1.789E+00    1.792E+00    1.794E+00    1.796E+00    1.798E+00    1.800E+00    1.802E+00    1.804E+00    1.806E+00
     1.808E+00    1.810E+00    1.811E+00    1.813E+00    1.815E+00    1.817E+00    1.818E+00    1.820E+00    1.822E+00    1.823E+00
     1.825E+00    1.827E+00    1.828E+00    1.830E+00    1.831E+00    1.833E+00    1.834E+00    1.836E+00    1.837E+00    1.839E+00
     1.840E+00    1.841E+00    1.843E+00    1.844E+00    1.845E+00    1.847E+00    1.848E+00    1.849E+00    1.850E+00    1.852E+00
     1.853E+00    1.854E+00    1.855E+00    1.856E+00    1.858E+00    1.859E+00    1.860E+00    1.861E+00    1.862E+00    1.863E+00
     1.864E+00    1.866E+00    1.867E+00    1.868E+00    1.869E+00    1.870E+00    1.871E+00    1.872E+00    1.873E+00    1.874E+00
     1.875E+00    1.876E+00    1.877E+00    1.878E+00    1.879E+00    1.880E+00    1.881E+00    1.882E+00    1.883E+00    1.884E+00
     1.885E+00    1.886E+00    1.887E+00    1.888E+00    1.889E+00    1.890E+00    1.891E+00    1.892E+00    1.893E+00    1.894E+00
     1.895E+00    1.896E+00    1.897E+00    1.898E+00    1.899E+00    1.900E+00    1.901E+00    1.902E+00    1.903E+00    1.904E+00
     1.905E+00    1.905E+00    1.906E+00    1.907E+00    1.908E+00    1.909E+00    1.910E+00    1.911E+00
 Ala      Conc. = 3.65E+02
