 LCModel (Version 6.3-1L) Copyright: S.W. Provencher.          Ref.: Magn. Reson. Med. 30:672-679 (1993).                
 Slice#1 Row#9 Col#5  PD_24_press_1_raw_act
 36 lines in following concentration table = NCONC+1
    Conc.  %SD /Cr+PCr  Metabolite                                         
    0.000 999%   0.000 Ala                                                 
  173.318  99%   0.265 Asp                                                 
  654.212   8%   1.000 Cr                                                  
    0.000 999%   0.000 PCr                                                 
   57.870 192% 8.8E-02 GABA                                                
   24.178 448% 3.7E-02 Glc                                                 
  389.368  84%   0.595 Gln                                                 
 1.13E+03  33%   1.732 Glu                                                 
  399.785   6%   0.611 GPC                                                 
    0.000 999%   0.000 PCh                                                 
  198.889  42%   0.304 GSH                                                 
  449.199  57%   0.687 Ins                                                 
    0.000 999%   0.000 Lac                                                 
  895.637  16%   1.369 NAA                                                 
  748.922  19%   1.145 NAAG                                                
   75.759  34%   0.116 Scyllo                                              
  121.340 130%   0.185 Tau                                                 
    0.000 999%   0.000 -CrCH2                                              
  399.785   6%   0.611 GPC+PCh                                             
 1.64E+03   5%   2.514 NAA+NAAG                                            
  654.212   8%   1.000 Cr+PCr                                              
 1.52E+03  37%   2.327 Glu+Gln                                             
 1.71E+03  31%   2.608 Lip13a                                              
    0.000 999%   0.000 Lip13b                                              
  456.017  43%   0.697 Lip09                                               
  635.736  37%   0.972 MM09                                                
  243.283  52%   0.372 Lip20                                               
 1.05E+03  33%   1.608 MM20                                                
  223.241  73%   0.341 MM12                                                
 1.00E+03  32%   1.531 MM14                                                
  343.799  51%   0.526 MM17                                                
 1.71E+03  31%   2.608 Lip13a+Lip13b                                       
 2.93E+03  11%   4.480 MM14+Lip13a+Lip13b+MM12                             
 1.09E+03  14%   1.669 MM09+Lip09                                          
 1.30E+03  25%   1.980 MM20+Lip20                                          
   6 lines in following misc. output table
  FWHM = 0.061 ppm    S/N =   6                                            
  Data shift = 0.015 ppm                                                   
  Ph: -48 deg     -11.2 deg/ppm                                            
  alphaB,S = 8.5E+01,   2.0E+02                                            
   14 spline knots.   Ns = 9(1)                                            
   2 inflections.     1 extrema                                            
  498 points on ppm-axis = NY
      4.000000     3.992357     3.984714     3.977070     3.969427     3.961784     3.954141     3.946497     3.938854     3.931211
      3.923568     3.915925     3.908281     3.900638     3.892995     3.885352     3.877708     3.870065     3.862422     3.854779
      3.847136     3.839492     3.831849     3.824206     3.816563     3.808919     3.801276     3.793633     3.785990     3.778347
      3.770703     3.763060     3.755417     3.747774     3.740130     3.732487     3.724844     3.717201     3.709558     3.701914
      3.694271     3.686628     3.678985     3.671341     3.663698     3.656055     3.648412     3.640769     3.633125     3.625482
      3.617839     3.610196     3.602552     3.594909     3.587266     3.579623     3.571980     3.564336     3.556693     3.549050
      3.541407     3.533763     3.526120     3.518477     3.510834     3.503191     3.495547     3.487904     3.480261     3.472618
      3.464974     3.457331     3.449688     3.442045     3.434402     3.426758     3.419115     3.411472     3.403829     3.396185
      3.388542     3.380899     3.373256     3.365613     3.357969     3.350326     3.342683     3.335040     3.327396     3.319753
      3.312110     3.304467     3.296824     3.289180     3.281537     3.273894     3.266251     3.258607     3.250964     3.243321
      3.235678     3.228034     3.220391     3.212748     3.205105     3.197462     3.189818     3.182175     3.174532     3.166889
      3.159245     3.151602     3.143959     3.136316     3.128673     3.121029     3.113386     3.105743     3.098100     3.090456
      3.082813     3.075170     3.067527     3.059884     3.052240     3.044597     3.036954     3.029311     3.021667     3.014024
      3.006381     2.998738     2.991095     2.983451     2.975808     2.968165     2.960522     2.952878     2.945235     2.937592
      2.929949     2.922306     2.914662     2.907019     2.899376     2.891733     2.884089     2.876446     2.868803     2.861160
      2.853517     2.845873     2.838230     2.830587     2.822944     2.815300     2.807657     2.800014     2.792371     2.784728
      2.777084     2.769441     2.761798     2.754155     2.746511     2.738868     2.731225     2.723582     2.715939     2.708295
      2.700652     2.693009     2.685366     2.677722     2.670079     2.662436     2.654793     2.647150     2.639506     2.631863
      2.624220     2.616577     2.608933     2.601290     2.593647     2.586004     2.578361     2.570717     2.563074     2.555431
      2.547788     2.540144     2.532501     2.524858     2.517215     2.509572     2.501928     2.494285     2.486642     2.478999
      2.471355     2.463712     2.456069     2.448426     2.440783     2.433139     2.425496     2.417853     2.410210     2.402566
      2.394923     2.387280     2.379637     2.371994     2.364350     2.356707     2.349064     2.341421     2.333777     2.326134
      2.318491     2.310848     2.303205     2.295561     2.287918     2.280275     2.272632     2.264988     2.257345     2.249702
      2.242059     2.234416     2.226772     2.219129     2.211486     2.203843     2.196199     2.188556     2.180913     2.173270
      2.165627     2.157983     2.150340     2.142697     2.135054     2.127410     2.119767     2.112124     2.104481     2.096838
      2.089194     2.081551     2.073908     2.066265     2.058621     2.050978     2.043335     2.035692     2.028049     2.020405
      2.012762     2.005119     1.997476     1.989833     1.982190     1.974546     1.966903     1.959260     1.951617     1.943974
      1.936331     1.928688     1.921045     1.913402     1.905759     1.898115     1.890472     1.882829     1.875186     1.867543
      1.859900     1.852257     1.844614     1.836971     1.829327     1.821684     1.814041     1.806398     1.798755     1.791112
      1.783469     1.775826     1.768183     1.760540     1.752896     1.745253     1.737610     1.729967     1.722324     1.714681
      1.707038     1.699395     1.691752     1.684108     1.676465     1.668822     1.661179     1.653536     1.645893     1.638250
      1.630607     1.622964     1.615321     1.607677     1.600034     1.592391     1.584748     1.577105     1.569462     1.561819
      1.554176     1.546533     1.538890     1.531246     1.523603     1.515960     1.508317     1.500674     1.493031     1.485388
      1.477745     1.470102     1.462458     1.454815     1.447172     1.439529     1.431886     1.424243     1.416600     1.408957
      1.401314     1.393671     1.386027     1.378384     1.370741     1.363098     1.355455     1.347812     1.340169     1.332526
      1.324883     1.317240     1.309596     1.301953     1.294310     1.286667     1.279024     1.271381     1.263738     1.256095
      1.248452     1.240808     1.233165     1.225522     1.217879     1.210236     1.202593     1.194950     1.187307     1.179664
      1.172021     1.164377     1.156734     1.149091     1.141448     1.133805     1.126162     1.118519     1.110876     1.103233
      1.095590     1.087946     1.080303     1.072660     1.065017     1.057374     1.049731     1.042088     1.034445     1.026802
      1.019158     1.011515     1.003872     0.996229     0.988586     0.980943     0.973300     0.965657     0.958014     0.950371
      0.942727     0.935084     0.927441     0.919798     0.912155     0.904512     0.896869     0.889226     0.881583     0.873940
      0.866296     0.858653     0.851010     0.843367     0.835724     0.828081     0.820438     0.812795     0.805152     0.797508
      0.789865     0.782222     0.774579     0.766936     0.759293     0.751650     0.744007     0.736364     0.728721     0.721077
      0.713434     0.705791     0.698148     0.690505     0.682862     0.675219     0.667576     0.659933     0.652290     0.644646
      0.637003     0.629360     0.621717     0.614074     0.606431     0.598788     0.591145     0.583502     0.575858     0.568215
      0.560572     0.552929     0.545286     0.537643     0.530000     0.522357     0.514714     0.507071     0.499427     0.491784
      0.484141     0.476498     0.468855     0.461212     0.453569     0.445925     0.438282     0.430639     0.422996     0.415353
      0.407710     0.400067     0.392424     0.384780     0.377137     0.369494     0.361851     0.354208     0.346565     0.338922
      0.331278     0.323635     0.315992     0.308349     0.300706     0.293063     0.285420     0.277777     0.270133     0.262490
      0.254847     0.247204     0.239561     0.231918     0.224275     0.216631     0.208988     0.201345
 NY phased data points follow
  -1.21758E+01 -7.25637E+00 -9.75815E+00  5.41934E-01 -2.71455E+00 -1.75450E+00 -5.38225E+00  3.67069E+00  3.80680E+00 -1.00220E-01
   9.45869E+00  1.32471E+01  1.11820E+01  6.38673E+00  4.98507E+00  2.32277E+00 -1.02030E+00 -3.71672E+00 -4.54022E+00 -7.54359E+00
  -8.01299E+00 -4.55145E+00 -1.94492E+00 -3.88670E-01 -3.88011E+00 -6.33989E+00 -6.69808E+00 -4.06188E+00 -7.10562E+00  2.64269E+00
  -4.70128E+00  3.05273E-01 -5.55596E+00  5.00678E+00 -5.99711E+00 -1.83824E+00 -5.70337E+00  3.01831E-01 -7.39414E+00 -2.40245E+00
   1.68058E-01 -7.82516E-01 -8.25381E-01  2.99500E+00 -6.28689E+00 -4.17808E+00  2.13576E-01  3.36532E+00  2.61274E-02  1.10927E+00
  -1.21854E+00 -6.68467E+00 -4.01620E+00 -1.51806E+00 -6.43003E+00 -5.58132E+00 -8.33827E+00 -2.49528E+00 -2.55612E+00 -8.18842E+00
  -1.23283E+01 -6.60766E+00 -9.71555E+00 -4.16753E+00 -1.27717E+01 -2.31721E+00 -8.14728E+00 -8.35033E-01 -6.77578E+00 -7.16530E+00
  -7.41138E+00 -4.88677E+00 -3.88661E+00 -4.89483E+00 -5.95465E+00 -1.78864E+00 -4.93341E+00 -6.73700E+00 -6.58737E+00 -9.13531E+00
  -8.60078E+00  6.35447E-02 -1.68755E+00 -1.53036E+00 -3.98504E+00  5.83595E-01 -6.36268E+00 -3.73735E+00  5.87029E-01 -2.35911E+00
  -1.21264E+00 -2.46108E+00  2.90118E-01  6.39362E-01  4.48544E+00  2.20497E+00  1.48386E+00  7.40656E+00  5.21026E+00  1.28721E+01
   1.27079E+01  1.94995E+01  2.33246E+01  3.34420E+01  2.92956E+01  1.88389E+01  1.17886E+01  1.11769E+01  5.30700E+00 -2.39447E+00
  -3.92773E-01  3.39804E+00  7.71129E-01 -1.66008E+00 -5.17449E+00 -1.91765E+00 -3.65514E+00 -6.74427E+00 -4.44231E+00 -4.48563E+00
  -8.04598E-01 -1.18720E+00 -3.23758E+00  1.27325E+00 -7.51149E-01  7.31924E+00  1.04073E+01  1.92509E+01  1.17492E+01  1.18939E+01
   1.34914E+01  8.18203E+00 -3.67342E+00  6.07663E+00 -6.30099E+00  4.03921E-01 -3.34217E+00 -4.63566E+00 -6.25043E+00 -2.27629E+00
  -2.68476E+00 -2.48296E-01 -6.71409E+00 -7.91896E+00 -2.91484E+00 -6.65691E+00 -2.86117E+00 -1.88909E+00 -6.16158E+00 -9.60173E+00
  -4.94014E+00 -5.84636E+00 -3.73458E+00 -4.69968E+00 -9.65810E+00 -4.61329E-01 -1.07852E+01 -5.13395E+00 -3.66102E+00 -5.86979E+00
  -8.62238E+00 -1.57010E+00 -4.05441E+00 -9.60219E+00 -4.95168E+00 -8.19214E+00 -1.35079E+01 -1.11420E+01 -7.86617E+00 -9.15059E+00
  -9.82519E+00 -6.36843E+00 -1.21279E+01 -8.60437E+00 -6.62145E+00 -7.04737E+00 -7.95502E+00 -6.98380E+00 -9.58707E+00 -3.58453E+00
  -9.78912E+00 -7.64560E+00 -1.58522E+01 -7.00281E+00 -9.64615E+00 -2.41910E+00 -4.20713E+00 -7.88573E+00 -5.86629E+00 -5.87626E+00
  -3.57922E+00 -1.16701E-01 -8.75375E+00 -6.94141E+00 -1.04603E+01 -4.70419E+00 -6.82581E+00 -6.37721E+00 -2.82378E+00 -4.69888E+00
  -8.86739E+00 -3.17852E+00 -6.63139E+00 -4.50772E+00 -3.06412E+00 -8.02960E-02 -6.18296E+00 -4.68820E+00 -6.86058E+00 -2.62162E-01
  -1.06530E-01  4.69322E-01 -3.01006E+00  7.00667E+00  3.35019E+00 -7.95633E-01  1.56521E+00 -1.35218E+00 -1.35548E+00  2.17572E+00
   7.24321E-01 -8.29747E-01 -8.56736E+00 -7.97382E+00 -4.20765E+00 -1.85424E-01 -3.69996E+00  2.57696E+00  4.28177E+00 -1.80492E+00
   4.03751E+00 -2.07934E+00  1.36041E+00 -2.78114E-01 -7.48649E-01  1.20803E-01  4.97224E-01 -1.68532E+00  1.44212E+00  1.08431E+00
  -3.10532E-01 -2.27784E+00 -4.34571E+00 -2.92833E+00 -2.68932E+00 -1.09938E+00  5.51944E+00  1.03841E+01  4.78846E+00 -3.47325E-01
   1.22649E+01  1.72731E+01  2.10395E+01  2.45927E+01  2.15015E+01  3.16530E+01  3.32698E+01  3.50539E+01  3.15422E+01  3.82769E+01
   3.94641E+01  3.99150E+01  3.09254E+01  2.84487E+01  1.96302E+01  1.21467E+01  7.01245E+00  7.01348E+00  2.89591E+00  9.22082E+00
   4.15494E+00  6.05868E+00  5.21176E+00 -1.18593E+00  1.07189E+00  2.04728E+00 -8.35689E+00 -1.18939E+00 -3.42840E+00 -1.96472E-01
   1.20469E+00  1.49027E+00  2.76155E+00 -3.91260E+00  1.69227E+00 -1.85631E+00 -3.44012E+00 -1.81909E+00  5.08798E+00 -2.33905E+00
  -5.29304E-01 -3.13750E-01  1.32061E+00 -7.09718E-01  1.61944E+00  1.58636E+00  3.37319E+00 -1.55889E+00 -3.94785E+00  1.05539E+00
   2.44530E+00  5.29641E+00  1.57905E+00  2.04429E+00 -1.12914E+00 -4.87507E+00  7.98818E-01 -2.28252E+00  1.03617E+00  6.08390E+00
   3.17634E+00  2.89541E+00  5.45818E-01  1.77759E+00  6.95884E+00  2.69305E+00  2.20088E+00  3.69511E+00  3.42706E+00  2.40913E+00
   3.96836E+00  2.18789E+00  5.03968E+00  6.10144E+00 -4.46392E+00  2.86116E+00  2.36397E+00  5.11557E+00  8.51848E-01  5.04784E+00
   7.19378E+00  5.09040E+00  6.41262E+00  7.32209E+00  7.64313E+00  2.93760E+00  3.26705E+00  5.72099E+00  3.17575E+00  6.43943E+00
   9.81777E+00  8.00437E+00  6.88500E+00  8.34926E+00  1.18618E+01  1.51742E+01  1.39618E+01  1.04720E+01  3.48667E+00  7.79261E+00
   1.06325E+01  9.29753E+00  1.00257E+01  6.67245E+00  8.14965E+00  1.01153E+01  4.81166E+00  3.57840E+00  4.73842E+00  4.61740E+00
   6.49897E+00  1.84415E+00  5.37724E+00  1.20327E-01  4.90646E+00  3.99359E+00  6.43869E+00  8.68365E+00  8.05845E+00  3.03946E+00
   1.21937E+01  6.02633E+00  6.08221E+00  1.07036E+01  5.95930E+00  9.93366E+00  1.18200E+00  9.41373E+00  8.75678E+00  5.63923E+00
   9.02449E+00  4.24883E+00  9.21575E+00  5.58025E+00  1.64573E+00  4.73411E+00  6.38636E+00  1.79599E+00  1.00376E+00  4.28060E+00
   4.20357E+00  2.36157E+00  5.23839E+00  5.16223E+00  3.29846E+00  8.44700E+00  1.04833E+01  1.02605E+01  2.09375E+00  7.68038E+00
   7.81313E+00  6.44907E+00  5.93071E+00  7.53202E+00  2.94422E+00  8.55178E+00  6.31214E+00  9.23123E+00  7.07829E+00  7.95190E+00
   4.46809E+00  3.12163E+00  7.80293E+00  6.23737E+00  1.12323E+01  7.94295E+00  9.34204E+00  5.19667E+00  6.70448E+00  1.03363E+01
   1.05529E+01  9.98380E+00  6.60019E+00  3.03661E+00 -6.80019E+00  4.47593E-01  3.77492E+00  6.55597E+00  2.76359E+00  7.96823E+00
   7.74924E+00  5.12488E+00 -2.02339E-02  6.64547E+00  1.60504E+00  4.66639E+00  2.82157E+00  3.75736E+00  8.60334E+00  7.10513E+00
   2.87865E+00 -1.40217E+00  8.71342E+00  1.51650E+00  1.75933E+00  3.61313E+00  2.80725E+00 -1.78350E+00 -1.20120E-01  2.87533E+00
   2.11090E+00  3.06861E+00  1.16668E+00  4.28433E+00  3.73682E+00  3.11541E+00 -7.01119E-01 -4.36944E-01  2.43789E-01  6.25954E+00
  -1.97319E+00  4.10255E+00 -3.10544E+00  3.82643E+00  4.72594E-01  4.91587E+00  7.01034E+00  3.01987E+00 -1.85943E-01  2.58014E+00
   5.89748E+00 -3.73055E-01  1.63574E-01  6.08111E-01  4.87592E+00  6.05049E-01  1.38293E+00  6.73089E-01  3.13506E-01 -9.10303E-01
   1.89641E+00  3.26725E+00 -1.05723E+00  8.56863E-01 -2.80088E+00  1.39730E+00  6.75590E+00  2.24213E+00  3.45618E+00 -3.30222E+00
   6.12522E-01 -2.08483E+00  2.14717E+00  5.48627E-01 -1.04969E-01  6.64743E-01  3.21694E+00 -4.69316E+00
 NY points of the fit to the data follow
  -5.60808E+00 -5.46266E+00 -5.00374E+00 -4.05364E+00 -2.88285E+00 -1.65149E+00 -3.17775E-01  1.17009E+00  2.80210E+00  4.49842E+00
   6.05732E+00  7.10559E+00  7.27247E+00  6.45851E+00  4.89591E+00  2.96984E+00  1.04463E+00 -6.37609E-01 -1.98694E+00 -3.06899E+00
  -3.94814E+00 -4.57086E+00 -4.85401E+00 -4.79287E+00 -4.58902E+00 -4.31876E+00 -3.98058E+00 -3.53686E+00 -2.92362E+00 -2.17159E+00
  -1.42888E+00 -8.86030E-01 -7.28563E-01 -1.01529E+00 -1.66698E+00 -2.54491E+00 -3.43264E+00 -4.08092E+00 -4.37211E+00 -4.36918E+00
  -4.15845E+00 -3.78506E+00 -3.35402E+00 -2.93778E+00 -2.55630E+00 -2.21518E+00 -1.96278E+00 -1.88795E+00 -2.04748E+00 -2.43364E+00
  -2.95690E+00 -3.51115E+00 -4.03025E+00 -4.44593E+00 -4.73130E+00 -4.92215E+00 -5.04972E+00 -5.10528E+00 -5.09107E+00 -5.05594E+00
  -5.04936E+00 -5.10134E+00 -5.21524E+00 -5.35285E+00 -5.47848E+00 -5.56183E+00 -5.57151E+00 -5.50521E+00 -5.40157E+00 -5.29242E+00
  -5.18423E+00 -5.08392E+00 -5.00010E+00 -4.93549E+00 -4.89920E+00 -4.90042E+00 -4.92927E+00 -4.90787E+00 -4.79103E+00 -4.63523E+00
  -4.43259E+00 -4.15051E+00 -3.77765E+00 -3.32865E+00 -2.86111E+00 -2.47097E+00 -2.27181E+00 -2.33875E+00 -2.65870E+00 -3.11686E+00
  -3.56635E+00 -3.90290E+00 -4.02172E+00 -3.58791E+00 -1.99882E+00  2.73409E-01  2.78159E+00  5.65652E+00  9.06299E+00  1.29939E+01
   1.73162E+01  2.15960E+01  2.49133E+01  2.61616E+01  2.47717E+01  2.11062E+01  1.61496E+01  1.09700E+01  6.36902E+00  2.73848E+00
   6.85401E-02 -1.95932E+00 -3.61937E+00 -4.79076E+00 -5.21774E+00 -5.26996E+00 -5.21187E+00 -5.03350E+00 -4.44620E+00 -3.25318E+00
  -1.82112E+00 -2.57900E-01  1.54455E+00  3.66718E+00  6.11497E+00  8.76650E+00  1.12366E+01  1.28970E+01  1.31804E+01  1.19567E+01
   9.60462E+00  6.73105E+00  3.88182E+00  1.40732E+00 -5.79669E-01 -2.13229E+00 -3.38266E+00 -4.35236E+00 -4.86064E+00 -4.88655E+00
  -4.73541E+00 -4.55603E+00 -4.41719E+00 -4.34502E+00 -4.33187E+00 -4.37528E+00 -4.47521E+00 -4.61028E+00 -4.76294E+00 -4.92055E+00
  -5.07124E+00 -5.22721E+00 -5.39720E+00 -5.55722E+00 -5.67930E+00 -5.74843E+00 -5.76752E+00 -5.78301E+00 -5.84860E+00 -5.98556E+00
  -6.17582E+00 -6.37386E+00 -6.50939E+00 -6.55443E+00 -6.54516E+00 -6.54420E+00 -6.60161E+00 -6.72608E+00 -6.87347E+00 -6.97026E+00
  -6.99395E+00 -6.98558E+00 -7.01317E+00 -7.11305E+00 -7.26115E+00 -7.38259E+00 -7.42415E+00 -7.38780E+00 -7.30385E+00 -7.19144E+00
  -7.04992E+00 -6.85951E+00 -6.56804E+00 -6.15080E+00 -5.65929E+00 -5.15775E+00 -4.67596E+00 -4.22808E+00 -3.81060E+00 -3.45233E+00
  -3.18258E+00 -3.03640E+00 -3.05665E+00 -3.22690E+00 -3.45483E+00 -3.60853E+00 -3.60478E+00 -3.41886E+00 -3.08096E+00 -2.64505E+00
  -2.21187E+00 -1.91870E+00 -1.78601E+00 -1.83820E+00 -2.15194E+00 -2.71829E+00 -3.43215E+00 -4.09885E+00 -4.62518E+00 -4.91886E+00
  -4.81492E+00 -4.24941E+00 -3.33421E+00 -2.31515E+00 -1.42912E+00 -8.42602E-01 -7.26676E-01 -1.20412E+00 -2.18148E+00 -3.41464E+00
  -4.61962E+00 -5.51418E+00 -5.84254E+00 -5.50552E+00 -4.61623E+00 -3.42833E+00 -2.20794E+00 -1.14729E+00 -3.86451E-01  4.97962E-02
   2.53637E-01  3.60962E-01  4.72519E-01  5.73767E-01  6.33919E-01  7.15333E-01  8.20741E-01  8.73425E-01  8.10655E-01  6.30047E-01
   3.77844E-01  1.26778E-01 -3.04481E-02  1.54272E-02  3.29482E-01  8.90926E-01  1.80945E+00  3.34505E+00  5.16809E+00  7.05060E+00
   9.19802E+00  1.22252E+01  1.64486E+01  2.12714E+01  2.61953E+01  3.07511E+01  3.43415E+01  3.66460E+01  3.78083E+01  3.80129E+01
   3.70845E+01  3.46910E+01  3.08242E+01  2.59196E+01  2.05849E+01  1.54416E+01  1.11270E+01  8.00067E+00  5.73729E+00  3.93320E+00
   2.46513E+00  1.54059E+00  1.17751E+00  1.00781E+00  8.85326E-01  7.58937E-01  5.98760E-01  4.11720E-01  2.28474E-01  6.82937E-02
  -5.57196E-02 -1.40750E-01 -1.90880E-01 -2.15565E-01 -2.26440E-01 -2.28743E-01 -2.24511E-01 -2.16481E-01 -2.01877E-01 -1.70474E-01
  -1.14624E-01 -3.20334E-02  6.93839E-02  1.79173E-01  2.89706E-01  3.93606E-01  4.87595E-01  5.75430E-01  6.63542E-01  7.58943E-01
   8.64870E-01  9.78000E-01  1.09400E+00  1.21006E+00  1.32038E+00  1.41976E+00  1.50617E+00  1.58043E+00  1.64440E+00  1.69889E+00
   1.74457E+00  1.78540E+00  1.82503E+00  1.86677E+00  1.91424E+00  1.97088E+00  2.03991E+00  2.12426E+00  2.22642E+00  2.34835E+00
   2.49142E+00  2.65632E+00  2.84315E+00  3.05136E+00  3.27977E+00  3.52651E+00  3.78920E+00  4.06499E+00  4.35064E+00  4.64265E+00
   4.93740E+00  5.23122E+00  5.52052E+00  5.80195E+00  6.07244E+00  6.32938E+00  6.57062E+00  6.79455E+00  7.00009E+00  7.18669E+00
   7.35429E+00  7.50328E+00  7.63437E+00  7.74848E+00  7.84668E+00  7.93005E+00  7.99958E+00  8.05611E+00  8.10023E+00  8.13227E+00
   8.15222E+00  8.15982E+00  8.15456E+00  8.13576E+00  8.10258E+00  8.05417E+00  7.98972E+00  7.90857E+00  7.81028E+00  7.69467E+00
   7.56191E+00  7.41251E+00  7.24736E+00  7.06774E+00  6.87525E+00  6.67183E+00  6.45966E+00  6.24112E+00  6.01874E+00  5.79517E+00
   5.57304E+00  5.35499E+00  5.14356E+00  4.94119E+00  4.75019E+00  4.57273E+00  4.41081E+00  4.26628E+00  4.14083E+00  4.03603E+00
   3.95333E+00  3.89409E+00  3.85954E+00  3.85083E+00  3.86900E+00  3.91495E+00  3.98942E+00  4.09291E+00  4.22560E+00  4.38730E+00
   4.57732E+00  4.79442E+00  5.03666E+00  5.30139E+00  5.58514E+00  5.88363E+00  6.19179E+00  6.50384E+00  6.81341E+00  7.11368E+00
   7.39762E+00  7.65824E+00  7.88886E+00  8.08336E+00  8.23649E+00  8.34406E+00  8.40312E+00  8.41214E+00  8.37101E+00  8.28108E+00
   8.14499E+00  7.96659E+00  7.75070E+00  7.50290E+00  7.22923E+00  6.93597E+00  6.62933E+00  6.31528E+00  5.99934E+00  5.68645E+00
   5.38086E+00  5.08607E+00  4.80484E+00  4.53920E+00  4.29050E+00  4.05953E+00  3.84652E+00  3.65129E+00  3.47333E+00  3.31187E+00
   3.16597E+00  3.03459E+00  2.91661E+00  2.81093E+00  2.71644E+00  2.63209E+00  2.55690E+00  2.48996E+00  2.43042E+00  2.37752E+00
   2.33057E+00  2.28896E+00  2.25215E+00  2.21965E+00  2.19102E+00  2.16587E+00  2.14386E+00  2.12471E+00  2.10813E+00  2.09391E+00
   2.08181E+00  2.07165E+00  2.06327E+00  2.05653E+00  2.05128E+00  2.04742E+00  2.04482E+00  2.04339E+00  2.04304E+00  2.04370E+00
   2.04530E+00  2.04776E+00  2.05102E+00  2.05503E+00  2.05975E+00  2.06513E+00  2.07112E+00  2.07769E+00  2.08479E+00  2.09240E+00
   2.10048E+00  2.10902E+00  2.11798E+00  2.12733E+00  2.13706E+00  2.14714E+00  2.15756E+00  2.16830E+00  2.17933E+00  2.19064E+00
   2.20221E+00  2.21403E+00  2.22609E+00  2.23838E+00  2.25087E+00  2.26355E+00  2.27642E+00  2.28947E+00  2.30269E+00  2.31605E+00
   2.32955E+00  2.34318E+00  2.35693E+00  2.37080E+00  2.38476E+00  2.39881E+00  2.41294E+00  2.42713E+00
 NY background values follow
    -8.772E+00   -8.751E+00   -8.730E+00   -8.709E+00   -8.688E+00   -8.667E+00   -8.646E+00   -8.625E+00   -8.604E+00   -8.583E+00
    -8.562E+00   -8.541E+00   -8.520E+00   -8.499E+00   -8.478E+00   -8.457E+00   -8.436E+00   -8.415E+00   -8.394E+00   -8.373E+00
    -8.352E+00   -8.331E+00   -8.310E+00   -8.289E+00   -8.268E+00   -8.247E+00   -8.226E+00   -8.205E+00   -8.184E+00   -8.163E+00
    -8.142E+00   -8.121E+00   -8.100E+00   -8.079E+00   -8.058E+00   -8.037E+00   -8.016E+00   -7.995E+00   -7.974E+00   -7.953E+00
    -7.932E+00   -7.911E+00   -7.890E+00   -7.869E+00   -7.848E+00   -7.827E+00   -7.805E+00   -7.784E+00   -7.763E+00   -7.742E+00
    -7.721E+00   -7.700E+00   -7.679E+00   -7.658E+00   -7.637E+00   -7.616E+00   -7.595E+00   -7.574E+00   -7.552E+00   -7.531E+00
    -7.510E+00   -7.489E+00   -7.468E+00   -7.447E+00   -7.426E+00   -7.405E+00   -7.384E+00   -7.362E+00   -7.341E+00   -7.320E+00
    -7.299E+00   -7.278E+00   -7.257E+00   -7.236E+00   -7.215E+00   -7.193E+00   -7.172E+00   -7.151E+00   -7.130E+00   -7.109E+00
    -7.088E+00   -7.066E+00   -7.045E+00   -7.024E+00   -7.003E+00   -6.982E+00   -6.961E+00   -6.940E+00   -6.918E+00   -6.897E+00
    -6.876E+00   -6.855E+00   -6.834E+00   -6.812E+00   -6.791E+00   -6.770E+00   -6.749E+00   -6.728E+00   -6.707E+00   -6.685E+00
    -6.664E+00   -6.643E+00   -6.622E+00   -6.601E+00   -6.579E+00   -6.558E+00   -6.537E+00   -6.516E+00   -6.494E+00   -6.473E+00
    -6.452E+00   -6.431E+00   -6.410E+00   -6.388E+00   -6.367E+00   -6.346E+00   -6.325E+00   -6.303E+00   -6.282E+00   -6.261E+00
    -6.240E+00   -6.218E+00   -6.197E+00   -6.176E+00   -6.155E+00   -6.134E+00   -6.112E+00   -6.091E+00   -6.070E+00   -6.049E+00
    -6.027E+00   -6.006E+00   -5.985E+00   -5.963E+00   -5.942E+00   -5.921E+00   -5.900E+00   -5.878E+00   -5.857E+00   -5.836E+00
    -5.815E+00   -5.793E+00   -5.772E+00   -5.751E+00   -5.729E+00   -5.708E+00   -5.687E+00   -5.666E+00   -5.644E+00   -5.623E+00
    -5.602E+00   -5.580E+00   -5.559E+00   -5.538E+00   -5.517E+00   -5.495E+00   -5.474E+00   -5.453E+00   -5.431E+00   -5.410E+00
    -5.389E+00   -5.367E+00   -5.346E+00   -5.325E+00   -5.304E+00   -5.282E+00   -5.261E+00   -5.240E+00   -5.218E+00   -5.197E+00
    -5.176E+00   -5.154E+00   -5.133E+00   -5.112E+00   -5.090E+00   -5.069E+00   -5.048E+00   -5.026E+00   -5.005E+00   -4.984E+00
    -4.962E+00   -4.941E+00   -4.920E+00   -4.898E+00   -4.877E+00   -4.856E+00   -4.834E+00   -4.813E+00   -4.792E+00   -4.770E+00
    -4.749E+00   -4.728E+00   -4.706E+00   -4.685E+00   -4.664E+00   -4.642E+00   -4.621E+00   -4.600E+00   -4.578E+00   -4.557E+00
    -4.536E+00   -4.514E+00   -4.493E+00   -4.471E+00   -4.450E+00   -4.429E+00   -4.407E+00   -4.386E+00   -4.365E+00   -4.343E+00
    -4.322E+00   -4.301E+00   -4.279E+00   -4.258E+00   -4.237E+00   -4.215E+00   -4.194E+00   -4.172E+00   -4.151E+00   -4.130E+00
    -4.108E+00   -4.087E+00   -4.066E+00   -4.044E+00   -4.023E+00   -4.001E+00   -3.980E+00   -3.959E+00   -3.937E+00   -3.916E+00
    -3.895E+00   -3.873E+00   -3.852E+00   -3.830E+00   -3.809E+00   -3.788E+00   -3.766E+00   -3.745E+00   -3.724E+00   -3.702E+00
    -3.681E+00   -3.659E+00   -3.638E+00   -3.617E+00   -3.595E+00   -3.574E+00   -3.552E+00   -3.531E+00   -3.510E+00   -3.488E+00
    -3.467E+00   -3.445E+00   -3.424E+00   -3.403E+00   -3.381E+00   -3.360E+00   -3.339E+00   -3.317E+00   -3.296E+00   -3.274E+00
    -3.253E+00   -3.232E+00   -3.210E+00   -3.189E+00   -3.167E+00   -3.146E+00   -3.125E+00   -3.103E+00   -3.082E+00   -3.060E+00
    -3.039E+00   -3.018E+00   -2.996E+00   -2.975E+00   -2.953E+00   -2.932E+00   -2.911E+00   -2.889E+00   -2.868E+00   -2.846E+00
    -2.825E+00   -2.804E+00   -2.782E+00   -2.761E+00   -2.740E+00   -2.718E+00   -2.697E+00   -2.675E+00   -2.654E+00   -2.633E+00
    -2.611E+00   -2.590E+00   -2.568E+00   -2.547E+00   -2.526E+00   -2.504E+00   -2.483E+00   -2.461E+00   -2.440E+00   -2.419E+00
    -2.397E+00   -2.376E+00   -2.354E+00   -2.333E+00   -2.312E+00   -2.290E+00   -2.269E+00   -2.247E+00   -2.226E+00   -2.205E+00
    -2.183E+00   -2.162E+00   -2.140E+00   -2.119E+00   -2.098E+00   -2.076E+00   -2.055E+00   -2.034E+00   -2.012E+00   -1.991E+00
    -1.969E+00   -1.948E+00   -1.927E+00   -1.905E+00   -1.884E+00   -1.862E+00   -1.841E+00   -1.820E+00   -1.798E+00   -1.777E+00
    -1.755E+00   -1.734E+00   -1.713E+00   -1.691E+00   -1.670E+00   -1.649E+00   -1.627E+00   -1.606E+00   -1.584E+00   -1.563E+00
    -1.542E+00   -1.520E+00   -1.499E+00   -1.478E+00   -1.456E+00   -1.435E+00   -1.413E+00   -1.392E+00   -1.371E+00   -1.349E+00
    -1.328E+00   -1.307E+00   -1.285E+00   -1.264E+00   -1.242E+00   -1.221E+00   -1.200E+00   -1.178E+00   -1.157E+00   -1.136E+00
    -1.114E+00   -1.093E+00   -1.071E+00   -1.050E+00   -1.029E+00   -1.007E+00   -9.860E-01   -9.647E-01   -9.433E-01   -9.220E-01
    -9.006E-01   -8.793E-01   -8.579E-01   -8.366E-01   -8.152E-01   -7.939E-01   -7.725E-01   -7.512E-01   -7.298E-01   -7.085E-01
    -6.871E-01   -6.658E-01   -6.444E-01   -6.231E-01   -6.017E-01   -5.804E-01   -5.591E-01   -5.377E-01   -5.164E-01   -4.950E-01
    -4.737E-01   -4.524E-01   -4.310E-01   -4.097E-01   -3.884E-01   -3.671E-01   -3.457E-01   -3.244E-01   -3.031E-01   -2.818E-01
    -2.604E-01   -2.391E-01   -2.178E-01   -1.965E-01   -1.752E-01   -1.538E-01   -1.325E-01   -1.112E-01   -8.991E-02   -6.860E-02
    -4.729E-02   -2.598E-02   -4.674E-03    1.663E-02    3.793E-02    5.924E-02    8.054E-02    1.018E-01    1.231E-01    1.444E-01
     1.657E-01    1.870E-01    2.083E-01    2.296E-01    2.509E-01    2.722E-01    2.935E-01    3.147E-01    3.360E-01    3.573E-01
     3.786E-01    3.999E-01    4.211E-01    4.424E-01    4.637E-01    4.849E-01    5.062E-01    5.275E-01    5.487E-01    5.700E-01
     5.913E-01    6.125E-01    6.338E-01    6.550E-01    6.763E-01    6.976E-01    7.188E-01    7.401E-01    7.613E-01    7.825E-01
     8.038E-01    8.250E-01    8.463E-01    8.675E-01    8.887E-01    9.100E-01    9.312E-01    9.524E-01    9.737E-01    9.949E-01
     1.016E+00    1.037E+00    1.059E+00    1.080E+00    1.101E+00    1.122E+00    1.143E+00    1.165E+00    1.186E+00    1.207E+00
     1.228E+00    1.249E+00    1.271E+00    1.292E+00    1.313E+00    1.334E+00    1.355E+00    1.377E+00    1.398E+00    1.419E+00
     1.440E+00    1.461E+00    1.483E+00    1.504E+00    1.525E+00    1.546E+00    1.567E+00    1.588E+00    1.610E+00    1.631E+00
     1.652E+00    1.673E+00    1.694E+00    1.715E+00    1.737E+00    1.758E+00    1.779E+00    1.800E+00
 Asp      Conc. = 1.73E+02
