 LCModel (Version 6.3-1L) Copyright: S.W. Provencher.          Ref.: Magn. Reson. Med. 30:672-679 (1993).                
 Slice#2 Row#4 Col#12  PD_24_press_1_raw_act
 36 lines in following concentration table = NCONC+1
    Conc.  %SD /Cr+PCr  Metabolite                                         
 1.37E+03  57%   0.000 Ala                                                 
   71.234  22%   0.000 Asp                                                 
    0.000 999%   0.000 Cr                                                  
    0.000 999%   0.000 PCr                                                 
   42.783  22%   0.000 GABA                                                
   42.910  22%   0.000 Glc                                                 
 2.93E+03  33%   0.000 Gln                                                 
  136.253 869%   0.000 Glu                                                 
  173.540 175%   0.000 GPC                                                 
    9.178 999%   0.000 PCh                                                 
    0.000 999%   0.000 GSH                                                 
  534.165  64%   0.000 Ins                                                 
  506.360 146%   0.000 Lac                                                 
  776.571  41%   0.000 NAA                                                 
   99.802 322%   0.000 NAAG                                                
   14.373  22%   0.000 Scyllo                                              
   71.698  22%   0.000 Tau                                                 
    0.000 999%   0.000 -CrCH2                                              
  182.718  21%   0.000 GPC+PCh                                             
  876.373  29%   0.000 NAA+NAAG                                            
    0.000 999%   0.000 Cr+PCr                                              
 3.06E+03  52%   0.000 Glu+Gln                                             
 5.35E+04  14%   0.000 Lip13a                                              
    0.000 999%   0.000 Lip13b                                              
 1.18E+04  18%   0.000 Lip09                                               
 6.43E+03  25%   0.000 MM09                                                
    0.000 999%   0.000 Lip20                                               
 6.45E+03  14%   0.000 MM20                                                
 5.18E+03  33%   0.000 MM12                                                
 7.04E+04   9%   0.000+MM14                                                
 3.29E+04  14%   0.000+MM17                                                
 5.35E+04  14%   0.000 Lip13a+Lip13b                                       
 1.29E+05   5%   0.000 MM14+Lip13a+Lip13b+MM12                             
 1.83E+04  13%   0.000 MM09+Lip09                                          
 6.45E+03  14%   0.000 MM20+Lip20                                          
   6 lines in following misc. output table
  FWHM = 0.183 ppm    S/N =  55                                            
  Data shift = 0.176 ppm                                                   
  Ph:  88 deg       9.2 deg/ppm                                            
  alphaB,S = 3.4E+01,   1.0E+02                                            
    6 spline knots.   Ns = 9(2)                                            
  (13) 5 infls.   (13) 3 extrs.                                            
  498 points on ppm-axis = NY
      4.000000     3.992357     3.984714     3.977070     3.969427     3.961784     3.954141     3.946497     3.938854     3.931211
      3.923568     3.915925     3.908281     3.900638     3.892995     3.885352     3.877708     3.870065     3.862422     3.854779
      3.847136     3.839492     3.831849     3.824206     3.816563     3.808919     3.801276     3.793633     3.785990     3.778347
      3.770703     3.763060     3.755417     3.747774     3.740130     3.732487     3.724844     3.717201     3.709558     3.701914
      3.694271     3.686628     3.678985     3.671341     3.663698     3.656055     3.648412     3.640769     3.633125     3.625482
      3.617839     3.610196     3.602552     3.594909     3.587266     3.579623     3.571980     3.564336     3.556693     3.549050
      3.541407     3.533763     3.526120     3.518477     3.510834     3.503191     3.495547     3.487904     3.480261     3.472618
      3.464974     3.457331     3.449688     3.442045     3.434402     3.426758     3.419115     3.411472     3.403829     3.396185
      3.388542     3.380899     3.373256     3.365613     3.357969     3.350326     3.342683     3.335040     3.327396     3.319753
      3.312110     3.304467     3.296824     3.289180     3.281537     3.273894     3.266251     3.258607     3.250964     3.243321
      3.235678     3.228034     3.220391     3.212748     3.205105     3.197462     3.189818     3.182175     3.174532     3.166889
      3.159245     3.151602     3.143959     3.136316     3.128673     3.121029     3.113386     3.105743     3.098100     3.090456
      3.082813     3.075170     3.067527     3.059884     3.052240     3.044597     3.036954     3.029311     3.021667     3.014024
      3.006381     2.998738     2.991095     2.983451     2.975808     2.968165     2.960522     2.952878     2.945235     2.937592
      2.929949     2.922306     2.914662     2.907019     2.899376     2.891733     2.884089     2.876446     2.868803     2.861160
      2.853517     2.845873     2.838230     2.830587     2.822944     2.815300     2.807657     2.800014     2.792371     2.784728
      2.777084     2.769441     2.761798     2.754155     2.746511     2.738868     2.731225     2.723582     2.715939     2.708295
      2.700652     2.693009     2.685366     2.677722     2.670079     2.662436     2.654793     2.647150     2.639506     2.631863
      2.624220     2.616577     2.608933     2.601290     2.593647     2.586004     2.578361     2.570717     2.563074     2.555431
      2.547788     2.540144     2.532501     2.524858     2.517215     2.509572     2.501928     2.494285     2.486642     2.478999
      2.471355     2.463712     2.456069     2.448426     2.440783     2.433139     2.425496     2.417853     2.410210     2.402566
      2.394923     2.387280     2.379637     2.371994     2.364350     2.356707     2.349064     2.341421     2.333777     2.326134
      2.318491     2.310848     2.303205     2.295561     2.287918     2.280275     2.272632     2.264988     2.257345     2.249702
      2.242059     2.234416     2.226772     2.219129     2.211486     2.203843     2.196199     2.188556     2.180913     2.173270
      2.165627     2.157983     2.150340     2.142697     2.135054     2.127410     2.119767     2.112124     2.104481     2.096838
      2.089194     2.081551     2.073908     2.066265     2.058621     2.050978     2.043335     2.035692     2.028049     2.020405
      2.012762     2.005119     1.997476     1.989833     1.982190     1.974546     1.966903     1.959260     1.951617     1.943974
      1.936331     1.928688     1.921045     1.913402     1.905759     1.898115     1.890472     1.882829     1.875186     1.867543
      1.859900     1.852257     1.844614     1.836971     1.829327     1.821684     1.814041     1.806398     1.798755     1.791112
      1.783469     1.775826     1.768183     1.760540     1.752896     1.745253     1.737610     1.729967     1.722324     1.714681
      1.707038     1.699395     1.691752     1.684108     1.676465     1.668822     1.661179     1.653536     1.645893     1.638250
      1.630607     1.622964     1.615321     1.607677     1.600034     1.592391     1.584748     1.577105     1.569462     1.561819
      1.554176     1.546533     1.538890     1.531246     1.523603     1.515960     1.508317     1.500674     1.493031     1.485388
      1.477745     1.470102     1.462458     1.454815     1.447172     1.439529     1.431886     1.424243     1.416600     1.408957
      1.401314     1.393671     1.386027     1.378384     1.370741     1.363098     1.355455     1.347812     1.340169     1.332526
      1.324883     1.317240     1.309596     1.301953     1.294310     1.286667     1.279024     1.271381     1.263738     1.256095
      1.248452     1.240808     1.233165     1.225522     1.217879     1.210236     1.202593     1.194950     1.187307     1.179664
      1.172021     1.164377     1.156734     1.149091     1.141448     1.133805     1.126162     1.118519     1.110876     1.103233
      1.095590     1.087946     1.080303     1.072660     1.065017     1.057374     1.049731     1.042088     1.034445     1.026802
      1.019158     1.011515     1.003872     0.996229     0.988586     0.980943     0.973300     0.965657     0.958014     0.950371
      0.942727     0.935084     0.927441     0.919798     0.912155     0.904512     0.896869     0.889226     0.881583     0.873940
      0.866296     0.858653     0.851010     0.843367     0.835724     0.828081     0.820438     0.812795     0.805152     0.797508
      0.789865     0.782222     0.774579     0.766936     0.759293     0.751650     0.744007     0.736364     0.728721     0.721077
      0.713434     0.705791     0.698148     0.690505     0.682862     0.675219     0.667576     0.659933     0.652290     0.644646
      0.637003     0.629360     0.621717     0.614074     0.606431     0.598788     0.591145     0.583502     0.575858     0.568215
      0.560572     0.552929     0.545286     0.537643     0.530000     0.522357     0.514714     0.507071     0.499427     0.491784
      0.484141     0.476498     0.468855     0.461212     0.453569     0.445925     0.438282     0.430639     0.422996     0.415353
      0.407710     0.400067     0.392424     0.384780     0.377137     0.369494     0.361851     0.354208     0.346565     0.338922
      0.331278     0.323635     0.315992     0.308349     0.300706     0.293063     0.285420     0.277777     0.270133     0.262490
      0.254847     0.247204     0.239561     0.231918     0.224275     0.216631     0.208988     0.201345
 NY phased data points follow
  -1.66149E+01 -1.73113E+01 -1.89410E+01 -1.77982E+01 -1.43449E+01 -1.45913E+01 -1.42732E+01 -1.72996E+01 -1.40629E+01 -1.45369E+01
  -1.37245E+01 -1.23932E+01 -1.60037E+01 -1.53855E+01 -1.69538E+01 -1.34301E+01 -1.35844E+01 -1.41950E+01 -1.68792E+01 -1.28029E+01
  -1.44863E+01 -1.22677E+01 -1.79062E+01 -1.91489E+01 -1.44577E+01 -1.39306E+01 -1.54740E+01 -1.36498E+01 -1.58652E+01 -1.55455E+01
  -1.72260E+01 -1.43418E+01 -1.84656E+01 -1.41847E+01 -1.59072E+01 -1.32098E+01 -1.39474E+01 -1.45947E+01 -1.30427E+01 -1.35853E+01
  -1.48813E+01 -1.58040E+01 -1.74190E+01 -1.49959E+01 -1.46125E+01 -1.39666E+01 -1.48189E+01 -2.17565E+01 -1.59566E+01 -1.30960E+01
  -1.73801E+01 -1.55412E+01 -1.41966E+01 -1.62934E+01 -1.69891E+01 -1.60253E+01 -1.65446E+01 -1.48753E+01 -2.08468E+01 -1.62607E+01
  -1.55089E+01 -1.40465E+01 -1.58062E+01 -1.65238E+01 -1.56290E+01 -1.95081E+01 -1.88560E+01 -1.41251E+01 -1.77588E+01 -1.89426E+01
  -1.82372E+01 -1.73675E+01 -1.64494E+01 -1.71008E+01 -1.77064E+01 -1.97312E+01 -1.98805E+01 -2.01534E+01 -1.92998E+01 -1.70557E+01
  -1.65135E+01 -1.21388E+01 -9.02042E+00 -1.42063E+01 -1.67182E+01 -1.39314E+01 -1.77116E+01 -1.65351E+01 -1.32443E+01 -1.65831E+01
  -2.17394E+01 -1.40631E+01 -1.44712E+01 -1.33688E+01 -1.37120E+01 -1.44438E+01 -1.36048E+01 -1.27088E+01 -1.71674E+01 -1.78585E+01
  -2.04377E+01 -1.83001E+01 -1.70445E+01 -1.44807E+01 -1.38959E+01 -1.29376E+01 -1.10089E+01 -1.34133E+01 -9.98959E+00 -1.42186E+01
  -1.33166E+01 -1.41214E+01 -1.25567E+01 -1.36423E+01 -1.33685E+01 -1.25729E+01 -1.16626E+01 -1.40217E+01 -1.33223E+01 -1.21370E+01
  -1.22032E+01 -1.27193E+01 -1.36842E+01 -1.53016E+01 -1.53841E+01 -1.38901E+01 -1.66189E+01 -1.69199E+01 -1.26073E+01 -1.73858E+01
  -1.43772E+01 -1.40121E+01 -1.76546E+01 -1.71450E+01 -1.74054E+01 -1.56067E+01 -1.67753E+01 -1.44326E+01 -1.47922E+01 -1.96879E+01
  -1.59305E+01 -1.55500E+01 -1.93241E+01 -1.27355E+01 -2.02619E+01 -1.69880E+01 -1.68343E+01 -1.62517E+01 -1.38279E+01 -1.62821E+01
  -1.83820E+01 -1.75404E+01 -1.69839E+01 -2.09895E+01 -1.75802E+01 -2.13641E+01 -1.75754E+01 -1.90905E+01 -1.68399E+01 -1.96626E+01
  -2.03896E+01 -1.80342E+01 -1.81292E+01 -1.74648E+01 -1.83024E+01 -1.87961E+01 -2.12008E+01 -1.84168E+01 -2.04109E+01 -2.08221E+01
  -1.82637E+01 -1.67471E+01 -1.89087E+01 -1.64837E+01 -2.23841E+01 -2.18416E+01 -2.15131E+01 -1.70323E+01 -1.96191E+01 -1.95038E+01
  -1.63497E+01 -1.92544E+01 -1.83964E+01 -1.88521E+01 -1.60048E+01 -1.49781E+01 -1.72880E+01 -1.70770E+01 -1.84974E+01 -2.10619E+01
  -1.86643E+01 -1.85001E+01 -1.60381E+01 -1.52802E+01 -1.78628E+01 -1.53685E+01 -1.59850E+01 -1.66423E+01 -1.44534E+01 -1.61171E+01
  -1.80055E+01 -1.34527E+01 -1.58146E+01 -1.44631E+01 -1.41643E+01 -1.29656E+01 -1.25677E+01 -1.39487E+01 -1.26506E+01 -1.17321E+01
  -1.10277E+01 -1.03546E+01 -9.79560E+00 -9.42669E+00 -8.62288E+00 -7.87983E+00 -7.76466E+00 -7.84206E+00 -5.14048E+00 -5.51988E+00
  -6.66635E+00  3.41100E-02 -3.68477E+00 -8.82706E-01  5.12608E+00 -2.57380E+00 -7.65522E-01  1.77859E+00  9.03900E-01  2.55785E+00
   3.60659E+00  5.90997E+00  5.59643E+00  9.11645E+00  7.74755E+00  8.79038E+00  1.32882E+01  1.85527E+01  2.23484E+01  2.41952E+01
   2.18068E+01  2.09554E+01  2.31603E+01  2.06925E+01  2.41594E+01  2.66785E+01  2.85197E+01  2.94915E+01  3.34917E+01  3.48275E+01
   3.74378E+01  3.95597E+01  3.80785E+01  4.11465E+01  4.14475E+01  4.29626E+01  3.94385E+01  4.27285E+01  4.52201E+01  4.78998E+01
   4.57280E+01  5.06474E+01  4.92698E+01  4.91739E+01  5.13550E+01  5.61468E+01  5.72248E+01  5.65342E+01  6.13560E+01  6.32050E+01
   6.56864E+01  6.73037E+01  6.94334E+01  7.06417E+01  7.50338E+01  7.49295E+01  7.77738E+01  7.96661E+01  8.46447E+01  8.73709E+01
   9.02914E+01  9.62008E+01  9.87736E+01  1.02829E+02  1.07380E+02  1.08959E+02  1.12787E+02  1.16907E+02  1.21350E+02  1.29633E+02
   1.33059E+02  1.38981E+02  1.39042E+02  1.44115E+02  1.54088E+02  1.56623E+02  1.58093E+02  1.67298E+02  1.70183E+02  1.79255E+02
   1.85812E+02  1.88105E+02  1.97997E+02  2.02659E+02  2.12883E+02  2.20402E+02  2.27391E+02  2.28181E+02  2.36962E+02  2.43620E+02
   2.49804E+02  2.59190E+02  2.60116E+02  2.73244E+02  2.78641E+02  2.84088E+02  2.93933E+02  3.01123E+02  3.03245E+02  3.13041E+02
   3.18074E+02  3.25405E+02  3.27571E+02  3.31401E+02  3.29070E+02  3.32492E+02  3.26570E+02  3.24338E+02  3.19045E+02  3.19559E+02
   3.12160E+02  3.08238E+02  3.06282E+02  2.98283E+02  2.94052E+02  2.87935E+02  2.79528E+02  2.73784E+02  2.69135E+02  2.61903E+02
   2.58876E+02  2.53335E+02  2.46873E+02  2.41424E+02  2.37901E+02  2.34404E+02  2.29106E+02  2.29974E+02  2.24866E+02  2.26915E+02
   2.18068E+02  2.16582E+02  2.12675E+02  2.09167E+02  2.07121E+02  2.05281E+02  2.04202E+02  2.02643E+02  1.96333E+02  1.97160E+02
   1.87219E+02  1.89185E+02  1.90521E+02  1.89047E+02  1.84478E+02  1.82944E+02  1.73369E+02  1.72453E+02  1.72775E+02  1.65734E+02
   1.62866E+02  1.61045E+02  1.56797E+02  1.58388E+02  1.53286E+02  1.48602E+02  1.46419E+02  1.44006E+02  1.42335E+02  1.40519E+02
   1.33345E+02  1.32489E+02  1.31315E+02  1.26504E+02  1.23405E+02  1.23302E+02  1.15987E+02  1.13892E+02  1.13048E+02  1.06505E+02
   1.05593E+02  1.04457E+02  1.00220E+02  9.77400E+01  9.32901E+01  9.47827E+01  9.05875E+01  8.46651E+01  8.56395E+01  8.50310E+01
   8.21394E+01  7.93931E+01  7.43705E+01  7.21136E+01  7.41055E+01  6.87153E+01  6.71553E+01  6.76133E+01  6.76303E+01  6.63392E+01
   6.22955E+01  6.16567E+01  5.84830E+01  5.72524E+01  5.10258E+01  5.29357E+01  5.22826E+01  4.56297E+01  4.92372E+01  4.59139E+01
   4.68885E+01  4.67702E+01  4.30633E+01  4.08427E+01  3.96390E+01  3.88995E+01  3.78377E+01  3.54543E+01  3.37019E+01  3.36140E+01
   3.30435E+01  3.37638E+01  2.95819E+01  2.93683E+01  2.86995E+01  2.59735E+01  2.56227E+01  2.83789E+01  2.97120E+01  2.65096E+01
   2.58659E+01  2.65437E+01  2.66855E+01  2.19336E+01  2.18979E+01  2.13670E+01  1.94315E+01  1.88959E+01  2.07960E+01  1.79512E+01
   1.80237E+01  1.58515E+01  1.50322E+01  1.55800E+01  1.22147E+01  1.69143E+01  1.27004E+01  1.40156E+01  1.47336E+01  1.33246E+01
   1.08401E+01  9.75431E+00  1.05912E+01  1.29612E+01  1.17167E+01  8.86891E+00  9.78327E+00  1.02634E+01  7.00753E+00  8.37509E+00
   6.13346E+00  8.60443E+00  6.22221E+00  6.19525E+00  7.55459E+00  5.51214E+00  7.13835E+00  4.58370E+00  5.67978E+00  2.98614E+00
   6.32288E+00  1.88341E+00  7.22544E+00  2.59030E+00  5.95444E+00  5.87884E+00  4.91520E+00  5.70678E+00  3.79183E+00  1.50768E+00
   2.72720E+00  3.15385E+00  2.95395E+00  1.26181E+00  3.53201E+00  1.67703E+00  1.74108E+00  6.13370E+00
 NY points of the fit to the data follow
  -1.52955E+01 -1.50372E+01 -1.52496E+01 -1.49502E+01 -1.50423E+01 -1.46958E+01 -1.46920E+01 -1.43165E+01 -1.47576E+01 -1.47477E+01
  -1.54242E+01 -1.56179E+01 -1.61791E+01 -1.61557E+01 -1.60583E+01 -1.55606E+01 -1.54695E+01 -1.49536E+01 -1.51300E+01 -1.48524E+01
  -1.53307E+01 -1.49583E+01 -1.55624E+01 -1.51771E+01 -1.58093E+01 -1.54292E+01 -1.59261E+01 -1.54733E+01 -1.57617E+01 -1.51071E+01
  -1.53030E+01 -1.46812E+01 -1.51019E+01 -1.46735E+01 -1.52967E+01 -1.49838E+01 -1.55901E+01 -1.52568E+01 -1.57069E+01 -1.54191E+01
  -1.57455E+01 -1.53979E+01 -1.56458E+01 -1.53153E+01 -1.54539E+01 -1.51267E+01 -1.50753E+01 -1.46665E+01 -1.49642E+01 -1.48657E+01
  -1.53923E+01 -1.55023E+01 -1.61214E+01 -1.62674E+01 -1.62525E+01 -1.61361E+01 -1.60007E+01 -1.59965E+01 -1.59087E+01 -1.61842E+01
  -1.62212E+01 -1.64508E+01 -1.65701E+01 -1.68252E+01 -1.69389E+01 -1.71609E+01 -1.72769E+01 -1.74958E+01 -1.75310E+01 -1.76538E+01
  -1.76019E+01 -1.77324E+01 -1.76944E+01 -1.78440E+01 -1.78134E+01 -1.79673E+01 -1.79360E+01 -1.80887E+01 -1.80480E+01 -1.82029E+01
  -1.81807E+01 -1.82981E+01 -1.82574E+01 -1.83207E+01 -1.80930E+01 -1.75295E+01 -1.72434E+01 -1.68539E+01 -1.67204E+01 -1.66681E+01
  -1.66513E+01 -1.67170E+01 -1.67251E+01 -1.67133E+01 -1.66563E+01 -1.65104E+01 -1.63895E+01 -1.60327E+01 -1.58409E+01 -1.53392E+01
  -1.51300E+01 -1.45861E+01 -1.44356E+01 -1.40392E+01 -1.39685E+01 -1.36711E+01 -1.36201E+01 -1.32575E+01 -1.31614E+01 -1.27926E+01
  -1.27338E+01 -1.24397E+01 -1.24238E+01 -1.22677E+01 -1.23177E+01 -1.23764E+01 -1.25123E+01 -1.28178E+01 -1.29794E+01 -1.33793E+01
  -1.35817E+01 -1.41856E+01 -1.44419E+01 -1.51402E+01 -1.51936E+01 -1.51209E+01 -1.50145E+01 -1.49271E+01 -1.48488E+01 -1.48015E+01
  -1.47705E+01 -1.47781E+01 -1.48005E+01 -1.48600E+01 -1.49295E+01 -1.50351E+01 -1.51506E+01 -1.52960E+01 -1.54459E+01 -1.56211E+01
  -1.57932E+01 -1.59894E+01 -1.61918E+01 -1.64245E+01 -1.66431E+01 -1.68707E+01 -1.70733E+01 -1.72510E+01 -1.74425E+01 -1.76009E+01
  -1.77802E+01 -1.79297E+01 -1.80880E+01 -1.82139E+01 -1.83450E+01 -1.84469E+01 -1.85608E+01 -1.86513E+01 -1.87678E+01 -1.88444E+01
  -1.89085E+01 -1.89475E+01 -1.89721E+01 -1.90120E+01 -1.90383E+01 -1.90620E+01 -1.90680E+01 -1.90614E+01 -1.90540E+01 -1.90467E+01
  -1.90149E+01 -1.89757E+01 -1.89150E+01 -1.88469E+01 -1.87596E+01 -1.87086E+01 -1.87004E+01 -1.86715E+01 -1.87671E+01 -1.87700E+01
  -1.88123E+01 -1.87799E+01 -1.86843E+01 -1.84349E+01 -1.80331E+01 -1.76252E+01 -1.71938E+01 -1.66626E+01 -1.64284E+01 -1.61116E+01
  -1.62192E+01 -1.63638E+01 -1.71833E+01 -1.71136E+01 -1.74532E+01 -1.69576E+01 -1.67415E+01 -1.59407E+01 -1.55475E+01 -1.46633E+01
  -1.43647E+01 -1.35569E+01 -1.34997E+01 -1.28889E+01 -1.30847E+01 -1.25253E+01 -1.26927E+01 -1.20206E+01 -1.19895E+01 -1.10908E+01
  -1.07005E+01 -9.63906E+00 -9.08277E+00 -8.06996E+00 -7.56798E+00 -6.69803E+00 -6.33297E+00 -5.68683E+00 -5.76888E+00 -5.10952E+00
  -4.95488E+00 -4.01813E+00 -3.26222E+00 -1.77503E+00 -4.86730E-01  6.95779E-01  2.02280E+00  3.07814E+00  4.45841E+00  5.37191E+00
   6.62645E+00  7.19586E+00  7.74683E+00  8.69589E+00  9.67365E+00  1.09741E+01  1.22916E+01  1.37904E+01  1.54111E+01  1.67308E+01
   1.84101E+01  1.95559E+01  2.19836E+01  2.37158E+01  2.58510E+01  2.77195E+01  2.94544E+01  3.11386E+01  3.27343E+01  3.41994E+01
   3.58360E+01  3.70353E+01  3.85895E+01  3.95818E+01  4.11547E+01  4.21538E+01  4.37112E+01  4.47374E+01  4.56671E+01  4.69532E+01
   4.76466E+01  4.93383E+01  5.01066E+01  5.24916E+01  5.33699E+01  5.58307E+01  5.67977E+01  5.93523E+01  6.02411E+01  6.29057E+01
   6.37854E+01  6.65555E+01  6.75351E+01  7.05730E+01  7.17882E+01  7.50100E+01  7.66988E+01  8.02197E+01  8.23602E+01  8.58744E+01
   8.85443E+01  9.21185E+01  9.62907E+01  1.00677E+02  1.05203E+02  1.09830E+02  1.14550E+02  1.19320E+02  1.24146E+02  1.28987E+02
   1.33856E+02  1.38713E+02  1.43586E+02  1.48449E+02  1.53333E+02  1.58230E+02  1.63178E+02  1.68179E+02  1.73280E+02  1.78490E+02
   1.83859E+02  1.89404E+02  1.95170E+02  2.01173E+02  2.07452E+02  2.14019E+02  2.20906E+02  2.28144E+02  2.35856E+02  2.43879E+02
   2.51183E+02  2.59173E+02  2.66090E+02  2.73824E+02  2.80454E+02  2.87687E+02  2.93797E+02  3.01232E+02  3.06797E+02  3.13422E+02
   3.17680E+02  3.22678E+02  3.24926E+02  3.27972E+02  3.27910E+02  3.29008E+02  3.26654E+02  3.25927E+02  3.21797E+02  3.19823E+02
   3.14072E+02  3.10989E+02  3.04028E+02  3.00163E+02  2.92481E+02  2.87995E+02  2.79989E+02  2.75595E+02  2.67684E+02  2.63578E+02
   2.56156E+02  2.52436E+02  2.45864E+02  2.42653E+02  2.36930E+02  2.34130E+02  2.29472E+02  2.27114E+02  2.23902E+02  2.22180E+02
   2.19036E+02  2.17374E+02  2.14345E+02  2.12470E+02  2.09289E+02  2.06808E+02  2.03324E+02  2.01365E+02  1.98120E+02  1.96189E+02
   1.92958E+02  1.90924E+02  1.87690E+02  1.85520E+02  1.82219E+02  1.79815E+02  1.76524E+02  1.73923E+02  1.70814E+02  1.68177E+02
   1.64900E+02  1.62001E+02  1.58684E+02  1.55553E+02  1.52257E+02  1.48903E+02  1.45760E+02  1.42754E+02  1.39851E+02  1.37036E+02
   1.34293E+02  1.31607E+02  1.28962E+02  1.26339E+02  1.23722E+02  1.21094E+02  1.18443E+02  1.15758E+02  1.13035E+02  1.10271E+02
   1.07471E+02  1.04641E+02  1.01793E+02  9.89415E+01  9.61017E+01  9.32909E+01  9.05257E+01  8.78220E+01  8.51940E+01  8.26531E+01
   8.02084E+01  7.78657E+01  7.56280E+01  7.34951E+01  7.14647E+01  6.95318E+01  6.76898E+01  6.59308E+01  6.42460E+01  6.26264E+01
   6.10627E+01  5.95460E+01  5.80679E+01  5.66211E+01  5.51989E+01  5.37958E+01  5.24074E+01  5.10302E+01  4.96618E+01  4.83008E+01
   4.69464E+01  4.55989E+01  4.42589E+01  4.29276E+01  4.16066E+01  4.02979E+01  3.90035E+01  3.77256E+01  3.64664E+01  3.52280E+01
   3.40126E+01  3.28219E+01  3.16577E+01  3.05215E+01  2.94145E+01  2.83380E+01  2.72926E+01  2.62790E+01  2.52976E+01  2.43487E+01
   2.34321E+01  2.25479E+01  2.16956E+01  2.08750E+01  2.00853E+01  1.93261E+01  1.85965E+01  1.78960E+01  1.72235E+01  1.65783E+01
   1.59594E+01  1.53661E+01  1.47972E+01  1.42521E+01  1.37297E+01  1.32292E+01  1.27496E+01  1.22902E+01  1.18501E+01  1.14285E+01
   1.10246E+01  1.06377E+01  1.02670E+01  9.91180E+00  9.57149E+00  9.24540E+00  8.93291E+00  8.63341E+00  8.34635E+00  8.07119E+00
   7.80743E+00  7.55457E+00  7.31213E+00  7.07966E+00  6.85675E+00  6.64299E+00  6.43801E+00  6.24143E+00  6.05288E+00  5.87203E+00
   5.69858E+00  5.53222E+00  5.37268E+00  5.21966E+00  5.07289E+00  4.93212E+00  4.79715E+00  4.66774E+00  4.54366E+00  4.42472E+00
   4.31070E+00  4.20145E+00  4.09678E+00  3.99655E+00  3.90059E+00  3.80876E+00  3.72095E+00  3.63705E+00
 NY background values follow
    -1.899E+01   -1.903E+01   -1.906E+01   -1.910E+01   -1.914E+01   -1.918E+01   -1.922E+01   -1.926E+01   -1.930E+01   -1.934E+01
    -1.938E+01   -1.942E+01   -1.946E+01   -1.950E+01   -1.954E+01   -1.959E+01   -1.963E+01   -1.967E+01   -1.971E+01   -1.976E+01
    -1.980E+01   -1.984E+01   -1.989E+01   -1.993E+01   -1.997E+01   -2.002E+01   -2.006E+01   -2.011E+01   -2.015E+01   -2.020E+01
    -2.024E+01   -2.029E+01   -2.033E+01   -2.038E+01   -2.042E+01   -2.047E+01   -2.052E+01   -2.056E+01   -2.061E+01   -2.065E+01
    -2.070E+01   -2.075E+01   -2.079E+01   -2.084E+01   -2.089E+01   -2.093E+01   -2.098E+01   -2.103E+01   -2.107E+01   -2.112E+01
    -2.117E+01   -2.121E+01   -2.126E+01   -2.131E+01   -2.136E+01   -2.140E+01   -2.145E+01   -2.150E+01   -2.154E+01   -2.159E+01
    -2.164E+01   -2.168E+01   -2.173E+01   -2.178E+01   -2.182E+01   -2.187E+01   -2.192E+01   -2.196E+01   -2.201E+01   -2.206E+01
    -2.210E+01   -2.215E+01   -2.219E+01   -2.224E+01   -2.229E+01   -2.233E+01   -2.238E+01   -2.242E+01   -2.247E+01   -2.251E+01
    -2.256E+01   -2.260E+01   -2.265E+01   -2.269E+01   -2.273E+01   -2.278E+01   -2.282E+01   -2.286E+01   -2.291E+01   -2.295E+01
    -2.299E+01   -2.304E+01   -2.308E+01   -2.312E+01   -2.316E+01   -2.320E+01   -2.324E+01   -2.329E+01   -2.333E+01   -2.337E+01
    -2.341E+01   -2.345E+01   -2.348E+01   -2.352E+01   -2.356E+01   -2.360E+01   -2.364E+01   -2.368E+01   -2.371E+01   -2.375E+01
    -2.379E+01   -2.382E+01   -2.386E+01   -2.389E+01   -2.393E+01   -2.396E+01   -2.400E+01   -2.403E+01   -2.407E+01   -2.410E+01
    -2.413E+01   -2.416E+01   -2.420E+01   -2.423E+01   -2.426E+01   -2.429E+01   -2.432E+01   -2.435E+01   -2.438E+01   -2.440E+01
    -2.443E+01   -2.446E+01   -2.449E+01   -2.451E+01   -2.454E+01   -2.456E+01   -2.459E+01   -2.461E+01   -2.463E+01   -2.466E+01
    -2.468E+01   -2.470E+01   -2.472E+01   -2.474E+01   -2.476E+01   -2.478E+01   -2.480E+01   -2.482E+01   -2.484E+01   -2.486E+01
    -2.487E+01   -2.489E+01   -2.490E+01   -2.492E+01   -2.493E+01   -2.494E+01   -2.496E+01   -2.497E+01   -2.498E+01   -2.499E+01
    -2.500E+01   -2.501E+01   -2.502E+01   -2.502E+01   -2.503E+01   -2.504E+01   -2.504E+01   -2.505E+01   -2.505E+01   -2.505E+01
    -2.506E+01   -2.506E+01   -2.506E+01   -2.506E+01   -2.506E+01   -2.506E+01   -2.506E+01   -2.505E+01   -2.505E+01   -2.505E+01
    -2.504E+01   -2.504E+01   -2.503E+01   -2.502E+01   -2.502E+01   -2.501E+01   -2.500E+01   -2.499E+01   -2.498E+01   -2.497E+01
    -2.496E+01   -2.494E+01   -2.493E+01   -2.492E+01   -2.490E+01   -2.489E+01   -2.487E+01   -2.486E+01   -2.484E+01   -2.482E+01
    -2.481E+01   -2.479E+01   -2.477E+01   -2.475E+01   -2.473E+01   -2.471E+01   -2.468E+01   -2.466E+01   -2.464E+01   -2.462E+01
    -2.459E+01   -2.457E+01   -2.454E+01   -2.452E+01   -2.449E+01   -2.446E+01   -2.443E+01   -2.441E+01   -2.438E+01   -2.435E+01
    -2.432E+01   -2.429E+01   -2.426E+01   -2.423E+01   -2.419E+01   -2.416E+01   -2.413E+01   -2.409E+01   -2.406E+01   -2.402E+01
    -2.399E+01   -2.395E+01   -2.392E+01   -2.388E+01   -2.384E+01   -2.380E+01   -2.377E+01   -2.373E+01   -2.369E+01   -2.365E+01
    -2.361E+01   -2.357E+01   -2.353E+01   -2.348E+01   -2.344E+01   -2.340E+01   -2.335E+01   -2.331E+01   -2.327E+01   -2.322E+01
    -2.318E+01   -2.313E+01   -2.308E+01   -2.304E+01   -2.299E+01   -2.294E+01   -2.290E+01   -2.285E+01   -2.280E+01   -2.275E+01
    -2.270E+01   -2.265E+01   -2.260E+01   -2.255E+01   -2.250E+01   -2.245E+01   -2.239E+01   -2.234E+01   -2.229E+01   -2.224E+01
    -2.218E+01   -2.213E+01   -2.207E+01   -2.202E+01   -2.196E+01   -2.191E+01   -2.185E+01   -2.179E+01   -2.174E+01   -2.168E+01
    -2.162E+01   -2.157E+01   -2.151E+01   -2.145E+01   -2.139E+01   -2.133E+01   -2.127E+01   -2.121E+01   -2.115E+01   -2.109E+01
    -2.103E+01   -2.097E+01   -2.091E+01   -2.085E+01   -2.078E+01   -2.072E+01   -2.066E+01   -2.060E+01   -2.053E+01   -2.047E+01
    -2.040E+01   -2.034E+01   -2.028E+01   -2.021E+01   -2.015E+01   -2.008E+01   -2.002E+01   -1.995E+01   -1.988E+01   -1.982E+01
    -1.975E+01   -1.968E+01   -1.962E+01   -1.955E+01   -1.948E+01   -1.941E+01   -1.935E+01   -1.928E+01   -1.921E+01   -1.914E+01
    -1.907E+01   -1.900E+01   -1.893E+01   -1.886E+01   -1.879E+01   -1.872E+01   -1.865E+01   -1.858E+01   -1.851E+01   -1.844E+01
    -1.837E+01   -1.830E+01   -1.823E+01   -1.816E+01   -1.808E+01   -1.801E+01   -1.794E+01   -1.787E+01   -1.780E+01   -1.772E+01
    -1.765E+01   -1.758E+01   -1.750E+01   -1.743E+01   -1.736E+01   -1.728E+01   -1.721E+01   -1.714E+01   -1.706E+01   -1.699E+01
    -1.691E+01   -1.684E+01   -1.677E+01   -1.669E+01   -1.662E+01   -1.654E+01   -1.647E+01   -1.639E+01   -1.632E+01   -1.624E+01
    -1.617E+01   -1.609E+01   -1.601E+01   -1.594E+01   -1.586E+01   -1.579E+01   -1.571E+01   -1.563E+01   -1.556E+01   -1.548E+01
    -1.541E+01   -1.533E+01   -1.525E+01   -1.518E+01   -1.510E+01   -1.502E+01   -1.495E+01   -1.487E+01   -1.479E+01   -1.471E+01
    -1.464E+01   -1.456E+01   -1.448E+01   -1.441E+01   -1.433E+01   -1.425E+01   -1.417E+01   -1.410E+01   -1.402E+01   -1.394E+01
    -1.386E+01   -1.378E+01   -1.371E+01   -1.363E+01   -1.355E+01   -1.347E+01   -1.340E+01   -1.332E+01   -1.324E+01   -1.316E+01
    -1.308E+01   -1.301E+01   -1.293E+01   -1.285E+01   -1.277E+01   -1.269E+01   -1.262E+01   -1.254E+01   -1.246E+01   -1.238E+01
    -1.230E+01   -1.223E+01   -1.215E+01   -1.207E+01   -1.199E+01   -1.192E+01   -1.184E+01   -1.176E+01   -1.168E+01   -1.160E+01
    -1.153E+01   -1.145E+01   -1.137E+01   -1.129E+01   -1.122E+01   -1.114E+01   -1.106E+01   -1.098E+01   -1.091E+01   -1.083E+01
    -1.075E+01   -1.068E+01   -1.060E+01   -1.052E+01   -1.044E+01   -1.037E+01   -1.029E+01   -1.021E+01   -1.014E+01   -1.006E+01
    -9.985E+00   -9.909E+00   -9.832E+00   -9.756E+00   -9.680E+00   -9.604E+00   -9.528E+00   -9.453E+00   -9.377E+00   -9.301E+00
    -9.226E+00   -9.151E+00   -9.075E+00   -9.000E+00   -8.925E+00   -8.850E+00   -8.776E+00   -8.701E+00   -8.627E+00   -8.552E+00
    -8.478E+00   -8.404E+00   -8.330E+00   -8.256E+00   -8.183E+00   -8.109E+00   -8.036E+00   -7.963E+00   -7.890E+00   -7.817E+00
    -7.744E+00   -7.671E+00   -7.599E+00   -7.527E+00   -7.455E+00   -7.383E+00   -7.311E+00   -7.239E+00   -7.168E+00   -7.097E+00
    -7.026E+00   -6.955E+00   -6.884E+00   -6.814E+00   -6.744E+00   -6.674E+00   -6.604E+00   -6.534E+00   -6.465E+00   -6.395E+00
    -6.326E+00   -6.258E+00   -6.189E+00   -6.121E+00   -6.052E+00   -5.984E+00   -5.917E+00   -5.849E+00
 Ala      Conc. = 1.37E+03
