 LCModel (Version 6.3-1L) Copyright: S.W. Provencher.          Ref.: Magn. Reson. Med. 30:672-679 (1993).                
 Slice#1 Row#7 Col#1  PD_24_press_1_raw_act
 36 lines in following concentration table = NCONC+1
    Conc.  %SD /Cr+PCr  Metabolite                                         
    0.000 999%   0.000 Ala                                                 
   14.930 112%   0.168 Asp                                                 
   88.961  25%   1.000 Cr                                                  
    0.000 999%   0.000 PCr                                                 
    7.923 126% 8.9E-02 GABA                                                
   11.888  85%   0.134 Glc                                                 
    0.000 999%   0.000 Gln                                                 
  153.116  59%   1.721 Glu                                                 
    0.000 999%   0.000 GPC                                                 
   36.314  24%   0.408 PCh                                                 
    3.896 770% 4.4E-02 GSH                                                 
  199.961  50%   2.248 Ins                                                 
    0.000 999%   0.000 Lac                                                 
   92.528  27%   1.040 NAA                                                 
    0.000 999%   0.000 NAAG                                                
    4.767  69% 5.4E-02 Scyllo                                              
   20.613  81%   0.232 Tau                                                 
   29.303  89%   0.329 -CrCH2                                              
   36.314  24%   0.408 GPC+PCh                                             
   92.528  27%   1.040 NAA+NAAG                                            
   88.961  25%   1.000 Cr+PCr                                              
  153.116  59%   1.721 Glu+Gln                                             
    0.000 999%   0.000 Lip13a                                              
  188.586  29%   2.120 Lip13b                                              
   28.711 119%   0.323 Lip09                                               
    0.000 999%   0.000 MM09                                                
   22.219 108%   0.250 Lip20                                               
    0.000 999%   0.000 MM20                                                
 4.24E-04 999% 4.8E-06 MM12                                                
    0.000 999%   0.000 MM14                                                
 5.50E-03 999% 6.2E-05 MM17                                                
  188.586  29%   2.120 Lip13a+Lip13b                                       
  188.586  29%   2.120 MM14+Lip13a+Lip13b+MM12                             
   28.711 119%   0.323 MM09+Lip09                                          
   22.219 108%   0.250 MM20+Lip20                                          
   6 lines in following misc. output table
  FWHM = 0.046 ppm    S/N =   1                                            
  Data shift =-0.008 ppm                                                   
  Ph:-163 deg      12.1 deg/ppm                                            
  alphaB,S = 4.9E-01,   4.9E+01                                            
   14 spline knots.   Ns = 5(1)                                            
   2 inflections.     1 extrema                                            
  498 points on ppm-axis = NY
      4.000000     3.992357     3.984714     3.977070     3.969427     3.961784     3.954141     3.946497     3.938854     3.931211
      3.923568     3.915925     3.908281     3.900638     3.892995     3.885352     3.877708     3.870065     3.862422     3.854779
      3.847136     3.839492     3.831849     3.824206     3.816563     3.808919     3.801276     3.793633     3.785990     3.778347
      3.770703     3.763060     3.755417     3.747774     3.740130     3.732487     3.724844     3.717201     3.709558     3.701914
      3.694271     3.686628     3.678985     3.671341     3.663698     3.656055     3.648412     3.640769     3.633125     3.625482
      3.617839     3.610196     3.602552     3.594909     3.587266     3.579623     3.571980     3.564336     3.556693     3.549050
      3.541407     3.533763     3.526120     3.518477     3.510834     3.503191     3.495547     3.487904     3.480261     3.472618
      3.464974     3.457331     3.449688     3.442045     3.434402     3.426758     3.419115     3.411472     3.403829     3.396185
      3.388542     3.380899     3.373256     3.365613     3.357969     3.350326     3.342683     3.335040     3.327396     3.319753
      3.312110     3.304467     3.296824     3.289180     3.281537     3.273894     3.266251     3.258607     3.250964     3.243321
      3.235678     3.228034     3.220391     3.212748     3.205105     3.197462     3.189818     3.182175     3.174532     3.166889
      3.159245     3.151602     3.143959     3.136316     3.128673     3.121029     3.113386     3.105743     3.098100     3.090456
      3.082813     3.075170     3.067527     3.059884     3.052240     3.044597     3.036954     3.029311     3.021667     3.014024
      3.006381     2.998738     2.991095     2.983451     2.975808     2.968165     2.960522     2.952878     2.945235     2.937592
      2.929949     2.922306     2.914662     2.907019     2.899376     2.891733     2.884089     2.876446     2.868803     2.861160
      2.853517     2.845873     2.838230     2.830587     2.822944     2.815300     2.807657     2.800014     2.792371     2.784728
      2.777084     2.769441     2.761798     2.754155     2.746511     2.738868     2.731225     2.723582     2.715939     2.708295
      2.700652     2.693009     2.685366     2.677722     2.670079     2.662436     2.654793     2.647150     2.639506     2.631863
      2.624220     2.616577     2.608933     2.601290     2.593647     2.586004     2.578361     2.570717     2.563074     2.555431
      2.547788     2.540144     2.532501     2.524858     2.517215     2.509572     2.501928     2.494285     2.486642     2.478999
      2.471355     2.463712     2.456069     2.448426     2.440783     2.433139     2.425496     2.417853     2.410210     2.402566
      2.394923     2.387280     2.379637     2.371994     2.364350     2.356707     2.349064     2.341421     2.333777     2.326134
      2.318491     2.310848     2.303205     2.295561     2.287918     2.280275     2.272632     2.264988     2.257345     2.249702
      2.242059     2.234416     2.226772     2.219129     2.211486     2.203843     2.196199     2.188556     2.180913     2.173270
      2.165627     2.157983     2.150340     2.142697     2.135054     2.127410     2.119767     2.112124     2.104481     2.096838
      2.089194     2.081551     2.073908     2.066265     2.058621     2.050978     2.043335     2.035692     2.028049     2.020405
      2.012762     2.005119     1.997476     1.989833     1.982190     1.974546     1.966903     1.959260     1.951617     1.943974
      1.936331     1.928688     1.921045     1.913402     1.905759     1.898115     1.890472     1.882829     1.875186     1.867543
      1.859900     1.852257     1.844614     1.836971     1.829327     1.821684     1.814041     1.806398     1.798755     1.791112
      1.783469     1.775826     1.768183     1.760540     1.752896     1.745253     1.737610     1.729967     1.722324     1.714681
      1.707038     1.699395     1.691752     1.684108     1.676465     1.668822     1.661179     1.653536     1.645893     1.638250
      1.630607     1.622964     1.615321     1.607677     1.600034     1.592391     1.584748     1.577105     1.569462     1.561819
      1.554176     1.546533     1.538890     1.531246     1.523603     1.515960     1.508317     1.500674     1.493031     1.485388
      1.477745     1.470102     1.462458     1.454815     1.447172     1.439529     1.431886     1.424243     1.416600     1.408957
      1.401314     1.393671     1.386027     1.378384     1.370741     1.363098     1.355455     1.347812     1.340169     1.332526
      1.324883     1.317240     1.309596     1.301953     1.294310     1.286667     1.279024     1.271381     1.263738     1.256095
      1.248452     1.240808     1.233165     1.225522     1.217879     1.210236     1.202593     1.194950     1.187307     1.179664
      1.172021     1.164377     1.156734     1.149091     1.141448     1.133805     1.126162     1.118519     1.110876     1.103233
      1.095590     1.087946     1.080303     1.072660     1.065017     1.057374     1.049731     1.042088     1.034445     1.026802
      1.019158     1.011515     1.003872     0.996229     0.988586     0.980943     0.973300     0.965657     0.958014     0.950371
      0.942727     0.935084     0.927441     0.919798     0.912155     0.904512     0.896869     0.889226     0.881583     0.873940
      0.866296     0.858653     0.851010     0.843367     0.835724     0.828081     0.820438     0.812795     0.805152     0.797508
      0.789865     0.782222     0.774579     0.766936     0.759293     0.751650     0.744007     0.736364     0.728721     0.721077
      0.713434     0.705791     0.698148     0.690505     0.682862     0.675219     0.667576     0.659933     0.652290     0.644646
      0.637003     0.629360     0.621717     0.614074     0.606431     0.598788     0.591145     0.583502     0.575858     0.568215
      0.560572     0.552929     0.545286     0.537643     0.530000     0.522357     0.514714     0.507071     0.499427     0.491784
      0.484141     0.476498     0.468855     0.461212     0.453569     0.445925     0.438282     0.430639     0.422996     0.415353
      0.407710     0.400067     0.392424     0.384780     0.377137     0.369494     0.361851     0.354208     0.346565     0.338922
      0.331278     0.323635     0.315992     0.308349     0.300706     0.293063     0.285420     0.277777     0.270133     0.262490
      0.254847     0.247204     0.239561     0.231918     0.224275     0.216631     0.208988     0.201345
 NY phased data points follow
  -1.28373E+01 -1.24647E+01 -1.50961E+01 -1.12955E+01 -1.03389E+01 -1.13282E+01 -9.10079E+00 -8.32462E+00 -1.03941E+01 -1.21012E+01
  -6.38584E+00 -6.92144E+00 -5.84303E+00 -8.76050E+00 -8.36784E+00 -9.94808E+00 -1.20540E+01 -1.01713E+01 -1.00115E+01 -1.28402E+01
  -1.18313E+01 -7.31044E+00 -6.94773E+00 -7.38343E+00 -5.77555E+00 -7.17814E+00 -6.97466E+00 -3.80176E+00 -7.69388E+00 -8.29431E+00
  -6.38997E+00 -4.42200E+00 -5.22221E+00 -8.70298E+00 -9.29264E+00 -5.90976E+00 -5.62299E+00 -6.38784E+00 -5.86155E+00 -3.76980E+00
  -3.34010E+00 -6.81355E+00 -5.53152E+00 -3.68813E+00 -5.95468E+00 -3.66999E+00 -6.14636E+00 -1.41094E+00 -3.27092E+00 -5.35741E+00
  -3.53453E+00 -3.81573E+00 -5.88310E+00 -8.20452E-01 -5.88596E+00 -8.67005E-01 -4.93097E+00 -3.00243E+00 -2.85915E+00 -1.80894E+00
  -3.05862E+00 -2.03856E+00 -9.74517E-01 -1.05465E+00  1.29647E-01 -2.28765E+00 -2.48139E+00 -1.02065E+00 -2.63980E+00 -2.15896E+00
  -1.78256E+00 -2.16325E+00 -1.15583E+00 -1.60315E+00 -2.60781E+00  2.42669E+00  4.79801E-01 -1.17051E+00 -2.30843E+00  2.35565E+00
  -2.75389E+00 -4.70431E-02 -1.66609E+00  1.03005E+00 -9.38938E-01 -3.64070E+00  2.54442E-01  1.63636E+00  8.38923E-02  6.79599E-01
  -2.12695E+00  7.67306E-01  1.87769E+00 -9.10112E-02 -7.50388E-01 -2.46481E+00 -1.04601E+00 -3.09168E+00 -2.19033E+00  3.54724E-02
   2.36209E-01  4.66544E+00  2.23035E+00  6.91015E+00  9.95085E-01  6.26931E-01 -8.57999E-01 -1.43667E+00 -9.67983E-01 -1.43355E+00
  -6.94283E-01 -1.61061E+00  4.89135E-01 -1.26371E-02 -1.13392E+00 -2.81939E-01 -8.50724E-01  3.31657E+00  1.05418E+00  6.09297E-01
  -3.49834E-01 -1.61234E-01 -3.48331E+00  6.45219E-01  4.54892E-03  2.37425E+00  1.93083E+00  8.37489E+00  5.60481E+00  1.87529E+00
   2.58164E+00 -1.87358E+00 -2.36527E+00  1.32192E-01 -8.09954E-01 -8.42368E-01 -1.38809E+00 -2.97085E-01  3.65139E+00  8.26480E-01
  -6.86876E-01 -1.98969E+00  1.20940E-01  1.19889E+00  2.00606E+00  2.78667E+00 -2.93947E+00  1.70529E+00  2.84812E+00  2.85233E+00
   3.17890E+00  3.76519E-01 -2.62688E-01 -8.94162E-01  3.71621E+00  4.41219E-01 -1.60942E+00 -1.07530E+00  1.50804E+00  1.01410E+00
   2.06604E+00  8.84556E-01  1.86623E-01  1.25083E+00  4.52001E+00  6.14073E-01  2.70291E+00  3.64535E+00  3.14951E-01 -1.52635E-01
  -2.33754E+00  7.01648E-01  1.14624E-02  5.42477E-01 -1.66397E+00 -9.22125E-01  5.36394E+00  8.55190E-01  2.86341E+00  2.57566E+00
   4.03698E+00  3.98997E+00  1.44437E+00 -1.15913E+00  9.65174E-01  2.65813E+00 -1.83461E+00  1.78727E+00  4.60282E+00  3.29761E-01
  -1.23620E+00  8.88029E-01  1.25361E+00 -8.78336E-01 -1.32119E+00  2.82237E+00  1.14771E+00  1.13143E+00 -7.57805E-01  2.00340E+00
   1.40846E+00  1.23859E+00  3.16197E+00  3.44636E+00  7.68837E-01  1.11135E+00  1.30551E+00  3.42512E+00  3.90860E-01  1.90572E+00
   4.15360E+00 -1.30229E+00  1.61681E-02  2.36879E+00  3.26884E+00  2.01617E+00  5.13566E+00  3.32020E+00 -6.10506E-01  1.94095E+00
  -5.16387E-01 -2.33520E+00  4.16709E-01  3.34422E+00 -3.26002E+00  4.52488E-01  4.39378E+00 -1.87308E+00  7.58213E-01  1.21064E+00
   3.10286E+00  1.41215E+00  2.05174E-01  4.76733E+00 -1.61339E+00  2.06675E+00 -5.78344E-01  8.38312E-01 -8.40488E-02  2.52491E+00
  -3.23988E+00 -6.13723E-01 -9.17689E-02  1.65418E+00 -3.96569E-01  1.83930E+00  2.20411E+00  5.99390E-01  1.03051E-02  1.17377E+00
   3.55842E-01  2.12602E+00  1.87461E+00 -4.67351E-01  1.41925E+00  2.71886E+00  9.99081E-01  3.03667E+00  1.33300E+00  3.01915E+00
   9.06710E+00  9.75279E+00  3.68897E+00 -1.13990E+00 -1.28311E+00 -1.85253E+00  3.30140E+00  3.74157E+00  2.98448E+00 -3.66371E-01
   1.78616E+00 -1.07227E+00 -1.66324E+00  1.07644E-01  2.97209E+00  3.52733E+00  1.18397E-01  7.37048E-01  2.31988E+00 -5.23937E-02
   2.59725E+00  3.87121E+00  1.97539E+00  9.42587E-02 -1.97682E-01  9.64420E-01 -1.23081E+00 -3.11781E-01  1.22572E+00  2.14927E+00
  -4.28610E-02 -3.21184E-01  2.68430E+00 -3.12924E+00  3.05011E+00  3.83172E+00  6.18854E-01  1.11717E+00  2.08220E+00  5.48923E+00
   1.88230E+00  5.26703E+00  5.25231E+00  5.29280E+00  3.08773E+00  4.78539E+00  3.01799E-01 -4.43098E-01  4.39031E+00  2.04192E+00
   4.21593E-01  1.99503E+00 -1.13661E+00  3.15351E+00 -4.87215E-01  1.54751E+00  1.89308E+00  3.86049E+00 -2.64588E-01  2.36481E+00
   1.04337E-01  4.29969E+00  1.24870E-01  3.01059E+00 -6.81540E-01  1.08759E+00  4.27047E+00  2.58878E+00  3.69951E+00  1.85989E+00
  -1.16554E+00  2.75778E+00  2.20623E+00  6.16322E+00  3.46105E+00  5.33602E-02 -1.64939E+00  3.68876E+00  2.19130E+00 -1.83113E+00
   2.41535E-01  1.26904E+00  2.84066E+00  3.52334E+00  1.21190E+00 -2.48931E+00  3.93282E+00  4.84469E-01  3.86914E+00  2.89252E+00
   5.75900E+00  7.35424E+00  2.47258E+00  4.06308E+00  6.68900E+00  5.39731E+00  4.34826E+00  5.21269E+00  4.53936E+00 -5.66985E-03
   2.07612E+00  3.68018E+00  3.91956E+00  5.21514E+00  2.23361E+00  2.90118E+00  4.66030E+00  2.32321E-01  2.86676E+00  3.40623E+00
   3.33335E+00  5.45579E+00  3.22851E+00  1.99655E+00  1.69922E+00  2.82203E+00  1.36558E+00 -5.71916E-03  2.62440E-01  3.97103E+00
  -6.05461E-01  1.46675E+00  6.33140E+00  4.56798E+00  2.22024E+00  3.48594E+00  2.54813E+00  3.49421E+00  5.51216E-01  2.39959E+00
  -1.20679E+00  2.02611E+00  3.74016E+00  4.51407E+00  2.29540E+00  2.24488E+00  3.34869E+00  2.50803E+00  1.94015E+00  1.80537E+00
  -1.01218E+00  7.22578E-01  1.55637E+00  3.55420E+00  3.81579E-01  3.24290E+00 -4.64121E-01  1.62860E+00  1.78700E+00 -9.71190E-01
  -1.55493E-01  2.66159E+00 -1.09568E+00  2.18432E+00  3.37257E+00  3.50385E+00  8.21259E-01 -1.22666E-01  2.01282E-01  8.55211E-01
   1.12208E+00  3.60754E+00  3.62311E+00 -7.81294E-01  1.69917E+00  3.15905E+00  3.43135E+00  2.92416E+00  1.67608E+00  2.47704E+00
   1.88672E-01  4.00978E+00  4.96884E-01  2.28570E+00  5.34975E+00  3.03622E+00  2.17061E+00  4.10142E+00  3.16918E+00  2.18692E-01
   1.53626E+00  2.98998E+00  1.77012E+00  3.39721E-01  2.46741E+00  1.43962E+00  1.80795E+00  2.26555E+00  2.32831E-01  4.06755E+00
   2.20120E+00  2.41401E+00 -3.29597E-01  4.34939E+00  2.16215E+00  1.36947E+00  2.50724E+00  2.95746E+00 -1.97954E+00  1.54548E+00
   3.49480E+00  3.51121E+00  4.71354E+00  6.00006E+00  2.41340E+00  2.51702E+00  3.39659E+00  3.88148E+00  4.35898E+00  3.51307E+00
   3.03882E+00  5.44393E+00  3.52145E+00  2.83864E+00  4.81069E+00  3.58208E+00  1.60691E+00  2.73251E+00  3.05117E+00  2.33053E+00
  -2.28164E+00  3.61975E+00  2.46796E-01  4.06819E+00  9.35231E-01  4.23383E+00  3.68354E+00  4.45462E+00  3.57614E+00  2.51834E+00
   2.43527E+00 -1.09773E-01 -1.76815E+00  4.42090E+00  4.26143E+00  1.96095E+00  2.77763E+00  2.42678E+00
 NY points of the fit to the data follow
  -1.01863E+01 -1.01523E+01 -1.00777E+01 -9.99841E+00 -9.96284E+00 -9.97088E+00 -9.91500E+00 -9.64727E+00 -9.13056E+00 -8.41292E+00
  -7.64486E+00 -7.06563E+00 -6.88294E+00 -7.12185E+00 -7.60063E+00 -8.05902E+00 -8.31181E+00 -8.34246E+00 -8.25329E+00 -8.12774E+00
  -7.97786E+00 -7.80455E+00 -7.61966E+00 -7.45736E+00 -7.34199E+00 -7.27676E+00 -7.24899E+00 -7.22081E+00 -7.13251E+00 -6.93535E+00
  -6.63230E+00 -6.28396E+00 -5.97382E+00 -5.77362E+00 -5.71941E+00 -5.78289E+00 -5.89709E+00 -5.99504E+00 -6.03235E+00 -5.99503E+00
  -5.89650E+00 -5.74845E+00 -5.51425E+00 -5.13387E+00 -4.60652E+00 -4.01403E+00 -3.49554E+00 -3.21053E+00 -3.26603E+00 -3.63472E+00
  -4.14775E+00 -4.58333E+00 -4.79026E+00 -4.75792E+00 -4.56947E+00 -4.30873E+00 -4.01578E+00 -3.70183E+00 -3.39564E+00 -3.14805E+00
  -3.01107E+00 -3.00778E+00 -3.10951E+00 -3.24651E+00 -3.33332E+00 -3.31640E+00 -3.19760E+00 -3.00549E+00 -2.78391E+00 -2.57410E+00
  -2.39356E+00 -2.24408E+00 -2.12954E+00 -2.05531E+00 -2.01937E+00 -2.01307E+00 -2.02475E+00 -2.03711E+00 -2.03519E+00 -2.01063E+00
  -1.95399E+00 -1.85742E+00 -1.74307E+00 -1.65392E+00 -1.62497E+00 -1.66840E+00 -1.77007E+00 -1.88545E+00 -1.95200E+00 -1.91974E+00
  -1.78122E+00 -1.57153E+00 -1.35080E+00 -1.17338E+00 -1.05305E+00 -9.78740E-01 -9.25603E-01 -8.17340E-01 -4.33947E-01  3.33654E-01
   1.38378E+00  2.48901E+00  3.31902E+00  3.54695E+00  3.04778E+00  2.02929E+00  9.06221E-01  5.35587E-02 -3.73983E-01 -4.77211E-01
  -4.63640E-01 -4.31591E-01 -3.93020E-01 -3.53118E-01 -3.14753E-01 -2.80089E-01 -2.47668E-01 -2.14070E-01 -1.75868E-01 -1.28069E-01
  -6.07298E-02  6.16058E-02  3.84218E-01  1.02969E+00  1.92706E+00  2.89526E+00  3.67204E+00  3.97568E+00  3.65452E+00  2.82603E+00
   1.82394E+00  9.92245E-01  5.12659E-01  3.44461E-01  3.15812E-01  3.15344E-01  3.30802E-01  3.59868E-01  3.97889E-01  4.39222E-01
   4.78385E-01  5.13529E-01  5.45596E-01  5.75862E-01  6.05205E-01  6.32020E-01  6.53235E-01  6.67958E-01  6.79089E-01  6.91260E-01
   7.07371E-01  7.27398E-01  7.49520E-01  7.71719E-01  7.92841E-01  8.10348E-01  8.17957E-01  8.12702E-01  7.98001E-01  7.82754E-01
   7.81525E-01  8.03510E-01  8.48081E-01  9.03724E-01  9.52132E-01  9.78197E-01  9.78816E-01  9.64212E-01  9.48661E-01  9.39910E-01
   9.37390E-01  9.33222E-01  9.21537E-01  9.08798E-01  9.03274E-01  9.10661E-01  9.30159E-01  9.56522E-01  9.81543E-01  9.97536E-01
   1.00474E+00  1.00976E+00  1.01815E+00  1.03349E+00  1.05484E+00  1.07840E+00  1.10744E+00  1.14877E+00  1.20182E+00  1.25444E+00
   1.29168E+00  1.30839E+00  1.31321E+00  1.31732E+00  1.32681E+00  1.33730E+00  1.33958E+00  1.32896E+00  1.31189E+00  1.30614E+00
   1.32529E+00  1.37210E+00  1.43069E+00  1.47596E+00  1.48473E+00  1.43642E+00  1.33201E+00  1.19371E+00  1.05552E+00  9.63056E-01
   9.64197E-01  1.11046E+00  1.39041E+00  1.72891E+00  2.01881E+00  2.14281E+00  2.01549E+00  1.62166E+00  1.04764E+00  4.65297E-01
   4.77997E-02 -1.05777E-01  2.45125E-02  3.83441E-01  8.61362E-01  1.31376E+00  1.61697E+00  1.72716E+00  1.68707E+00  1.58106E+00
   1.47748E+00  1.40877E+00  1.38701E+00  1.40809E+00  1.44979E+00  1.48080E+00  1.47572E+00  1.42780E+00  1.34188E+00  1.24307E+00
   1.16812E+00  1.14848E+00  1.19429E+00  1.29593E+00  1.42129E+00  1.52105E+00  1.55531E+00  1.51698E+00  1.43191E+00  1.34251E+00
   1.29301E+00  1.30806E+00  1.38748E+00  1.50515E+00  1.65339E+00  1.94935E+00  2.53573E+00  3.37458E+00  4.31354E+00  5.10220E+00
   5.43804E+00  5.12883E+00  4.26364E+00  3.17672E+00  2.23566E+00  1.65411E+00  1.41124E+00  1.33136E+00  1.28768E+00  1.26547E+00
   1.26525E+00  1.28693E+00  1.32950E+00  1.38400E+00  1.43396E+00  1.46574E+00  1.47377E+00  1.46207E+00  1.44026E+00  1.41829E+00
   1.40241E+00  1.39561E+00  1.39836E+00  1.40833E+00  1.42186E+00  1.43570E+00  1.44772E+00  1.45728E+00  1.46499E+00  1.47145E+00
   1.47736E+00  1.48330E+00  1.48948E+00  1.49597E+00  1.50296E+00  1.51061E+00  1.51884E+00  1.52741E+00  1.53621E+00  1.54522E+00
   1.55437E+00  1.56365E+00  1.57303E+00  1.58239E+00  1.59159E+00  1.60058E+00  1.60941E+00  1.61819E+00  1.62704E+00  1.63600E+00
   1.64505E+00  1.65413E+00  1.66320E+00  1.67227E+00  1.68135E+00  1.69043E+00  1.69952E+00  1.70859E+00  1.71765E+00  1.72669E+00
   1.73573E+00  1.74478E+00  1.75384E+00  1.76291E+00  1.77200E+00  1.78113E+00  1.79032E+00  1.79957E+00  1.80889E+00  1.81830E+00
   1.82783E+00  1.83752E+00  1.84742E+00  1.85759E+00  1.86812E+00  1.87917E+00  1.89104E+00  1.90420E+00  1.91948E+00  1.93820E+00
   1.96243E+00  1.99529E+00  2.04120E+00  2.10592E+00  2.19644E+00  2.32029E+00  2.48439E+00  2.69332E+00  2.94724E+00  3.23991E+00
   3.55740E+00  3.87817E+00  4.17481E+00  4.41755E+00  4.57901E+00  4.63908E+00  4.58890E+00  4.43279E+00  4.18755E+00  3.87939E+00
   3.53918E+00  3.19734E+00  2.87940E+00  2.60326E+00  2.37827E+00  2.20607E+00  2.08243E+00  1.99964E+00  1.94867E+00  1.92079E+00
   1.90858E+00  1.90628E+00  1.90982E+00  1.91649E+00  1.92466E+00  1.93341E+00  1.94230E+00  1.95112E+00  1.95982E+00  1.96843E+00
   1.97699E+00  1.98558E+00  1.99426E+00  2.00310E+00  2.01213E+00  2.02142E+00  2.03102E+00  2.04095E+00  2.05125E+00  2.06193E+00
   2.07299E+00  2.08440E+00  2.09614E+00  2.10816E+00  2.12039E+00  2.13272E+00  2.14503E+00  2.15721E+00  2.16911E+00  2.18058E+00
   2.19146E+00  2.20160E+00  2.21084E+00  2.21906E+00  2.22616E+00  2.23207E+00  2.23674E+00  2.24015E+00  2.24233E+00  2.24335E+00
   2.24330E+00  2.24229E+00  2.24047E+00  2.23801E+00  2.23506E+00  2.23182E+00  2.22846E+00  2.22514E+00  2.22199E+00  2.21914E+00
   2.21672E+00  2.21480E+00  2.21345E+00  2.21272E+00  2.21261E+00  2.21314E+00  2.21431E+00  2.21610E+00  2.21848E+00  2.22141E+00
   2.22485E+00  2.22877E+00  2.23314E+00  2.23791E+00  2.24304E+00  2.24849E+00  2.25424E+00  2.26025E+00  2.26651E+00  2.27298E+00
   2.27964E+00  2.28647E+00  2.29346E+00  2.30059E+00  2.30786E+00  2.31523E+00  2.32271E+00  2.33028E+00  2.33794E+00  2.34569E+00
   2.35350E+00  2.36138E+00  2.36931E+00  2.37729E+00  2.38533E+00  2.39341E+00  2.40154E+00  2.40970E+00  2.41789E+00  2.42611E+00
   2.43437E+00  2.44265E+00  2.45096E+00  2.45928E+00  2.46763E+00  2.47599E+00  2.48437E+00  2.49276E+00  2.50116E+00  2.50957E+00
   2.51798E+00  2.52641E+00  2.53484E+00  2.54327E+00  2.55170E+00  2.56012E+00  2.56855E+00  2.57698E+00  2.58540E+00  2.59381E+00
   2.60221E+00  2.61060E+00  2.61898E+00  2.62735E+00  2.63571E+00  2.64405E+00  2.65238E+00  2.66069E+00  2.66899E+00  2.67727E+00
   2.68553E+00  2.69377E+00  2.70200E+00  2.71020E+00  2.71839E+00  2.72656E+00  2.73471E+00  2.74285E+00
 NY background values follow
    -1.052E+01   -1.040E+01   -1.029E+01   -1.017E+01   -1.006E+01   -9.940E+00   -9.824E+00   -9.707E+00   -9.591E+00   -9.475E+00
    -9.359E+00   -9.243E+00   -9.127E+00   -9.011E+00   -8.895E+00   -8.780E+00   -8.664E+00   -8.549E+00   -8.433E+00   -8.319E+00
    -8.204E+00   -8.089E+00   -7.975E+00   -7.861E+00   -7.747E+00   -7.634E+00   -7.521E+00   -7.408E+00   -7.296E+00   -7.184E+00
    -7.072E+00   -6.961E+00   -6.851E+00   -6.740E+00   -6.631E+00   -6.521E+00   -6.413E+00   -6.304E+00   -6.197E+00   -6.090E+00
    -5.983E+00   -5.877E+00   -5.772E+00   -5.667E+00   -5.563E+00   -5.460E+00   -5.358E+00   -5.256E+00   -5.155E+00   -5.054E+00
    -4.954E+00   -4.856E+00   -4.757E+00   -4.660E+00   -4.563E+00   -4.467E+00   -4.372E+00   -4.278E+00   -4.184E+00   -4.091E+00
    -3.999E+00   -3.908E+00   -3.818E+00   -3.728E+00   -3.639E+00   -3.551E+00   -3.464E+00   -3.378E+00   -3.293E+00   -3.208E+00
    -3.125E+00   -3.042E+00   -2.960E+00   -2.879E+00   -2.799E+00   -2.720E+00   -2.642E+00   -2.564E+00   -2.488E+00   -2.412E+00
    -2.338E+00   -2.264E+00   -2.192E+00   -2.120E+00   -2.049E+00   -1.980E+00   -1.911E+00   -1.843E+00   -1.776E+00   -1.710E+00
    -1.646E+00   -1.582E+00   -1.519E+00   -1.457E+00   -1.397E+00   -1.337E+00   -1.278E+00   -1.220E+00   -1.163E+00   -1.108E+00
    -1.052E+00   -9.984E-01   -9.452E-01   -8.929E-01   -8.415E-01   -7.910E-01   -7.414E-01   -6.926E-01   -6.446E-01   -5.975E-01
    -5.513E-01   -5.058E-01   -4.611E-01   -4.173E-01   -3.742E-01   -3.319E-01   -2.903E-01   -2.496E-01   -2.095E-01   -1.702E-01
    -1.316E-01   -9.378E-02   -5.661E-02   -2.014E-02    1.564E-02    5.076E-02    8.521E-02    1.190E-01    1.522E-01    1.847E-01
     2.166E-01    2.479E-01    2.786E-01    3.087E-01    3.382E-01    3.672E-01    3.956E-01    4.234E-01    4.507E-01    4.775E-01
     5.037E-01    5.294E-01    5.545E-01    5.791E-01    6.032E-01    6.267E-01    6.498E-01    6.723E-01    6.943E-01    7.158E-01
     7.367E-01    7.572E-01    7.772E-01    7.966E-01    8.156E-01    8.341E-01    8.521E-01    8.696E-01    8.866E-01    9.031E-01
     9.192E-01    9.348E-01    9.499E-01    9.646E-01    9.788E-01    9.925E-01    1.006E+00    1.019E+00    1.031E+00    1.043E+00
     1.054E+00    1.065E+00    1.076E+00    1.086E+00    1.096E+00    1.105E+00    1.114E+00    1.123E+00    1.131E+00    1.138E+00
     1.146E+00    1.152E+00    1.159E+00    1.165E+00    1.171E+00    1.176E+00    1.181E+00    1.185E+00    1.190E+00    1.194E+00
     1.197E+00    1.201E+00    1.204E+00    1.206E+00    1.209E+00    1.211E+00    1.213E+00    1.215E+00    1.216E+00    1.217E+00
     1.218E+00    1.219E+00    1.220E+00    1.221E+00    1.221E+00    1.221E+00    1.221E+00    1.221E+00    1.221E+00    1.220E+00
     1.220E+00    1.219E+00    1.219E+00    1.218E+00    1.217E+00    1.217E+00    1.216E+00    1.215E+00    1.214E+00    1.213E+00
     1.213E+00    1.212E+00    1.211E+00    1.210E+00    1.209E+00    1.209E+00    1.208E+00    1.208E+00    1.207E+00    1.207E+00
     1.207E+00    1.207E+00    1.207E+00    1.207E+00    1.207E+00    1.207E+00    1.207E+00    1.208E+00    1.208E+00    1.209E+00
     1.210E+00    1.211E+00    1.212E+00    1.213E+00    1.214E+00    1.216E+00    1.217E+00    1.219E+00    1.221E+00    1.222E+00
     1.225E+00    1.227E+00    1.229E+00    1.232E+00    1.234E+00    1.237E+00    1.240E+00    1.243E+00    1.246E+00    1.250E+00
     1.253E+00    1.257E+00    1.261E+00    1.265E+00    1.269E+00    1.274E+00    1.278E+00    1.283E+00    1.288E+00    1.293E+00
     1.299E+00    1.304E+00    1.310E+00    1.316E+00    1.322E+00    1.328E+00    1.335E+00    1.341E+00    1.348E+00    1.355E+00
     1.362E+00    1.369E+00    1.377E+00    1.384E+00    1.392E+00    1.399E+00    1.407E+00    1.415E+00    1.423E+00    1.431E+00
     1.440E+00    1.448E+00    1.456E+00    1.465E+00    1.473E+00    1.482E+00    1.490E+00    1.499E+00    1.508E+00    1.516E+00
     1.525E+00    1.534E+00    1.542E+00    1.551E+00    1.560E+00    1.569E+00    1.578E+00    1.586E+00    1.595E+00    1.604E+00
     1.612E+00    1.621E+00    1.630E+00    1.638E+00    1.646E+00    1.655E+00    1.663E+00    1.671E+00    1.680E+00    1.688E+00
     1.696E+00    1.704E+00    1.711E+00    1.719E+00    1.727E+00    1.735E+00    1.742E+00    1.749E+00    1.757E+00    1.764E+00
     1.771E+00    1.778E+00    1.785E+00    1.792E+00    1.799E+00    1.806E+00    1.812E+00    1.819E+00    1.825E+00    1.832E+00
     1.838E+00    1.844E+00    1.850E+00    1.856E+00    1.862E+00    1.868E+00    1.873E+00    1.879E+00    1.884E+00    1.889E+00
     1.895E+00    1.900E+00    1.905E+00    1.910E+00    1.915E+00    1.919E+00    1.924E+00    1.928E+00    1.933E+00    1.937E+00
     1.941E+00    1.945E+00    1.949E+00    1.953E+00    1.956E+00    1.960E+00    1.963E+00    1.967E+00    1.970E+00    1.973E+00
     1.977E+00    1.980E+00    1.983E+00    1.986E+00    1.989E+00    1.992E+00    1.994E+00    1.997E+00    2.000E+00    2.003E+00
     2.005E+00    2.008E+00    2.011E+00    2.014E+00    2.016E+00    2.019E+00    2.022E+00    2.025E+00    2.028E+00    2.030E+00
     2.033E+00    2.036E+00    2.039E+00    2.042E+00    2.045E+00    2.049E+00    2.052E+00    2.055E+00    2.059E+00    2.062E+00
     2.066E+00    2.069E+00    2.073E+00    2.077E+00    2.081E+00    2.085E+00    2.089E+00    2.094E+00    2.098E+00    2.103E+00
     2.108E+00    2.113E+00    2.118E+00    2.123E+00    2.129E+00    2.134E+00    2.140E+00    2.145E+00    2.151E+00    2.157E+00
     2.163E+00    2.169E+00    2.175E+00    2.181E+00    2.188E+00    2.194E+00    2.201E+00    2.208E+00    2.214E+00    2.221E+00
     2.228E+00    2.235E+00    2.242E+00    2.250E+00    2.257E+00    2.264E+00    2.271E+00    2.279E+00    2.286E+00    2.294E+00
     2.302E+00    2.309E+00    2.317E+00    2.325E+00    2.333E+00    2.340E+00    2.348E+00    2.356E+00    2.364E+00    2.372E+00
     2.380E+00    2.388E+00    2.397E+00    2.405E+00    2.413E+00    2.421E+00    2.429E+00    2.438E+00    2.446E+00    2.454E+00
     2.462E+00    2.471E+00    2.479E+00    2.487E+00    2.496E+00    2.504E+00    2.512E+00    2.521E+00    2.529E+00    2.537E+00
     2.546E+00    2.554E+00    2.562E+00    2.571E+00    2.579E+00    2.587E+00    2.596E+00    2.604E+00    2.612E+00    2.620E+00
     2.629E+00    2.637E+00    2.645E+00    2.653E+00    2.662E+00    2.670E+00    2.678E+00    2.686E+00    2.694E+00    2.702E+00
     2.710E+00    2.718E+00    2.726E+00    2.734E+00    2.742E+00    2.750E+00    2.758E+00    2.766E+00
 Asp      Conc. = 1.49E+01
