 LCModel (Version 6.3-1L) Copyright: S.W. Provencher.          Ref.: Magn. Reson. Med. 30:672-679 (1993).                
 Slice#3 Row#5 Col#8  PD_24_press_1_raw_act
 36 lines in following concentration table = NCONC+1
    Conc.  %SD /Cr+PCr  Metabolite                                         
    7.606 999% 4.8E-03 Ala                                                 
    0.000 999%   0.000 Asp                                                 
  705.255  29%   0.443 Cr                                                  
  887.861  23%   0.557 PCr                                                 
   16.294 835% 1.0E-02 GABA                                                
    0.000 999%   0.000 Glc                                                 
  399.212  52%   0.251 Gln                                                 
  986.947  25%   0.620 Glu                                                 
  568.648   4%   0.357 GPC                                                 
    0.000 999%   0.000 PCh                                                 
  421.171  17%   0.264 GSH                                                 
  514.822  49%   0.323 Ins                                                 
  118.925  98% 7.5E-02 Lac                                                 
 1.57E+03   4%   0.983 NAA                                                 
    0.000 999%   0.000 NAAG                                                
   31.079  86% 2.0E-02 Scyllo                                              
    0.000 999%   0.000 Tau                                                 
    0.000 999%   0.000 -CrCH2                                              
  568.648   4%   0.357 GPC+PCh                                             
 1.57E+03   4%   0.983 NAA+NAAG                                            
 1.59E+03   4%   1.000 Cr+PCr                                              
 1.39E+03  24%   0.870 Glu+Gln                                             
 3.39E+03  19%   2.126 Lip13a                                              
  159.204 166%   0.100 Lip13b                                              
  815.480  50%   0.512 Lip09                                               
 1.21E+03  28%   0.760 MM09                                                
  666.905  47%   0.419 Lip20                                               
 2.48E+03  18%   1.560 MM20                                                
  482.219  54%   0.303 MM12                                                
    0.000 999%   0.000 MM14                                                
  822.461  35%   0.516 MM17                                                
 3.55E+03  17%   2.226 Lip13a+Lip13b                                       
 4.03E+03  14%   2.529 MM14+Lip13a+Lip13b+MM12                             
 2.03E+03  15%   1.272 MM09+Lip09                                          
 3.15E+03  14%   1.978 MM20+Lip20                                          
   6 lines in following misc. output table
  FWHM = 0.054 ppm    S/N =   8                                            
  Data shift = 0.000 ppm                                                   
  Ph:  -2 deg       1.6 deg/ppm                                            
  alphaB,S = 1.3E+00,   5.1E+01                                            
   14 spline knots.   Ns = 6(1)                                            
  (12) 4 infls.   (12) 1 extrs.                                            
  498 points on ppm-axis = NY
      4.000000     3.992357     3.984714     3.977070     3.969427     3.961784     3.954141     3.946497     3.938854     3.931211
      3.923568     3.915925     3.908281     3.900638     3.892995     3.885352     3.877708     3.870065     3.862422     3.854779
      3.847136     3.839492     3.831849     3.824206     3.816563     3.808919     3.801276     3.793633     3.785990     3.778347
      3.770703     3.763060     3.755417     3.747774     3.740130     3.732487     3.724844     3.717201     3.709558     3.701914
      3.694271     3.686628     3.678985     3.671341     3.663698     3.656055     3.648412     3.640769     3.633125     3.625482
      3.617839     3.610196     3.602552     3.594909     3.587266     3.579623     3.571980     3.564336     3.556693     3.549050
      3.541407     3.533763     3.526120     3.518477     3.510834     3.503191     3.495547     3.487904     3.480261     3.472618
      3.464974     3.457331     3.449688     3.442045     3.434402     3.426758     3.419115     3.411472     3.403829     3.396185
      3.388542     3.380899     3.373256     3.365613     3.357969     3.350326     3.342683     3.335040     3.327396     3.319753
      3.312110     3.304467     3.296824     3.289180     3.281537     3.273894     3.266251     3.258607     3.250964     3.243321
      3.235678     3.228034     3.220391     3.212748     3.205105     3.197462     3.189818     3.182175     3.174532     3.166889
      3.159245     3.151602     3.143959     3.136316     3.128673     3.121029     3.113386     3.105743     3.098100     3.090456
      3.082813     3.075170     3.067527     3.059884     3.052240     3.044597     3.036954     3.029311     3.021667     3.014024
      3.006381     2.998738     2.991095     2.983451     2.975808     2.968165     2.960522     2.952878     2.945235     2.937592
      2.929949     2.922306     2.914662     2.907019     2.899376     2.891733     2.884089     2.876446     2.868803     2.861160
      2.853517     2.845873     2.838230     2.830587     2.822944     2.815300     2.807657     2.800014     2.792371     2.784728
      2.777084     2.769441     2.761798     2.754155     2.746511     2.738868     2.731225     2.723582     2.715939     2.708295
      2.700652     2.693009     2.685366     2.677722     2.670079     2.662436     2.654793     2.647150     2.639506     2.631863
      2.624220     2.616577     2.608933     2.601290     2.593647     2.586004     2.578361     2.570717     2.563074     2.555431
      2.547788     2.540144     2.532501     2.524858     2.517215     2.509572     2.501928     2.494285     2.486642     2.478999
      2.471355     2.463712     2.456069     2.448426     2.440783     2.433139     2.425496     2.417853     2.410210     2.402566
      2.394923     2.387280     2.379637     2.371994     2.364350     2.356707     2.349064     2.341421     2.333777     2.326134
      2.318491     2.310848     2.303205     2.295561     2.287918     2.280275     2.272632     2.264988     2.257345     2.249702
      2.242059     2.234416     2.226772     2.219129     2.211486     2.203843     2.196199     2.188556     2.180913     2.173270
      2.165627     2.157983     2.150340     2.142697     2.135054     2.127410     2.119767     2.112124     2.104481     2.096838
      2.089194     2.081551     2.073908     2.066265     2.058621     2.050978     2.043335     2.035692     2.028049     2.020405
      2.012762     2.005119     1.997476     1.989833     1.982190     1.974546     1.966903     1.959260     1.951617     1.943974
      1.936331     1.928688     1.921045     1.913402     1.905759     1.898115     1.890472     1.882829     1.875186     1.867543
      1.859900     1.852257     1.844614     1.836971     1.829327     1.821684     1.814041     1.806398     1.798755     1.791112
      1.783469     1.775826     1.768183     1.760540     1.752896     1.745253     1.737610     1.729967     1.722324     1.714681
      1.707038     1.699395     1.691752     1.684108     1.676465     1.668822     1.661179     1.653536     1.645893     1.638250
      1.630607     1.622964     1.615321     1.607677     1.600034     1.592391     1.584748     1.577105     1.569462     1.561819
      1.554176     1.546533     1.538890     1.531246     1.523603     1.515960     1.508317     1.500674     1.493031     1.485388
      1.477745     1.470102     1.462458     1.454815     1.447172     1.439529     1.431886     1.424243     1.416600     1.408957
      1.401314     1.393671     1.386027     1.378384     1.370741     1.363098     1.355455     1.347812     1.340169     1.332526
      1.324883     1.317240     1.309596     1.301953     1.294310     1.286667     1.279024     1.271381     1.263738     1.256095
      1.248452     1.240808     1.233165     1.225522     1.217879     1.210236     1.202593     1.194950     1.187307     1.179664
      1.172021     1.164377     1.156734     1.149091     1.141448     1.133805     1.126162     1.118519     1.110876     1.103233
      1.095590     1.087946     1.080303     1.072660     1.065017     1.057374     1.049731     1.042088     1.034445     1.026802
      1.019158     1.011515     1.003872     0.996229     0.988586     0.980943     0.973300     0.965657     0.958014     0.950371
      0.942727     0.935084     0.927441     0.919798     0.912155     0.904512     0.896869     0.889226     0.881583     0.873940
      0.866296     0.858653     0.851010     0.843367     0.835724     0.828081     0.820438     0.812795     0.805152     0.797508
      0.789865     0.782222     0.774579     0.766936     0.759293     0.751650     0.744007     0.736364     0.728721     0.721077
      0.713434     0.705791     0.698148     0.690505     0.682862     0.675219     0.667576     0.659933     0.652290     0.644646
      0.637003     0.629360     0.621717     0.614074     0.606431     0.598788     0.591145     0.583502     0.575858     0.568215
      0.560572     0.552929     0.545286     0.537643     0.530000     0.522357     0.514714     0.507071     0.499427     0.491784
      0.484141     0.476498     0.468855     0.461212     0.453569     0.445925     0.438282     0.430639     0.422996     0.415353
      0.407710     0.400067     0.392424     0.384780     0.377137     0.369494     0.361851     0.354208     0.346565     0.338922
      0.331278     0.323635     0.315992     0.308349     0.300706     0.293063     0.285420     0.277777     0.270133     0.262490
      0.254847     0.247204     0.239561     0.231918     0.224275     0.216631     0.208988     0.201345
 NY phased data points follow
   6.65253E+01  6.76952E+01  6.45643E+01  6.22693E+01  6.70475E+01  6.98550E+01  7.94405E+01  8.62114E+01  8.95987E+01  9.63862E+01
   1.05391E+02  9.73177E+01  1.04555E+02  9.32285E+01  8.77763E+01  7.79219E+01  7.35005E+01  6.96539E+01  6.07962E+01  5.66389E+01
   5.71857E+01  5.72803E+01  5.25337E+01  5.20985E+01  5.34024E+01  5.14386E+01  5.36077E+01  5.08304E+01  5.68748E+01  5.80893E+01
   6.35339E+01  5.82125E+01  6.67358E+01  5.51137E+01  4.85779E+01  5.28258E+01  5.46283E+01  4.64933E+01  5.09444E+01  4.17186E+01
   4.54143E+01  4.63097E+01  4.07244E+01  4.24542E+01  4.76175E+01  4.57266E+01  5.42979E+01  4.88426E+01  4.94659E+01  4.72860E+01
   4.58826E+01  4.51947E+01  4.21332E+01  3.88362E+01  3.79677E+01  3.64417E+01  4.33215E+01  3.83872E+01  4.01143E+01  4.03866E+01
   3.50381E+01  3.03868E+01  3.40385E+01  2.73334E+01  2.75444E+01  2.27361E+01  2.06141E+01  1.78721E+01  2.07805E+01  2.24881E+01
   2.52434E+01  2.89473E+01  2.88755E+01  2.44696E+01  3.02613E+01  2.83405E+01  2.60384E+01  3.02448E+01  2.19290E+01  2.34241E+01
   2.56149E+01  2.33263E+01  2.45818E+01  2.17994E+01  2.04254E+01  1.90413E+01  2.51238E+01  2.38391E+01  2.36063E+01  2.14294E+01
   2.69255E+01  2.47955E+01  2.20691E+01  2.26143E+01  2.57917E+01  1.66422E+01  1.51327E+01  9.55717E+00  1.83627E+01  2.86202E+01
   3.97503E+01  6.00220E+01  6.96142E+01  7.42649E+01  7.46982E+01  6.28321E+01  5.73209E+01  5.12001E+01  4.11685E+01  3.26466E+01
   3.46756E+01  2.32377E+01  2.66964E+01  2.76131E+01  2.50078E+01  1.86629E+01  2.17916E+01  1.78141E+01  1.62319E+01  1.28087E+01
   1.12130E+01  9.44819E+00  1.77895E+01  2.48956E+01  3.59304E+01  4.86342E+01  6.30050E+01  6.30868E+01  6.24031E+01  5.89494E+01
   5.71974E+01  4.30109E+01  3.72172E+01  3.30778E+01  2.49879E+01  1.97123E+01  1.68140E+01  1.34307E+01  1.63698E+01  1.68718E+01
   5.07299E+00  1.17447E+01  1.40711E+01  1.44228E+01  1.42271E+01  1.10689E+01  1.49321E+01  1.15224E+01  1.25898E+01  8.68669E+00
   6.93247E+00  1.18293E+01  1.13748E+01  1.15929E+01  1.06608E+01  9.44033E+00  1.59859E+01  1.07108E+01  1.06237E+01  6.80372E+00
   3.17577E+00  4.42930E+00  8.47430E+00  7.05290E+00  9.42336E+00  1.05969E+01  7.98858E+00  8.03840E+00  3.76183E+00  2.17211E-01
   1.99178E+00  2.09553E+00 -2.56845E+00  1.09011E+00  2.94433E+00  2.57678E+00  5.62865E+00  2.66838E+00  2.92525E+00 -3.50403E+00
   5.37381E-01 -9.31714E-01 -1.55400E+00 -1.94610E+00 -3.04536E+00  1.65300E+00  2.08160E+00  3.78750E+00  2.95871E+00  7.38543E+00
   9.00016E+00  1.06955E+01  1.19750E+01  1.11721E+01  1.57470E+01  1.51055E+01  6.23918E+00  1.50944E+01  8.23530E+00  6.50254E+00
   8.18353E+00  3.42271E+00  1.12240E+01  1.46445E+01  1.13298E+01  8.90873E+00  9.73478E+00 -3.83503E+00  1.22250E+00  2.99673E+00
   2.51718E+00  9.98303E-01  2.68847E+00  7.57632E+00  9.32861E+00  1.75983E+01  1.26780E+01  1.06265E+01  1.17986E+01  6.97488E+00
   7.37721E+00  1.48817E+00  2.61273E+00  5.96578E+00  6.35873E+00  1.07726E+01  1.01401E+01  1.14497E+01  1.12683E+01  1.21742E+01
   9.55408E+00  1.03071E+01  8.59091E+00  6.19269E+00  1.49935E+01  1.39136E+01  9.55959E+00  1.34356E+01  1.10733E+01  7.45055E+00
   8.08898E+00  7.30171E+00  4.62254E+00  6.59602E+00  1.01823E+01  1.01384E+01  1.33590E+01  1.24235E+01  1.14674E+01  1.51238E+01
   1.20729E+01  1.36361E+01  9.05763E+00  8.85352E+00  1.03719E+01  1.32544E+01  1.94096E+01  3.55239E+01  5.15376E+01  6.11999E+01
   6.84653E+01  6.05501E+01  5.19262E+01  4.76878E+01  3.65010E+01  2.78163E+01  2.29461E+01  1.79461E+01  1.42472E+01  4.52912E+00
   7.91781E+00  6.46122E+00  5.37841E+00  1.47341E+00  3.85877E+00  2.13241E+00  9.81625E-01  1.25341E+00  5.44938E+00 -7.49182E-01
   2.36218E+00 -1.12934E+00 -2.68123E+00 -1.92284E+00  2.93476E+00 -2.97981E+00  3.05572E-01 -1.31200E+00 -4.16239E-01 -3.97202E+00
  -2.67019E+00  3.29789E-01 -1.80428E-01  2.42722E-01  4.11246E-01  4.01596E+00  5.74045E-01  1.27191E+00  6.50408E+00  4.81655E-01
   1.67924E+00 -6.12051E-01 -1.02934E+00 -8.37272E-01  2.77219E+00  2.76946E+00  2.36245E+00  1.99579E+00 -5.99529E-01  2.85350E+00
   6.66028E+00  1.81320E+00  2.20837E+00 -1.17703E+00  2.69426E+00  5.55672E+00  1.50062E+00  5.37428E+00  7.25879E-01 -3.52085E+00
   2.24446E+00  2.48341E+00  1.62589E+00  3.54531E+00  2.71779E-01  2.56536E+00  3.68713E+00 -2.69484E+00 -4.75492E+00  1.60458E+00
  -2.60539E+00 -4.55425E+00 -2.11139E+00 -4.05369E+00 -1.23625E+00 -2.09538E+00 -1.26687E+00 -1.00834E+01 -4.66769E-02 -3.68789E+00
  -5.80939E+00 -7.47044E+00 -1.48696E+00  8.16519E+00  7.21107E+00  6.68237E+00  1.03924E+01  8.24739E+00  5.85805E+00  7.56103E+00
   6.91372E+00  8.74924E+00  1.45350E+01  1.30035E+01  2.44892E+01  2.12140E+01  2.09186E+01  1.70808E+01  1.85986E+01  2.10998E+01
   1.90098E+01  2.39736E+01  1.78985E+01  2.20748E+01  1.99862E+01  1.83713E+01  2.13602E+01  1.47371E+01  1.53043E+01  1.63211E+01
   1.53459E+01  1.32418E+01  1.06746E+01  1.05524E+01  1.26977E+01  1.11305E+01  8.75335E+00  8.08674E+00  9.93324E+00  6.39256E+00
   7.59945E+00  3.82786E+00  3.07007E+00  8.41830E+00  1.21033E+01  1.12721E+01  1.04844E+01  9.20116E+00  1.06905E+01  9.04686E+00
   8.63105E+00  6.86343E+00  6.72343E+00  6.42857E+00  7.27310E+00  1.22089E+01  1.05841E+01  9.32877E+00  1.25310E+01  5.91576E+00
   1.49005E+01  9.95205E+00  1.05920E+01  1.52789E+01  1.02016E+01  1.18275E+01  1.26121E+01  9.52227E+00  1.48819E+01  1.51271E+01
   9.46940E+00  1.12747E+01  6.79969E+00  6.84643E+00  8.89486E+00  3.75756E+00  5.72967E+00  8.90042E+00  7.06854E+00  1.46453E+00
   1.28406E+01  6.59654E+00  6.22355E+00  4.62399E+00  6.07398E+00  5.11489E+00  3.93456E+00  3.94022E+00  4.72998E+00  6.85965E+00
   3.75921E+00  2.99678E+00  7.92390E+00  1.82601E+00  7.01169E-02  5.75500E+00  8.17771E+00  7.11742E+00  3.29040E+00  5.45851E+00
   4.37431E+00  2.28142E+00 -4.34490E-01  6.71392E+00  9.38713E-01  2.44416E+00  3.25641E+00 -2.53652E+00  4.34432E+00  3.64063E+00
   6.87468E-01  5.72150E-01  2.54980E+00  6.60272E+00  1.33156E+00  5.95579E+00 -2.42781E+00  5.72470E+00  6.06243E+00  3.48433E+00
   3.98839E+00  5.30986E-01 -6.36042E-01 -1.61175E+00 -2.15537E+00  4.92528E-01  3.28794E+00  1.75232E+00 -1.89219E+00 -1.94474E+00
   2.13114E+00  1.04209E+00 -3.75723E+00 -1.66281E+00 -1.78424E+00  1.25326E+00  1.89285E+00  7.04299E-01  1.57373E+00 -3.88024E-01
  -3.24580E+00 -8.94437E+00 -5.13271E-02 -3.83368E+00 -3.48562E+00 -3.06997E+00 -3.82026E+00 -1.66346E+00  3.35303E-02  5.66639E-01
   1.92200E+00  3.16937E+00  4.81870E+00  1.74952E-01  3.92068E+00 -6.25162E+00  3.66421E-01  8.00485E-01
 NY points of the fit to the data follow
   6.55894E+01  6.50620E+01  6.47498E+01  6.45737E+01  6.48224E+01  6.70322E+01  7.23459E+01  8.05343E+01  8.92737E+01  9.58287E+01
   9.84093E+01  9.69724E+01  9.28443E+01  8.73968E+01  8.16735E+01  7.63684E+01  7.14259E+01  6.64988E+01  6.25189E+01  5.98708E+01
   5.84399E+01  5.73493E+01  5.62777E+01  5.49382E+01  5.32232E+01  5.19256E+01  5.21627E+01  5.40025E+01  5.68074E+01  5.95181E+01
   6.11712E+01  6.13325E+01  6.00980E+01  5.77889E+01  5.48878E+01  5.23420E+01  5.03412E+01  4.84064E+01  4.68606E+01  4.62297E+01
   4.59203E+01  4.56256E+01  4.56421E+01  4.61335E+01  4.67792E+01  4.72529E+01  4.72906E+01  4.66598E+01  4.57555E+01  4.47483E+01
   4.34733E+01  4.20933E+01  4.09673E+01  3.98956E+01  3.87046E+01  3.77843E+01  3.73072E+01  3.70202E+01  3.66837E+01  3.62628E+01
   3.56622E+01  3.48859E+01  3.39823E+01  3.30556E+01  3.22639E+01  3.16256E+01  3.10710E+01  3.06390E+01  3.03372E+01  3.01086E+01
   2.98965E+01  2.96137E+01  2.92353E+01  2.87760E+01  2.82653E+01  2.77370E+01  2.72133E+01  2.67246E+01  2.62492E+01  2.57642E+01
   2.53137E+01  2.49867E+01  2.48720E+01  2.48440E+01  2.47129E+01  2.43514E+01  2.37534E+01  2.30317E+01  2.23397E+01  2.17728E+01
   2.13304E+01  2.10377E+01  2.08518E+01  2.06231E+01  2.03673E+01  2.01577E+01  1.98798E+01  1.92714E+01  2.04250E+01  2.82898E+01
   4.21325E+01  5.77891E+01  7.00442E+01  7.53818E+01  7.36237E+01  6.73335E+01  5.91454E+01  5.00873E+01  4.18032E+01  3.50596E+01
   2.78284E+01  2.09184E+01  1.81855E+01  1.72411E+01  1.67238E+01  1.63602E+01  1.60592E+01  1.57898E+01  1.55528E+01  1.53686E+01
   1.52323E+01  1.50077E+01  1.68486E+01  2.47889E+01  3.80830E+01  5.27920E+01  6.41617E+01  6.91165E+01  6.76134E+01  6.21769E+01
   5.51479E+01  4.72966E+01  3.97908E+01  3.29771E+01  2.52154E+01  1.79473E+01  1.44662E+01  1.31621E+01  1.28131E+01  1.30171E+01
   1.33603E+01  1.35565E+01  1.36770E+01  1.36846E+01  1.35119E+01  1.32396E+01  1.28773E+01  1.24199E+01  1.19635E+01  1.14576E+01
   1.10183E+01  1.06464E+01  1.03284E+01  1.00769E+01  9.91717E+00  9.83723E+00  9.63503E+00  9.21941E+00  8.64999E+00  8.09267E+00
   7.83692E+00  7.91140E+00  8.11989E+00  8.20852E+00  8.06603E+00  7.72653E+00  7.26270E+00  6.82358E+00  6.48493E+00  6.13057E+00
   5.76890E+00  5.25279E+00  4.51858E+00  3.91546E+00  3.56661E+00  3.50089E+00  3.54905E+00  3.52744E+00  3.38618E+00  3.23190E+00
   3.16813E+00  3.11197E+00  2.89723E+00  2.57407E+00  2.24771E+00  2.12955E+00  2.53387E+00  3.50758E+00  4.89101E+00  6.19639E+00
   7.15636E+00  7.65940E+00  7.77926E+00  7.47455E+00  6.73941E+00  5.68623E+00  4.72466E+00  4.21800E+00  4.28278E+00  4.94153E+00
   6.03784E+00  7.38320E+00  8.56695E+00  9.24130E+00  9.28920E+00  8.61895E+00  7.19628E+00  5.40893E+00  3.69004E+00  2.45074E+00
   1.93181E+00  2.57164E+00  4.32203E+00  6.64582E+00  8.80317E+00  1.00696E+01  1.03422E+01  9.59218E+00  7.59302E+00  4.99348E+00
   2.80395E+00  1.51976E+00  1.32529E+00  1.96767E+00  3.41857E+00  5.22011E+00  6.87241E+00  7.96759E+00  8.43546E+00  8.59324E+00
   8.51780E+00  8.14564E+00  7.85743E+00  8.09149E+00  8.81370E+00  9.77337E+00  1.06207E+01  1.10501E+01  1.08817E+01  1.02355E+01
   9.25520E+00  8.33844E+00  7.90026E+00  8.10316E+00  8.65810E+00  9.29571E+00  9.97649E+00  1.05488E+01  1.08538E+01  1.10465E+01
   1.13052E+01  1.14929E+01  1.16102E+01  1.14394E+01  1.06762E+01  1.29593E+01  2.21080E+01  3.62471E+01  5.08945E+01  6.12376E+01
   6.46421E+01  6.17152E+01  5.52723E+01  4.72201E+01  3.85400E+01  3.10466E+01  2.44993E+01  1.66972E+01  1.05944E+01  8.27606E+00
   7.07829E+00  6.24522E+00  5.67365E+00  5.24465E+00  4.83270E+00  4.43876E+00  4.03684E+00  3.61151E+00  3.17713E+00  2.75820E+00
   2.34680E+00  1.95560E+00  1.61372E+00  1.32132E+00  1.06906E+00  8.50691E-01  6.62235E-01  5.06919E-01  3.82554E-01  2.79599E-01
   2.03340E-01  1.58549E-01  1.46783E-01  1.67787E-01  2.22361E-01  3.11797E-01  4.33235E-01  5.83073E-01  7.60235E-01  9.60923E-01
   1.17877E+00  1.40776E+00  1.64013E+00  1.86769E+00  2.08172E+00  2.27384E+00  2.43628E+00  2.56224E+00  2.64628E+00  2.68396E+00
   2.67196E+00  2.60969E+00  2.49856E+00  2.34141E+00  2.14298E+00  1.90903E+00  1.64637E+00  1.36272E+00  1.06628E+00  7.65320E-01
   4.67683E-01  1.81381E-01 -8.07657E-02 -3.14795E-01 -5.28915E-01 -7.30213E-01 -9.20466E-01 -1.09396E+00 -1.24080E+00 -1.35499E+00
  -1.42949E+00 -1.44850E+00 -1.40191E+00 -1.29177E+00 -1.12617E+00 -9.04246E-01 -6.29344E-01 -3.03042E-01  8.49932E-02  5.46163E-01
   1.09676E+00  1.76834E+00  2.68010E+00  3.82219E+00  5.00859E+00  6.06989E+00  6.93303E+00  7.65470E+00  8.35094E+00  9.08666E+00
   1.00190E+01  1.13061E+01  1.29816E+01  1.48685E+01  1.67090E+01  1.84204E+01  1.98589E+01  2.08961E+01  2.15387E+01  2.18203E+01
   2.18331E+01  2.16010E+01  2.10570E+01  2.03513E+01  1.95825E+01  1.87383E+01  1.78244E+01  1.68552E+01  1.58479E+01  1.48206E+01
   1.37919E+01  1.27799E+01  1.18018E+01  1.08733E+01  1.00082E+01  9.21766E+00  8.51046E+00  7.89276E+00  7.36844E+00  6.93938E+00
   6.60577E+00  6.36638E+00  6.21882E+00  6.15978E+00  6.18522E+00  6.29046E+00  6.47015E+00  6.71827E+00  7.02799E+00  7.39172E+00
   7.80104E+00  8.24673E+00  8.71871E+00  9.20617E+00  9.69769E+00  1.01816E+01  1.06461E+01  1.10799E+01  1.14722E+01  1.18130E+01
   1.20941E+01  1.23085E+01  1.24513E+01  1.25196E+01  1.25126E+01  1.24312E+01  1.22786E+01  1.20593E+01  1.17796E+01  1.14468E+01
   1.10686E+01  1.06536E+01  1.02102E+01  9.74682E+00  9.27129E+00  8.79088E+00  8.31204E+00  7.84035E+00  7.38056E+00  6.93649E+00
   6.51111E+00  6.10654E+00  5.72416E+00  5.36477E+00  5.02862E+00  4.71553E+00  4.42495E+00  4.15601E+00  3.90766E+00  3.67875E+00
   3.46804E+00  3.27428E+00  3.09615E+00  2.93236E+00  2.78166E+00  2.64292E+00  2.51507E+00  2.39707E+00  2.28797E+00  2.18686E+00
   2.09296E+00  2.00554E+00  1.92398E+00  1.84765E+00  1.77599E+00  1.70848E+00  1.64469E+00  1.58425E+00  1.52680E+00  1.47198E+00
   1.41947E+00  1.36900E+00  1.32034E+00  1.27331E+00  1.22774E+00  1.18345E+00  1.14030E+00  1.09818E+00  1.05702E+00  1.01673E+00
   9.77211E-01  9.38378E-01  9.00157E-01  8.62518E-01  8.25432E-01  7.88855E-01  7.52723E-01  7.16987E-01  6.81626E-01  6.46643E-01
   6.12036E-01  5.77773E-01  5.43818E-01  5.10153E-01  4.76791E-01  4.43752E-01  4.11034E-01  3.78612E-01  3.46464E-01  3.14599E-01
   2.83048E-01  2.51834E-01  2.20951E-01  1.90382E-01  1.60123E-01  1.30202E-01  1.00660E-01  7.15106E-02  4.27443E-02  1.43475E-02
  -1.36648E-02 -4.12517E-02 -6.83776E-02 -9.50393E-02 -1.21253E-01 -1.47023E-01 -1.72318E-01 -1.97093E-01
 NY background values follow
     6.363E+01    6.308E+01    6.253E+01    6.198E+01    6.143E+01    6.088E+01    6.033E+01    5.977E+01    5.922E+01    5.867E+01
     5.812E+01    5.757E+01    5.702E+01    5.647E+01    5.592E+01    5.537E+01    5.482E+01    5.428E+01    5.373E+01    5.318E+01
     5.264E+01    5.209E+01    5.155E+01    5.101E+01    5.047E+01    4.993E+01    4.939E+01    4.885E+01    4.832E+01    4.779E+01
     4.726E+01    4.673E+01    4.620E+01    4.567E+01    4.515E+01    4.463E+01    4.411E+01    4.359E+01    4.308E+01    4.256E+01
     4.205E+01    4.155E+01    4.104E+01    4.054E+01    4.004E+01    3.955E+01    3.905E+01    3.856E+01    3.808E+01    3.759E+01
     3.711E+01    3.663E+01    3.616E+01    3.569E+01    3.522E+01    3.476E+01    3.430E+01    3.384E+01    3.338E+01    3.293E+01
     3.249E+01    3.204E+01    3.160E+01    3.116E+01    3.073E+01    3.030E+01    2.987E+01    2.945E+01    2.903E+01    2.862E+01
     2.821E+01    2.780E+01    2.739E+01    2.699E+01    2.660E+01    2.620E+01    2.582E+01    2.543E+01    2.505E+01    2.467E+01
     2.430E+01    2.393E+01    2.357E+01    2.321E+01    2.285E+01    2.250E+01    2.215E+01    2.181E+01    2.147E+01    2.113E+01
     2.080E+01    2.047E+01    2.015E+01    1.983E+01    1.952E+01    1.921E+01    1.890E+01    1.860E+01    1.831E+01    1.801E+01
     1.772E+01    1.744E+01    1.716E+01    1.688E+01    1.661E+01    1.634E+01    1.608E+01    1.582E+01    1.556E+01    1.531E+01
     1.506E+01    1.481E+01    1.457E+01    1.433E+01    1.410E+01    1.387E+01    1.364E+01    1.342E+01    1.320E+01    1.298E+01
     1.277E+01    1.256E+01    1.236E+01    1.216E+01    1.196E+01    1.176E+01    1.157E+01    1.138E+01    1.120E+01    1.102E+01
     1.084E+01    1.066E+01    1.049E+01    1.032E+01    1.016E+01    9.997E+00    9.838E+00    9.682E+00    9.529E+00    9.379E+00
     9.232E+00    9.088E+00    8.947E+00    8.809E+00    8.673E+00    8.540E+00    8.410E+00    8.283E+00    8.158E+00    8.035E+00
     7.915E+00    7.798E+00    7.683E+00    7.570E+00    7.460E+00    7.352E+00    7.246E+00    7.142E+00    7.041E+00    6.941E+00
     6.844E+00    6.748E+00    6.655E+00    6.563E+00    6.473E+00    6.385E+00    6.299E+00    6.215E+00    6.132E+00    6.051E+00
     5.972E+00    5.894E+00    5.817E+00    5.742E+00    5.669E+00    5.597E+00    5.526E+00    5.456E+00    5.388E+00    5.321E+00
     5.254E+00    5.190E+00    5.126E+00    5.063E+00    5.001E+00    4.940E+00    4.879E+00    4.820E+00    4.761E+00    4.703E+00
     4.645E+00    4.588E+00    4.531E+00    4.475E+00    4.419E+00    4.363E+00    4.307E+00    4.252E+00    4.196E+00    4.141E+00
     4.086E+00    4.030E+00    3.975E+00    3.919E+00    3.863E+00    3.806E+00    3.750E+00    3.692E+00    3.634E+00    3.576E+00
     3.517E+00    3.457E+00    3.397E+00    3.336E+00    3.274E+00    3.210E+00    3.146E+00    3.081E+00    3.015E+00    2.948E+00
     2.879E+00    2.809E+00    2.738E+00    2.665E+00    2.591E+00    2.515E+00    2.438E+00    2.359E+00    2.278E+00    2.196E+00
     2.113E+00    2.028E+00    1.942E+00    1.854E+00    1.766E+00    1.676E+00    1.585E+00    1.493E+00    1.400E+00    1.307E+00
     1.212E+00    1.117E+00    1.022E+00    9.252E-01    8.283E-01    7.309E-01    6.331E-01    5.349E-01    4.365E-01    3.379E-01
     2.391E-01    1.403E-01    4.141E-02   -5.740E-02   -1.561E-01   -2.546E-01   -3.529E-01   -4.509E-01   -5.485E-01   -6.456E-01
    -7.422E-01   -8.383E-01   -9.338E-01   -1.028E+00   -1.122E+00   -1.216E+00   -1.308E+00   -1.399E+00   -1.489E+00   -1.579E+00
    -1.667E+00   -1.753E+00   -1.839E+00   -1.923E+00   -2.006E+00   -2.088E+00   -2.168E+00   -2.247E+00   -2.325E+00   -2.401E+00
    -2.476E+00   -2.549E+00   -2.621E+00   -2.692E+00   -2.762E+00   -2.830E+00   -2.896E+00   -2.962E+00   -3.025E+00   -3.088E+00
    -3.149E+00   -3.208E+00   -3.266E+00   -3.323E+00   -3.378E+00   -3.432E+00   -3.484E+00   -3.535E+00   -3.584E+00   -3.632E+00
    -3.678E+00   -3.723E+00   -3.766E+00   -3.807E+00   -3.847E+00   -3.886E+00   -3.923E+00   -3.958E+00   -3.992E+00   -4.024E+00
    -4.055E+00   -4.084E+00   -4.112E+00   -4.138E+00   -4.162E+00   -4.184E+00   -4.205E+00   -4.225E+00   -4.242E+00   -4.259E+00
    -4.273E+00   -4.286E+00   -4.297E+00   -4.307E+00   -4.316E+00   -4.322E+00   -4.328E+00   -4.332E+00   -4.334E+00   -4.335E+00
    -4.335E+00   -4.333E+00   -4.330E+00   -4.326E+00   -4.320E+00   -4.313E+00   -4.305E+00   -4.295E+00   -4.285E+00   -4.273E+00
    -4.259E+00   -4.245E+00   -4.230E+00   -4.213E+00   -4.195E+00   -4.176E+00   -4.157E+00   -4.136E+00   -4.114E+00   -4.091E+00
    -4.067E+00   -4.042E+00   -4.016E+00   -3.989E+00   -3.961E+00   -3.932E+00   -3.903E+00   -3.872E+00   -3.841E+00   -3.809E+00
    -3.776E+00   -3.743E+00   -3.708E+00   -3.673E+00   -3.637E+00   -3.601E+00   -3.564E+00   -3.526E+00   -3.487E+00   -3.449E+00
    -3.409E+00   -3.369E+00   -3.329E+00   -3.288E+00   -3.247E+00   -3.205E+00   -3.163E+00   -3.121E+00   -3.078E+00   -3.035E+00
    -2.992E+00   -2.949E+00   -2.905E+00   -2.862E+00   -2.818E+00   -2.774E+00   -2.730E+00   -2.686E+00   -2.642E+00   -2.598E+00
    -2.554E+00   -2.510E+00   -2.467E+00   -2.423E+00   -2.380E+00   -2.337E+00   -2.294E+00   -2.251E+00   -2.209E+00   -2.167E+00
    -2.125E+00   -2.084E+00   -2.043E+00   -2.002E+00   -1.962E+00   -1.923E+00   -1.884E+00   -1.845E+00   -1.807E+00   -1.770E+00
    -1.733E+00   -1.697E+00   -1.661E+00   -1.626E+00   -1.592E+00   -1.559E+00   -1.526E+00   -1.493E+00   -1.462E+00   -1.431E+00
    -1.400E+00   -1.371E+00   -1.342E+00   -1.314E+00   -1.287E+00   -1.260E+00   -1.234E+00   -1.209E+00   -1.184E+00   -1.161E+00
    -1.138E+00   -1.116E+00   -1.095E+00   -1.075E+00   -1.055E+00   -1.036E+00   -1.019E+00   -1.002E+00   -9.857E-01   -9.705E-01
    -9.562E-01   -9.428E-01   -9.303E-01   -9.188E-01   -9.082E-01   -8.985E-01   -8.898E-01   -8.820E-01   -8.752E-01   -8.694E-01
    -8.646E-01   -8.608E-01   -8.581E-01   -8.563E-01   -8.555E-01   -8.557E-01   -8.568E-01   -8.588E-01   -8.616E-01   -8.653E-01
    -8.697E-01   -8.750E-01   -8.810E-01   -8.877E-01   -8.950E-01   -9.030E-01   -9.116E-01   -9.208E-01   -9.306E-01   -9.408E-01
    -9.516E-01   -9.628E-01   -9.744E-01   -9.864E-01   -9.988E-01   -1.012E+00   -1.025E+00   -1.038E+00   -1.051E+00   -1.065E+00
    -1.079E+00   -1.093E+00   -1.107E+00   -1.122E+00   -1.136E+00   -1.150E+00   -1.165E+00   -1.179E+00   -1.193E+00   -1.207E+00
    -1.221E+00   -1.235E+00   -1.249E+00   -1.262E+00   -1.275E+00   -1.288E+00   -1.301E+00   -1.313E+00
 Ala      Conc. = 7.61E+00
