 LCModel (Version 6.3-1L) Copyright: S.W. Provencher.          Ref.: Magn. Reson. Med. 30:672-679 (1993).                
 Slice#3 Row#11 Col#4  PD_24_press_1_raw_act
 36 lines in following concentration table = NCONC+1
    Conc.  %SD /Cr+PCr  Metabolite                                         
  188.750  52%   0.301 Ala                                                 
   71.763 159%   0.114 Asp                                                 
  627.525   7%   1.000 Cr                                                  
    0.000 999%   0.000 PCr                                                 
   83.569  89%   0.133 GABA                                                
   30.785 234% 4.9E-02 Glc                                                 
  544.792  40%   0.868 Gln                                                 
 1.19E+03  22%   1.904 Glu                                                 
  207.080   8%   0.330 GPC                                                 
    0.000 999%   0.000 PCh                                                 
  421.424  15%   0.672 GSH                                                 
  980.775  26%   1.563 Ins                                                 
    0.000 999%   0.000 Lac                                                 
  952.903   5%   1.519 NAA                                                 
    0.000 999%   0.000 NAAG                                                
   58.481  32% 9.3E-02 Scyllo                                              
   72.084 162%   0.115 Tau                                                 
  113.444  72%   0.181 -CrCH2                                              
  207.080   8%   0.330 GPC+PCh                                             
  952.903   5%   1.519 NAA+NAAG                                            
  627.525   7%   1.000 Cr+PCr                                              
 1.74E+03  23%   2.772 Glu+Gln                                             
    0.000 999%   0.000 Lip13a                                              
    0.000 999%   0.000 Lip13b                                              
 5.54E-03 999% 8.8E-06 Lip09                                               
  621.044  21%   0.990 MM09                                                
    0.000 999%   0.000 Lip20                                               
  493.313  52%   0.786 MM20                                                
   32.266 303% 5.1E-02 MM12                                                
 1.46E+03  13%   2.327 MM14                                                
  779.896  21%   1.243 MM17                                                
    0.000 999%   0.000 Lip13a+Lip13b                                       
 1.49E+03  15%   2.378 MM14+Lip13a+Lip13b+MM12                             
  621.049  21%   0.990 MM09+Lip09                                          
  493.313  52%   0.786 MM20+Lip20                                          
   6 lines in following misc. output table
  FWHM = 0.069 ppm    S/N =   6                                            
  Data shift = 0.038 ppm                                                   
  Ph: -26 deg     -10.2 deg/ppm                                            
  alphaB,S = 5.3E-01,   3.8E+00                                            
   14 spline knots.   Ns = 8(1)                                            
  (11)13 infls.   (15)11 extrs.                                            
  498 points on ppm-axis = NY
      4.000000     3.992357     3.984714     3.977070     3.969427     3.961784     3.954141     3.946497     3.938854     3.931211
      3.923568     3.915925     3.908281     3.900638     3.892995     3.885352     3.877708     3.870065     3.862422     3.854779
      3.847136     3.839492     3.831849     3.824206     3.816563     3.808919     3.801276     3.793633     3.785990     3.778347
      3.770703     3.763060     3.755417     3.747774     3.740130     3.732487     3.724844     3.717201     3.709558     3.701914
      3.694271     3.686628     3.678985     3.671341     3.663698     3.656055     3.648412     3.640769     3.633125     3.625482
      3.617839     3.610196     3.602552     3.594909     3.587266     3.579623     3.571980     3.564336     3.556693     3.549050
      3.541407     3.533763     3.526120     3.518477     3.510834     3.503191     3.495547     3.487904     3.480261     3.472618
      3.464974     3.457331     3.449688     3.442045     3.434402     3.426758     3.419115     3.411472     3.403829     3.396185
      3.388542     3.380899     3.373256     3.365613     3.357969     3.350326     3.342683     3.335040     3.327396     3.319753
      3.312110     3.304467     3.296824     3.289180     3.281537     3.273894     3.266251     3.258607     3.250964     3.243321
      3.235678     3.228034     3.220391     3.212748     3.205105     3.197462     3.189818     3.182175     3.174532     3.166889
      3.159245     3.151602     3.143959     3.136316     3.128673     3.121029     3.113386     3.105743     3.098100     3.090456
      3.082813     3.075170     3.067527     3.059884     3.052240     3.044597     3.036954     3.029311     3.021667     3.014024
      3.006381     2.998738     2.991095     2.983451     2.975808     2.968165     2.960522     2.952878     2.945235     2.937592
      2.929949     2.922306     2.914662     2.907019     2.899376     2.891733     2.884089     2.876446     2.868803     2.861160
      2.853517     2.845873     2.838230     2.830587     2.822944     2.815300     2.807657     2.800014     2.792371     2.784728
      2.777084     2.769441     2.761798     2.754155     2.746511     2.738868     2.731225     2.723582     2.715939     2.708295
      2.700652     2.693009     2.685366     2.677722     2.670079     2.662436     2.654793     2.647150     2.639506     2.631863
      2.624220     2.616577     2.608933     2.601290     2.593647     2.586004     2.578361     2.570717     2.563074     2.555431
      2.547788     2.540144     2.532501     2.524858     2.517215     2.509572     2.501928     2.494285     2.486642     2.478999
      2.471355     2.463712     2.456069     2.448426     2.440783     2.433139     2.425496     2.417853     2.410210     2.402566
      2.394923     2.387280     2.379637     2.371994     2.364350     2.356707     2.349064     2.341421     2.333777     2.326134
      2.318491     2.310848     2.303205     2.295561     2.287918     2.280275     2.272632     2.264988     2.257345     2.249702
      2.242059     2.234416     2.226772     2.219129     2.211486     2.203843     2.196199     2.188556     2.180913     2.173270
      2.165627     2.157983     2.150340     2.142697     2.135054     2.127410     2.119767     2.112124     2.104481     2.096838
      2.089194     2.081551     2.073908     2.066265     2.058621     2.050978     2.043335     2.035692     2.028049     2.020405
      2.012762     2.005119     1.997476     1.989833     1.982190     1.974546     1.966903     1.959260     1.951617     1.943974
      1.936331     1.928688     1.921045     1.913402     1.905759     1.898115     1.890472     1.882829     1.875186     1.867543
      1.859900     1.852257     1.844614     1.836971     1.829327     1.821684     1.814041     1.806398     1.798755     1.791112
      1.783469     1.775826     1.768183     1.760540     1.752896     1.745253     1.737610     1.729967     1.722324     1.714681
      1.707038     1.699395     1.691752     1.684108     1.676465     1.668822     1.661179     1.653536     1.645893     1.638250
      1.630607     1.622964     1.615321     1.607677     1.600034     1.592391     1.584748     1.577105     1.569462     1.561819
      1.554176     1.546533     1.538890     1.531246     1.523603     1.515960     1.508317     1.500674     1.493031     1.485388
      1.477745     1.470102     1.462458     1.454815     1.447172     1.439529     1.431886     1.424243     1.416600     1.408957
      1.401314     1.393671     1.386027     1.378384     1.370741     1.363098     1.355455     1.347812     1.340169     1.332526
      1.324883     1.317240     1.309596     1.301953     1.294310     1.286667     1.279024     1.271381     1.263738     1.256095
      1.248452     1.240808     1.233165     1.225522     1.217879     1.210236     1.202593     1.194950     1.187307     1.179664
      1.172021     1.164377     1.156734     1.149091     1.141448     1.133805     1.126162     1.118519     1.110876     1.103233
      1.095590     1.087946     1.080303     1.072660     1.065017     1.057374     1.049731     1.042088     1.034445     1.026802
      1.019158     1.011515     1.003872     0.996229     0.988586     0.980943     0.973300     0.965657     0.958014     0.950371
      0.942727     0.935084     0.927441     0.919798     0.912155     0.904512     0.896869     0.889226     0.881583     0.873940
      0.866296     0.858653     0.851010     0.843367     0.835724     0.828081     0.820438     0.812795     0.805152     0.797508
      0.789865     0.782222     0.774579     0.766936     0.759293     0.751650     0.744007     0.736364     0.728721     0.721077
      0.713434     0.705791     0.698148     0.690505     0.682862     0.675219     0.667576     0.659933     0.652290     0.644646
      0.637003     0.629360     0.621717     0.614074     0.606431     0.598788     0.591145     0.583502     0.575858     0.568215
      0.560572     0.552929     0.545286     0.537643     0.530000     0.522357     0.514714     0.507071     0.499427     0.491784
      0.484141     0.476498     0.468855     0.461212     0.453569     0.445925     0.438282     0.430639     0.422996     0.415353
      0.407710     0.400067     0.392424     0.384780     0.377137     0.369494     0.361851     0.354208     0.346565     0.338922
      0.331278     0.323635     0.315992     0.308349     0.300706     0.293063     0.285420     0.277777     0.270133     0.262490
      0.254847     0.247204     0.239561     0.231918     0.224275     0.216631     0.208988     0.201345
 NY phased data points follow
  -1.59224E+02 -1.54645E+02 -1.53035E+02 -1.48148E+02 -1.46086E+02 -1.42355E+02 -1.39595E+02 -1.37729E+02 -1.32219E+02 -1.26805E+02
  -1.26655E+02 -1.21345E+02 -1.25023E+02 -1.21301E+02 -1.26190E+02 -1.18399E+02 -1.25684E+02 -1.22701E+02 -1.25582E+02 -1.23132E+02
  -1.24451E+02 -1.20703E+02 -1.20244E+02 -1.15498E+02 -1.15499E+02 -1.12051E+02 -1.10993E+02 -1.06351E+02 -1.09277E+02 -1.04060E+02
  -1.03206E+02 -1.03137E+02 -1.04419E+02 -9.74296E+01 -1.01701E+02 -9.73793E+01 -1.02440E+02 -9.73991E+01 -9.89592E+01 -9.48992E+01
  -9.47439E+01 -9.26790E+01 -9.12535E+01 -9.21067E+01 -9.01307E+01 -8.81250E+01 -9.02786E+01 -8.48489E+01 -8.77941E+01 -8.55731E+01
  -8.91937E+01 -8.46848E+01 -8.58951E+01 -8.22657E+01 -8.35618E+01 -8.20302E+01 -8.30446E+01 -8.14248E+01 -8.09258E+01 -8.10742E+01
  -8.32580E+01 -8.08219E+01 -8.25851E+01 -7.64103E+01 -7.87540E+01 -7.72250E+01 -8.02354E+01 -7.43281E+01 -7.63045E+01 -7.46847E+01
  -7.68008E+01 -7.19180E+01 -7.28500E+01 -6.89889E+01 -6.78066E+01 -6.51767E+01 -7.16668E+01 -6.66667E+01 -7.02559E+01 -6.45011E+01
  -6.76166E+01 -6.45255E+01 -6.51579E+01 -6.15804E+01 -6.63032E+01 -6.44822E+01 -6.30439E+01 -6.07777E+01 -6.05141E+01 -5.95632E+01
  -5.88657E+01 -5.87116E+01 -5.68757E+01 -5.23452E+01 -5.93173E+01 -5.40813E+01 -5.39994E+01 -5.58040E+01 -5.46152E+01 -4.90282E+01
  -4.51487E+01 -4.45292E+01 -4.01314E+01 -4.22283E+01 -4.04092E+01 -4.20796E+01 -4.26470E+01 -4.60902E+01 -4.79819E+01 -4.46309E+01
  -4.88726E+01 -4.76578E+01 -5.09836E+01 -4.76789E+01 -5.11833E+01 -5.07138E+01 -4.93655E+01 -4.87452E+01 -5.09398E+01 -4.64912E+01
  -4.40760E+01 -4.56652E+01 -4.36099E+01 -3.73459E+01 -3.53785E+01 -3.10904E+01 -2.93530E+01 -2.91762E+01 -2.83418E+01 -2.81243E+01
  -3.28362E+01 -3.64034E+01 -4.22762E+01 -4.00058E+01 -4.20535E+01 -4.03300E+01 -4.61677E+01 -4.13912E+01 -4.32782E+01 -4.31192E+01
  -4.28751E+01 -3.96911E+01 -4.23234E+01 -3.83627E+01 -3.93175E+01 -4.18113E+01 -4.04941E+01 -3.74892E+01 -4.21900E+01 -4.08379E+01
  -4.20705E+01 -4.08254E+01 -4.13568E+01 -3.85594E+01 -3.87052E+01 -4.03275E+01 -3.66353E+01 -3.74290E+01 -3.68080E+01 -3.81534E+01
  -4.06932E+01 -3.81215E+01 -3.58315E+01 -3.50286E+01 -3.47973E+01 -3.69750E+01 -3.47214E+01 -3.67956E+01 -3.62632E+01 -3.41994E+01
  -3.65792E+01 -3.23837E+01 -3.61216E+01 -3.48608E+01 -3.64295E+01 -3.09540E+01 -3.20913E+01 -3.60599E+01 -3.61290E+01 -3.32308E+01
  -3.66979E+01 -3.36863E+01 -3.48214E+01 -3.14741E+01 -3.45245E+01 -3.04482E+01 -3.15045E+01 -3.18278E+01 -2.81661E+01 -2.56869E+01
  -2.84022E+01 -2.61959E+01 -2.86927E+01 -2.54471E+01 -2.61791E+01 -2.48733E+01 -2.25685E+01 -2.73153E+01 -3.03508E+01 -2.55570E+01
  -2.34626E+01 -2.14872E+01 -2.92828E+01 -2.58234E+01 -2.06216E+01 -2.13429E+01 -2.55189E+01 -2.41494E+01 -2.81927E+01 -2.42097E+01
  -2.52125E+01 -2.32269E+01 -2.04721E+01 -1.78502E+01 -1.86503E+01 -1.75903E+01 -2.02455E+01 -2.05322E+01 -2.16058E+01 -1.76722E+01
  -2.33532E+01 -2.32746E+01 -2.24188E+01 -2.14425E+01 -1.98506E+01 -2.04027E+01 -2.20930E+01 -1.71097E+01 -2.03835E+01 -2.08354E+01
  -1.78948E+01 -1.49675E+01 -1.62219E+01 -1.81752E+01 -1.62799E+01 -1.29652E+01 -1.69252E+01 -1.68987E+01 -1.42795E+01 -1.56739E+01
  -1.38163E+01 -1.75355E+01 -1.70279E+01 -1.58768E+01 -1.52050E+01 -1.42036E+01 -1.45710E+01 -1.80811E+01 -1.57382E+01 -1.20742E+01
  -1.20336E+01 -8.48209E+00 -1.00632E+01 -6.48711E+00 -1.09442E+01 -4.22516E+00  3.60574E+00  8.13200E+00  1.29891E+01  1.28185E+01
   1.26370E+01  1.52936E+01  1.07987E+01  6.89004E+00  5.77876E+00 -2.11287E+00 -4.13943E+00 -5.08405E+00 -6.26745E+00 -7.79678E+00
  -9.55621E+00 -1.10876E+01 -9.49512E+00 -1.17211E+01 -9.85092E+00 -6.33121E+00 -8.19478E+00 -7.25979E+00 -1.22944E+01 -7.23697E+00
  -4.18749E+00 -9.01293E+00 -1.07952E+01 -1.19957E+01 -9.99089E+00 -1.17554E+01 -8.81834E+00 -1.08671E+01 -8.24261E+00 -1.15616E+01
  -1.24754E+01 -1.18684E+01 -8.87863E+00 -1.12885E+01 -1.18773E+01 -7.06080E+00 -9.13374E+00 -7.24509E+00 -8.55046E+00 -6.99252E+00
  -9.10488E+00 -7.84260E+00 -9.36674E+00 -6.63209E+00 -3.60717E+00 -2.89925E+00 -5.49446E+00 -8.98797E+00 -8.38266E+00 -7.72777E+00
  -4.56590E+00 -6.34260E+00 -5.17702E+00 -4.50841E+00 -7.27294E+00 -7.67875E+00 -4.36587E+00 -5.67893E+00 -2.86869E+00 -4.60963E+00
  -1.98606E+00 -2.98580E+00 -4.39095E+00 -7.21160E+00 -5.28943E+00 -6.67162E+00 -4.87766E+00 -3.38850E+00 -3.92004E+00 -5.87175E+00
  -2.67520E+00 -4.48552E+00 -7.57101E+00 -8.55244E+00 -6.97376E+00 -3.95159E+00 -5.15068E+00 -6.77177E+00 -9.73166E+00 -3.96982E+00
  -9.16830E+00 -5.84893E+00 -6.77331E+00 -8.01674E+00 -8.36574E+00 -7.27308E+00 -9.99097E+00 -1.29899E+01 -9.86607E+00 -1.45946E+01
  -1.28944E+01 -1.62867E+01 -1.51192E+01 -1.58299E+01 -1.67276E+01 -1.49502E+01 -1.78586E+01 -1.98936E+01 -1.80680E+01 -1.79186E+01
  -1.89947E+01 -2.28782E+01 -1.74106E+01 -1.87257E+01 -1.90239E+01 -2.19670E+01 -1.54948E+01 -1.84877E+01 -1.78281E+01 -1.66100E+01
  -1.78455E+01 -1.78448E+01 -1.77353E+01 -1.46613E+01 -1.80212E+01 -1.76895E+01 -1.97282E+01 -1.90762E+01 -1.63509E+01 -1.73650E+01
  -1.65880E+01 -1.83856E+01 -1.66710E+01 -1.58234E+01 -1.57221E+01 -1.20883E+01 -1.43914E+01 -1.37488E+01 -1.59221E+01 -1.36331E+01
  -1.54242E+01 -1.50207E+01 -1.46440E+01 -1.20908E+01 -1.50898E+01 -1.08619E+01 -9.04547E+00 -1.00931E+01 -1.12652E+01 -1.10714E+01
  -1.17404E+01 -1.39861E+01 -8.79331E+00 -1.39915E+01 -9.44798E+00 -1.12724E+01 -8.41048E+00 -8.03775E+00 -1.25877E+01 -7.69928E+00
  -9.62806E+00 -6.95862E+00 -1.04009E+01 -7.82519E+00 -8.84828E+00 -8.82754E+00 -8.96335E+00 -1.02492E+01 -1.23513E+01 -1.19486E+01
  -1.09309E+01 -1.48719E+01 -1.15352E+01 -9.63442E+00 -1.17119E+01 -1.22586E+01 -1.22164E+01 -1.15953E+01 -9.16357E+00 -9.39386E+00
  -1.01132E+01 -1.00615E+01 -8.68703E+00 -1.17914E+01 -1.10179E+01 -7.59766E+00 -1.05922E+01 -1.46092E+01 -8.69852E+00 -7.57524E+00
  -9.60548E+00 -9.70345E+00 -6.65042E+00 -1.12861E+01 -9.67946E+00 -8.44417E+00 -1.17836E+01 -1.02926E+01 -1.33462E+01 -8.89853E+00
  -6.85929E+00 -7.53721E+00 -1.16372E+01 -9.02615E+00 -9.66453E+00 -8.04174E+00 -9.77803E+00 -9.12015E+00 -8.77944E+00 -8.37603E+00
  -7.27715E+00 -4.95547E+00 -8.57719E+00 -9.16978E+00 -8.23228E+00 -1.10669E+01 -5.31665E+00 -6.37251E+00 -9.58113E+00 -1.00520E+01
  -6.55458E+00 -8.85998E+00 -8.15764E+00 -1.12664E+01 -1.01418E+01 -6.14407E+00 -8.53226E+00 -8.24035E+00 -8.83102E+00 -8.09675E+00
  -9.56403E+00 -9.70801E+00 -4.44567E+00 -5.43687E+00 -3.93900E+00 -5.86694E+00 -7.79413E+00 -6.94503E+00 -7.80199E+00 -7.31026E+00
  -6.65626E+00 -7.65724E+00 -8.49876E+00 -8.22402E+00 -5.90964E+00 -5.76003E+00 -5.58930E+00 -3.41845E+00
 NY points of the fit to the data follow
  -1.49818E+02 -1.49078E+02 -1.47427E+02 -1.45243E+02 -1.42770E+02 -1.42554E+02 -1.40536E+02 -1.36205E+02 -1.32649E+02 -1.29275E+02
  -1.27332E+02 -1.25812E+02 -1.23896E+02 -1.22986E+02 -1.23880E+02 -1.22336E+02 -1.24901E+02 -1.22969E+02 -1.22762E+02 -1.21458E+02
  -1.22154E+02 -1.20867E+02 -1.18469E+02 -1.17915E+02 -1.16859E+02 -1.13967E+02 -1.11470E+02 -1.08801E+02 -1.06582E+02 -1.04542E+02
  -1.02413E+02 -1.01302E+02 -1.01052E+02 -9.98777E+01 -1.02074E+02 -1.01652E+02 -1.01896E+02 -1.00970E+02 -1.00421E+02 -9.98221E+01
  -9.82708E+01 -9.70945E+01 -9.48593E+01 -9.21581E+01 -9.04991E+01 -8.93641E+01 -8.86958E+01 -8.75247E+01 -8.75304E+01 -8.76971E+01
  -8.74822E+01 -8.74145E+01 -8.71898E+01 -8.61774E+01 -8.51676E+01 -8.44564E+01 -8.34557E+01 -8.24103E+01 -8.12625E+01 -8.03826E+01
  -7.98964E+01 -7.92411E+01 -7.86593E+01 -7.80985E+01 -7.73461E+01 -7.67534E+01 -7.56646E+01 -7.47420E+01 -7.37471E+01 -7.29442E+01
  -7.21955E+01 -7.13774E+01 -7.05750E+01 -7.00254E+01 -6.92714E+01 -6.89343E+01 -6.83449E+01 -6.79211E+01 -6.71693E+01 -6.64663E+01
  -6.63294E+01 -6.56211E+01 -6.46507E+01 -6.39815E+01 -6.33525E+01 -6.29907E+01 -6.26485E+01 -6.20416E+01 -6.16773E+01 -6.15413E+01
  -6.07316E+01 -6.07380E+01 -5.99800E+01 -5.96718E+01 -5.87314E+01 -5.67737E+01 -5.49496E+01 -5.53964E+01 -5.27893E+01 -4.84935E+01
  -4.51051E+01 -4.22110E+01 -4.13676E+01 -4.08636E+01 -4.00686E+01 -4.19069E+01 -4.33773E+01 -4.45464E+01 -4.80030E+01 -4.80150E+01
  -4.88888E+01 -4.89420E+01 -5.09011E+01 -5.11642E+01 -5.09511E+01 -5.07242E+01 -5.04215E+01 -5.00418E+01 -4.94061E+01 -4.69969E+01
  -4.46772E+01 -4.54261E+01 -4.28253E+01 -3.78643E+01 -3.41875E+01 -3.05621E+01 -2.97321E+01 -2.95588E+01 -2.83941E+01 -2.99879E+01
  -3.24915E+01 -3.29495E+01 -3.82597E+01 -3.83487E+01 -4.01122E+01 -4.03485E+01 -4.29514E+01 -4.30510E+01 -4.28921E+01 -4.21319E+01
  -4.14831E+01 -4.10329E+01 -4.06254E+01 -4.04318E+01 -4.01680E+01 -3.99387E+01 -3.98774E+01 -3.96509E+01 -3.96190E+01 -3.94668E+01
  -3.95023E+01 -3.93925E+01 -3.92025E+01 -3.91072E+01 -3.88488E+01 -3.85598E+01 -3.83761E+01 -3.81630E+01 -3.81305E+01 -3.79507E+01
  -3.75765E+01 -3.72687E+01 -3.70146E+01 -3.66399E+01 -3.64754E+01 -3.61371E+01 -3.58838E+01 -3.58687E+01 -3.57060E+01 -3.56568E+01
  -3.52737E+01 -3.51829E+01 -3.51893E+01 -3.51685E+01 -3.50244E+01 -3.46045E+01 -3.43998E+01 -3.43462E+01 -3.41131E+01 -3.38309E+01
  -3.35651E+01 -3.29792E+01 -3.29492E+01 -3.24931E+01 -3.20771E+01 -3.12980E+01 -3.05109E+01 -2.96011E+01 -2.89753E+01 -2.83101E+01
  -2.79755E+01 -2.75211E+01 -2.75094E+01 -2.78504E+01 -2.79479E+01 -2.78931E+01 -2.74002E+01 -2.67867E+01 -2.59736E+01 -2.51426E+01
  -2.40966E+01 -2.33786E+01 -2.29428E+01 -2.27733E+01 -2.24921E+01 -2.34661E+01 -2.41504E+01 -2.46380E+01 -2.47673E+01 -2.46321E+01
  -2.47241E+01 -2.33696E+01 -2.12805E+01 -2.03859E+01 -1.97666E+01 -1.94477E+01 -1.93548E+01 -1.97713E+01 -2.20121E+01 -2.23797E+01
  -2.36426E+01 -2.35437E+01 -2.29358E+01 -2.23321E+01 -2.13380E+01 -2.01757E+01 -1.90635E+01 -1.82881E+01 -1.78074E+01 -1.77082E+01
  -1.68371E+01 -1.66197E+01 -1.62360E+01 -1.57715E+01 -1.53738E+01 -1.54108E+01 -1.51614E+01 -1.50191E+01 -1.51878E+01 -1.58601E+01
  -1.58930E+01 -1.58365E+01 -1.60005E+01 -1.57670E+01 -1.56204E+01 -1.45594E+01 -1.48509E+01 -1.41979E+01 -1.39899E+01 -1.33193E+01
  -1.33419E+01 -1.20789E+01 -8.41996E+00 -5.58478E+00 -6.86708E+00 -3.49282E+00  3.23105E+00  7.92316E+00  1.22017E+01  1.29579E+01
   1.33293E+01  1.40552E+01  1.07275E+01  6.98654E+00  5.17177E+00 -1.93222E+00 -2.39373E+00 -4.79415E+00 -5.24143E+00 -9.28633E+00
  -1.02243E+01 -1.04303E+01 -1.04049E+01 -1.04787E+01 -1.02544E+01 -1.02219E+01 -1.02033E+01 -1.02054E+01 -1.02590E+01 -1.03249E+01
  -1.03583E+01 -1.03820E+01 -1.04081E+01 -1.04066E+01 -1.04142E+01 -1.03570E+01 -1.03149E+01 -1.02436E+01 -1.01749E+01 -1.00779E+01
  -9.97445E+00 -9.86483E+00 -9.73716E+00 -9.58278E+00 -9.42263E+00 -9.24041E+00 -9.02839E+00 -8.80436E+00 -8.55906E+00 -8.30379E+00
  -8.03425E+00 -7.76408E+00 -7.49626E+00 -7.23553E+00 -6.99005E+00 -6.76498E+00 -6.56491E+00 -6.39283E+00 -6.25377E+00 -6.14381E+00
  -6.06506E+00 -6.01097E+00 -5.97967E+00 -5.96042E+00 -5.94684E+00 -5.92583E+00 -5.88611E+00 -5.80721E+00 -5.65612E+00 -5.36164E+00
  -5.17353E+00 -5.26831E+00 -4.87350E+00 -4.37987E+00 -4.31733E+00 -4.40921E+00 -4.87392E+00 -5.16955E+00 -5.11132E+00 -5.76253E+00
  -6.42752E+00 -6.23684E+00 -6.48036E+00 -5.76449E+00 -5.62227E+00 -5.48756E+00 -5.62353E+00 -5.53238E+00 -6.02911E+00 -6.09620E+00
  -7.09227E+00 -7.69050E+00 -8.50910E+00 -9.03530E+00 -9.90534E+00 -1.07665E+01 -1.14999E+01 -1.21673E+01 -1.27826E+01 -1.33471E+01
  -1.38636E+01 -1.43311E+01 -1.47529E+01 -1.51289E+01 -1.54632E+01 -1.57566E+01 -1.60135E+01 -1.62356E+01 -1.64276E+01 -1.65909E+01
  -1.67299E+01 -1.68453E+01 -1.69410E+01 -1.70177E+01 -1.70791E+01 -1.71254E+01 -1.71594E+01 -1.71806E+01 -1.71916E+01 -1.71917E+01
  -1.71830E+01 -1.71641E+01 -1.71367E+01 -1.70992E+01 -1.70531E+01 -1.69967E+01 -1.69313E+01 -1.68546E+01 -1.67674E+01 -1.66676E+01
  -1.65559E+01 -1.64299E+01 -1.62898E+01 -1.61330E+01 -1.59596E+01 -1.57670E+01 -1.55557E+01 -1.53233E+01 -1.50704E+01 -1.47950E+01
  -1.44989E+01 -1.41814E+01 -1.38455E+01 -1.34921E+01 -1.31256E+01 -1.27487E+01 -1.23677E+01 -1.19871E+01 -1.16143E+01 -1.12547E+01
  -1.09161E+01 -1.06038E+01 -1.03250E+01 -1.00839E+01 -9.88560E+00 -9.73153E+00 -9.62409E+00 -9.56183E+00 -9.54421E+00 -9.56674E+00
  -9.62602E+00 -9.71531E+00 -9.82968E+00 -9.96158E+00 -1.01058E+01 -1.02550E+01 -1.04044E+01 -1.05479E+01 -1.06825E+01 -1.08037E+01
  -1.09104E+01 -1.09998E+01 -1.10720E+01 -1.11259E+01 -1.11629E+01 -1.11829E+01 -1.11880E+01 -1.11784E+01 -1.11565E+01 -1.11227E+01
  -1.10796E+01 -1.10275E+01 -1.09687E+01 -1.09031E+01 -1.08327E+01 -1.07575E+01 -1.06795E+01 -1.05981E+01 -1.05150E+01 -1.04297E+01
  -1.03434E+01 -1.02558E+01 -1.01681E+01 -1.00797E+01 -9.99167E+00 -9.90322E+00 -9.81555E+00 -9.72798E+00 -9.64163E+00 -9.55561E+00
  -9.47091E+00 -9.38673E+00 -9.30416E+00 -9.22243E+00 -9.14240E+00 -9.06309E+00 -8.98530E+00 -8.90816E+00 -8.83261E+00 -8.75778E+00
  -8.68442E+00 -8.61156E+00 -8.53998E+00 -8.46889E+00 -8.39913E+00 -8.32982E+00 -8.26167E+00 -8.19372E+00 -8.12679E+00 -8.06008E+00
  -7.99440E+00 -7.92885E+00 -7.86407E+00 -7.79919E+00 -7.73502E+00 -7.67079E+00 -7.60722E+00 -7.54342E+00 -7.48001E+00 -7.41620E+00
  -7.35277E+00 -7.28896E+00 -7.22542E+00 -7.16126E+00 -7.09713E+00 -7.03228E+00 -6.96747E+00 -6.90192E+00 -6.83623E+00 -6.76955E+00
  -6.70250E+00 -6.63443E+00 -6.56602E+00 -6.49650E+00 -6.42639E+00 -6.35491E+00 -6.28268E+00 -6.20909E+00
 NY background values follow
    -1.517E+02   -1.504E+02   -1.491E+02   -1.478E+02   -1.465E+02   -1.452E+02   -1.439E+02   -1.425E+02   -1.412E+02   -1.399E+02
    -1.386E+02   -1.373E+02   -1.360E+02   -1.348E+02   -1.335E+02   -1.322E+02   -1.309E+02   -1.297E+02   -1.284E+02   -1.271E+02
    -1.259E+02   -1.246E+02   -1.234E+02   -1.222E+02   -1.209E+02   -1.197E+02   -1.185E+02   -1.173E+02   -1.161E+02   -1.149E+02
    -1.137E+02   -1.125E+02   -1.114E+02   -1.102E+02   -1.091E+02   -1.079E+02   -1.068E+02   -1.057E+02   -1.046E+02   -1.035E+02
    -1.024E+02   -1.013E+02   -1.003E+02   -9.920E+01   -9.816E+01   -9.713E+01   -9.611E+01   -9.510E+01   -9.411E+01   -9.313E+01
    -9.216E+01   -9.120E+01   -9.026E+01   -8.932E+01   -8.840E+01   -8.749E+01   -8.659E+01   -8.570E+01   -8.483E+01   -8.396E+01
    -8.311E+01   -8.227E+01   -8.143E+01   -8.061E+01   -7.980E+01   -7.901E+01   -7.822E+01   -7.744E+01   -7.668E+01   -7.592E+01
    -7.518E+01   -7.445E+01   -7.372E+01   -7.301E+01   -7.231E+01   -7.162E+01   -7.093E+01   -7.026E+01   -6.960E+01   -6.895E+01
    -6.831E+01   -6.768E+01   -6.706E+01   -6.644E+01   -6.584E+01   -6.525E+01   -6.467E+01   -6.409E+01   -6.353E+01   -6.297E+01
    -6.243E+01   -6.189E+01   -6.137E+01   -6.085E+01   -6.034E+01   -5.984E+01   -5.935E+01   -5.886E+01   -5.839E+01   -5.792E+01
    -5.746E+01   -5.701E+01   -5.656E+01   -5.612E+01   -5.569E+01   -5.527E+01   -5.485E+01   -5.443E+01   -5.403E+01   -5.363E+01
    -5.323E+01   -5.284E+01   -5.246E+01   -5.208E+01   -5.171E+01   -5.134E+01   -5.098E+01   -5.062E+01   -5.026E+01   -4.991E+01
    -4.956E+01   -4.922E+01   -4.888E+01   -4.854E+01   -4.820E+01   -4.787E+01   -4.754E+01   -4.722E+01   -4.689E+01   -4.657E+01
    -4.625E+01   -4.594E+01   -4.562E+01   -4.530E+01   -4.499E+01   -4.468E+01   -4.437E+01   -4.405E+01   -4.374E+01   -4.343E+01
    -4.312E+01   -4.282E+01   -4.251E+01   -4.220E+01   -4.190E+01   -4.159E+01   -4.129E+01   -4.098E+01   -4.068E+01   -4.038E+01
    -4.008E+01   -3.977E+01   -3.947E+01   -3.918E+01   -3.888E+01   -3.858E+01   -3.828E+01   -3.799E+01   -3.769E+01   -3.740E+01
    -3.710E+01   -3.681E+01   -3.652E+01   -3.623E+01   -3.594E+01   -3.565E+01   -3.536E+01   -3.507E+01   -3.479E+01   -3.450E+01
    -3.422E+01   -3.393E+01   -3.365E+01   -3.337E+01   -3.309E+01   -3.281E+01   -3.253E+01   -3.225E+01   -3.197E+01   -3.169E+01
    -3.142E+01   -3.114E+01   -3.087E+01   -3.059E+01   -3.032E+01   -3.005E+01   -2.978E+01   -2.951E+01   -2.924E+01   -2.898E+01
    -2.871E+01   -2.845E+01   -2.818E+01   -2.792E+01   -2.766E+01   -2.740E+01   -2.714E+01   -2.688E+01   -2.662E+01   -2.636E+01
    -2.611E+01   -2.585E+01   -2.560E+01   -2.535E+01   -2.510E+01   -2.485E+01   -2.460E+01   -2.436E+01   -2.411E+01   -2.387E+01
    -2.362E+01   -2.338E+01   -2.314E+01   -2.290E+01   -2.266E+01   -2.242E+01   -2.219E+01   -2.196E+01   -2.172E+01   -2.149E+01
    -2.126E+01   -2.103E+01   -2.081E+01   -2.058E+01   -2.035E+01   -2.013E+01   -1.991E+01   -1.969E+01   -1.947E+01   -1.925E+01
    -1.904E+01   -1.882E+01   -1.861E+01   -1.840E+01   -1.819E+01   -1.799E+01   -1.778E+01   -1.758E+01   -1.738E+01   -1.719E+01
    -1.699E+01   -1.680E+01   -1.661E+01   -1.642E+01   -1.624E+01   -1.605E+01   -1.587E+01   -1.570E+01   -1.552E+01   -1.535E+01
    -1.519E+01   -1.502E+01   -1.486E+01   -1.470E+01   -1.455E+01   -1.440E+01   -1.425E+01   -1.411E+01   -1.397E+01   -1.383E+01
    -1.370E+01   -1.357E+01   -1.344E+01   -1.332E+01   -1.320E+01   -1.309E+01   -1.298E+01   -1.288E+01   -1.278E+01   -1.268E+01
    -1.259E+01   -1.251E+01   -1.242E+01   -1.235E+01   -1.227E+01   -1.221E+01   -1.214E+01   -1.208E+01   -1.203E+01   -1.198E+01
    -1.193E+01   -1.189E+01   -1.186E+01   -1.182E+01   -1.180E+01   -1.177E+01   -1.175E+01   -1.174E+01   -1.173E+01   -1.172E+01
    -1.172E+01   -1.172E+01   -1.173E+01   -1.174E+01   -1.175E+01   -1.177E+01   -1.179E+01   -1.182E+01   -1.185E+01   -1.189E+01
    -1.193E+01   -1.197E+01   -1.202E+01   -1.207E+01   -1.212E+01   -1.218E+01   -1.225E+01   -1.231E+01   -1.238E+01   -1.246E+01
    -1.254E+01   -1.262E+01   -1.271E+01   -1.279E+01   -1.289E+01   -1.299E+01   -1.309E+01   -1.319E+01   -1.330E+01   -1.341E+01
    -1.353E+01   -1.364E+01   -1.376E+01   -1.388E+01   -1.401E+01   -1.413E+01   -1.426E+01   -1.439E+01   -1.452E+01   -1.465E+01
    -1.479E+01   -1.492E+01   -1.505E+01   -1.518E+01   -1.532E+01   -1.545E+01   -1.558E+01   -1.571E+01   -1.584E+01   -1.597E+01
    -1.609E+01   -1.622E+01   -1.634E+01   -1.646E+01   -1.658E+01   -1.670E+01   -1.681E+01   -1.692E+01   -1.702E+01   -1.712E+01
    -1.722E+01   -1.732E+01   -1.740E+01   -1.749E+01   -1.757E+01   -1.764E+01   -1.771E+01   -1.778E+01   -1.784E+01   -1.789E+01
    -1.794E+01   -1.797E+01   -1.801E+01   -1.803E+01   -1.805E+01   -1.807E+01   -1.807E+01   -1.808E+01   -1.807E+01   -1.806E+01
    -1.804E+01   -1.802E+01   -1.799E+01   -1.796E+01   -1.792E+01   -1.788E+01   -1.783E+01   -1.778E+01   -1.772E+01   -1.766E+01
    -1.760E+01   -1.753E+01   -1.745E+01   -1.737E+01   -1.729E+01   -1.721E+01   -1.712E+01   -1.703E+01   -1.694E+01   -1.684E+01
    -1.674E+01   -1.664E+01   -1.653E+01   -1.642E+01   -1.631E+01   -1.620E+01   -1.609E+01   -1.597E+01   -1.585E+01   -1.574E+01
    -1.562E+01   -1.550E+01   -1.537E+01   -1.525E+01   -1.513E+01   -1.500E+01   -1.488E+01   -1.475E+01   -1.463E+01   -1.450E+01
    -1.437E+01   -1.425E+01   -1.412E+01   -1.400E+01   -1.387E+01   -1.374E+01   -1.362E+01   -1.349E+01   -1.337E+01   -1.324E+01
    -1.312E+01   -1.299E+01   -1.287E+01   -1.274E+01   -1.262E+01   -1.250E+01   -1.238E+01   -1.226E+01   -1.213E+01   -1.201E+01
    -1.190E+01   -1.178E+01   -1.166E+01   -1.154E+01   -1.143E+01   -1.131E+01   -1.120E+01   -1.109E+01   -1.097E+01   -1.086E+01
    -1.075E+01   -1.065E+01   -1.054E+01   -1.043E+01   -1.033E+01   -1.023E+01   -1.013E+01   -1.003E+01   -9.929E+00   -9.832E+00
    -9.737E+00   -9.644E+00   -9.553E+00   -9.463E+00   -9.375E+00   -9.289E+00   -9.204E+00   -9.120E+00   -9.039E+00   -8.958E+00
    -8.879E+00   -8.801E+00   -8.724E+00   -8.649E+00   -8.574E+00   -8.501E+00   -8.428E+00   -8.356E+00   -8.286E+00   -8.215E+00
    -8.146E+00   -8.077E+00   -8.009E+00   -7.941E+00   -7.874E+00   -7.807E+00   -7.740E+00   -7.674E+00   -7.608E+00   -7.542E+00
    -7.476E+00   -7.410E+00   -7.344E+00   -7.278E+00   -7.211E+00   -7.145E+00   -7.078E+00   -7.010E+00   -6.943E+00   -6.874E+00
    -6.806E+00   -6.736E+00   -6.666E+00   -6.595E+00   -6.523E+00   -6.451E+00   -6.377E+00   -6.303E+00
 Ala      Conc. = 1.89E+02
