 LCModel (Version 6.3-1L) Copyright: S.W. Provencher.          Ref.: Magn. Reson. Med. 30:672-679 (1993).                
 Slice#1 Row#6 Col#5  PD_24_press_1_raw_act
 36 lines in following concentration table = NCONC+1
    Conc.  %SD /Cr+PCr  Metabolite                                         
   70.134 132% 7.4E-02 Ala                                                 
  207.497  90%   0.219 Asp                                                 
  111.565 175%   0.118 Cr                                                  
  836.136  24%   0.882 PCr                                                 
    0.000 999%   0.000 GABA                                                
   64.913 193% 6.8E-02 Glc                                                 
  504.725  37%   0.533 Gln                                                 
 1.12E+03  19%   1.177 Glu                                                 
  171.409 117%   0.181 GPC                                                 
  291.120  70%   0.307 PCh                                                 
  139.787  47%   0.148 GSH                                                 
  915.925  25%   0.966 Ins                                                 
    0.000 999%   0.000 Lac                                                 
 1.98E+03   5%   2.091 NAA                                                 
   26.084 369% 2.8E-02 NAAG                                                
  128.933  19%   0.136 Scyllo                                              
  240.319  75%   0.254 Tau                                                 
  202.427  54%   0.214 -CrCH2                                              
  462.529   4%   0.488 GPC+PCh                                             
 2.01E+03   4%   2.118 NAA+NAAG                                            
  947.701   5%   1.000 Cr+PCr                                              
 1.62E+03  17%   1.710 Glu+Gln                                             
 3.18E+03  26%   3.361 Lip13a                                              
    0.000 999%   0.000 Lip13b                                              
  302.466 124%   0.319 Lip09                                               
 1.82E+03  22%   1.923 MM09                                                
  270.594  96%   0.286 Lip20                                               
 3.46E+03  12%   3.647 MM20                                                
  651.299  37%   0.687 MM12                                                
 2.72E+03  22%   2.873 MM14                                                
 1.18E+03  24%   1.250 MM17                                                
 3.18E+03  26%   3.361 Lip13a+Lip13b                                       
 6.56E+03   7%   6.921 MM14+Lip13a+Lip13b+MM12                             
 2.12E+03   9%   2.242 MM09+Lip09                                          
 3.73E+03  10%   3.933 MM20+Lip20                                          
   6 lines in following misc. output table
  FWHM = 0.046 ppm    S/N =  12                                            
  Data shift = 0.008 ppm                                                   
  Ph: -67 deg     -10.9 deg/ppm                                            
  alphaB,S = 8.5E+01,   1.3E+02                                            
   14 spline knots.   Ns = 6(1)                                            
   2 inflections.     1 extrema                                            
  498 points on ppm-axis = NY
      4.000000     3.992357     3.984714     3.977070     3.969427     3.961784     3.954141     3.946497     3.938854     3.931211
      3.923568     3.915925     3.908281     3.900638     3.892995     3.885352     3.877708     3.870065     3.862422     3.854779
      3.847136     3.839492     3.831849     3.824206     3.816563     3.808919     3.801276     3.793633     3.785990     3.778347
      3.770703     3.763060     3.755417     3.747774     3.740130     3.732487     3.724844     3.717201     3.709558     3.701914
      3.694271     3.686628     3.678985     3.671341     3.663698     3.656055     3.648412     3.640769     3.633125     3.625482
      3.617839     3.610196     3.602552     3.594909     3.587266     3.579623     3.571980     3.564336     3.556693     3.549050
      3.541407     3.533763     3.526120     3.518477     3.510834     3.503191     3.495547     3.487904     3.480261     3.472618
      3.464974     3.457331     3.449688     3.442045     3.434402     3.426758     3.419115     3.411472     3.403829     3.396185
      3.388542     3.380899     3.373256     3.365613     3.357969     3.350326     3.342683     3.335040     3.327396     3.319753
      3.312110     3.304467     3.296824     3.289180     3.281537     3.273894     3.266251     3.258607     3.250964     3.243321
      3.235678     3.228034     3.220391     3.212748     3.205105     3.197462     3.189818     3.182175     3.174532     3.166889
      3.159245     3.151602     3.143959     3.136316     3.128673     3.121029     3.113386     3.105743     3.098100     3.090456
      3.082813     3.075170     3.067527     3.059884     3.052240     3.044597     3.036954     3.029311     3.021667     3.014024
      3.006381     2.998738     2.991095     2.983451     2.975808     2.968165     2.960522     2.952878     2.945235     2.937592
      2.929949     2.922306     2.914662     2.907019     2.899376     2.891733     2.884089     2.876446     2.868803     2.861160
      2.853517     2.845873     2.838230     2.830587     2.822944     2.815300     2.807657     2.800014     2.792371     2.784728
      2.777084     2.769441     2.761798     2.754155     2.746511     2.738868     2.731225     2.723582     2.715939     2.708295
      2.700652     2.693009     2.685366     2.677722     2.670079     2.662436     2.654793     2.647150     2.639506     2.631863
      2.624220     2.616577     2.608933     2.601290     2.593647     2.586004     2.578361     2.570717     2.563074     2.555431
      2.547788     2.540144     2.532501     2.524858     2.517215     2.509572     2.501928     2.494285     2.486642     2.478999
      2.471355     2.463712     2.456069     2.448426     2.440783     2.433139     2.425496     2.417853     2.410210     2.402566
      2.394923     2.387280     2.379637     2.371994     2.364350     2.356707     2.349064     2.341421     2.333777     2.326134
      2.318491     2.310848     2.303205     2.295561     2.287918     2.280275     2.272632     2.264988     2.257345     2.249702
      2.242059     2.234416     2.226772     2.219129     2.211486     2.203843     2.196199     2.188556     2.180913     2.173270
      2.165627     2.157983     2.150340     2.142697     2.135054     2.127410     2.119767     2.112124     2.104481     2.096838
      2.089194     2.081551     2.073908     2.066265     2.058621     2.050978     2.043335     2.035692     2.028049     2.020405
      2.012762     2.005119     1.997476     1.989833     1.982190     1.974546     1.966903     1.959260     1.951617     1.943974
      1.936331     1.928688     1.921045     1.913402     1.905759     1.898115     1.890472     1.882829     1.875186     1.867543
      1.859900     1.852257     1.844614     1.836971     1.829327     1.821684     1.814041     1.806398     1.798755     1.791112
      1.783469     1.775826     1.768183     1.760540     1.752896     1.745253     1.737610     1.729967     1.722324     1.714681
      1.707038     1.699395     1.691752     1.684108     1.676465     1.668822     1.661179     1.653536     1.645893     1.638250
      1.630607     1.622964     1.615321     1.607677     1.600034     1.592391     1.584748     1.577105     1.569462     1.561819
      1.554176     1.546533     1.538890     1.531246     1.523603     1.515960     1.508317     1.500674     1.493031     1.485388
      1.477745     1.470102     1.462458     1.454815     1.447172     1.439529     1.431886     1.424243     1.416600     1.408957
      1.401314     1.393671     1.386027     1.378384     1.370741     1.363098     1.355455     1.347812     1.340169     1.332526
      1.324883     1.317240     1.309596     1.301953     1.294310     1.286667     1.279024     1.271381     1.263738     1.256095
      1.248452     1.240808     1.233165     1.225522     1.217879     1.210236     1.202593     1.194950     1.187307     1.179664
      1.172021     1.164377     1.156734     1.149091     1.141448     1.133805     1.126162     1.118519     1.110876     1.103233
      1.095590     1.087946     1.080303     1.072660     1.065017     1.057374     1.049731     1.042088     1.034445     1.026802
      1.019158     1.011515     1.003872     0.996229     0.988586     0.980943     0.973300     0.965657     0.958014     0.950371
      0.942727     0.935084     0.927441     0.919798     0.912155     0.904512     0.896869     0.889226     0.881583     0.873940
      0.866296     0.858653     0.851010     0.843367     0.835724     0.828081     0.820438     0.812795     0.805152     0.797508
      0.789865     0.782222     0.774579     0.766936     0.759293     0.751650     0.744007     0.736364     0.728721     0.721077
      0.713434     0.705791     0.698148     0.690505     0.682862     0.675219     0.667576     0.659933     0.652290     0.644646
      0.637003     0.629360     0.621717     0.614074     0.606431     0.598788     0.591145     0.583502     0.575858     0.568215
      0.560572     0.552929     0.545286     0.537643     0.530000     0.522357     0.514714     0.507071     0.499427     0.491784
      0.484141     0.476498     0.468855     0.461212     0.453569     0.445925     0.438282     0.430639     0.422996     0.415353
      0.407710     0.400067     0.392424     0.384780     0.377137     0.369494     0.361851     0.354208     0.346565     0.338922
      0.331278     0.323635     0.315992     0.308349     0.300706     0.293063     0.285420     0.277777     0.270133     0.262490
      0.254847     0.247204     0.239561     0.231918     0.224275     0.216631     0.208988     0.201345
 NY phased data points follow
  -1.71875E+01 -1.35062E+01 -1.73657E+01 -1.60052E+01 -1.61147E+01 -8.74980E+00 -9.65845E+00 -6.40743E+00  2.29114E+00  4.89048E+00
   1.02834E+01  8.11275E+00  2.38264E+00  1.62592E+00 -1.90593E+00 -8.01105E+00 -1.45981E+01 -8.55552E+00 -1.51320E+01 -1.03306E+01
  -5.84578E+00 -1.36019E+01 -9.93218E+00 -8.95036E+00 -1.14085E+01 -1.13820E+01 -5.97195E+00 -9.98782E+00 -8.63441E+00 -3.74568E+00
  -7.73369E+00 -9.65450E+00 -7.38232E+00 -7.13429E+00 -1.09286E+01 -8.52454E+00 -1.05537E+01 -7.95150E+00 -7.47469E+00 -6.09239E+00
  -7.46748E+00 -8.31859E+00 -6.44554E+00 -3.86726E+00 -6.01627E+00 -2.67185E+00 -1.31914E+00 -2.02906E+00 -1.98280E+00 -5.93327E+00
  -7.41074E+00 -1.16474E+01 -9.54077E+00 -9.06740E+00 -5.52426E+00 -6.07703E+00 -1.06998E+01 -7.20092E+00 -8.48508E+00 -5.72983E+00
  -1.06526E+01  2.00869E-01 -1.02856E+01 -6.25202E+00 -1.28190E+01 -1.27088E+01 -1.45317E+01 -6.75609E+00 -1.79661E+01 -9.71279E+00
  -5.22086E+00 -1.12185E+01 -1.27869E+01 -8.13362E+00 -5.31568E+00 -1.28065E+01 -6.80535E+00 -7.73282E+00 -1.21258E+01 -8.31892E+00
  -7.18523E+00 -6.53144E+00 -5.88366E+00 -4.49315E+00 -5.58768E+00 -9.17072E+00 -9.13611E+00 -9.35021E-01 -6.37306E+00  2.07916E+00
  -4.37217E+00 -4.44225E+00 -3.30003E+00  2.09928E+00 -2.26334E+00 -2.06946E+00 -2.53077E+00 -4.18647E+00 -1.78021E+00  6.42855E+00
   1.21617E+01  2.74962E+01  3.99593E+01  4.05964E+01  3.97218E+01  2.90943E+01  1.30423E+01  7.41915E+00  5.87577E+00  5.98436E-01
  -2.01294E+00 -3.66921E+00 -4.10026E+00 -4.45578E+00 -3.84826E+00 -4.24090E+00 -6.09431E+00 -5.44769E+00 -9.34690E+00 -5.04877E+00
  -6.71119E+00 -9.15897E+00 -5.53072E+00 -5.46826E-01  9.24094E+00  1.53615E+01  2.57309E+01  2.65112E+01  3.16861E+01  2.17244E+01
   1.57468E+01  1.08585E+01 -4.33258E-01  3.50791E-01  8.34048E-01 -2.75344E+00 -6.34521E+00 -5.78441E+00 -4.73732E+00 -5.15381E+00
  -5.77023E+00 -8.54240E+00 -7.14695E+00 -6.96399E+00 -1.29819E+01 -8.47482E+00 -8.27596E+00 -1.22929E+01 -1.00255E+01 -9.92051E+00
  -1.13733E+01 -1.29552E+01 -9.43175E+00 -7.88081E+00 -1.49227E+01 -1.00701E+01 -3.29341E+00 -1.30693E+01 -6.79066E+00 -8.68008E+00
  -1.21466E+01 -8.43596E+00 -1.12953E+01 -9.63952E+00 -8.36463E+00 -9.97847E+00 -4.28522E+00 -9.30711E+00 -1.00119E+01 -1.16950E+01
  -1.29456E+01 -1.59747E+01 -1.48111E+01 -1.50249E+01 -1.44037E+01 -1.84659E+01 -1.57431E+01 -2.36834E+01 -1.48652E+01 -1.39017E+01
  -1.54311E+01 -1.68422E+01 -1.30499E+01 -1.54560E+01 -9.19031E+00 -1.49263E+01 -1.24964E+01 -1.07778E+01 -8.55208E+00 -1.29980E+01
  -1.08856E+01 -6.78433E+00 -1.26321E+01 -6.81030E+00 -9.41833E+00 -6.60478E+00 -1.20121E+01 -1.17689E+01 -1.05364E+01 -1.36512E+01
  -7.34445E+00 -6.51500E+00 -3.26687E+00 -7.39860E+00  1.86800E+00  7.38349E-01 -9.14131E+00 -5.72590E+00 -5.49905E+00 -4.83758E+00
  -4.41931E+00 -5.43008E+00 -4.29660E+00 -2.80707E-01  4.15561E+00  3.56195E+00  9.62321E+00  8.04836E+00  2.03547E+00  6.32484E-01
  -1.28582E+00 -9.50761E+00 -7.94690E+00 -6.34657E+00 -6.82469E+00 -1.26992E+00 -2.80326E+00 -2.55319E+00 -1.36494E+00  4.63037E+00
  -2.21565E+00  2.34040E+00 -4.13398E-01  6.64516E-01 -2.64345E+00  2.88408E+00  2.13949E+00 -2.14594E+00  2.74896E-01  5.09062E+00
   3.87557E+00 -5.78978E-01 -6.63247E-01 -1.60767E+00 -2.22990E+00  3.47300E+00  4.83192E+00  8.81199E+00  4.82593E+00  9.35309E+00
   9.46578E+00  3.41100E+00  8.78744E+00  1.28515E+01  1.36118E+01  2.17330E+01  2.83403E+01  3.21381E+01  4.66321E+01  6.58865E+01
   8.38000E+01  8.07934E+01  7.30683E+01  5.16277E+01  3.85431E+01  2.01057E+01  1.22983E+01  1.30933E+01  1.11430E+01  5.71602E+00
   7.51871E+00 -1.13311E+00  1.88187E+00  1.63211E+00  6.48297E+00  2.34871E+00  4.51145E-01  3.26952E+00 -1.45313E+00 -6.17400E-01
   1.99761E+00 -1.17134E+00 -3.12891E+00  1.81820E+00 -4.15388E+00  1.62387E-01 -1.33594E+00  1.81431E+00  1.56157E+00 -1.17775E+00
   2.64149E+00  3.61283E+00 -1.85375E-02 -3.22413E+00 -1.06589E-01 -2.14947E+00 -4.98143E+00 -4.79240E+00 -5.95881E+00 -2.63746E+00
   5.30566E-01  1.94699E+00  2.31436E+00  2.31223E+00  4.70912E-01  1.03353E+00  5.64576E+00  1.77008E+00  1.19436E+00  4.58834E+00
   5.70755E+00  5.28345E+00  6.93853E+00  4.74898E+00  8.42538E+00  4.06142E+00  5.10139E+00  4.10005E+00  6.98693E+00  7.51003E+00
   5.88202E+00  8.55960E+00  7.32522E+00  1.01412E+01  7.88916E+00  4.86925E+00  1.05612E+01  1.08008E+01  8.28455E+00  7.47054E+00
   1.02212E+01  1.05591E+01  5.97829E+00  1.25707E+01  1.18042E+01  1.22654E+01  1.19846E+01  9.38172E+00  1.37307E+01  1.16391E+01
   1.68777E+01  1.53128E+01  1.66831E+01  1.89565E+01  2.07049E+01  1.98336E+01  1.85871E+01  1.67242E+01  1.45990E+01  1.84453E+01
   2.03742E+01  1.53725E+01  1.67860E+01  1.83116E+01  1.43905E+01  1.28030E+01  1.64816E+01  1.18762E+01  1.18914E+01  1.12047E+01
   9.18093E+00  9.78385E+00  5.38720E+00  6.85487E+00  1.00355E+01  8.83424E+00  8.51780E+00  1.10051E+01  8.20178E+00  8.45329E+00
   1.39530E+01  7.61919E+00  1.02967E+01  9.29622E+00  6.05830E+00  6.79170E+00  1.23488E+00  1.97579E+00  5.94720E+00 -7.73671E-01
   7.83422E+00  1.61426E+00  6.86126E+00 -7.75367E-02  6.97432E+00  6.90424E+00  2.54345E+00  7.52785E+00  3.96577E+00  7.16387E+00
   7.63503E+00  2.12499E+00  3.01220E+00  3.48422E+00  8.60343E+00  4.38969E+00  6.48774E+00  6.58837E+00  1.21146E+01  6.10656E+00
   1.02890E+01  8.98693E+00  9.26560E+00  1.16559E+01  1.33706E+01  1.31931E+01  1.16517E+01  1.41808E+01  1.10457E+01  1.42747E+01
   1.01921E+01  1.42813E+01  9.76923E+00  1.11508E+01  8.20812E+00  4.06770E+00  4.46379E+00 -4.41750E+00  1.32343E+00 -6.93843E-01
   5.57412E-02 -2.76167E-01 -4.05917E+00 -1.50212E+00 -2.71133E+00 -3.96255E+00 -2.30073E+00 -1.50273E+00 -1.61469E+00  1.29526E+00
  -1.32838E+00  8.68298E-02 -3.08841E+00 -5.57102E+00 -3.67057E+00 -7.14973E+00 -3.88319E+00 -8.22585E+00 -2.48335E+00 -6.91974E+00
  -2.57214E+00 -7.51747E+00 -1.68783E+00  2.99492E-01 -4.47943E+00 -5.48899E+00 -4.91896E+00 -5.63962E+00 -2.68759E+00 -6.40322E+00
  -7.11847E+00 -2.60105E+00 -1.49786E+00 -4.80150E+00 -1.66258E+00 -3.29957E+00 -4.26212E+00  3.68283E-01 -1.61193E+00  2.08854E+00
  -9.84216E+00 -1.87188E+00  3.13331E-01 -3.19193E+00 -4.22531E+00 -3.53356E+00 -4.45849E-01 -5.22176E+00 -7.61490E+00 -1.68781E+00
  -2.41823E+00 -3.57330E+00  2.01308E+00 -6.98777E+00 -6.75713E+00 -4.72303E+00 -6.78659E+00 -2.27136E-01  6.18628E-02 -5.17239E+00
   1.38896E+00  1.74109E+00 -7.44303E+00 -4.87369E+00 -1.34566E+00 -4.30283E+00 -2.41876E+00 -3.04390E+00 -6.36185E+00 -3.09565E+00
  -2.83693E+00 -5.21908E+00 -5.74615E+00 -4.62694E+00 -6.09614E+00 -1.90225E+00 -3.50550E+00 -7.98824E+00
 NY points of the fit to the data follow
  -1.18324E+01 -1.21247E+01 -1.23106E+01 -1.21645E+01 -1.11930E+01 -9.47752E+00 -6.88732E+00 -3.20018E+00  1.23035E+00  5.16982E+00
   7.19818E+00  6.62904E+00  3.88724E+00  2.13086E-01 -3.18145E+00 -5.71894E+00 -7.64069E+00 -9.11171E+00 -9.86267E+00 -1.01750E+01
  -1.01839E+01 -1.00068E+01 -9.82348E+00 -9.77991E+00 -9.83412E+00 -9.96066E+00 -1.00384E+01 -9.85356E+00 -9.21292E+00 -8.09868E+00
  -6.75176E+00 -5.51739E+00 -4.71024E+00 -4.57238E+00 -5.17798E+00 -6.33219E+00 -7.82465E+00 -9.34116E+00 -1.04596E+01 -1.10192E+01
  -1.09496E+01 -1.02968E+01 -9.22917E+00 -7.86162E+00 -6.23599E+00 -4.48782E+00 -3.06046E+00 -2.58189E+00 -3.32914E+00 -4.99969E+00
  -6.95988E+00 -8.60662E+00 -9.66424E+00 -1.01803E+01 -1.02803E+01 -9.99489E+00 -9.42024E+00 -8.70788E+00 -8.01562E+00 -7.54524E+00
  -7.45006E+00 -7.76954E+00 -8.39805E+00 -9.07112E+00 -9.54871E+00 -9.72398E+00 -9.61728E+00 -9.32426E+00 -8.98156E+00 -8.62633E+00
  -8.26614E+00 -7.96001E+00 -7.73517E+00 -7.59236E+00 -7.54350E+00 -7.63519E+00 -7.92352E+00 -8.37795E+00 -8.92371E+00 -9.38457E+00
  -9.59613E+00 -9.38490E+00 -8.75953E+00 -7.86913E+00 -6.68736E+00 -5.25879E+00 -3.89985E+00 -3.12682E+00 -3.28864E+00 -4.29709E+00
  -5.69201E+00 -7.02139E+00 -8.04306E+00 -8.75661E+00 -9.31063E+00 -9.53799E+00 -8.83031E+00 -6.04279E+00 -1.07050E+00  6.15660E+00
   1.59905E+01  2.73036E+01  3.67718E+01  4.07421E+01  3.77830E+01  2.94183E+01  1.90816E+01  9.92325E+00  3.25545E+00 -1.44889E+00
  -4.86154E+00 -6.52391E+00 -7.15273E+00 -7.48108E+00 -7.68678E+00 -7.83112E+00 -7.92203E+00 -7.96915E+00 -7.96645E+00 -7.87817E+00
  -7.54010E+00 -6.17056E+00 -3.15484E+00  1.37959E+00  7.72306E+00  1.57053E+01  2.35564E+01  2.84621E+01  2.85007E+01  2.38949E+01
   1.67447E+01  9.60362E+00  4.00910E+00  1.91964E-02 -3.07496E+00 -5.15267E+00 -6.04984E+00 -6.44625E+00 -6.55255E+00 -6.48832E+00
  -6.38045E+00 -6.31415E+00 -6.31595E+00 -6.37783E+00 -6.47361E+00 -6.60254E+00 -6.78508E+00 -7.01548E+00 -7.26919E+00 -7.50349E+00
  -7.69557E+00 -7.84731E+00 -7.96207E+00 -8.04472E+00 -8.09967E+00 -8.18571E+00 -8.36555E+00 -8.65411E+00 -9.07558E+00 -9.57860E+00
  -1.00323E+01 -1.02654E+01 -1.01333E+01 -9.67470E+00 -9.13506E+00 -8.81509E+00 -8.86304E+00 -9.20938E+00 -9.66189E+00 -1.00947E+01
  -1.04995E+01 -1.09100E+01 -1.13218E+01 -1.17099E+01 -1.20659E+01 -1.23453E+01 -1.24125E+01 -1.21957E+01 -1.18344E+01 -1.15584E+01
  -1.14771E+01 -1.15186E+01 -1.15107E+01 -1.13165E+01 -1.10313E+01 -1.07742E+01 -1.04005E+01 -9.73732E+00 -8.75729E+00 -7.68648E+00
  -6.86964E+00 -6.46013E+00 -6.44142E+00 -6.64108E+00 -6.83392E+00 -6.91522E+00 -6.88548E+00 -6.71074E+00 -6.32439E+00 -5.68824E+00
  -4.84004E+00 -3.88232E+00 -2.99665E+00 -2.45673E+00 -2.59157E+00 -3.47625E+00 -5.05241E+00 -7.09410E+00 -9.08300E+00 -1.03844E+01
  -1.06209E+01 -9.75432E+00 -7.98311E+00 -5.54126E+00 -2.79232E+00 -3.51033E-01  9.76404E-01  6.28576E-01 -1.32976E+00 -4.16147E+00
  -7.05941E+00 -9.37437E+00 -1.05077E+01 -1.01065E+01 -8.26953E+00 -5.54878E+00 -2.85431E+00 -7.85791E-01  4.57293E-01  9.63828E-01
   9.52347E-01  6.70815E-01  3.83246E-01  3.33657E-01  6.38130E-01  1.29686E+00  2.18244E+00  3.05578E+00  3.67935E+00  3.87346E+00
   3.60117E+00  3.06954E+00  2.65237E+00  2.64868E+00  3.15294E+00  4.06514E+00  5.10816E+00  6.03983E+00  6.77162E+00  7.31981E+00
   7.77315E+00  8.26132E+00  8.91965E+00  9.97870E+00  1.25075E+01  1.80658E+01  2.63020E+01  3.75805E+01  5.22029E+01  6.75990E+01
   7.82504E+01  7.94465E+01  7.05643E+01  5.52007E+01  3.88098E+01  2.54183E+01  1.60205E+01  9.27238E+00  4.58435E+00  2.56144E+00
   1.62957E+00  1.01127E+00  5.98575E-01  3.56602E-01  1.88327E-01  2.08351E-02 -1.89178E-01 -4.54877E-01 -7.57412E-01 -1.06397E+00
  -1.35049E+00 -1.59851E+00 -1.78904E+00 -1.91799E+00 -1.99859E+00 -2.04604E+00 -2.06862E+00 -2.06644E+00 -2.03575E+00 -1.97629E+00
  -1.88419E+00 -1.75549E+00 -1.59008E+00 -1.39033E+00 -1.15842E+00 -8.96103E-01 -6.05157E-01 -2.88406E-01  5.17813E-02  4.12174E-01
   7.88806E-01  1.17679E+00  1.57051E+00  1.96319E+00  2.34777E+00  2.71764E+00  3.06755E+00  3.39353E+00  3.69321E+00  3.96523E+00
   4.20927E+00  4.42651E+00  4.62019E+00  4.79488E+00  4.95659E+00  5.11237E+00  5.27038E+00  5.43965E+00  5.63033E+00  5.85387E+00
   6.12576E+00  6.46749E+00  6.87103E+00  7.31169E+00  7.77539E+00  8.21782E+00  8.56600E+00  8.77571E+00  8.87961E+00  8.99247E+00
   9.24330E+00  9.68482E+00  1.03224E+01  1.11361E+01  1.20734E+01  1.30472E+01  1.39226E+01  1.45923E+01  1.50511E+01  1.53561E+01
   1.55787E+01  1.57601E+01  1.58989E+01  1.60034E+01  1.60952E+01  1.61613E+01  1.61938E+01  1.61903E+01  1.61497E+01  1.60718E+01
   1.59562E+01  1.58027E+01  1.56109E+01  1.53805E+01  1.51109E+01  1.48016E+01  1.44528E+01  1.40647E+01  1.36386E+01  1.31758E+01
   1.26787E+01  1.21501E+01  1.15938E+01  1.10142E+01  1.04162E+01  9.80534E+00  9.18725E+00  8.56786E+00  7.95337E+00  7.34989E+00
   6.76342E+00  6.19960E+00  5.66383E+00  5.16111E+00  4.69625E+00  4.27356E+00  3.89701E+00  3.57008E+00  3.29609E+00  3.07805E+00
   2.91889E+00  2.82124E+00  2.78754E+00  2.81989E+00  2.92024E+00  3.09007E+00  3.33041E+00  3.64133E+00  4.02191E+00  4.46982E+00
   4.98130E+00  5.55068E+00  6.17029E+00  6.83009E+00  7.51782E+00  8.21903E+00  8.91750E+00  9.59541E+00  1.02340E+01  1.08142E+01
   1.13174E+01  1.17264E+01  1.20261E+01  1.22046E+01  1.22534E+01  1.21680E+01  1.19481E+01  1.15982E+01  1.11264E+01  1.05448E+01
   9.86832E+00  9.11399E+00  8.30040E+00  7.44657E+00  6.57124E+00  5.69195E+00  4.82457E+00  3.98276E+00  3.17789E+00  2.41873E+00
   1.71159E+00  1.06027E+00  4.66549E-01 -6.96721E-02 -5.49831E-01 -9.76567E-01 -1.35329E+00 -1.68402E+00 -1.97299E+00 -2.22448E+00
  -2.44257E+00 -2.63121E+00 -2.79404E+00 -2.93446E+00 -3.05542E+00 -3.15955E+00 -3.24907E+00 -3.32601E+00 -3.39205E+00 -3.44875E+00
  -3.49732E+00 -3.53881E+00 -3.57408E+00 -3.60393E+00 -3.62904E+00 -3.65003E+00 -3.66734E+00 -3.68136E+00 -3.69242E+00 -3.70088E+00
  -3.70702E+00 -3.71111E+00 -3.71328E+00 -3.71371E+00 -3.71254E+00 -3.70997E+00 -3.70612E+00 -3.70113E+00 -3.69501E+00 -3.68788E+00
  -3.67980E+00 -3.67092E+00 -3.66126E+00 -3.65090E+00 -3.63982E+00 -3.62809E+00 -3.61576E+00 -3.60294E+00 -3.58961E+00 -3.57582E+00
  -3.56152E+00 -3.54679E+00 -3.53166E+00 -3.51621E+00 -3.50038E+00 -3.48419E+00 -3.46764E+00 -3.45078E+00 -3.43365E+00 -3.41627E+00
  -3.39860E+00 -3.38064E+00 -3.36238E+00 -3.34391E+00 -3.32520E+00 -3.30628E+00 -3.28708E+00 -3.26762E+00 -3.24790E+00 -3.22798E+00
  -3.20784E+00 -3.18745E+00 -3.16677E+00 -3.14581E+00 -3.12457E+00 -3.10308E+00 -3.08129E+00 -3.05915E+00
 NY background values follow
    -1.258E+01   -1.256E+01   -1.254E+01   -1.252E+01   -1.251E+01   -1.249E+01   -1.247E+01   -1.245E+01   -1.243E+01   -1.241E+01
    -1.239E+01   -1.237E+01   -1.235E+01   -1.233E+01   -1.231E+01   -1.229E+01   -1.227E+01   -1.225E+01   -1.224E+01   -1.222E+01
    -1.220E+01   -1.218E+01   -1.216E+01   -1.214E+01   -1.212E+01   -1.210E+01   -1.208E+01   -1.206E+01   -1.204E+01   -1.202E+01
    -1.200E+01   -1.198E+01   -1.196E+01   -1.194E+01   -1.192E+01   -1.190E+01   -1.189E+01   -1.187E+01   -1.185E+01   -1.183E+01
    -1.181E+01   -1.179E+01   -1.177E+01   -1.175E+01   -1.173E+01   -1.171E+01   -1.169E+01   -1.167E+01   -1.165E+01   -1.163E+01
    -1.161E+01   -1.159E+01   -1.157E+01   -1.155E+01   -1.153E+01   -1.151E+01   -1.149E+01   -1.147E+01   -1.145E+01   -1.143E+01
    -1.141E+01   -1.140E+01   -1.138E+01   -1.136E+01   -1.134E+01   -1.132E+01   -1.130E+01   -1.128E+01   -1.126E+01   -1.124E+01
    -1.122E+01   -1.120E+01   -1.118E+01   -1.116E+01   -1.114E+01   -1.112E+01   -1.110E+01   -1.108E+01   -1.106E+01   -1.104E+01
    -1.102E+01   -1.100E+01   -1.098E+01   -1.096E+01   -1.094E+01   -1.092E+01   -1.090E+01   -1.088E+01   -1.086E+01   -1.084E+01
    -1.082E+01   -1.080E+01   -1.078E+01   -1.076E+01   -1.074E+01   -1.072E+01   -1.070E+01   -1.068E+01   -1.066E+01   -1.064E+01
    -1.062E+01   -1.060E+01   -1.058E+01   -1.056E+01   -1.054E+01   -1.052E+01   -1.050E+01   -1.048E+01   -1.046E+01   -1.044E+01
    -1.042E+01   -1.040E+01   -1.038E+01   -1.036E+01   -1.034E+01   -1.032E+01   -1.030E+01   -1.028E+01   -1.026E+01   -1.024E+01
    -1.022E+01   -1.020E+01   -1.018E+01   -1.016E+01   -1.014E+01   -1.012E+01   -1.010E+01   -1.008E+01   -1.006E+01   -1.004E+01
    -1.002E+01   -9.998E+00   -9.977E+00   -9.957E+00   -9.937E+00   -9.917E+00   -9.897E+00   -9.876E+00   -9.856E+00   -9.836E+00
    -9.816E+00   -9.795E+00   -9.775E+00   -9.755E+00   -9.735E+00   -9.714E+00   -9.694E+00   -9.674E+00   -9.653E+00   -9.633E+00
    -9.613E+00   -9.593E+00   -9.572E+00   -9.552E+00   -9.532E+00   -9.511E+00   -9.491E+00   -9.471E+00   -9.450E+00   -9.430E+00
    -9.410E+00   -9.389E+00   -9.369E+00   -9.348E+00   -9.328E+00   -9.308E+00   -9.287E+00   -9.267E+00   -9.247E+00   -9.226E+00
    -9.206E+00   -9.185E+00   -9.165E+00   -9.144E+00   -9.124E+00   -9.104E+00   -9.083E+00   -9.063E+00   -9.042E+00   -9.022E+00
    -9.001E+00   -8.981E+00   -8.961E+00   -8.940E+00   -8.920E+00   -8.899E+00   -8.879E+00   -8.858E+00   -8.838E+00   -8.817E+00
    -8.797E+00   -8.776E+00   -8.756E+00   -8.735E+00   -8.715E+00   -8.694E+00   -8.674E+00   -8.653E+00   -8.633E+00   -8.612E+00
    -8.591E+00   -8.571E+00   -8.550E+00   -8.530E+00   -8.509E+00   -8.489E+00   -8.468E+00   -8.448E+00   -8.427E+00   -8.406E+00
    -8.386E+00   -8.365E+00   -8.345E+00   -8.324E+00   -8.303E+00   -8.283E+00   -8.262E+00   -8.242E+00   -8.221E+00   -8.200E+00
    -8.180E+00   -8.159E+00   -8.139E+00   -8.118E+00   -8.097E+00   -8.077E+00   -8.056E+00   -8.035E+00   -8.015E+00   -7.994E+00
    -7.973E+00   -7.953E+00   -7.932E+00   -7.911E+00   -7.891E+00   -7.870E+00   -7.849E+00   -7.829E+00   -7.808E+00   -7.787E+00
    -7.767E+00   -7.746E+00   -7.725E+00   -7.705E+00   -7.684E+00   -7.663E+00   -7.643E+00   -7.622E+00   -7.601E+00   -7.580E+00
    -7.560E+00   -7.539E+00   -7.518E+00   -7.498E+00   -7.477E+00   -7.456E+00   -7.435E+00   -7.415E+00   -7.394E+00   -7.373E+00
    -7.353E+00   -7.332E+00   -7.311E+00   -7.290E+00   -7.270E+00   -7.249E+00   -7.228E+00   -7.207E+00   -7.187E+00   -7.166E+00
    -7.145E+00   -7.124E+00   -7.103E+00   -7.083E+00   -7.062E+00   -7.041E+00   -7.020E+00   -7.000E+00   -6.979E+00   -6.958E+00
    -6.937E+00   -6.916E+00   -6.896E+00   -6.875E+00   -6.854E+00   -6.833E+00   -6.813E+00   -6.792E+00   -6.771E+00   -6.750E+00
    -6.729E+00   -6.709E+00   -6.688E+00   -6.667E+00   -6.646E+00   -6.625E+00   -6.604E+00   -6.584E+00   -6.563E+00   -6.542E+00
    -6.521E+00   -6.500E+00   -6.480E+00   -6.459E+00   -6.438E+00   -6.417E+00   -6.396E+00   -6.375E+00   -6.355E+00   -6.334E+00
    -6.313E+00   -6.292E+00   -6.271E+00   -6.250E+00   -6.230E+00   -6.209E+00   -6.188E+00   -6.167E+00   -6.146E+00   -6.125E+00
    -6.105E+00   -6.084E+00   -6.063E+00   -6.042E+00   -6.021E+00   -6.000E+00   -5.980E+00   -5.959E+00   -5.938E+00   -5.917E+00
    -5.896E+00   -5.875E+00   -5.855E+00   -5.834E+00   -5.813E+00   -5.792E+00   -5.771E+00   -5.750E+00   -5.729E+00   -5.709E+00
    -5.688E+00   -5.667E+00   -5.646E+00   -5.625E+00   -5.604E+00   -5.583E+00   -5.563E+00   -5.542E+00   -5.521E+00   -5.500E+00
    -5.479E+00   -5.458E+00   -5.437E+00   -5.417E+00   -5.396E+00   -5.375E+00   -5.354E+00   -5.333E+00   -5.312E+00   -5.291E+00
    -5.271E+00   -5.250E+00   -5.229E+00   -5.208E+00   -5.187E+00   -5.166E+00   -5.146E+00   -5.125E+00   -5.104E+00   -5.083E+00
    -5.062E+00   -5.041E+00   -5.020E+00   -5.000E+00   -4.979E+00   -4.958E+00   -4.937E+00   -4.916E+00   -4.895E+00   -4.874E+00
    -4.854E+00   -4.833E+00   -4.812E+00   -4.791E+00   -4.770E+00   -4.749E+00   -4.729E+00   -4.708E+00   -4.687E+00   -4.666E+00
    -4.645E+00   -4.624E+00   -4.604E+00   -4.583E+00   -4.562E+00   -4.541E+00   -4.520E+00   -4.499E+00   -4.479E+00   -4.458E+00
    -4.437E+00   -4.416E+00   -4.395E+00   -4.374E+00   -4.354E+00   -4.333E+00   -4.312E+00   -4.291E+00   -4.270E+00   -4.250E+00
    -4.229E+00   -4.208E+00   -4.187E+00   -4.166E+00   -4.146E+00   -4.125E+00   -4.104E+00   -4.083E+00   -4.062E+00   -4.042E+00
    -4.021E+00   -4.000E+00   -3.979E+00   -3.958E+00   -3.938E+00   -3.917E+00   -3.896E+00   -3.875E+00   -3.854E+00   -3.834E+00
    -3.813E+00   -3.792E+00   -3.771E+00   -3.751E+00   -3.730E+00   -3.709E+00   -3.688E+00   -3.667E+00   -3.647E+00   -3.626E+00
    -3.605E+00   -3.584E+00   -3.564E+00   -3.543E+00   -3.522E+00   -3.501E+00   -3.481E+00   -3.460E+00   -3.439E+00   -3.419E+00
    -3.398E+00   -3.377E+00   -3.356E+00   -3.336E+00   -3.315E+00   -3.294E+00   -3.273E+00   -3.253E+00   -3.232E+00   -3.211E+00
    -3.191E+00   -3.170E+00   -3.149E+00   -3.129E+00   -3.108E+00   -3.087E+00   -3.066E+00   -3.046E+00   -3.025E+00   -3.004E+00
    -2.984E+00   -2.963E+00   -2.942E+00   -2.922E+00   -2.901E+00   -2.880E+00   -2.860E+00   -2.839E+00   -2.818E+00   -2.798E+00
    -2.777E+00   -2.757E+00   -2.736E+00   -2.715E+00   -2.695E+00   -2.674E+00   -2.653E+00   -2.633E+00   -2.612E+00   -2.592E+00
    -2.571E+00   -2.550E+00   -2.530E+00   -2.509E+00   -2.489E+00   -2.468E+00   -2.447E+00   -2.427E+00
 Ala      Conc. = 7.01E+01
