 LCModel (Version 6.3-1L) Copyright: S.W. Provencher.          Ref.: Magn. Reson. Med. 30:672-679 (1993).                
 Slice#2 Row#11 Col#7  PD_24_press_1_raw_act
 36 lines in following concentration table = NCONC+1
    Conc.  %SD /Cr+PCr  Metabolite                                         
    0.000 999%   0.000 Ala                                                 
    0.000 999%   0.000 Asp                                                 
 1.02E+03  21%   0.636 Cr                                                  
  584.452  37%   0.364 PCr                                                 
    0.000 999%   0.000 GABA                                                
   71.283 205% 4.4E-02 Glc                                                 
  739.544  31%   0.460 Gln                                                 
 1.85E+03  14%   1.152 Glu                                                 
  529.565   4%   0.329 GPC                                                 
    0.000 999%   0.000 PCh                                                 
  726.057  10%   0.452 GSH                                                 
 1.90E+03  13%   1.183 Ins                                                 
   99.229 130% 6.2E-02 Lac                                                 
 2.22E+03   6%   1.380 NAA                                                 
  166.463  91%   0.104 NAAG                                                
  103.057  25% 6.4E-02 Scyllo                                              
    0.000 999%   0.000 Tau                                                 
    0.000 999%   0.000 -CrCH2                                              
  529.565   4%   0.329 GPC+PCh                                             
 2.38E+03   4%   1.483 NAA+NAAG                                            
 1.61E+03   4%   1.000 Cr+PCr                                              
 2.59E+03  15%   1.612 Glu+Gln                                             
 3.02E+03  25%   1.880 Lip13a                                              
  302.895  66%   0.188 Lip13b                                              
  506.749  77%   0.315 Lip09                                               
 1.42E+03  27%   0.883 MM09                                                
  629.321  43%   0.391 Lip20                                               
 2.63E+03  16%   1.635 MM20                                                
  510.653  53%   0.318 MM12                                                
 1.99E+03  25%   1.236 MM14                                                
 1.69E+03  20%   1.049 MM17                                                
 3.33E+03  21%   2.069 Lip13a+Lip13b                                       
 5.82E+03   8%   3.623 MM14+Lip13a+Lip13b+MM12                             
 1.93E+03  11%   1.199 MM09+Lip09                                          
 3.26E+03  12%   2.027 MM20+Lip20                                          
   6 lines in following misc. output table
  FWHM = 0.061 ppm    S/N =  12                                            
  Data shift = 0.008 ppm                                                   
  Ph:   9 deg      11.2 deg/ppm                                            
  alphaB,S = 5.1E+00,   4.6E+01                                            
   14 spline knots.   Ns = 7(1)                                            
  (10) 2 infls.   ( 3) 1 extrs.                                            
  498 points on ppm-axis = NY
      4.000000     3.992357     3.984714     3.977070     3.969427     3.961784     3.954141     3.946497     3.938854     3.931211
      3.923568     3.915925     3.908281     3.900638     3.892995     3.885352     3.877708     3.870065     3.862422     3.854779
      3.847136     3.839492     3.831849     3.824206     3.816563     3.808919     3.801276     3.793633     3.785990     3.778347
      3.770703     3.763060     3.755417     3.747774     3.740130     3.732487     3.724844     3.717201     3.709558     3.701914
      3.694271     3.686628     3.678985     3.671341     3.663698     3.656055     3.648412     3.640769     3.633125     3.625482
      3.617839     3.610196     3.602552     3.594909     3.587266     3.579623     3.571980     3.564336     3.556693     3.549050
      3.541407     3.533763     3.526120     3.518477     3.510834     3.503191     3.495547     3.487904     3.480261     3.472618
      3.464974     3.457331     3.449688     3.442045     3.434402     3.426758     3.419115     3.411472     3.403829     3.396185
      3.388542     3.380899     3.373256     3.365613     3.357969     3.350326     3.342683     3.335040     3.327396     3.319753
      3.312110     3.304467     3.296824     3.289180     3.281537     3.273894     3.266251     3.258607     3.250964     3.243321
      3.235678     3.228034     3.220391     3.212748     3.205105     3.197462     3.189818     3.182175     3.174532     3.166889
      3.159245     3.151602     3.143959     3.136316     3.128673     3.121029     3.113386     3.105743     3.098100     3.090456
      3.082813     3.075170     3.067527     3.059884     3.052240     3.044597     3.036954     3.029311     3.021667     3.014024
      3.006381     2.998738     2.991095     2.983451     2.975808     2.968165     2.960522     2.952878     2.945235     2.937592
      2.929949     2.922306     2.914662     2.907019     2.899376     2.891733     2.884089     2.876446     2.868803     2.861160
      2.853517     2.845873     2.838230     2.830587     2.822944     2.815300     2.807657     2.800014     2.792371     2.784728
      2.777084     2.769441     2.761798     2.754155     2.746511     2.738868     2.731225     2.723582     2.715939     2.708295
      2.700652     2.693009     2.685366     2.677722     2.670079     2.662436     2.654793     2.647150     2.639506     2.631863
      2.624220     2.616577     2.608933     2.601290     2.593647     2.586004     2.578361     2.570717     2.563074     2.555431
      2.547788     2.540144     2.532501     2.524858     2.517215     2.509572     2.501928     2.494285     2.486642     2.478999
      2.471355     2.463712     2.456069     2.448426     2.440783     2.433139     2.425496     2.417853     2.410210     2.402566
      2.394923     2.387280     2.379637     2.371994     2.364350     2.356707     2.349064     2.341421     2.333777     2.326134
      2.318491     2.310848     2.303205     2.295561     2.287918     2.280275     2.272632     2.264988     2.257345     2.249702
      2.242059     2.234416     2.226772     2.219129     2.211486     2.203843     2.196199     2.188556     2.180913     2.173270
      2.165627     2.157983     2.150340     2.142697     2.135054     2.127410     2.119767     2.112124     2.104481     2.096838
      2.089194     2.081551     2.073908     2.066265     2.058621     2.050978     2.043335     2.035692     2.028049     2.020405
      2.012762     2.005119     1.997476     1.989833     1.982190     1.974546     1.966903     1.959260     1.951617     1.943974
      1.936331     1.928688     1.921045     1.913402     1.905759     1.898115     1.890472     1.882829     1.875186     1.867543
      1.859900     1.852257     1.844614     1.836971     1.829327     1.821684     1.814041     1.806398     1.798755     1.791112
      1.783469     1.775826     1.768183     1.760540     1.752896     1.745253     1.737610     1.729967     1.722324     1.714681
      1.707038     1.699395     1.691752     1.684108     1.676465     1.668822     1.661179     1.653536     1.645893     1.638250
      1.630607     1.622964     1.615321     1.607677     1.600034     1.592391     1.584748     1.577105     1.569462     1.561819
      1.554176     1.546533     1.538890     1.531246     1.523603     1.515960     1.508317     1.500674     1.493031     1.485388
      1.477745     1.470102     1.462458     1.454815     1.447172     1.439529     1.431886     1.424243     1.416600     1.408957
      1.401314     1.393671     1.386027     1.378384     1.370741     1.363098     1.355455     1.347812     1.340169     1.332526
      1.324883     1.317240     1.309596     1.301953     1.294310     1.286667     1.279024     1.271381     1.263738     1.256095
      1.248452     1.240808     1.233165     1.225522     1.217879     1.210236     1.202593     1.194950     1.187307     1.179664
      1.172021     1.164377     1.156734     1.149091     1.141448     1.133805     1.126162     1.118519     1.110876     1.103233
      1.095590     1.087946     1.080303     1.072660     1.065017     1.057374     1.049731     1.042088     1.034445     1.026802
      1.019158     1.011515     1.003872     0.996229     0.988586     0.980943     0.973300     0.965657     0.958014     0.950371
      0.942727     0.935084     0.927441     0.919798     0.912155     0.904512     0.896869     0.889226     0.881583     0.873940
      0.866296     0.858653     0.851010     0.843367     0.835724     0.828081     0.820438     0.812795     0.805152     0.797508
      0.789865     0.782222     0.774579     0.766936     0.759293     0.751650     0.744007     0.736364     0.728721     0.721077
      0.713434     0.705791     0.698148     0.690505     0.682862     0.675219     0.667576     0.659933     0.652290     0.644646
      0.637003     0.629360     0.621717     0.614074     0.606431     0.598788     0.591145     0.583502     0.575858     0.568215
      0.560572     0.552929     0.545286     0.537643     0.530000     0.522357     0.514714     0.507071     0.499427     0.491784
      0.484141     0.476498     0.468855     0.461212     0.453569     0.445925     0.438282     0.430639     0.422996     0.415353
      0.407710     0.400067     0.392424     0.384780     0.377137     0.369494     0.361851     0.354208     0.346565     0.338922
      0.331278     0.323635     0.315992     0.308349     0.300706     0.293063     0.285420     0.277777     0.270133     0.262490
      0.254847     0.247204     0.239561     0.231918     0.224275     0.216631     0.208988     0.201345
 NY phased data points follow
   1.33339E+01  9.70901E+00  7.30201E+00  1.06276E+01  2.07134E+01  2.73589E+01  2.97715E+01  3.30839E+01  4.98400E+01  4.43969E+01
   5.44529E+01  5.54021E+01  5.23740E+01  5.20461E+01  4.77271E+01  3.41023E+01  3.10878E+01  2.42200E+01  1.98754E+01  1.75365E+01
   1.92884E+01  1.75617E+01  1.39709E+01  1.54919E+01  2.06038E+01  2.15203E+01  2.32918E+01  2.26662E+01  3.59970E+01  2.59863E+01
   3.44051E+01  3.39927E+01  2.86217E+01  3.03753E+01  3.01167E+01  2.22894E+01  2.12069E+01  1.49959E+01  2.85077E+01  1.79761E+01
   2.35873E+01  1.97822E+01  2.45999E+01  2.26034E+01  2.78541E+01  2.27061E+01  2.54064E+01  2.39506E+01  2.76123E+01  2.45557E+01
   2.68024E+01  2.13950E+01  1.78698E+01  1.95615E+01  1.67224E+01  2.12304E+01  1.90377E+01  1.97186E+01  1.84856E+01  1.73796E+01
   2.35591E+01  1.89155E+01  1.76224E+01  1.26810E+01  1.11956E+01  5.91812E+00  1.33472E+01  1.61105E+01  1.01644E+01  6.78656E+00
   1.17774E+01  9.61813E+00  1.06746E+01  1.01608E+01  1.58380E+01  1.14908E+01  1.70588E+01  1.21620E+01  1.03848E+01  9.99981E+00
   1.13136E+01  1.45180E+01  1.14903E+01  8.57734E+00  1.22812E+01  1.36767E+01  1.60699E+01  1.11456E+01  1.14120E+01  7.90128E+00
   1.87506E+01  1.00282E+01  1.13652E+01  1.20040E+01  1.56048E+01  1.25031E+01  7.77318E+00  1.00535E+01  1.90957E+01  2.26085E+01
   3.45826E+01  4.40277E+01  5.11603E+01  5.09985E+01  5.71345E+01  5.51626E+01  4.40724E+01  3.79367E+01  2.79055E+01  1.79926E+01
   1.95759E+01  1.04193E+01  1.28377E+01  1.20699E+01  1.09022E+01  6.00490E+00  1.21730E+01  9.35135E+00  7.80349E+00  5.60796E+00
   1.00136E+01  9.50816E+00  1.44086E+01  2.73467E+01  3.79295E+01  4.58642E+01  5.28790E+01  5.67469E+01  6.06035E+01  5.78245E+01
   5.16100E+01  3.83084E+01  3.44138E+01  2.52241E+01  1.46487E+01  1.25225E+01  9.47841E+00  8.98198E+00  1.21438E+01  1.22992E+01
   1.14217E+01  9.02656E+00  1.43081E+01  1.26450E+01  1.07874E+01  1.33968E+01  1.21253E+01  7.37066E+00  4.88387E+00  9.97571E+00
   1.19389E+01  1.05492E+01  7.78253E+00  1.15759E+01  1.02467E+01  5.61452E+00  8.22868E+00  5.27814E+00  1.19507E+01  6.25423E+00
   4.11367E+00  6.24945E+00  7.76271E+00  9.08342E+00  8.17386E+00  6.30237E+00  1.11224E+01  3.54018E+00  4.78838E+00  9.03397E-01
  -5.83560E-01  1.49484E+00 -1.87763E+00 -5.05856E+00 -5.08789E+00 -8.96654E-01 -1.21358E+00  4.84565E-01 -2.28851E+00 -4.22947E+00
   1.41060E+00 -2.31581E+00  2.67371E+00 -8.57879E+00 -2.41724E+00  1.19262E+00  1.35080E+00 -1.91851E+00 -4.04426E+00  6.05269E+00
   6.97206E+00  8.97320E+00  5.41675E+00  6.75567E+00  1.03086E+01  7.99421E+00  7.18939E+00 -7.68475E-01  4.42755E+00  2.75467E+00
   4.37125E+00  4.77933E+00  7.10471E+00  1.00546E+01  1.01053E+01  4.28461E+00  7.32762E+00  4.53691E+00  3.56961E+00 -1.22329E+00
   1.59362E+00  5.78509E+00  5.95448E+00  1.05958E+01  1.15179E+01  1.80858E+01  1.93428E+01  1.37477E+01  1.28194E+01  4.87191E+00
   2.64466E+00 -7.08803E-02  1.37751E+00  4.99623E-01  1.13368E+01  8.71553E+00  1.70200E+01  1.13617E+01  1.47367E+01  1.53489E+01
   1.57462E+01  1.51483E+01  1.92510E+01  1.25711E+01  1.61342E+01  1.20795E+01  1.56012E+01  7.98386E+00  1.22892E+01  1.18934E+01
   1.51912E+01  3.85488E+00  1.48427E+01  1.37604E+01  1.08913E+01  1.31564E+01  1.33870E+01  1.56302E+01  1.49942E+01  2.23164E+01
   2.29368E+01  1.92961E+01  2.45846E+01  1.86898E+01  2.83674E+01  3.86999E+01  5.37803E+01  7.06632E+01  8.07857E+01  8.89355E+01
   8.86440E+01  8.54688E+01  8.02388E+01  6.28680E+01  5.38822E+01  3.62078E+01  2.42904E+01  1.73269E+01  1.60820E+01  1.44735E+01
   1.42160E+01  9.74063E+00  1.50196E+01  1.37644E+01  1.00884E+01  1.02254E+01  7.48658E+00  1.03787E+01  9.36971E+00  7.58556E+00
   4.84271E+00  5.77742E+00  1.20140E+01  7.80606E+00  9.23147E+00  8.48469E+00  7.25035E+00  7.87532E+00  9.12945E+00  7.47670E+00
   9.61262E+00  8.44910E+00  1.26470E+01  9.59711E+00  5.11433E+00  1.05532E+01  1.04212E+01  1.31591E+01  8.71655E+00  9.00602E+00
   5.11969E+00  1.58170E+01  1.55761E+01  1.23704E+01  1.74650E+01  1.75249E+01  1.44220E+01  9.64367E+00  1.88092E+01  1.79380E+01
   1.55282E+01  1.72809E+01  1.87211E+01  2.09343E+01  2.15430E+01  1.96671E+01  1.93370E+01  1.96738E+01  1.34006E+01  1.96421E+01
   1.72251E+01  2.15787E+01  1.73973E+01  1.32067E+01  1.71103E+01  1.56082E+01  1.84525E+01  1.41332E+01  2.21192E+01  1.60821E+01
   1.32805E+01  2.06357E+01  2.15112E+01  2.17688E+01  1.72680E+01  2.26068E+01  1.98588E+01  1.48383E+01  1.66881E+01  1.61945E+01
   2.28194E+01  1.63665E+01  1.26936E+01  2.44156E+01  2.09824E+01  2.25652E+01  2.19484E+01  1.56905E+01  2.08363E+01  2.13669E+01
   2.32120E+01  2.03516E+01  2.23788E+01  2.35942E+01  2.73191E+01  2.77164E+01  2.16518E+01  2.65608E+01  2.66868E+01  2.66900E+01
   2.63841E+01  1.72352E+01  1.97181E+01  2.21777E+01  2.00133E+01  1.53594E+01  1.71013E+01  2.24754E+01  2.01265E+01  1.95087E+01
   1.49026E+01  1.30645E+01  1.50773E+01  1.12529E+01  2.11985E+01  1.07445E+01  1.37795E+01  1.15131E+01  1.18266E+01  1.19425E+01
   7.96511E+00  1.35148E+01  6.29341E+00  9.70279E+00  1.20234E+01  9.71157E+00  1.55957E+01  1.23791E+01  7.04302E+00  1.35831E+01
   1.10758E+01  1.24545E+01  1.07919E+01  1.15631E+01  1.60776E+01  9.71954E+00  1.58174E+01  1.49782E+01  1.46684E+01  1.39964E+01
   1.50132E+01  1.62317E+01  1.84454E+01  1.76955E+01  2.25900E+01  2.12111E+01  1.63248E+01  2.11422E+01  1.86434E+01  1.52678E+01
   1.44828E+01  1.84917E+01  2.05708E+01  1.69823E+01  8.50632E+00  1.46190E+01  1.09433E+01  1.28428E+01  1.24809E+01  9.38179E+00
   1.38235E+01  4.37371E+00  7.11264E+00  8.69315E+00  8.21522E+00  9.33872E+00  8.86105E+00  1.26668E+01  6.68430E+00  7.37593E+00
   4.70005E+00  9.46472E+00  7.54204E+00  4.03391E+00  7.53540E+00  5.32323E+00  4.49631E+00  2.22272E+00  6.34355E+00  2.23584E+00
   4.72335E+00  5.44642E+00  4.80398E+00  5.56983E+00  1.51528E+00  7.58433E+00  4.13329E+00  9.76799E+00  6.63907E+00  5.77351E+00
   4.59445E+00  2.99468E+00  7.57188E+00  6.90699E-01  4.81610E+00  7.40495E+00  7.48327E+00  5.22552E+00  8.22176E+00  6.55626E+00
   8.75633E+00  2.87513E+00  1.90034E+00  4.11129E+00  4.12278E-02  4.92447E+00  9.24427E+00  6.18436E+00  5.10732E+00  6.29457E+00
   5.62350E+00  1.83392E+00  4.35998E+00  8.90811E-01  3.04581E+00  2.42261E+00  2.71334E+00 -3.36981E+00  4.70596E+00  3.72670E+00
   5.55147E+00  4.31729E+00  3.80798E+00  5.46427E+00  3.07362E+00  4.27637E+00  1.61810E+00  2.28051E+00  2.84220E+00  5.64967E+00
   3.57021E+00  5.04171E+00  3.42523E+00  1.14085E+00  1.48973E+00  2.57329E+00  4.54469E+00  3.63428E+00
 NY points of the fit to the data follow
   1.68272E+01  1.62186E+01  1.61119E+01  1.66268E+01  1.83446E+01  2.17098E+01  2.72507E+01  3.39364E+01  4.05003E+01  4.57361E+01
   4.90698E+01  5.01762E+01  4.90898E+01  4.57428E+01  4.03750E+01  3.41906E+01  2.85826E+01  2.40492E+01  2.10088E+01  1.93733E+01
   1.84377E+01  1.78472E+01  1.71252E+01  1.64861E+01  1.69254E+01  1.85659E+01  2.13592E+01  2.48306E+01  2.82706E+01  3.11601E+01
   3.33606E+01  3.42259E+01  3.30413E+01  3.02585E+01  2.67044E+01  2.26764E+01  1.90674E+01  1.65235E+01  1.50442E+01  1.44975E+01
   1.49073E+01  1.65792E+01  1.91867E+01  2.21623E+01  2.49473E+01  2.68403E+01  2.75814E+01  2.74714E+01  2.64790E+01  2.43433E+01
   2.14210E+01  1.84444E+01  1.58534E+01  1.41435E+01  1.36209E+01  1.40925E+01  1.51111E+01  1.62050E+01  1.69645E+01  1.72478E+01
   1.70538E+01  1.63938E+01  1.54248E+01  1.43718E+01  1.33662E+01  1.27033E+01  1.25628E+01  1.29013E+01  1.35683E+01  1.42925E+01
   1.48587E+01  1.51770E+01  1.52534E+01  1.50953E+01  1.47143E+01  1.42366E+01  1.37517E+01  1.32901E+01  1.29292E+01  1.26717E+01
   1.25716E+01  1.27998E+01  1.31167E+01  1.33224E+01  1.32892E+01  1.29878E+01  1.24873E+01  1.19911E+01  1.14771E+01  1.08742E+01
   1.04737E+01  1.03618E+01  1.03416E+01  1.04073E+01  1.04774E+01  1.03969E+01  1.03652E+01  1.18979E+01  1.73189E+01  2.57011E+01
   3.54486E+01  4.45065E+01  5.11699E+01  5.48536E+01  5.61068E+01  5.37304E+01  4.68827E+01  3.79135E+01  2.89050E+01  2.06204E+01
   1.49223E+01  1.18756E+01  1.02641E+01  9.72575E+00  9.56088E+00  9.47517E+00  9.41601E+00  9.39374E+00  9.45672E+00  9.68207E+00
   1.01882E+01  1.24475E+01  1.88936E+01  2.84230E+01  3.91979E+01  4.90818E+01  5.63205E+01  6.04359E+01  6.22186E+01  6.02788E+01
   5.34249E+01  4.39077E+01  3.38510E+01  2.41729E+01  1.70743E+01  1.27997E+01  1.02521E+01  9.29827E+00  9.26060E+00  9.71862E+00
   1.05340E+01  1.13959E+01  1.20177E+01  1.22806E+01  1.20961E+01  1.15885E+01  1.09558E+01  1.02976E+01  9.72395E+00  9.25261E+00
   8.85713E+00  8.53822E+00  8.30010E+00  8.16298E+00  8.06319E+00  7.84484E+00  7.51386E+00  7.12133E+00  6.77579E+00  6.62226E+00
   6.58789E+00  6.52080E+00  6.40265E+00  6.30366E+00  6.17144E+00  5.98961E+00  5.71011E+00  5.23355E+00  4.66911E+00  4.10281E+00
   3.41130E+00  2.73934E+00  2.23325E+00  1.90258E+00  1.74240E+00  1.59116E+00  1.39211E+00  1.22762E+00  1.26462E+00  1.39155E+00
   1.40291E+00  1.16636E+00  8.44326E-01  7.03061E-01  1.00543E+00  1.81840E+00  3.13253E+00  4.72358E+00  6.35752E+00  7.87549E+00
   9.00088E+00  9.48383E+00  9.14870E+00  8.11807E+00  6.68461E+00  5.34690E+00  4.51042E+00  4.44374E+00  5.14185E+00  6.58182E+00
   8.57349E+00  1.05238E+01  1.20072E+01  1.27279E+01  1.22002E+01  1.04845E+01  8.07239E+00  5.35728E+00  3.01581E+00  1.75844E+00
   2.13438E+00  3.94945E+00  6.93134E+00  1.01683E+01  1.27973E+01  1.43650E+01  1.42769E+01  1.21938E+01  8.69636E+00  4.89959E+00
   1.84293E+00  9.16930E-02 -9.64010E-02  1.23333E+00  3.79463E+00  6.97763E+00  9.77294E+00  1.17538E+01  1.28582E+01  1.31056E+01
   1.28048E+01  1.24685E+01  1.24005E+01  1.27636E+01  1.34606E+01  1.41892E+01  1.46526E+01  1.45752E+01  1.40143E+01  1.31184E+01
   1.21043E+01  1.13881E+01  1.12471E+01  1.15253E+01  1.21895E+01  1.32212E+01  1.43186E+01  1.52523E+01  1.60617E+01  1.67962E+01
   1.76855E+01  1.88842E+01  2.03087E+01  2.24703E+01  2.90927E+01  4.07486E+01  5.50917E+01  6.92537E+01  8.03024E+01  8.64721E+01
   8.88328E+01  8.72229E+01  7.92422E+01  6.63256E+01  5.24035E+01  3.86746E+01  2.72918E+01  2.02163E+01  1.60211E+01  1.37446E+01
   1.26967E+01  1.20798E+01  1.16301E+01  1.12966E+01  1.10326E+01  1.07602E+01  1.04386E+01  1.00667E+01  9.66401E+00  9.26297E+00
   8.90200E+00  8.59739E+00  8.35870E+00  8.18441E+00  8.05690E+00  7.96333E+00  7.89938E+00  7.86340E+00  7.86157E+00  7.90215E+00
   7.99465E+00  8.14333E+00  8.34914E+00  8.61214E+00  8.92814E+00  9.29418E+00  9.71142E+00  1.01799E+01  1.06990E+01  1.12662E+01
   1.18760E+01  1.25211E+01  1.31894E+01  1.38662E+01  1.45365E+01  1.51832E+01  1.57907E+01  1.63469E+01  1.68402E+01  1.72616E+01
   1.76054E+01  1.78682E+01  1.80502E+01  1.81549E+01  1.81890E+01  1.81616E+01  1.80845E+01  1.79708E+01  1.78343E+01  1.76887E+01
   1.75465E+01  1.74185E+01  1.73136E+01  1.72386E+01  1.71974E+01  1.71915E+01  1.72201E+01  1.72802E+01  1.73679E+01  1.74780E+01
   1.76049E+01  1.77429E+01  1.78870E+01  1.80330E+01  1.81783E+01  1.83218E+01  1.84641E+01  1.86078E+01  1.87586E+01  1.89263E+01
   1.91323E+01  1.94301E+01  1.98031E+01  2.01667E+01  2.04732E+01  2.06998E+01  2.08581E+01  2.09914E+01  2.11137E+01  2.12783E+01
   2.16004E+01  2.21586E+01  2.29024E+01  2.37367E+01  2.45479E+01  2.52096E+01  2.56424E+01  2.57435E+01  2.54637E+01  2.48759E+01
   2.40449E+01  2.30611E+01  2.20431E+01  2.10430E+01  2.00897E+01  1.91986E+01  1.83653E+01  1.75846E+01  1.68504E+01  1.61568E+01
   1.54991E+01  1.48745E+01  1.42822E+01  1.37232E+01  1.31999E+01  1.27152E+01  1.22722E+01  1.18739E+01  1.15234E+01  1.12234E+01
   1.09765E+01  1.07848E+01  1.06503E+01  1.05747E+01  1.05596E+01  1.06065E+01  1.07161E+01  1.08890E+01  1.11248E+01  1.14224E+01
   1.17797E+01  1.21932E+01  1.26578E+01  1.31668E+01  1.37116E+01  1.42820E+01  1.48661E+01  1.54505E+01  1.60208E+01  1.65616E+01
   1.70576E+01  1.74942E+01  1.78575E+01  1.81358E+01  1.83192E+01  1.84008E+01  1.83769E+01  1.82470E+01  1.80138E+01  1.76830E+01
   1.72631E+01  1.67648E+01  1.62006E+01  1.55841E+01  1.49292E+01  1.42497E+01  1.35587E+01  1.28682E+01  1.21890E+01  1.15299E+01
   1.08982E+01  1.02992E+01  9.73676E+00  9.21311E+00  8.72922E+00  8.28490E+00  7.87904E+00  7.50986E+00  7.17519E+00  6.87253E+00
   6.59928E+00  6.35273E+00  6.13023E+00  5.92926E+00  5.74753E+00  5.58294E+00  5.43355E+00  5.29759E+00  5.17349E+00  5.05990E+00
   4.95566E+00  4.85973E+00  4.77119E+00  4.68920E+00  4.61304E+00  4.54213E+00  4.47596E+00  4.41407E+00  4.35603E+00  4.30142E+00
   4.24995E+00  4.20136E+00  4.15544E+00  4.11194E+00  4.07065E+00  4.03135E+00  3.99391E+00  3.95822E+00  3.92417E+00  3.89160E+00
   3.86038E+00  3.83041E+00  3.80163E+00  3.77400E+00  3.74742E+00  3.72182E+00  3.69709E+00  3.67320E+00  3.65012E+00  3.62783E+00
   3.60626E+00  3.58534E+00  3.56502E+00  3.54530E+00  3.52617E+00  3.50760E+00  3.48954E+00  3.47192E+00  3.45473E+00  3.43799E+00
   3.42167E+00  3.40576E+00  3.39019E+00  3.37494E+00  3.36001E+00  3.34542E+00  3.33116E+00  3.31717E+00  3.30343E+00  3.28991E+00
   3.27664E+00  3.26363E+00  3.25085E+00  3.23827E+00  3.22584E+00  3.21357E+00  3.20151E+00  3.18963E+00
 NY background values follow
     1.178E+01    1.174E+01    1.170E+01    1.166E+01    1.162E+01    1.158E+01    1.154E+01    1.149E+01    1.145E+01    1.141E+01
     1.137E+01    1.133E+01    1.129E+01    1.125E+01    1.121E+01    1.116E+01    1.112E+01    1.108E+01    1.104E+01    1.100E+01
     1.096E+01    1.092E+01    1.088E+01    1.083E+01    1.079E+01    1.075E+01    1.071E+01    1.067E+01    1.063E+01    1.059E+01
     1.055E+01    1.050E+01    1.046E+01    1.042E+01    1.038E+01    1.034E+01    1.030E+01    1.026E+01    1.022E+01    1.017E+01
     1.013E+01    1.009E+01    1.005E+01    1.001E+01    9.969E+00    9.928E+00    9.887E+00    9.846E+00    9.805E+00    9.764E+00
     9.723E+00    9.682E+00    9.641E+00    9.601E+00    9.560E+00    9.519E+00    9.478E+00    9.437E+00    9.397E+00    9.356E+00
     9.315E+00    9.275E+00    9.234E+00    9.194E+00    9.153E+00    9.113E+00    9.072E+00    9.032E+00    8.992E+00    8.952E+00
     8.911E+00    8.871E+00    8.831E+00    8.791E+00    8.751E+00    8.712E+00    8.672E+00    8.632E+00    8.592E+00    8.553E+00
     8.513E+00    8.474E+00    8.435E+00    8.395E+00    8.356E+00    8.317E+00    8.278E+00    8.239E+00    8.201E+00    8.162E+00
     8.123E+00    8.085E+00    8.046E+00    8.008E+00    7.970E+00    7.932E+00    7.894E+00    7.856E+00    7.818E+00    7.780E+00
     7.742E+00    7.705E+00    7.668E+00    7.630E+00    7.593E+00    7.556E+00    7.519E+00    7.482E+00    7.446E+00    7.409E+00
     7.373E+00    7.336E+00    7.300E+00    7.264E+00    7.228E+00    7.192E+00    7.156E+00    7.121E+00    7.085E+00    7.050E+00
     7.014E+00    6.979E+00    6.944E+00    6.910E+00    6.875E+00    6.840E+00    6.806E+00    6.772E+00    6.737E+00    6.703E+00
     6.670E+00    6.636E+00    6.602E+00    6.569E+00    6.536E+00    6.502E+00    6.469E+00    6.437E+00    6.404E+00    6.371E+00
     6.339E+00    6.307E+00    6.275E+00    6.243E+00    6.211E+00    6.179E+00    6.148E+00    6.117E+00    6.086E+00    6.055E+00
     6.024E+00    5.993E+00    5.963E+00    5.932E+00    5.902E+00    5.872E+00    5.842E+00    5.813E+00    5.783E+00    5.754E+00
     5.725E+00    5.696E+00    5.667E+00    5.638E+00    5.610E+00    5.581E+00    5.553E+00    5.525E+00    5.498E+00    5.470E+00
     5.443E+00    5.415E+00    5.388E+00    5.361E+00    5.335E+00    5.308E+00    5.282E+00    5.256E+00    5.230E+00    5.204E+00
     5.178E+00    5.153E+00    5.128E+00    5.102E+00    5.078E+00    5.053E+00    5.028E+00    5.004E+00    4.980E+00    4.956E+00
     4.932E+00    4.909E+00    4.885E+00    4.862E+00    4.839E+00    4.816E+00    4.793E+00    4.771E+00    4.748E+00    4.726E+00
     4.704E+00    4.682E+00    4.660E+00    4.639E+00    4.617E+00    4.596E+00    4.575E+00    4.554E+00    4.533E+00    4.512E+00
     4.492E+00    4.472E+00    4.452E+00    4.432E+00    4.412E+00    4.392E+00    4.372E+00    4.353E+00    4.334E+00    4.315E+00
     4.296E+00    4.277E+00    4.258E+00    4.240E+00    4.221E+00    4.203E+00    4.185E+00    4.167E+00    4.149E+00    4.131E+00
     4.114E+00    4.097E+00    4.079E+00    4.062E+00    4.045E+00    4.028E+00    4.011E+00    3.995E+00    3.978E+00    3.962E+00
     3.946E+00    3.930E+00    3.914E+00    3.898E+00    3.882E+00    3.867E+00    3.851E+00    3.836E+00    3.821E+00    3.805E+00
     3.790E+00    3.776E+00    3.761E+00    3.746E+00    3.732E+00    3.717E+00    3.703E+00    3.689E+00    3.675E+00    3.661E+00
     3.647E+00    3.634E+00    3.620E+00    3.607E+00    3.594E+00    3.580E+00    3.567E+00    3.554E+00    3.542E+00    3.529E+00
     3.516E+00    3.504E+00    3.491E+00    3.479E+00    3.467E+00    3.455E+00    3.443E+00    3.431E+00    3.419E+00    3.408E+00
     3.396E+00    3.385E+00    3.373E+00    3.362E+00    3.351E+00    3.340E+00    3.329E+00    3.318E+00    3.307E+00    3.297E+00
     3.286E+00    3.276E+00    3.265E+00    3.255E+00    3.245E+00    3.235E+00    3.225E+00    3.215E+00    3.205E+00    3.196E+00
     3.186E+00    3.177E+00    3.167E+00    3.158E+00    3.149E+00    3.140E+00    3.131E+00    3.122E+00    3.113E+00    3.104E+00
     3.095E+00    3.087E+00    3.078E+00    3.070E+00    3.061E+00    3.053E+00    3.045E+00    3.037E+00    3.029E+00    3.021E+00
     3.013E+00    3.005E+00    2.997E+00    2.990E+00    2.982E+00    2.975E+00    2.967E+00    2.960E+00    2.953E+00    2.945E+00
     2.938E+00    2.931E+00    2.924E+00    2.917E+00    2.910E+00    2.904E+00    2.897E+00    2.890E+00    2.884E+00    2.877E+00
     2.871E+00    2.865E+00    2.858E+00    2.852E+00    2.846E+00    2.840E+00    2.834E+00    2.828E+00    2.822E+00    2.816E+00
     2.810E+00    2.805E+00    2.799E+00    2.793E+00    2.788E+00    2.783E+00    2.777E+00    2.772E+00    2.766E+00    2.761E+00
     2.756E+00    2.751E+00    2.746E+00    2.741E+00    2.736E+00    2.731E+00    2.726E+00    2.721E+00    2.717E+00    2.712E+00
     2.707E+00    2.703E+00    2.698E+00    2.694E+00    2.689E+00    2.685E+00    2.681E+00    2.677E+00    2.672E+00    2.668E+00
     2.664E+00    2.660E+00    2.656E+00    2.652E+00    2.648E+00    2.644E+00    2.640E+00    2.636E+00    2.633E+00    2.629E+00
     2.625E+00    2.622E+00    2.618E+00    2.614E+00    2.611E+00    2.607E+00    2.604E+00    2.601E+00    2.597E+00    2.594E+00
     2.591E+00    2.587E+00    2.584E+00    2.581E+00    2.578E+00    2.575E+00    2.572E+00    2.569E+00    2.566E+00    2.563E+00
     2.560E+00    2.557E+00    2.554E+00    2.551E+00    2.548E+00    2.545E+00    2.543E+00    2.540E+00    2.537E+00    2.535E+00
     2.532E+00    2.529E+00    2.527E+00    2.524E+00    2.521E+00    2.519E+00    2.516E+00    2.514E+00    2.511E+00    2.509E+00
     2.507E+00    2.504E+00    2.502E+00    2.499E+00    2.497E+00    2.495E+00    2.492E+00    2.490E+00    2.488E+00    2.485E+00
     2.483E+00    2.481E+00    2.478E+00    2.476E+00    2.474E+00    2.472E+00    2.469E+00    2.467E+00    2.465E+00    2.463E+00
     2.461E+00    2.458E+00    2.456E+00    2.454E+00    2.452E+00    2.450E+00    2.447E+00    2.445E+00    2.443E+00    2.441E+00
     2.439E+00    2.436E+00    2.434E+00    2.432E+00    2.430E+00    2.428E+00    2.425E+00    2.423E+00    2.421E+00    2.419E+00
     2.417E+00    2.415E+00    2.412E+00    2.410E+00    2.408E+00    2.406E+00    2.404E+00    2.401E+00    2.399E+00    2.397E+00
     2.395E+00    2.393E+00    2.391E+00    2.388E+00    2.386E+00    2.384E+00    2.382E+00    2.380E+00    2.378E+00    2.375E+00
     2.373E+00    2.371E+00    2.369E+00    2.367E+00    2.365E+00    2.362E+00    2.360E+00    2.358E+00
 Cr       Conc. = 1.02E+03
