 LCModel (Version 6.3-1L) Copyright: S.W. Provencher.          Ref.: Magn. Reson. Med. 30:672-679 (1993).                
 Slice#1 Row#2 Col#4  PD_24_press_1_raw_act
 36 lines in following concentration table = NCONC+1
    Conc.  %SD /Cr+PCr  Metabolite                                         
    0.000 999%   0.000 Ala                                                 
   17.642  99%   0.218 Asp                                                 
    0.000 999%   0.000 Cr                                                  
   81.009  46%   1.000 PCr                                                 
    9.879 106%   0.122 GABA                                                
   10.324 102%   0.127 Glc                                                 
  743.423  42%   9.177 Gln                                                 
  495.608  70%   6.118 Glu                                                 
    0.000 999%   0.000 GPC                                                 
   33.685  40%   0.416 PCh                                                 
    0.000 999%   0.000 GSH                                                 
  556.913  30%   6.875 Ins                                                 
    0.000 999%   0.000 Lac                                                 
  166.966  29%   2.061 NAA                                                 
    0.000 999%   0.000 NAAG                                                
    2.932 119% 3.6E-02 Scyllo                                              
   16.634 104%   0.205 Tau                                                 
   10.181 215%   0.126 -CrCH2                                              
   33.685  40%   0.416 GPC+PCh                                             
  166.966  29%   2.061 NAA+NAAG                                            
   81.009  46%   1.000 Cr+PCr                                              
 1.24E+03  45%  15.295 Glu+Gln                                             
 1.71E+03  23%  21.051 Lip13a                                              
    0.000 999%   0.000 Lip13b                                              
  564.497  31%   6.968 Lip09                                               
  691.251  25%   8.533 MM09                                                
  228.350  55%   2.819 Lip20                                               
  107.743 210%   1.330 MM20                                                
  251.883  55%   3.109 MM12                                                
  278.875  79%   3.443 MM14                                                
  851.272  20%  10.508 MM17                                                
 1.71E+03  23%  21.051 Lip13a+Lip13b                                       
 2.24E+03  12%  27.602 MM14+Lip13a+Lip13b+MM12                             
 1.26E+03  10%  15.501 MM09+Lip09                                          
  336.092  63%   4.149 MM20+Lip20                                          
   6 lines in following misc. output table
  FWHM = 0.099 ppm    S/N =   2                                            
  Data shift = 0.092 ppm                                                   
  Ph: -50 deg     -12.0 deg/ppm                                            
  alphaB,S = 8.5E+01,   2.0E+02                                            
   14 spline knots.   Ns =10(1)                                            
   2 inflections.     1 extrema                                            
  498 points on ppm-axis = NY
      4.000000     3.992357     3.984714     3.977070     3.969427     3.961784     3.954141     3.946497     3.938854     3.931211
      3.923568     3.915925     3.908281     3.900638     3.892995     3.885352     3.877708     3.870065     3.862422     3.854779
      3.847136     3.839492     3.831849     3.824206     3.816563     3.808919     3.801276     3.793633     3.785990     3.778347
      3.770703     3.763060     3.755417     3.747774     3.740130     3.732487     3.724844     3.717201     3.709558     3.701914
      3.694271     3.686628     3.678985     3.671341     3.663698     3.656055     3.648412     3.640769     3.633125     3.625482
      3.617839     3.610196     3.602552     3.594909     3.587266     3.579623     3.571980     3.564336     3.556693     3.549050
      3.541407     3.533763     3.526120     3.518477     3.510834     3.503191     3.495547     3.487904     3.480261     3.472618
      3.464974     3.457331     3.449688     3.442045     3.434402     3.426758     3.419115     3.411472     3.403829     3.396185
      3.388542     3.380899     3.373256     3.365613     3.357969     3.350326     3.342683     3.335040     3.327396     3.319753
      3.312110     3.304467     3.296824     3.289180     3.281537     3.273894     3.266251     3.258607     3.250964     3.243321
      3.235678     3.228034     3.220391     3.212748     3.205105     3.197462     3.189818     3.182175     3.174532     3.166889
      3.159245     3.151602     3.143959     3.136316     3.128673     3.121029     3.113386     3.105743     3.098100     3.090456
      3.082813     3.075170     3.067527     3.059884     3.052240     3.044597     3.036954     3.029311     3.021667     3.014024
      3.006381     2.998738     2.991095     2.983451     2.975808     2.968165     2.960522     2.952878     2.945235     2.937592
      2.929949     2.922306     2.914662     2.907019     2.899376     2.891733     2.884089     2.876446     2.868803     2.861160
      2.853517     2.845873     2.838230     2.830587     2.822944     2.815300     2.807657     2.800014     2.792371     2.784728
      2.777084     2.769441     2.761798     2.754155     2.746511     2.738868     2.731225     2.723582     2.715939     2.708295
      2.700652     2.693009     2.685366     2.677722     2.670079     2.662436     2.654793     2.647150     2.639506     2.631863
      2.624220     2.616577     2.608933     2.601290     2.593647     2.586004     2.578361     2.570717     2.563074     2.555431
      2.547788     2.540144     2.532501     2.524858     2.517215     2.509572     2.501928     2.494285     2.486642     2.478999
      2.471355     2.463712     2.456069     2.448426     2.440783     2.433139     2.425496     2.417853     2.410210     2.402566
      2.394923     2.387280     2.379637     2.371994     2.364350     2.356707     2.349064     2.341421     2.333777     2.326134
      2.318491     2.310848     2.303205     2.295561     2.287918     2.280275     2.272632     2.264988     2.257345     2.249702
      2.242059     2.234416     2.226772     2.219129     2.211486     2.203843     2.196199     2.188556     2.180913     2.173270
      2.165627     2.157983     2.150340     2.142697     2.135054     2.127410     2.119767     2.112124     2.104481     2.096838
      2.089194     2.081551     2.073908     2.066265     2.058621     2.050978     2.043335     2.035692     2.028049     2.020405
      2.012762     2.005119     1.997476     1.989833     1.982190     1.974546     1.966903     1.959260     1.951617     1.943974
      1.936331     1.928688     1.921045     1.913402     1.905759     1.898115     1.890472     1.882829     1.875186     1.867543
      1.859900     1.852257     1.844614     1.836971     1.829327     1.821684     1.814041     1.806398     1.798755     1.791112
      1.783469     1.775826     1.768183     1.760540     1.752896     1.745253     1.737610     1.729967     1.722324     1.714681
      1.707038     1.699395     1.691752     1.684108     1.676465     1.668822     1.661179     1.653536     1.645893     1.638250
      1.630607     1.622964     1.615321     1.607677     1.600034     1.592391     1.584748     1.577105     1.569462     1.561819
      1.554176     1.546533     1.538890     1.531246     1.523603     1.515960     1.508317     1.500674     1.493031     1.485388
      1.477745     1.470102     1.462458     1.454815     1.447172     1.439529     1.431886     1.424243     1.416600     1.408957
      1.401314     1.393671     1.386027     1.378384     1.370741     1.363098     1.355455     1.347812     1.340169     1.332526
      1.324883     1.317240     1.309596     1.301953     1.294310     1.286667     1.279024     1.271381     1.263738     1.256095
      1.248452     1.240808     1.233165     1.225522     1.217879     1.210236     1.202593     1.194950     1.187307     1.179664
      1.172021     1.164377     1.156734     1.149091     1.141448     1.133805     1.126162     1.118519     1.110876     1.103233
      1.095590     1.087946     1.080303     1.072660     1.065017     1.057374     1.049731     1.042088     1.034445     1.026802
      1.019158     1.011515     1.003872     0.996229     0.988586     0.980943     0.973300     0.965657     0.958014     0.950371
      0.942727     0.935084     0.927441     0.919798     0.912155     0.904512     0.896869     0.889226     0.881583     0.873940
      0.866296     0.858653     0.851010     0.843367     0.835724     0.828081     0.820438     0.812795     0.805152     0.797508
      0.789865     0.782222     0.774579     0.766936     0.759293     0.751650     0.744007     0.736364     0.728721     0.721077
      0.713434     0.705791     0.698148     0.690505     0.682862     0.675219     0.667576     0.659933     0.652290     0.644646
      0.637003     0.629360     0.621717     0.614074     0.606431     0.598788     0.591145     0.583502     0.575858     0.568215
      0.560572     0.552929     0.545286     0.537643     0.530000     0.522357     0.514714     0.507071     0.499427     0.491784
      0.484141     0.476498     0.468855     0.461212     0.453569     0.445925     0.438282     0.430639     0.422996     0.415353
      0.407710     0.400067     0.392424     0.384780     0.377137     0.369494     0.361851     0.354208     0.346565     0.338922
      0.331278     0.323635     0.315992     0.308349     0.300706     0.293063     0.285420     0.277777     0.270133     0.262490
      0.254847     0.247204     0.239561     0.231918     0.224275     0.216631     0.208988     0.201345
 NY phased data points follow
   2.54043E+00  3.64840E+00  3.17082E+00  2.61430E-02  7.07821E-01  2.25673E+00 -2.41069E-01  1.21960E+00 -1.98951E+00  1.31039E+00
  -1.69818E+00  8.82278E-01 -2.20153E+00 -6.71021E-02  1.93420E-01  2.36119E+00  2.74090E+00  1.34512E+00  1.17214E+00 -2.06134E+00
   2.43683E-01  8.54999E-01 -2.22659E+00 -1.67948E+00  3.04262E+00  1.80441E+00  3.16202E+00 -1.00809E+00  2.44525E+00  8.09714E-01
   2.13648E+00  6.90210E-01 -3.85868E-01 -2.87318E+00 -5.56636E-01 -1.93845E+00  7.93159E-01  1.12499E+00  3.99837E-01  7.98921E-01
   1.81576E+00  2.04917E+00  1.21124E-01  1.26588E+00 -5.39581E-01  9.98613E-01  1.97147E+00  4.94025E+00  3.66568E+00  4.77280E+00
   3.99525E+00  1.31456E+00  2.32541E-01  8.32869E-01  4.07791E-01 -2.68353E+00 -8.72912E-03 -7.63159E-01 -4.65725E-01  5.98608E-01
  -1.65896E+00 -3.24357E-02  7.78848E-01  2.61185E+00  3.46571E+00  1.65073E-01  8.62883E-01  2.60814E+00  5.66303E-01  3.16674E+00
  -6.52813E-01  2.27645E-01 -1.84804E+00 -1.16035E+00 -5.76803E-01  3.90850E-01  3.83562E+00  3.84270E+00  6.83868E-01  2.37937E+00
   3.41950E+00  4.84880E+00 -2.52381E+00  8.73100E-01 -8.01518E-01 -4.05642E+00 -1.84592E+00 -3.05698E+00 -1.65688E+00 -1.51647E+00
  -3.41212E+00  2.58546E+00  2.82585E-01  6.61790E-01 -1.43728E+00  4.37187E-02  1.05414E+00  8.97156E-01  7.18045E-01 -1.70483E+00
   6.60819E-01 -2.42033E+00  2.97764E+00  2.45551E+00  4.17016E+00  2.56685E+00  3.75379E+00  1.33190E+00 -7.99732E-03  1.34113E-01
  -6.00588E-02 -5.46693E-01 -2.27937E+00 -1.76981E+00 -2.15454E+00  5.53891E-01  1.63905E+00  1.55816E+00  1.36817E+00 -1.10491E-01
   4.14897E+00  5.80311E+00 -1.80474E-01  6.44281E-01  9.48588E-01 -3.75810E-01  9.73278E-01  1.16935E+00  2.22460E+00  8.22136E-01
   2.50001E+00  1.02916E+00  1.28947E+00  1.44742E+00 -3.73462E+00  2.11042E+00  5.35269E+00  2.05810E+00 -9.03214E-01 -1.72487E+00
   3.57995E-01  3.98581E+00  4.78807E-01  6.50280E-01 -3.34404E-01  1.80827E-01 -7.59300E-01 -1.76744E+00 -1.80176E+00  7.24444E-01
   2.02892E+00  1.96891E+00 -1.64456E-01  1.28362E-01 -1.82498E-01  3.03479E+00 -2.76398E-01 -1.79137E+00 -4.19272E-01  1.06216E+00
  -7.57861E-01  2.33257E+00  4.51737E+00 -2.75315E+00 -1.04500E+00  4.11950E-01  3.22553E-02  1.94491E+00 -2.17282E+00  1.19245E+00
  -2.92931E+00 -2.22971E+00 -1.62705E+00 -1.28020E+00  2.42275E+00 -9.72095E-01  3.13272E+00  2.09945E+00  2.13649E+00  1.29758E-01
  -5.97263E-02  1.53270E+00 -2.03559E+00  3.06235E-01  4.13522E-01  8.19917E-01  1.94294E+00  5.03466E+00  1.36437E+00 -3.30227E+00
  -2.60856E+00  2.24770E-01  1.39761E+00 -1.94154E+00  6.81055E-01 -1.01342E+00  1.90700E+00  5.15655E-02  8.82373E-01  3.51109E+00
   1.06344E+00 -6.06399E-01  1.36026E+00 -2.81960E-01 -9.16113E-01  2.12616E+00  2.14346E+00  4.76806E+00  8.82795E-01  3.40194E+00
  -7.86392E-01  9.53856E-01  2.38775E+00 -1.48094E+00 -3.05623E-01 -2.50947E-01  2.79036E+00 -6.51077E-01  1.16388E+00  1.96416E+00
   3.78570E+00  3.68138E-01  2.72611E+00  1.71169E+00  3.62945E+00  1.46134E+00 -1.79920E-01  2.71909E+00  3.25182E+00 -2.14062E-01
   2.15086E-01  2.12586E+00 -7.66229E-02 -3.76427E-02  2.38052E+00  4.40096E+00 -2.37388E-01  2.85282E+00  4.26522E+00  5.78742E+00
   4.10019E+00  2.27860E+00  9.97979E-01  1.66741E-01 -3.43817E+00 -1.94571E+00 -9.25867E-01 -1.83668E+00  8.95195E-01  2.27029E+00
   8.82581E-01  3.52898E+00  2.30834E+00  3.90804E+00  3.61823E+00  4.48312E+00  5.40215E+00  4.68157E+00  5.48122E+00  4.17646E+00
   5.57936E+00  8.43503E+00  3.69540E+00  4.46339E+00  4.73737E+00  6.11187E+00  9.34699E+00  4.33704E+00  1.73038E+00  3.82791E+00
   1.81275E+00  1.35551E+00  5.13795E+00  3.94948E+00  2.81275E+00  4.54543E+00 -8.13473E-02  3.49353E+00  6.94339E-01  2.79568E+00
   1.53118E+00  2.57918E+00  2.54199E+00  8.12867E+00  2.25701E+00  3.59585E+00  5.97198E+00  3.54707E+00  6.92295E+00  6.08112E+00
   4.41504E+00  2.80819E+00  3.06472E+00  3.87950E-01  5.51239E+00  4.36765E+00  4.98006E+00  8.02420E+00  4.84193E+00  1.77296E+00
   6.31964E+00  6.93786E+00  6.09811E+00  6.21001E+00  8.07813E+00  6.28919E+00  4.91696E+00  8.96969E+00  1.15362E+01  5.64107E+00
   8.05598E+00  5.15483E+00  6.08587E+00  7.08394E+00  5.32727E+00  4.65468E+00  4.51204E+00  6.01604E+00  2.81934E+00  3.09603E+00
   5.02711E+00  6.16745E+00  7.00785E+00  8.30038E+00  6.14927E+00  6.73546E+00  5.62942E+00  7.21186E+00  9.00119E+00  3.47394E+00
   5.86534E+00  7.19944E+00  7.17204E+00  3.25354E+00  6.51814E+00  6.54104E+00  7.02032E+00  3.99139E+00  4.18566E+00  6.29605E+00
   3.38897E+00  4.82743E+00  6.52399E+00  5.47526E+00  6.36024E+00  6.56994E+00  7.48110E+00  6.24353E+00  1.16144E+01  6.83720E+00
   8.28542E+00  9.79732E+00  7.00225E+00  7.99026E+00  7.83230E+00  7.32538E+00  1.05039E+01  6.90889E+00  9.95625E+00  1.01400E+01
   8.31669E+00  5.81166E+00  4.88533E+00  8.25086E+00  1.03912E+01  8.73067E+00  1.00662E+01  7.28361E+00  8.21756E+00  7.35979E+00
   9.67199E+00  2.42631E+00  1.05184E+01  4.26066E+00  6.46390E+00  7.50895E+00  5.79265E+00  9.38177E+00  9.40727E+00  1.19396E+01
   7.29537E+00  9.91443E+00  6.69274E+00  8.31623E+00  9.57803E+00  1.05572E+01  7.71483E+00  8.94938E+00  8.33617E+00  1.04844E+01
   4.25117E+00  6.62208E+00  1.04423E+01  7.74486E+00  1.01941E+01  1.15548E+01  8.33984E+00  1.14589E+01  5.62933E+00  1.15669E+01
   8.88329E+00  9.74707E+00  8.27680E+00  9.20113E+00  9.12622E+00  8.63207E+00  8.15335E+00  8.94083E+00  6.01169E+00  5.17946E+00
   6.94797E+00  5.05832E+00  7.17142E+00  8.09846E+00  4.85453E+00  7.34528E+00  6.03387E+00  4.35596E+00  8.19178E+00  3.12665E+00
   4.67677E+00  7.80472E+00  2.72717E+00  6.76066E+00  3.90075E+00  3.75294E+00  3.07897E+00  4.26709E+00  9.25357E-01  5.83559E+00
   7.00150E+00  3.77784E+00  3.09356E+00  4.00972E+00  4.47722E+00  4.48193E+00  3.46802E+00  2.69276E+00  4.13589E+00  1.60252E+00
   2.61206E+00  2.46806E-01  5.48559E+00  2.35629E+00 -2.56871E+00  2.85279E+00  2.39301E+00  1.24303E+00  5.57981E+00  2.41263E+00
   4.98819E+00  4.71547E+00  1.31728E+00  1.16037E+00  1.87783E+00  2.46853E+00  2.41280E-01 -8.72838E-01  1.63707E+00 -2.76118E+00
   3.70876E+00  4.46176E-02  4.50194E-01  1.06325E+00 -6.30113E-01 -2.86586E-01  1.95321E+00  4.66517E-01  3.11990E-01 -6.51442E-01
   1.22138E+00  2.71966E+00  1.02956E+00  6.12390E-01  2.46545E+00  3.36863E+00 -5.67707E-01 -6.25442E-01  4.84728E+00  5.04082E+00
   6.48894E+00  4.26118E+00 -2.69210E+00 -1.39336E+00  2.21778E+00  1.65630E+00  2.35206E+00 -4.84016E-01  4.84518E-01 -9.50758E-01
   4.01458E+00  4.45849E+00 -1.42593E+00  6.35676E-01  4.93447E+00  3.46041E+00 -9.93489E-01 -1.55277E+00
 NY points of the fit to the data follow
   1.06071E+00  9.18609E-01  7.89251E-01  6.71078E-01  5.78187E-01  5.25149E-01  5.00433E-01  4.99784E-01  5.23535E-01  5.53486E-01
   5.73433E-01  5.79634E-01  5.74517E-01  5.61536E-01  5.46410E-01  5.39972E-01  5.36710E-01  5.06820E-01  4.26068E-01  2.98484E-01
   1.50547E-01  2.09964E-02 -3.31274E-02  2.95067E-02  1.88593E-01  3.90205E-01  5.75068E-01  7.04480E-01  7.66379E-01  7.82963E-01
   7.91446E-01  8.14246E-01  8.53287E-01  8.97114E-01  9.36199E-01  9.69114E-01  1.00066E+00  1.05137E+00  1.13675E+00  1.23772E+00
   1.32203E+00  1.37547E+00  1.41482E+00  1.48611E+00  1.63407E+00  1.83637E+00  2.03214E+00  2.17489E+00  2.22710E+00  2.18422E+00
   2.07761E+00  1.94900E+00  1.81734E+00  1.66743E+00  1.48316E+00  1.26473E+00  1.03175E+00  8.22684E-01  6.86187E-01  6.60442E-01
   7.32364E-01  8.38170E-01  9.33293E-01  1.00497E+00  1.05195E+00  1.07392E+00  1.07213E+00  1.05123E+00  1.01923E+00  9.85446E-01
   9.61123E-01  9.61603E-01  9.90202E-01  1.03223E+00  1.07063E+00  1.08807E+00  1.07632E+00  1.02407E+00  9.23425E-01  7.76439E-01
   5.96228E-01  4.01319E-01  2.09845E-01  3.71070E-02 -1.04454E-01 -2.18809E-01 -3.10086E-01 -3.78002E-01 -4.27629E-01 -4.64140E-01
  -4.90748E-01 -5.05858E-01 -4.98756E-01 -4.28077E-01 -2.58777E-01 -1.44527E-02  2.65992E-01  5.42847E-01  7.85622E-01  9.76220E-01
   1.11591E+00  1.21549E+00  1.28617E+00  1.32974E+00  1.34273E+00  1.32507E+00  1.28122E+00  1.21159E+00  1.11151E+00  9.73269E-01
   7.93075E-01  5.81950E-01  3.60956E-01  1.59079E-01  9.86865E-03 -5.80794E-02 -4.36881E-02  5.09092E-02  2.12434E-01  4.09827E-01
   6.14867E-01  8.07524E-01  9.80320E-01  1.13445E+00  1.27259E+00  1.39370E+00  1.49121E+00  1.55427E+00  1.57454E+00  1.55178E+00
   1.48869E+00  1.38604E+00  1.24396E+00  1.06689E+00  8.65483E-01  6.56154E-01  4.61062E-01  3.06337E-01  2.16094E-01  1.91544E-01
   1.94219E-01  2.03938E-01  2.16923E-01  2.31887E-01  2.47747E-01  2.63587E-01  2.78813E-01  2.93270E-01  3.07125E-01  3.20113E-01
   3.31292E-01  3.38118E-01  3.39285E-01  3.36057E-01  3.30913E-01  3.27700E-01  3.27139E-01  3.27337E-01  3.26400E-01  3.22833E-01
   3.16396E-01  3.07983E-01  2.98660E-01  2.88905E-01  2.78398E-01  2.66414E-01  2.51269E-01  2.32556E-01  2.13537E-01  1.96207E-01
   1.80286E-01  1.62555E-01  1.40543E-01  1.15484E-01  9.23394E-02  7.61571E-02  6.81947E-02  6.62862E-02  6.84291E-02  7.56749E-02
   8.95802E-02  1.10990E-01  1.39282E-01  1.70561E-01  1.93454E-01  2.00412E-01  1.83667E-01  1.36347E-01  6.35013E-02 -2.43650E-02
  -1.13706E-01 -1.81189E-01 -1.94640E-01 -1.37084E-01 -1.43291E-02  1.69919E-01  4.03315E-01  6.51490E-01  8.79011E-01  1.04259E+00
   1.06870E+00  9.50063E-01  7.62655E-01  5.71584E-01  4.17740E-01  3.19988E-01  2.87254E-01  2.89742E-01  2.86333E-01  2.61585E-01
   2.28799E-01  2.04943E-01  1.94125E-01  2.14768E-01  3.10899E-01  5.09819E-01  8.00913E-01  1.15675E+00  1.51660E+00  1.80584E+00
   1.96806E+00  1.96559E+00  1.81136E+00  1.61219E+00  1.46483E+00  1.38591E+00  1.35791E+00  1.38646E+00  1.48841E+00  1.64042E+00
   1.82564E+00  2.03719E+00  2.24222E+00  2.35962E+00  2.35886E+00  2.27266E+00  2.15073E+00  2.02520E+00  1.91299E+00  1.81941E+00
   1.73708E+00  1.66748E+00  1.61612E+00  1.58758E+00  1.58456E+00  1.59932E+00  1.61095E+00  1.59575E+00  1.55340E+00  1.54438E+00
   1.68367E+00  2.05201E+00  2.60955E+00  3.26893E+00  3.92407E+00  4.48725E+00  4.94816E+00  5.31017E+00  5.57501E+00  5.74898E+00
   5.83055E+00  5.80688E+00  5.68224E+00  5.48582E+00  5.23936E+00  4.94637E+00  4.60334E+00  4.21094E+00  3.77983E+00  3.33662E+00
   2.92734E+00  2.61262E+00  2.44524E+00  2.39761E+00  2.39244E+00  2.40727E+00  2.43671E+00  2.47445E+00  2.51852E+00  2.56982E+00
   2.62657E+00  2.68787E+00  2.75423E+00  2.82768E+00  2.91196E+00  3.01247E+00  3.13239E+00  3.27171E+00  3.42979E+00  3.60577E+00
   3.79803E+00  4.00444E+00  4.22264E+00  4.45061E+00  4.68647E+00  4.92737E+00  5.16978E+00  5.40974E+00  5.64280E+00  5.86415E+00
   6.06895E+00  6.25274E+00  6.41147E+00  6.54148E+00  6.64001E+00  6.70533E+00  6.73672E+00  6.73459E+00  6.70052E+00  6.63711E+00
   6.54787E+00  6.43709E+00  6.30960E+00  6.17057E+00  6.02531E+00  5.87903E+00  5.73658E+00  5.60232E+00  5.48005E+00  5.37288E+00
   5.28313E+00  5.21245E+00  5.16175E+00  5.13130E+00  5.12084E+00  5.12960E+00  5.15648E+00  5.20011E+00  5.25895E+00  5.33142E+00
   5.41593E+00  5.51096E+00  5.61512E+00  5.72719E+00  5.84611E+00  5.97100E+00  6.10113E+00  6.23594E+00  6.37495E+00  6.51775E+00
   6.66394E+00  6.81309E+00  6.96469E+00  7.11811E+00  7.27255E+00  7.42704E+00  7.58038E+00  7.73119E+00  7.87788E+00  8.01872E+00
   8.15181E+00  8.27521E+00  8.38693E+00  8.48501E+00  8.56763E+00  8.63311E+00  8.68005E+00  8.70731E+00  8.71416E+00  8.70021E+00
   8.66554E+00  8.61067E+00  8.53655E+00  8.44462E+00  8.33669E+00  8.21498E+00  8.08208E+00  7.94083E+00  7.79435E+00  7.64591E+00
   7.49890E+00  7.35675E+00  7.22289E+00  7.10067E+00  6.99332E+00  6.90385E+00  6.83504E+00  6.78936E+00  6.76892E+00  6.77537E+00
   6.80991E+00  6.87314E+00  6.96507E+00  7.08500E+00  7.23149E+00  7.40236E+00  7.59460E+00  7.80444E+00  8.02738E+00  8.25824E+00
   8.49135E+00  8.72062E+00  8.93980E+00  9.14266E+00  9.32321E+00  9.47595E+00  9.59604E+00  9.67954E+00  9.72351E+00  9.72610E+00
   9.68663E+00  9.60554E+00  9.48432E+00  9.32541E+00  9.13202E+00  8.90801E+00  8.65764E+00  8.38544E+00  8.09598E+00  7.79379E+00
   7.48317E+00  7.16813E+00  6.85232E+00  6.53895E+00  6.23085E+00  5.93037E+00  5.63950E+00  5.35979E+00  5.09248E+00  4.83845E+00
   4.59830E+00  4.37239E+00  4.16082E+00  3.96353E+00  3.78028E+00  3.61070E+00  3.45429E+00  3.31047E+00  3.17861E+00  3.05801E+00
   2.94796E+00  2.84773E+00  2.75659E+00  2.67383E+00  2.59875E+00  2.53072E+00  2.46909E+00  2.41330E+00  2.36280E+00  2.31709E+00
   2.27573E+00  2.23829E+00  2.20441E+00  2.17373E+00  2.14596E+00  2.12081E+00  2.09805E+00  2.07744E+00  2.05880E+00  2.04194E+00
   2.02670E+00  2.01295E+00  2.00055E+00  1.98938E+00  1.97934E+00  1.97035E+00  1.96231E+00  1.95516E+00  1.94881E+00  1.94322E+00
   1.93833E+00  1.93408E+00  1.93042E+00  1.92732E+00  1.92474E+00  1.92264E+00  1.92099E+00  1.91975E+00  1.91892E+00  1.91845E+00
   1.91832E+00  1.91852E+00  1.91903E+00  1.91982E+00  1.92088E+00  1.92220E+00  1.92377E+00  1.92556E+00  1.92757E+00  1.92979E+00
   1.93221E+00  1.93481E+00  1.93760E+00  1.94056E+00  1.94369E+00  1.94698E+00  1.95042E+00  1.95402E+00  1.95776E+00  1.96165E+00
   1.96568E+00  1.96986E+00  1.97417E+00  1.97862E+00  1.98322E+00  1.98796E+00  1.99285E+00  1.99789E+00
 NY background values follow
    -8.418E-01   -8.358E-01   -8.299E-01   -8.239E-01   -8.180E-01   -8.120E-01   -8.061E-01   -8.001E-01   -7.942E-01   -7.882E-01
    -7.823E-01   -7.763E-01   -7.704E-01   -7.644E-01   -7.585E-01   -7.525E-01   -7.465E-01   -7.406E-01   -7.346E-01   -7.287E-01
    -7.227E-01   -7.168E-01   -7.108E-01   -7.048E-01   -6.989E-01   -6.929E-01   -6.870E-01   -6.810E-01   -6.751E-01   -6.691E-01
    -6.631E-01   -6.572E-01   -6.512E-01   -6.452E-01   -6.393E-01   -6.333E-01   -6.274E-01   -6.214E-01   -6.154E-01   -6.095E-01
    -6.035E-01   -5.975E-01   -5.916E-01   -5.856E-01   -5.796E-01   -5.737E-01   -5.677E-01   -5.617E-01   -5.558E-01   -5.498E-01
    -5.438E-01   -5.378E-01   -5.319E-01   -5.259E-01   -5.199E-01   -5.140E-01   -5.080E-01   -5.020E-01   -4.960E-01   -4.901E-01
    -4.841E-01   -4.781E-01   -4.722E-01   -4.662E-01   -4.602E-01   -4.542E-01   -4.483E-01   -4.423E-01   -4.363E-01   -4.303E-01
    -4.244E-01   -4.184E-01   -4.124E-01   -4.064E-01   -4.004E-01   -3.945E-01   -3.885E-01   -3.825E-01   -3.765E-01   -3.706E-01
    -3.646E-01   -3.586E-01   -3.526E-01   -3.466E-01   -3.407E-01   -3.347E-01   -3.287E-01   -3.227E-01   -3.167E-01   -3.108E-01
    -3.048E-01   -2.988E-01   -2.928E-01   -2.868E-01   -2.809E-01   -2.749E-01   -2.689E-01   -2.629E-01   -2.569E-01   -2.509E-01
    -2.450E-01   -2.390E-01   -2.330E-01   -2.270E-01   -2.210E-01   -2.150E-01   -2.091E-01   -2.031E-01   -1.971E-01   -1.911E-01
    -1.851E-01   -1.791E-01   -1.732E-01   -1.672E-01   -1.612E-01   -1.552E-01   -1.492E-01   -1.432E-01   -1.372E-01   -1.313E-01
    -1.253E-01   -1.193E-01   -1.133E-01   -1.073E-01   -1.013E-01   -9.534E-02   -8.936E-02   -8.337E-02   -7.738E-02   -7.140E-02
    -6.541E-02   -5.942E-02   -5.344E-02   -4.745E-02   -4.147E-02   -3.548E-02   -2.949E-02   -2.351E-02   -1.752E-02   -1.153E-02
    -5.548E-03    4.383E-04    6.425E-03    1.241E-02    1.840E-02    2.438E-02    3.037E-02    3.636E-02    4.234E-02    4.833E-02
     5.431E-02    6.030E-02    6.629E-02    7.227E-02    7.826E-02    8.425E-02    9.023E-02    9.622E-02    1.022E-01    1.082E-01
     1.142E-01    1.202E-01    1.261E-01    1.321E-01    1.381E-01    1.441E-01    1.501E-01    1.561E-01    1.621E-01    1.680E-01
     1.740E-01    1.800E-01    1.860E-01    1.920E-01    1.980E-01    2.039E-01    2.099E-01    2.159E-01    2.219E-01    2.279E-01
     2.339E-01    2.398E-01    2.458E-01    2.518E-01    2.578E-01    2.638E-01    2.698E-01    2.757E-01    2.817E-01    2.877E-01
     2.937E-01    2.997E-01    3.057E-01    3.116E-01    3.176E-01    3.236E-01    3.296E-01    3.356E-01    3.415E-01    3.475E-01
     3.535E-01    3.595E-01    3.655E-01    3.714E-01    3.774E-01    3.834E-01    3.894E-01    3.953E-01    4.013E-01    4.073E-01
     4.133E-01    4.192E-01    4.252E-01    4.312E-01    4.372E-01    4.432E-01    4.491E-01    4.551E-01    4.611E-01    4.671E-01
     4.730E-01    4.790E-01    4.850E-01    4.909E-01    4.969E-01    5.029E-01    5.089E-01    5.148E-01    5.208E-01    5.268E-01
     5.327E-01    5.387E-01    5.447E-01    5.507E-01    5.566E-01    5.626E-01    5.686E-01    5.745E-01    5.805E-01    5.865E-01
     5.924E-01    5.984E-01    6.044E-01    6.103E-01    6.163E-01    6.223E-01    6.282E-01    6.342E-01    6.401E-01    6.461E-01
     6.521E-01    6.580E-01    6.640E-01    6.700E-01    6.759E-01    6.819E-01    6.878E-01    6.938E-01    6.998E-01    7.057E-01
     7.117E-01    7.176E-01    7.236E-01    7.295E-01    7.355E-01    7.414E-01    7.474E-01    7.534E-01    7.593E-01    7.653E-01
     7.712E-01    7.772E-01    7.831E-01    7.891E-01    7.950E-01    8.010E-01    8.069E-01    8.129E-01    8.188E-01    8.248E-01
     8.307E-01    8.367E-01    8.426E-01    8.486E-01    8.545E-01    8.604E-01    8.664E-01    8.723E-01    8.783E-01    8.842E-01
     8.902E-01    8.961E-01    9.020E-01    9.080E-01    9.139E-01    9.199E-01    9.258E-01    9.317E-01    9.377E-01    9.436E-01
     9.495E-01    9.555E-01    9.614E-01    9.673E-01    9.733E-01    9.792E-01    9.851E-01    9.911E-01    9.970E-01    1.003E+00
     1.009E+00    1.015E+00    1.021E+00    1.027E+00    1.033E+00    1.038E+00    1.044E+00    1.050E+00    1.056E+00    1.062E+00
     1.068E+00    1.074E+00    1.080E+00    1.086E+00    1.092E+00    1.098E+00    1.104E+00    1.110E+00    1.115E+00    1.121E+00
     1.127E+00    1.133E+00    1.139E+00    1.145E+00    1.151E+00    1.157E+00    1.163E+00    1.169E+00    1.175E+00    1.180E+00
     1.186E+00    1.192E+00    1.198E+00    1.204E+00    1.210E+00    1.216E+00    1.222E+00    1.228E+00    1.234E+00    1.239E+00
     1.245E+00    1.251E+00    1.257E+00    1.263E+00    1.269E+00    1.275E+00    1.281E+00    1.287E+00    1.293E+00    1.298E+00
     1.304E+00    1.310E+00    1.316E+00    1.322E+00    1.328E+00    1.334E+00    1.340E+00    1.346E+00    1.351E+00    1.357E+00
     1.363E+00    1.369E+00    1.375E+00    1.381E+00    1.387E+00    1.393E+00    1.398E+00    1.404E+00    1.410E+00    1.416E+00
     1.422E+00    1.428E+00    1.434E+00    1.440E+00    1.445E+00    1.451E+00    1.457E+00    1.463E+00    1.469E+00    1.475E+00
     1.481E+00    1.486E+00    1.492E+00    1.498E+00    1.504E+00    1.510E+00    1.516E+00    1.522E+00    1.527E+00    1.533E+00
     1.539E+00    1.545E+00    1.551E+00    1.557E+00    1.563E+00    1.568E+00    1.574E+00    1.580E+00    1.586E+00    1.592E+00
     1.598E+00    1.603E+00    1.609E+00    1.615E+00    1.621E+00    1.627E+00    1.633E+00    1.638E+00    1.644E+00    1.650E+00
     1.656E+00    1.662E+00    1.668E+00    1.673E+00    1.679E+00    1.685E+00    1.691E+00    1.697E+00    1.703E+00    1.708E+00
     1.714E+00    1.720E+00    1.726E+00    1.732E+00    1.737E+00    1.743E+00    1.749E+00    1.755E+00    1.761E+00    1.766E+00
     1.772E+00    1.778E+00    1.784E+00    1.790E+00    1.795E+00    1.801E+00    1.807E+00    1.813E+00    1.819E+00    1.824E+00
     1.830E+00    1.836E+00    1.842E+00    1.848E+00    1.853E+00    1.859E+00    1.865E+00    1.871E+00    1.877E+00    1.882E+00
     1.888E+00    1.894E+00    1.900E+00    1.905E+00    1.911E+00    1.917E+00    1.923E+00    1.929E+00    1.934E+00    1.940E+00
     1.946E+00    1.952E+00    1.957E+00    1.963E+00    1.969E+00    1.975E+00    1.980E+00    1.986E+00    1.992E+00    1.998E+00
     2.003E+00    2.009E+00    2.015E+00    2.021E+00    2.026E+00    2.032E+00    2.038E+00    2.044E+00    2.049E+00    2.055E+00
     2.061E+00    2.067E+00    2.072E+00    2.078E+00    2.084E+00    2.090E+00    2.095E+00    2.101E+00
 Asp      Conc. = 1.76E+01
