 LCModel (Version 6.3-1L) Copyright: S.W. Provencher.          Ref.: Magn. Reson. Med. 30:672-679 (1993).                
 Slice#3 Row#6 Col#4  PD_24_press_1_raw_act
 36 lines in following concentration table = NCONC+1
    Conc.  %SD /Cr+PCr  Metabolite                                         
    0.000 999%   0.000 Ala                                                 
   17.306 999% 1.7E-02 Asp                                                 
  119.724 211%   0.119 Cr                                                  
  883.156  30%   0.881 PCr                                                 
    0.000 999%   0.000 GABA                                                
    0.000 999%   0.000 Glc                                                 
  364.578  68%   0.364 Gln                                                 
 1.14E+03  25%   1.136 Glu                                                 
  287.596   9%   0.287 GPC                                                 
    0.000 999%   0.000 PCh                                                 
   63.272 130% 6.3E-02 GSH                                                 
  400.076  82%   0.399 Ins                                                 
    0.000 999%   0.000 Lac                                                 
 1.10E+03   7%   1.093 NAA                                                 
    0.000 999%   0.000 NAAG                                                
    7.035 404% 7.0E-03 Scyllo                                              
    0.000 999%   0.000 Tau                                                 
    0.000 999%   0.000 -CrCH2                                              
  287.596   9%   0.287 GPC+PCh                                             
 1.10E+03   7%   1.093 NAA+NAAG                                            
 1.00E+03   7%   1.000 Cr+PCr                                              
 1.50E+03  27%   1.499 Glu+Gln                                             
    0.000 999%   0.000 Lip13a                                              
    0.000 999%   0.000 Lip13b                                              
    0.000 999%   0.000 Lip09                                               
 3.42E+03  12%   3.414 MM09                                                
    0.000 999%   0.000 Lip20                                               
 5.13E+03  12%   5.118 MM20                                                
 1.03E+03  12%   1.024 MM12                                                
 2.57E+03  12%   2.567 MM14                                                
 1.29E+03  12%   1.285 MM17                                                
    0.000 999%   0.000 Lip13a+Lip13b                                       
 3.60E+03  12%   3.591 MM14+Lip13a+Lip13b+MM12                             
 3.42E+03  12%   3.414 MM09+Lip09                                          
 5.13E+03  12%   5.118 MM20+Lip20                                          
   6 lines in following misc. output table
  FWHM = 0.054 ppm    S/N =   6                                            
  Data shift =-0.023 ppm                                                   
  Ph:  -8 deg      -5.6 deg/ppm                                            
  alphaB,S = 2.7E-01,   7.4E+01                                            
   14 spline knots.   Ns = 7(1)                                            
  ( 4) 2 infls.   ( 1) 1 extrs.                                            
  498 points on ppm-axis = NY
      4.000000     3.992357     3.984714     3.977070     3.969427     3.961784     3.954141     3.946497     3.938854     3.931211
      3.923568     3.915925     3.908281     3.900638     3.892995     3.885352     3.877708     3.870065     3.862422     3.854779
      3.847136     3.839492     3.831849     3.824206     3.816563     3.808919     3.801276     3.793633     3.785990     3.778347
      3.770703     3.763060     3.755417     3.747774     3.740130     3.732487     3.724844     3.717201     3.709558     3.701914
      3.694271     3.686628     3.678985     3.671341     3.663698     3.656055     3.648412     3.640769     3.633125     3.625482
      3.617839     3.610196     3.602552     3.594909     3.587266     3.579623     3.571980     3.564336     3.556693     3.549050
      3.541407     3.533763     3.526120     3.518477     3.510834     3.503191     3.495547     3.487904     3.480261     3.472618
      3.464974     3.457331     3.449688     3.442045     3.434402     3.426758     3.419115     3.411472     3.403829     3.396185
      3.388542     3.380899     3.373256     3.365613     3.357969     3.350326     3.342683     3.335040     3.327396     3.319753
      3.312110     3.304467     3.296824     3.289180     3.281537     3.273894     3.266251     3.258607     3.250964     3.243321
      3.235678     3.228034     3.220391     3.212748     3.205105     3.197462     3.189818     3.182175     3.174532     3.166889
      3.159245     3.151602     3.143959     3.136316     3.128673     3.121029     3.113386     3.105743     3.098100     3.090456
      3.082813     3.075170     3.067527     3.059884     3.052240     3.044597     3.036954     3.029311     3.021667     3.014024
      3.006381     2.998738     2.991095     2.983451     2.975808     2.968165     2.960522     2.952878     2.945235     2.937592
      2.929949     2.922306     2.914662     2.907019     2.899376     2.891733     2.884089     2.876446     2.868803     2.861160
      2.853517     2.845873     2.838230     2.830587     2.822944     2.815300     2.807657     2.800014     2.792371     2.784728
      2.777084     2.769441     2.761798     2.754155     2.746511     2.738868     2.731225     2.723582     2.715939     2.708295
      2.700652     2.693009     2.685366     2.677722     2.670079     2.662436     2.654793     2.647150     2.639506     2.631863
      2.624220     2.616577     2.608933     2.601290     2.593647     2.586004     2.578361     2.570717     2.563074     2.555431
      2.547788     2.540144     2.532501     2.524858     2.517215     2.509572     2.501928     2.494285     2.486642     2.478999
      2.471355     2.463712     2.456069     2.448426     2.440783     2.433139     2.425496     2.417853     2.410210     2.402566
      2.394923     2.387280     2.379637     2.371994     2.364350     2.356707     2.349064     2.341421     2.333777     2.326134
      2.318491     2.310848     2.303205     2.295561     2.287918     2.280275     2.272632     2.264988     2.257345     2.249702
      2.242059     2.234416     2.226772     2.219129     2.211486     2.203843     2.196199     2.188556     2.180913     2.173270
      2.165627     2.157983     2.150340     2.142697     2.135054     2.127410     2.119767     2.112124     2.104481     2.096838
      2.089194     2.081551     2.073908     2.066265     2.058621     2.050978     2.043335     2.035692     2.028049     2.020405
      2.012762     2.005119     1.997476     1.989833     1.982190     1.974546     1.966903     1.959260     1.951617     1.943974
      1.936331     1.928688     1.921045     1.913402     1.905759     1.898115     1.890472     1.882829     1.875186     1.867543
      1.859900     1.852257     1.844614     1.836971     1.829327     1.821684     1.814041     1.806398     1.798755     1.791112
      1.783469     1.775826     1.768183     1.760540     1.752896     1.745253     1.737610     1.729967     1.722324     1.714681
      1.707038     1.699395     1.691752     1.684108     1.676465     1.668822     1.661179     1.653536     1.645893     1.638250
      1.630607     1.622964     1.615321     1.607677     1.600034     1.592391     1.584748     1.577105     1.569462     1.561819
      1.554176     1.546533     1.538890     1.531246     1.523603     1.515960     1.508317     1.500674     1.493031     1.485388
      1.477745     1.470102     1.462458     1.454815     1.447172     1.439529     1.431886     1.424243     1.416600     1.408957
      1.401314     1.393671     1.386027     1.378384     1.370741     1.363098     1.355455     1.347812     1.340169     1.332526
      1.324883     1.317240     1.309596     1.301953     1.294310     1.286667     1.279024     1.271381     1.263738     1.256095
      1.248452     1.240808     1.233165     1.225522     1.217879     1.210236     1.202593     1.194950     1.187307     1.179664
      1.172021     1.164377     1.156734     1.149091     1.141448     1.133805     1.126162     1.118519     1.110876     1.103233
      1.095590     1.087946     1.080303     1.072660     1.065017     1.057374     1.049731     1.042088     1.034445     1.026802
      1.019158     1.011515     1.003872     0.996229     0.988586     0.980943     0.973300     0.965657     0.958014     0.950371
      0.942727     0.935084     0.927441     0.919798     0.912155     0.904512     0.896869     0.889226     0.881583     0.873940
      0.866296     0.858653     0.851010     0.843367     0.835724     0.828081     0.820438     0.812795     0.805152     0.797508
      0.789865     0.782222     0.774579     0.766936     0.759293     0.751650     0.744007     0.736364     0.728721     0.721077
      0.713434     0.705791     0.698148     0.690505     0.682862     0.675219     0.667576     0.659933     0.652290     0.644646
      0.637003     0.629360     0.621717     0.614074     0.606431     0.598788     0.591145     0.583502     0.575858     0.568215
      0.560572     0.552929     0.545286     0.537643     0.530000     0.522357     0.514714     0.507071     0.499427     0.491784
      0.484141     0.476498     0.468855     0.461212     0.453569     0.445925     0.438282     0.430639     0.422996     0.415353
      0.407710     0.400067     0.392424     0.384780     0.377137     0.369494     0.361851     0.354208     0.346565     0.338922
      0.331278     0.323635     0.315992     0.308349     0.300706     0.293063     0.285420     0.277777     0.270133     0.262490
      0.254847     0.247204     0.239561     0.231918     0.224275     0.216631     0.208988     0.201345
 NY phased data points follow
   1.31360E+02  1.22379E+02  1.33628E+02  1.27188E+02  1.30771E+02  1.28422E+02  1.35330E+02  1.36376E+02  1.38310E+02  1.37978E+02
   1.44957E+02  1.36791E+02  1.34913E+02  1.27825E+02  1.26723E+02  1.13914E+02  1.14363E+02  1.12338E+02  1.08033E+02  1.06019E+02
   1.12179E+02  1.05146E+02  1.08172E+02  1.05084E+02  1.09123E+02  9.80261E+01  1.02333E+02  9.57813E+01  9.96981E+01  9.45589E+01
   1.02101E+02  9.46698E+01  9.63601E+01  9.32635E+01  9.67382E+01  8.82630E+01  9.00502E+01  8.99320E+01  9.53881E+01  8.61960E+01
   9.38586E+01  8.32000E+01  8.93090E+01  8.51497E+01  9.08814E+01  8.79539E+01  8.51719E+01  8.95550E+01  9.17116E+01  8.77546E+01
   8.49269E+01  7.96055E+01  8.36171E+01  7.93533E+01  8.02888E+01  7.88690E+01  7.99816E+01  7.41358E+01  8.35116E+01  6.93658E+01
   7.82194E+01  7.58983E+01  7.41829E+01  6.47746E+01  7.16795E+01  6.52965E+01  6.97023E+01  6.62992E+01  6.96190E+01  6.39800E+01
   6.63771E+01  6.54454E+01  6.77038E+01  6.63991E+01  6.56922E+01  6.26638E+01  6.66502E+01  6.25571E+01  6.51817E+01  6.52732E+01
   6.01139E+01  6.36749E+01  6.38731E+01  6.07766E+01  6.31126E+01  6.05232E+01  6.28926E+01  6.29804E+01  6.37082E+01  6.10003E+01
   6.23631E+01  6.17961E+01  6.54794E+01  6.34709E+01  6.43821E+01  6.07339E+01  6.72937E+01  6.87222E+01  6.70515E+01  7.36072E+01
   7.44258E+01  7.88350E+01  8.56169E+01  8.79965E+01  8.73572E+01  8.17047E+01  7.82563E+01  7.14849E+01  6.74668E+01  6.49573E+01
   6.67820E+01  6.17092E+01  5.94360E+01  5.96936E+01  6.36991E+01  6.33528E+01  6.37606E+01  6.33970E+01  6.20106E+01  6.23681E+01
   6.55262E+01  6.60218E+01  6.78217E+01  7.29144E+01  7.97223E+01  8.41947E+01  8.46821E+01  8.98021E+01  9.34657E+01  8.83425E+01
   8.29916E+01  7.20158E+01  7.28058E+01  6.23090E+01  6.19516E+01  6.71311E+01  6.16648E+01  5.85969E+01  6.40399E+01  6.04928E+01
   6.05622E+01  5.92441E+01  5.91310E+01  5.92034E+01  5.97776E+01  6.17241E+01  6.19700E+01  5.45812E+01  5.66332E+01  6.03888E+01
   6.14308E+01  5.28144E+01  5.66035E+01  5.69069E+01  5.48282E+01  5.92652E+01  6.15450E+01  5.55515E+01  5.96896E+01  5.48535E+01
   5.68801E+01  5.43691E+01  5.61846E+01  5.24121E+01  5.21598E+01  5.18679E+01  5.15148E+01  5.26278E+01  5.66117E+01  5.06048E+01
   5.56551E+01  4.51874E+01  4.89509E+01  4.62911E+01  5.25466E+01  5.22140E+01  5.38987E+01  5.20960E+01  5.42984E+01  5.41066E+01
   5.49026E+01  5.42832E+01  5.85309E+01  5.18941E+01  5.54305E+01  5.35370E+01  5.49256E+01  5.34955E+01  6.01250E+01  6.43670E+01
   6.09615E+01  5.85827E+01  6.31844E+01  6.66200E+01  7.07834E+01  6.45360E+01  5.82261E+01  6.19762E+01  6.39967E+01  6.29167E+01
   6.33711E+01  6.58085E+01  6.62095E+01  6.71845E+01  7.16956E+01  6.66784E+01  6.58392E+01  6.68344E+01  6.42821E+01  6.07158E+01
   6.58078E+01  6.39587E+01  6.44705E+01  6.96009E+01  7.07669E+01  6.91036E+01  7.92217E+01  7.48517E+01  7.23531E+01  6.71446E+01
   6.52752E+01  6.16283E+01  6.51378E+01  6.53125E+01  6.77579E+01  6.74731E+01  7.44553E+01  6.54391E+01  7.35406E+01  7.21195E+01
   7.34238E+01  7.34160E+01  7.14773E+01  7.38817E+01  7.34416E+01  6.92723E+01  6.85976E+01  7.19285E+01  7.22557E+01  7.31851E+01
   6.98260E+01  6.97524E+01  6.71828E+01  7.20580E+01  7.27870E+01  7.38601E+01  7.43070E+01  7.71029E+01  8.26261E+01  7.88922E+01
   7.99980E+01  8.04859E+01  8.27792E+01  8.07159E+01  8.77252E+01  9.39465E+01  9.45072E+01  1.02623E+02  1.10491E+02  1.09758E+02
   1.18885E+02  1.26819E+02  1.17013E+02  1.13761E+02  1.04570E+02  8.94517E+01  8.69593E+01  8.35739E+01  8.66959E+01  8.54326E+01
   8.22818E+01  8.35332E+01  8.04056E+01  7.83879E+01  8.07163E+01  7.93419E+01  8.63598E+01  7.83459E+01  8.24274E+01  8.06247E+01
   8.20310E+01  7.86082E+01  7.73686E+01  7.55528E+01  7.68615E+01  7.52795E+01  7.41771E+01  7.72766E+01  7.84842E+01  7.86672E+01
   7.97464E+01  7.88146E+01  7.68190E+01  7.96340E+01  8.12528E+01  7.68482E+01  7.75190E+01  7.78135E+01  8.05902E+01  8.02868E+01
   7.53129E+01  7.66074E+01  7.95506E+01  7.72881E+01  7.86192E+01  8.18534E+01  7.96936E+01  7.90769E+01  7.96196E+01  7.69356E+01
   7.81821E+01  7.95905E+01  8.03069E+01  7.51700E+01  7.29757E+01  7.06020E+01  7.05774E+01  6.28123E+01  6.71404E+01  6.59017E+01
   6.55574E+01  6.20358E+01  6.07678E+01  5.63115E+01  5.68380E+01  5.23043E+01  5.24605E+01  4.69589E+01  4.49698E+01  3.74389E+01
   4.11246E+01  4.04414E+01  3.60365E+01  3.24156E+01  3.14462E+01  2.98989E+01  2.42411E+01  2.06566E+01  2.45331E+01  1.45374E+01
   1.17306E+01  1.02568E+01  8.12337E+00  7.11075E-01 -1.95305E+00 -7.69680E-01 -5.62459E+00 -6.74967E+00 -8.72634E+00 -1.42301E+01
  -1.14953E+01 -8.33908E+00 -1.45117E+01 -1.22897E+01 -1.35882E+01 -1.72333E+01 -1.29810E+01 -1.61591E+01 -1.51615E+01 -1.67400E+01
  -1.84845E+01 -1.73710E+01 -1.51938E+01 -1.67919E+01 -1.62486E+01 -2.03761E+01 -1.82004E+01 -1.93221E+01 -1.87866E+01 -1.87117E+01
  -1.99249E+01 -2.09701E+01 -1.75234E+01 -2.16167E+01 -2.14686E+01 -2.49523E+01 -2.15243E+01 -2.41054E+01 -2.22091E+01 -2.14805E+01
  -1.99257E+01 -2.47288E+01 -2.21604E+01 -2.35597E+01 -2.23987E+01 -2.91942E+01 -1.92987E+01 -2.41594E+01 -2.12318E+01 -2.38595E+01
  -2.28203E+01 -2.60463E+01 -2.26509E+01 -2.59618E+01 -2.04177E+01 -2.22032E+01 -2.19472E+01 -2.40122E+01 -1.71029E+01 -1.83773E+01
  -1.87936E+01 -2.08966E+01 -1.66867E+01 -2.21228E+01 -1.82937E+01 -1.81467E+01 -1.51277E+01 -1.66797E+01 -1.34630E+01 -1.84084E+01
  -1.42742E+01 -1.88978E+01 -1.67486E+01 -1.89686E+01 -1.14530E+01 -1.56810E+01 -1.77982E+01 -2.00155E+01 -1.56063E+01 -1.43391E+01
  -1.71918E+01 -1.31231E+01 -1.33072E+01 -1.46186E+01 -1.73960E+01 -1.64234E+01 -1.68147E+01 -1.48450E+01 -1.38483E+01 -1.17982E+01
  -1.30067E+01 -1.37445E+01 -1.29858E+01 -1.45432E+01 -1.88575E+01 -1.17934E+01 -1.28362E+01 -1.57539E+01 -1.38348E+01 -1.74575E+01
  -1.17979E+01 -1.18272E+01 -1.28632E+01 -1.24157E+01 -1.30484E+01 -1.30802E+01 -7.49931E+00 -1.21303E+01 -1.63422E+01 -1.20845E+01
  -1.58028E+01 -1.30081E+01 -9.84255E+00 -1.53381E+01 -1.06096E+01 -1.35035E+01 -1.21737E+01 -1.24920E+01 -1.03219E+01 -1.39220E+01
  -1.16058E+01 -1.06651E+01 -1.00561E+01 -1.27793E+01 -1.29560E+01 -1.41226E+01 -1.31320E+01 -1.06199E+01 -1.44981E+01 -9.22468E+00
  -1.17835E+01 -1.24819E+01 -1.02515E+01 -1.27897E+01 -1.17951E+01 -9.62218E+00 -1.38739E+01 -1.36502E+01 -1.28166E+01 -1.03166E+01
  -6.59851E+00 -8.79236E+00 -1.15137E+01 -1.06666E+01 -1.15008E+01 -1.07652E+01 -7.74155E+00 -1.15309E+01 -5.76575E+00 -1.13305E+01
  -8.23585E+00 -7.27585E+00 -8.35057E+00 -8.57316E+00 -1.08964E+01 -1.05046E+01 -6.92728E+00 -6.66639E+00
 NY points of the fit to the data follow
   1.28057E+02  1.27202E+02  1.27083E+02  1.27767E+02  1.29012E+02  1.30888E+02  1.33287E+02  1.35858E+02  1.38281E+02  1.39970E+02
   1.39880E+02  1.37358E+02  1.32788E+02  1.27260E+02  1.22018E+02  1.17899E+02  1.14945E+02  1.12627E+02  1.10805E+02  1.09395E+02
   1.08122E+02  1.06881E+02  1.05644E+02  1.04427E+02  1.03188E+02  1.01961E+02  1.00817E+02  9.97845E+01  9.89476E+01  9.84365E+01
   9.82909E+01  9.83441E+01  9.83027E+01  9.78571E+01  9.67699E+01  9.50700E+01  9.30860E+01  9.11401E+01  8.95387E+01  8.85355E+01
   8.80864E+01  8.79538E+01  8.78977E+01  8.77789E+01  8.75318E+01  8.71528E+01  8.67037E+01  8.61464E+01  8.53522E+01  8.42693E+01
   8.29139E+01  8.14136E+01  8.00003E+01  7.88221E+01  7.78807E+01  7.71402E+01  7.65530E+01  7.60617E+01  7.56015E+01  7.51376E+01
   7.46284E+01  7.40329E+01  7.33309E+01  7.25426E+01  7.17435E+01  7.10348E+01  7.04699E+01  7.00407E+01  6.97140E+01  6.94396E+01
   6.91618E+01  6.88573E+01  6.85092E+01  6.81062E+01  6.76525E+01  6.71687E+01  6.66876E+01  6.62373E+01  6.58341E+01  6.54756E+01
   6.51294E+01  6.47812E+01  6.44236E+01  6.40522E+01  6.36619E+01  6.32553E+01  6.28367E+01  6.24140E+01  6.20195E+01  6.17155E+01
   6.15479E+01  6.15112E+01  6.15662E+01  6.16640E+01  6.17992E+01  6.22345E+01  6.36387E+01  6.58406E+01  6.86119E+01  7.21613E+01
   7.63354E+01  8.06660E+01  8.47151E+01  8.74510E+01  8.73194E+01  8.38451E+01  7.81241E+01  7.19357E+01  6.68900E+01  6.36864E+01
   6.18684E+01  6.05965E+01  5.99685E+01  5.97809E+01  5.97120E+01  5.96973E+01  5.97252E+01  5.98079E+01  5.99971E+01  6.05567E+01
   6.22671E+01  6.50776E+01  6.86137E+01  7.30394E+01  7.82009E+01  8.35287E+01  8.85247E+01  9.21347E+01  9.25629E+01  8.90164E+01
   8.25817E+01  7.52994E+01  6.91244E+01  6.50420E+01  6.26595E+01  6.09469E+01  5.99131E+01  5.94772E+01  5.92523E+01  5.91460E+01
   5.91093E+01  5.90874E+01  5.90397E+01  5.89494E+01  5.88153E+01  5.86544E+01  5.84883E+01  5.83278E+01  5.81774E+01  5.80397E+01
   5.79132E+01  5.78019E+01  5.77054E+01  5.76173E+01  5.75053E+01  5.73699E+01  5.72251E+01  5.70676E+01  5.69169E+01  5.67650E+01
   5.66017E+01  5.64678E+01  5.64254E+01  5.64982E+01  5.66477E+01  5.67718E+01  5.67490E+01  5.65460E+01  5.62414E+01  5.59369E+01
   5.56807E+01  5.55144E+01  5.54039E+01  5.53020E+01  5.52211E+01  5.51772E+01  5.51978E+01  5.53242E+01  5.55577E+01  5.58187E+01
   5.59916E+01  5.60618E+01  5.61188E+01  5.62441E+01  5.64841E+01  5.68151E+01  5.71722E+01  5.75779E+01  5.80944E+01  5.87181E+01
   5.93338E+01  5.97975E+01  6.00534E+01  6.01302E+01  6.01291E+01  6.01624E+01  6.02820E+01  6.05320E+01  6.09287E+01  6.14629E+01
   6.21117E+01  6.28245E+01  6.34959E+01  6.39072E+01  6.39718E+01  6.36383E+01  6.28827E+01  6.18677E+01  6.09140E+01  6.03870E+01
   6.05031E+01  6.13895E+01  6.30171E+01  6.50990E+01  6.72008E+01  6.88481E+01  6.95893E+01  6.91799E+01  6.77342E+01  6.55870E+01
   6.34291E+01  6.19303E+01  6.14301E+01  6.20925E+01  6.38324E+01  6.63448E+01  6.90353E+01  7.12927E+01  7.27997E+01  7.35792E+01
   7.39328E+01  7.40892E+01  7.41677E+01  7.43358E+01  7.47244E+01  7.52814E+01  7.59018E+01  7.65770E+01  7.72580E+01  7.78450E+01
   7.82671E+01  7.85457E+01  7.87485E+01  7.89925E+01  7.94294E+01  8.00654E+01  8.08180E+01  8.15692E+01  8.22270E+01  8.27498E+01
   8.31946E+01  8.36786E+01  8.43640E+01  8.60673E+01  8.92213E+01  9.30914E+01  9.76789E+01  1.03112E+02  1.08905E+02  1.14592E+02
   1.19450E+02  1.21497E+02  1.19004E+02  1.12458E+02  1.03969E+02  9.59334E+01  9.00579E+01  8.64773E+01  8.40236E+01  8.22146E+01
   8.13154E+01  8.07284E+01  8.02519E+01  7.98680E+01  7.95493E+01  7.92235E+01  7.88538E+01  7.84197E+01  7.79309E+01  7.74196E+01
   7.69211E+01  7.64533E+01  7.60324E+01  7.56732E+01  7.53782E+01  7.51413E+01  7.49582E+01  7.48302E+01  7.47636E+01  7.47646E+01
   7.48330E+01  7.49683E+01  7.51658E+01  7.54161E+01  7.57058E+01  7.60185E+01  7.63365E+01  7.66405E+01  7.69109E+01  7.71303E+01
   7.72839E+01  7.73596E+01  7.73495E+01  7.72506E+01  7.70636E+01  7.67925E+01  7.64442E+01  7.60272E+01  7.55500E+01  7.50196E+01
   7.44398E+01  7.38096E+01  7.31230E+01  7.23696E+01  7.15343E+01  7.05985E+01  6.95417E+01  6.83431E+01  6.69842E+01  6.54510E+01
   6.37335E+01  6.18276E+01  5.97352E+01  5.74644E+01  5.50298E+01  5.24511E+01  4.97528E+01  4.69625E+01  4.41092E+01  4.12224E+01
   3.83305E+01  3.54596E+01  3.26331E+01  2.98704E+01  2.71868E+01  2.45934E+01  2.20977E+01  1.97035E+01  1.74115E+01  1.52201E+01
   1.31257E+01  1.11234E+01  9.20790E+00  7.37363E+00  5.61526E+00  3.92785E+00  2.30714E+00  7.49681E-01 -7.47077E-01 -2.18493E+00
  -3.56507E+00 -4.88827E+00 -6.15492E+00 -7.36519E+00 -8.51918E+00 -9.61716E+00 -1.06598E+01 -1.16481E+01 -1.25837E+01 -1.34683E+01
  -1.43043E+01 -1.50943E+01 -1.58415E+01 -1.65504E+01 -1.72266E+01 -1.78757E+01 -1.85022E+01 -1.91102E+01 -1.97029E+01 -2.02822E+01
  -2.08489E+01 -2.14022E+01 -2.19405E+01 -2.24611E+01 -2.29600E+01 -2.34327E+01 -2.38738E+01 -2.42778E+01 -2.46389E+01 -2.49515E+01
  -2.52105E+01 -2.54110E+01 -2.55488E+01 -2.56205E+01 -2.56237E+01 -2.55570E+01 -2.54198E+01 -2.52125E+01 -2.49365E+01 -2.45944E+01
  -2.41896E+01 -2.37268E+01 -2.32112E+01 -2.26493E+01 -2.20481E+01 -2.14158E+01 -2.07609E+01 -2.00928E+01 -1.94210E+01 -1.87553E+01
  -1.81053E+01 -1.74807E+01 -1.68906E+01 -1.63432E+01 -1.58459E+01 -1.54047E+01 -1.50245E+01 -1.47087E+01 -1.44590E+01 -1.42751E+01
  -1.41552E+01 -1.40962E+01 -1.40938E+01 -1.41423E+01 -1.42354E+01 -1.43660E+01 -1.45266E+01 -1.47098E+01 -1.49080E+01 -1.51141E+01
  -1.53215E+01 -1.55240E+01 -1.57164E+01 -1.58941E+01 -1.60533E+01 -1.61913E+01 -1.63057E+01 -1.63953E+01 -1.64590E+01 -1.64970E+01
  -1.65094E+01 -1.64970E+01 -1.64608E+01 -1.64021E+01 -1.63226E+01 -1.62237E+01 -1.61074E+01 -1.59754E+01 -1.58294E+01 -1.56711E+01
  -1.55024E+01 -1.53249E+01 -1.51403E+01 -1.49501E+01 -1.47557E+01 -1.45586E+01 -1.43601E+01 -1.41615E+01 -1.39640E+01 -1.37687E+01
  -1.35768E+01 -1.33891E+01 -1.32069E+01 -1.30307E+01 -1.28606E+01 -1.26967E+01 -1.25388E+01 -1.23870E+01 -1.22411E+01 -1.21010E+01
  -1.19665E+01 -1.18374E+01 -1.17135E+01 -1.15948E+01 -1.14808E+01 -1.13715E+01 -1.12664E+01 -1.11655E+01 -1.10683E+01 -1.09746E+01
  -1.08842E+01 -1.07967E+01 -1.07118E+01 -1.06291E+01 -1.05485E+01 -1.04696E+01 -1.03919E+01 -1.03153E+01 -1.02393E+01 -1.01636E+01
  -1.00878E+01 -1.00118E+01 -9.93492E+00 -9.85696E+00 -9.77752E+00 -9.69628E+00 -9.61289E+00 -9.52696E+00 -9.43809E+00 -9.34590E+00
  -9.25005E+00 -9.15018E+00 -9.04594E+00 -8.93690E+00 -8.82267E+00 -8.70285E+00 -8.57712E+00 -8.44511E+00
 NY background values follow
     1.261E+02    1.251E+02    1.240E+02    1.229E+02    1.218E+02    1.208E+02    1.197E+02    1.186E+02    1.176E+02    1.165E+02
     1.154E+02    1.144E+02    1.133E+02    1.122E+02    1.112E+02    1.101E+02    1.091E+02    1.080E+02    1.070E+02    1.059E+02
     1.049E+02    1.039E+02    1.029E+02    1.019E+02    1.009E+02    9.987E+01    9.888E+01    9.790E+01    9.693E+01    9.597E+01
     9.502E+01    9.408E+01    9.314E+01    9.222E+01    9.131E+01    9.041E+01    8.952E+01    8.865E+01    8.778E+01    8.693E+01
     8.610E+01    8.527E+01    8.447E+01    8.367E+01    8.289E+01    8.213E+01    8.138E+01    8.064E+01    7.992E+01    7.922E+01
     7.853E+01    7.786E+01    7.720E+01    7.655E+01    7.592E+01    7.531E+01    7.470E+01    7.411E+01    7.354E+01    7.298E+01
     7.243E+01    7.189E+01    7.137E+01    7.085E+01    7.035E+01    6.987E+01    6.939E+01    6.893E+01    6.848E+01    6.804E+01
     6.761E+01    6.719E+01    6.678E+01    6.639E+01    6.600E+01    6.562E+01    6.526E+01    6.490E+01    6.455E+01    6.422E+01
     6.389E+01    6.357E+01    6.326E+01    6.296E+01    6.267E+01    6.238E+01    6.211E+01    6.184E+01    6.158E+01    6.133E+01
     6.108E+01    6.085E+01    6.062E+01    6.039E+01    6.018E+01    5.997E+01    5.976E+01    5.957E+01    5.938E+01    5.919E+01
     5.901E+01    5.884E+01    5.868E+01    5.852E+01    5.836E+01    5.821E+01    5.807E+01    5.793E+01    5.780E+01    5.767E+01
     5.755E+01    5.743E+01    5.732E+01    5.721E+01    5.711E+01    5.701E+01    5.692E+01    5.683E+01    5.674E+01    5.666E+01
     5.658E+01    5.650E+01    5.643E+01    5.636E+01    5.630E+01    5.624E+01    5.618E+01    5.613E+01    5.608E+01    5.603E+01
     5.598E+01    5.594E+01    5.590E+01    5.586E+01    5.582E+01    5.579E+01    5.575E+01    5.572E+01    5.570E+01    5.567E+01
     5.565E+01    5.562E+01    5.560E+01    5.558E+01    5.557E+01    5.555E+01    5.554E+01    5.553E+01    5.552E+01    5.552E+01
     5.552E+01    5.551E+01    5.551E+01    5.552E+01    5.552E+01    5.553E+01    5.554E+01    5.555E+01    5.557E+01    5.558E+01
     5.560E+01    5.563E+01    5.565E+01    5.568E+01    5.570E+01    5.574E+01    5.577E+01    5.581E+01    5.584E+01    5.588E+01
     5.593E+01    5.597E+01    5.602E+01    5.607E+01    5.613E+01    5.618E+01    5.624E+01    5.630E+01    5.637E+01    5.643E+01
     5.650E+01    5.658E+01    5.665E+01    5.673E+01    5.681E+01    5.689E+01    5.698E+01    5.707E+01    5.716E+01    5.725E+01
     5.735E+01    5.745E+01    5.755E+01    5.766E+01    5.777E+01    5.788E+01    5.799E+01    5.811E+01    5.823E+01    5.836E+01
     5.848E+01    5.861E+01    5.875E+01    5.888E+01    5.902E+01    5.916E+01    5.931E+01    5.946E+01    5.961E+01    5.977E+01
     5.993E+01    6.009E+01    6.025E+01    6.042E+01    6.059E+01    6.077E+01    6.095E+01    6.113E+01    6.132E+01    6.151E+01
     6.170E+01    6.190E+01    6.210E+01    6.230E+01    6.251E+01    6.272E+01    6.293E+01    6.315E+01    6.337E+01    6.359E+01
     6.382E+01    6.405E+01    6.428E+01    6.451E+01    6.474E+01    6.497E+01    6.521E+01    6.544E+01    6.567E+01    6.590E+01
     6.613E+01    6.636E+01    6.658E+01    6.681E+01    6.703E+01    6.724E+01    6.746E+01    6.766E+01    6.787E+01    6.807E+01
     6.826E+01    6.845E+01    6.863E+01    6.881E+01    6.897E+01    6.914E+01    6.929E+01    6.944E+01    6.957E+01    6.970E+01
     6.982E+01    6.993E+01    7.003E+01    7.012E+01    7.020E+01    7.027E+01    7.032E+01    7.037E+01    7.040E+01    7.042E+01
     7.042E+01    7.042E+01    7.040E+01    7.036E+01    7.031E+01    7.024E+01    7.016E+01    7.006E+01    6.995E+01    6.981E+01
     6.966E+01    6.948E+01    6.929E+01    6.908E+01    6.884E+01    6.859E+01    6.831E+01    6.801E+01    6.768E+01    6.733E+01
     6.696E+01    6.656E+01    6.614E+01    6.568E+01    6.520E+01    6.470E+01    6.416E+01    6.360E+01    6.300E+01    6.238E+01
     6.172E+01    6.103E+01    6.032E+01    5.956E+01    5.878E+01    5.796E+01    5.710E+01    5.621E+01    5.529E+01    5.433E+01
     5.333E+01    5.229E+01    5.122E+01    5.011E+01    4.895E+01    4.776E+01    4.653E+01    4.525E+01    4.394E+01    4.258E+01
     4.119E+01    3.977E+01    3.832E+01    3.683E+01    3.532E+01    3.378E+01    3.222E+01    3.064E+01    2.904E+01    2.742E+01
     2.578E+01    2.413E+01    2.247E+01    2.080E+01    1.912E+01    1.744E+01    1.575E+01    1.406E+01    1.237E+01    1.069E+01
     9.008E+00    7.334E+00    5.670E+00    4.016E+00    2.376E+00    7.497E-01   -8.591E-01   -2.449E+00   -4.018E+00   -5.563E+00
    -7.084E+00   -8.577E+00   -1.004E+01   -1.147E+01   -1.287E+01   -1.424E+01   -1.557E+01   -1.685E+01   -1.810E+01   -1.930E+01
    -2.046E+01   -2.157E+01   -2.263E+01   -2.364E+01   -2.460E+01   -2.552E+01   -2.638E+01   -2.720E+01   -2.798E+01   -2.871E+01
    -2.939E+01   -3.004E+01   -3.064E+01   -3.120E+01   -3.172E+01   -3.220E+01   -3.264E+01   -3.304E+01   -3.341E+01   -3.374E+01
    -3.404E+01   -3.431E+01   -3.454E+01   -3.474E+01   -3.490E+01   -3.504E+01   -3.515E+01   -3.523E+01   -3.528E+01   -3.530E+01
    -3.530E+01   -3.527E+01   -3.522E+01   -3.515E+01   -3.505E+01   -3.494E+01   -3.480E+01   -3.464E+01   -3.446E+01   -3.427E+01
    -3.406E+01   -3.383E+01   -3.359E+01   -3.333E+01   -3.306E+01   -3.278E+01   -3.248E+01   -3.218E+01   -3.186E+01   -3.154E+01
    -3.120E+01   -3.086E+01   -3.051E+01   -3.015E+01   -2.979E+01   -2.942E+01   -2.904E+01   -2.865E+01   -2.827E+01   -2.787E+01
    -2.748E+01   -2.707E+01   -2.667E+01   -2.626E+01   -2.585E+01   -2.544E+01   -2.503E+01   -2.462E+01   -2.420E+01   -2.379E+01
    -2.338E+01   -2.297E+01   -2.256E+01   -2.215E+01   -2.175E+01   -2.134E+01   -2.095E+01   -2.055E+01   -2.016E+01   -1.978E+01
    -1.940E+01   -1.903E+01   -1.866E+01   -1.830E+01   -1.795E+01   -1.760E+01   -1.727E+01   -1.694E+01   -1.662E+01   -1.632E+01
    -1.602E+01   -1.573E+01   -1.546E+01   -1.519E+01   -1.494E+01   -1.470E+01   -1.447E+01   -1.425E+01   -1.404E+01   -1.384E+01
    -1.364E+01   -1.346E+01   -1.328E+01   -1.312E+01   -1.295E+01   -1.280E+01   -1.265E+01   -1.251E+01   -1.237E+01   -1.224E+01
    -1.212E+01   -1.200E+01   -1.188E+01   -1.176E+01   -1.165E+01   -1.155E+01   -1.144E+01   -1.134E+01   -1.124E+01   -1.114E+01
    -1.104E+01   -1.094E+01   -1.084E+01   -1.074E+01   -1.064E+01   -1.054E+01   -1.044E+01   -1.034E+01   -1.023E+01   -1.012E+01
    -1.001E+01   -9.895E+00   -9.776E+00   -9.652E+00   -9.524E+00   -9.390E+00   -9.252E+00   -9.107E+00
 Asp      Conc. = 1.73E+01
