 LCModel (Version 6.3-1L) Copyright: S.W. Provencher.          Ref.: Magn. Reson. Med. 30:672-679 (1993).                
 Slice#2 Row#11 Col#8  PD_24_press_1_raw_act
 36 lines in following concentration table = NCONC+1
    Conc.  %SD /Cr+PCr  Metabolite                                         
   68.308 165% 4.4E-02 Ala                                                 
    0.000 999%   0.000 Asp                                                 
 1.10E+03  19%   0.717 Cr                                                  
  435.385  48%   0.283 PCr                                                 
  125.909 119% 8.2E-02 GABA                                                
  114.039 125% 7.4E-02 Glc                                                 
  752.520  31%   0.490 Gln                                                 
 1.71E+03  16%   1.116 Glu                                                 
  567.117   4%   0.369 GPC                                                 
    0.000 999%   0.000 PCh                                                 
  653.162  11%   0.425 GSH                                                 
 2.02E+03  11%   1.316 Ins                                                 
  334.293  41%   0.218 Lac                                                 
 2.08E+03   6%   1.353 NAA                                                 
  152.119  91% 9.9E-02 NAAG                                                
  127.037  19% 8.3E-02 Scyllo                                              
    0.000 999%   0.000 Tau                                                 
    0.000 999%   0.000 -CrCH2                                              
  567.117   4%   0.369 GPC+PCh                                             
 2.23E+03   4%   1.452 NAA+NAAG                                            
 1.54E+03   4%   1.000 Cr+PCr                                              
 2.47E+03  16%   1.606 Glu+Gln                                             
 2.05E+03  32%   1.331 Lip13a                                              
  231.917  88%   0.151 Lip13b                                              
  505.655  60%   0.329 Lip09                                               
 1.13E+03  27%   0.734 MM09                                                
  216.041  98%   0.141 Lip20                                               
 1.76E+03  20%   1.147 MM20                                                
  379.626  56%   0.247 MM12                                                
 1.15E+03  33%   0.751 MM14                                                
  772.450  26%   0.503 MM17                                                
 2.28E+03  25%   1.482 Lip13a+Lip13b                                       
 3.81E+03   9%   2.480 MM14+Lip13a+Lip13b+MM12                             
 1.63E+03  10%   1.063 MM09+Lip09                                          
 1.98E+03  16%   1.288 MM20+Lip20                                          
   6 lines in following misc. output table
  FWHM = 0.054 ppm    S/N =  11                                            
  Data shift = 0.000 ppm                                                   
  Ph:   2 deg       8.3 deg/ppm                                            
  alphaB,S = 8.5E+01,   8.4E+01                                            
   14 spline knots.   Ns = 7(1)                                            
   2 inflections.     1 extrema                                            
  498 points on ppm-axis = NY
      4.000000     3.992357     3.984714     3.977070     3.969427     3.961784     3.954141     3.946497     3.938854     3.931211
      3.923568     3.915925     3.908281     3.900638     3.892995     3.885352     3.877708     3.870065     3.862422     3.854779
      3.847136     3.839492     3.831849     3.824206     3.816563     3.808919     3.801276     3.793633     3.785990     3.778347
      3.770703     3.763060     3.755417     3.747774     3.740130     3.732487     3.724844     3.717201     3.709558     3.701914
      3.694271     3.686628     3.678985     3.671341     3.663698     3.656055     3.648412     3.640769     3.633125     3.625482
      3.617839     3.610196     3.602552     3.594909     3.587266     3.579623     3.571980     3.564336     3.556693     3.549050
      3.541407     3.533763     3.526120     3.518477     3.510834     3.503191     3.495547     3.487904     3.480261     3.472618
      3.464974     3.457331     3.449688     3.442045     3.434402     3.426758     3.419115     3.411472     3.403829     3.396185
      3.388542     3.380899     3.373256     3.365613     3.357969     3.350326     3.342683     3.335040     3.327396     3.319753
      3.312110     3.304467     3.296824     3.289180     3.281537     3.273894     3.266251     3.258607     3.250964     3.243321
      3.235678     3.228034     3.220391     3.212748     3.205105     3.197462     3.189818     3.182175     3.174532     3.166889
      3.159245     3.151602     3.143959     3.136316     3.128673     3.121029     3.113386     3.105743     3.098100     3.090456
      3.082813     3.075170     3.067527     3.059884     3.052240     3.044597     3.036954     3.029311     3.021667     3.014024
      3.006381     2.998738     2.991095     2.983451     2.975808     2.968165     2.960522     2.952878     2.945235     2.937592
      2.929949     2.922306     2.914662     2.907019     2.899376     2.891733     2.884089     2.876446     2.868803     2.861160
      2.853517     2.845873     2.838230     2.830587     2.822944     2.815300     2.807657     2.800014     2.792371     2.784728
      2.777084     2.769441     2.761798     2.754155     2.746511     2.738868     2.731225     2.723582     2.715939     2.708295
      2.700652     2.693009     2.685366     2.677722     2.670079     2.662436     2.654793     2.647150     2.639506     2.631863
      2.624220     2.616577     2.608933     2.601290     2.593647     2.586004     2.578361     2.570717     2.563074     2.555431
      2.547788     2.540144     2.532501     2.524858     2.517215     2.509572     2.501928     2.494285     2.486642     2.478999
      2.471355     2.463712     2.456069     2.448426     2.440783     2.433139     2.425496     2.417853     2.410210     2.402566
      2.394923     2.387280     2.379637     2.371994     2.364350     2.356707     2.349064     2.341421     2.333777     2.326134
      2.318491     2.310848     2.303205     2.295561     2.287918     2.280275     2.272632     2.264988     2.257345     2.249702
      2.242059     2.234416     2.226772     2.219129     2.211486     2.203843     2.196199     2.188556     2.180913     2.173270
      2.165627     2.157983     2.150340     2.142697     2.135054     2.127410     2.119767     2.112124     2.104481     2.096838
      2.089194     2.081551     2.073908     2.066265     2.058621     2.050978     2.043335     2.035692     2.028049     2.020405
      2.012762     2.005119     1.997476     1.989833     1.982190     1.974546     1.966903     1.959260     1.951617     1.943974
      1.936331     1.928688     1.921045     1.913402     1.905759     1.898115     1.890472     1.882829     1.875186     1.867543
      1.859900     1.852257     1.844614     1.836971     1.829327     1.821684     1.814041     1.806398     1.798755     1.791112
      1.783469     1.775826     1.768183     1.760540     1.752896     1.745253     1.737610     1.729967     1.722324     1.714681
      1.707038     1.699395     1.691752     1.684108     1.676465     1.668822     1.661179     1.653536     1.645893     1.638250
      1.630607     1.622964     1.615321     1.607677     1.600034     1.592391     1.584748     1.577105     1.569462     1.561819
      1.554176     1.546533     1.538890     1.531246     1.523603     1.515960     1.508317     1.500674     1.493031     1.485388
      1.477745     1.470102     1.462458     1.454815     1.447172     1.439529     1.431886     1.424243     1.416600     1.408957
      1.401314     1.393671     1.386027     1.378384     1.370741     1.363098     1.355455     1.347812     1.340169     1.332526
      1.324883     1.317240     1.309596     1.301953     1.294310     1.286667     1.279024     1.271381     1.263738     1.256095
      1.248452     1.240808     1.233165     1.225522     1.217879     1.210236     1.202593     1.194950     1.187307     1.179664
      1.172021     1.164377     1.156734     1.149091     1.141448     1.133805     1.126162     1.118519     1.110876     1.103233
      1.095590     1.087946     1.080303     1.072660     1.065017     1.057374     1.049731     1.042088     1.034445     1.026802
      1.019158     1.011515     1.003872     0.996229     0.988586     0.980943     0.973300     0.965657     0.958014     0.950371
      0.942727     0.935084     0.927441     0.919798     0.912155     0.904512     0.896869     0.889226     0.881583     0.873940
      0.866296     0.858653     0.851010     0.843367     0.835724     0.828081     0.820438     0.812795     0.805152     0.797508
      0.789865     0.782222     0.774579     0.766936     0.759293     0.751650     0.744007     0.736364     0.728721     0.721077
      0.713434     0.705791     0.698148     0.690505     0.682862     0.675219     0.667576     0.659933     0.652290     0.644646
      0.637003     0.629360     0.621717     0.614074     0.606431     0.598788     0.591145     0.583502     0.575858     0.568215
      0.560572     0.552929     0.545286     0.537643     0.530000     0.522357     0.514714     0.507071     0.499427     0.491784
      0.484141     0.476498     0.468855     0.461212     0.453569     0.445925     0.438282     0.430639     0.422996     0.415353
      0.407710     0.400067     0.392424     0.384780     0.377137     0.369494     0.361851     0.354208     0.346565     0.338922
      0.331278     0.323635     0.315992     0.308349     0.300706     0.293063     0.285420     0.277777     0.270133     0.262490
      0.254847     0.247204     0.239561     0.231918     0.224275     0.216631     0.208988     0.201345
 NY phased data points follow
  -7.24943E+00 -4.47570E+00 -6.39251E+00 -2.41248E+00  8.68379E-01  6.79083E+00  1.25406E+01  7.64698E+00  1.76786E+01  2.89804E+01
   2.80265E+01  3.47694E+01  3.27706E+01  2.93985E+01  3.18583E+01  2.84526E+01  2.07088E+01  1.51507E+01  9.06061E+00  1.14851E+01
  -9.31545E-02  6.19525E+00  3.77513E+00  9.14055E+00  4.78901E+00  6.34029E+00  6.79794E+00  1.79661E+01  1.53251E+01  1.17175E+01
   1.36900E+01  1.88127E+01  1.61640E+01  1.36623E+01  7.44387E+00  1.02963E+01  7.15891E+00  8.91959E+00  6.35017E+00  1.13955E+01
   1.00953E+01  7.30518E+00  5.27521E+00  1.19380E+01  8.62366E+00  8.93423E+00  1.46514E+01  1.79830E+01  1.36016E+01  1.48697E+01
   1.60904E+01  1.27375E+01  5.71410E+00  7.83658E+00  7.28472E+00  4.35893E+00  1.16373E+01  1.04440E+01  7.78969E+00  8.81803E+00
   6.25621E+00  9.78959E+00  2.66088E+00  4.32964E+00 -3.73087E+00  2.56961E+00 -2.19947E+00 -6.08790E-01  2.65790E+00 -2.31299E+00
  -4.11341E+00  1.87749E+00 -8.41389E-02 -2.43706E+00  4.66932E-01  2.66997E+00  1.91142E+00  5.82271E-01  2.39350E+00 -2.76804E+00
   1.90870E+00  5.57275E-01  9.50969E-01  4.82436E+00  3.87584E+00  1.75528E+00  1.39173E+00  4.48629E+00  3.42753E+00  6.47176E-01
  -2.96908E+00  2.03322E+00 -9.36681E-02 -2.90290E-01  2.20849E+00  5.22806E+00 -2.59751E+00  4.05922E+00  8.46945E+00  1.43961E+01
   1.65096E+01  2.99024E+01  3.94541E+01  5.00179E+01  4.47164E+01  4.30044E+01  3.75622E+01  3.16722E+01  1.85829E+01  1.46655E+01
   9.37960E+00  4.43344E+00  3.70805E+00  2.71569E+00  4.14648E+00  6.21947E+00 -1.95130E+00  8.09441E-01 -7.17874E-01  5.27068E-01
  -6.61612E-02  3.03648E+00  2.12434E+00  1.11026E+01  1.33902E+01  3.20966E+01  3.60533E+01  4.12567E+01  4.57533E+01  5.18592E+01
   4.38231E+01  3.31032E+01  2.48238E+01  1.87977E+01  1.01843E+01  7.80709E+00  4.98846E+00 -5.41539E-01  7.36893E+00  5.98920E+00
  -2.40083E+00  3.42693E+00  1.47837E+00  3.41772E+00  1.36176E+00  3.16635E+00 -1.39979E+00  5.67809E+00 -3.76463E+00 -3.86392E+00
  -2.32090E+00  6.03100E-01 -4.85848E-01 -9.12835E-01  4.02199E+00 -1.89683E+00 -2.15535E+00  2.23736E+00 -5.43189E-01 -1.17052E+00
  -5.57235E+00 -7.75747E-01 -5.73949E+00 -3.89584E+00 -2.84450E+00 -1.96162E+00 -1.60016E+00 -3.22911E+00 -5.00608E+00 -6.20472E+00
  -9.05013E+00 -7.76692E+00 -7.32161E+00 -9.47060E+00 -1.10433E+01 -1.05660E+01 -1.14990E+01 -1.11638E+01 -9.31030E+00 -1.18675E+01
  -1.42357E+01 -8.01805E+00 -1.72808E+01 -1.67083E+01 -1.52851E+01 -1.96356E+00 -4.93632E+00 -1.09192E+01 -7.59647E+00 -3.56240E+00
  -1.28018E+00 -2.95654E+00  9.10381E-01  5.80719E-02  2.24824E+00 -2.58189E+00  1.22718E+00  1.14571E+00 -5.82834E-02 -7.46702E-01
  -4.39687E+00 -5.63385E+00 -9.88166E-01 -2.61474E+00  8.78324E-01  2.60209E+00 -3.06426E-01 -3.81851E+00 -4.39593E+00 -4.10255E+00
  -6.57789E+00 -8.52143E+00 -6.24917E+00  1.41374E+00  1.22021E+00  5.69467E+00  1.13320E+01  6.06623E+00 -2.70062E-01 -1.71842E+00
  -2.87519E+00 -5.93388E+00 -6.94196E+00 -4.65167E+00 -4.58307E+00  9.01721E-01  3.56677E+00  5.07380E+00  3.02180E+00  7.14639E+00
   3.30588E+00  9.02242E+00  6.80214E-01  5.55316E+00  5.77427E+00  3.84566E+00  3.64343E+00  9.28442E+00  2.38276E+00  7.65705E+00
   4.12109E+00  1.51484E+00 -2.89627E-01  4.91380E+00  4.88881E+00  5.08232E+00  1.14867E+00  5.07198E+00  6.40322E+00  7.65901E+00
   5.69186E+00  1.04012E+01  1.27120E+01  1.53806E+01  1.78768E+01  2.56383E+01  3.39601E+01  5.21376E+01  5.72656E+01  6.22777E+01
   7.22610E+01  7.50481E+01  6.51135E+01  5.19642E+01  4.13246E+01  2.62321E+01  1.62509E+01  1.32909E+01  4.51186E+00  1.66476E+00
   3.49099E+00  3.53004E+00 -2.84603E+00  2.59329E+00 -4.32632E-02  3.93911E+00  1.89416E+00  1.19864E+00 -3.92539E-01  3.59335E+00
  -4.05552E+00 -1.18121E+00  1.46381E+00 -1.24801E+00 -9.38945E-01 -1.10748E+00 -3.76805E+00 -2.10284E+00  7.93039E-01 -2.27659E+00
  -3.36968E+00  3.50472E+00 -3.15734E+00 -9.28386E-01 -1.28099E-01 -2.47641E+00 -3.34882E+00  3.51539E+00  1.56420E+00  3.51497E-01
  -1.75238E+00 -3.83412E-02  1.72706E+00  6.83987E+00  4.03976E+00  5.82064E+00  2.24340E+00  3.69966E+00 -9.24113E-01  9.89198E+00
   3.84912E+00  3.63292E+00  7.63193E+00  4.56912E+00  9.31804E+00  6.34421E+00  9.44391E+00  3.91180E+00  4.91259E+00  3.22488E+00
   3.84100E+00  4.36076E+00  7.35281E+00  3.37503E+00  5.83627E-01  6.04808E+00  6.80897E+00  7.52181E+00  3.55004E+00  9.08948E+00
   2.31107E+00  6.37921E+00  3.99508E+00  5.27366E+00  7.78124E+00  7.17476E+00  5.76078E+00  1.08741E+01  5.65927E+00  7.45654E+00
   1.17317E+01  1.28060E+01  7.55667E+00  1.15339E+01  1.41220E+01  6.86046E+00  1.45574E+01  1.57099E+01  1.09819E+01  1.15287E+01
   6.69545E+00  7.04845E+00  8.10995E+00  1.37210E+01  1.12199E+01  1.55342E+01  1.72672E+01  1.42315E+01  1.14843E+01  1.28984E+01
   1.09251E+01  1.18000E+01  9.75678E+00  8.60706E+00  1.01003E+01  2.97263E+00  5.49812E+00  5.73521E+00  6.26750E+00  9.31533E+00
   8.19056E+00  6.20165E+00  2.07951E+00  3.99414E+00  3.81214E+00  2.54894E+00 -4.57496E-01  3.14863E+00 -1.57515E+00  6.03885E+00
   1.08962E+00  7.70967E+00  1.59793E+00  1.39205E+00  2.00801E+00  1.55604E+00  1.35890E+00  4.93150E+00 -9.28899E-01  1.55012E+00
   6.96076E+00  1.61652E+00  5.18129E+00  5.78079E+00  8.00545E+00  9.56530E+00  5.45710E+00  4.49757E+00  5.66576E+00  1.06042E+01
   6.92450E+00  7.32150E+00  8.54800E+00  4.88469E+00  9.35738E+00  9.85706E+00  9.55954E+00  4.90790E+00  1.33791E+01  1.01802E+01
   2.02887E+00  4.82109E+00  9.92089E+00  1.12480E+01  4.73452E+00  3.97396E+00  2.22526E+00  4.41859E-01 -8.08121E-01 -2.14134E+00
   5.32850E+00 -3.84096E+00 -2.41051E+00  1.02250E+00  2.32880E+00  5.80919E-01  3.52467E-01 -1.74252E-01 -4.91720E+00 -2.44456E+00
   1.21881E-01  5.19917E-01 -4.64075E+00 -3.33199E+00 -3.53467E+00 -4.43458E+00 -5.10581E+00 -6.59396E+00 -3.81038E+00 -2.10676E+00
  -4.77845E+00 -2.30639E+00 -4.19479E+00 -6.45730E+00 -4.04426E+00  2.03426E+00 -2.88381E+00 -3.93553E+00 -2.24115E+00 -6.86930E-01
  -4.69862E-01 -6.22499E+00  3.65603E+00 -7.72214E+00 -4.13105E+00 -6.00784E+00 -6.23779E+00 -2.01337E+00 -3.26893E+00 -8.12116E-01
  -1.33365E+00 -4.61799E+00 -1.95357E+00 -6.10236E+00 -4.76815E+00  3.15240E-01 -5.64147E+00  2.93862E+00 -4.70193E+00 -1.07451E+00
  -1.47014E+00 -1.65364E+00 -2.65221E+00 -3.10239E-01 -1.73699E+00 -1.94493E+00 -5.54647E+00 -2.64191E+00 -4.70206E+00 -2.70938E+00
  -5.16406E+00  3.38610E-01 -3.54640E+00 -1.73130E+00 -7.23664E+00 -6.45758E+00 -2.46629E+00 -6.58175E+00 -1.58617E+00 -4.10526E+00
   1.27868E-01 -5.64999E+00  1.99855E+00 -4.16733E-01 -7.85821E+00 -2.81333E+00  1.70670E-01 -5.45631E+00
 NY points of the fit to the data follow
   1.19710E+00  2.24783E-01 -2.62534E-02  3.42774E-01  1.31340E+00  3.63506E+00  7.11059E+00  1.13442E+01  1.64636E+01  2.20857E+01
   2.70559E+01  3.05348E+01  3.20979E+01  3.13817E+01  2.83701E+01  2.37944E+01  1.87681E+01  1.42590E+01  1.08466E+01  8.25918E+00
   5.88634E+00  4.36032E+00  3.94214E+00  4.04058E+00  4.31669E+00  5.29931E+00  7.21366E+00  9.56658E+00  1.20080E+01  1.44714E+01
   1.65225E+01  1.74431E+01  1.68767E+01  1.51772E+01  1.28459E+01  1.03224E+01  7.79515E+00  5.28192E+00  3.39791E+00  2.60844E+00
   2.71162E+00  3.53562E+00  4.96637E+00  7.11194E+00  9.75841E+00  1.22955E+01  1.43327E+01  1.55358E+01  1.55019E+01  1.40985E+01
   1.14624E+01  8.29139E+00  5.60582E+00  3.86525E+00  2.82270E+00  2.31740E+00  2.54026E+00  3.38619E+00  4.35499E+00  5.06602E+00
   5.38013E+00  5.17324E+00  4.44031E+00  3.31976E+00  2.18175E+00  1.41042E+00  1.07542E+00  1.13399E+00  1.57268E+00  2.21638E+00
   2.86278E+00  3.39748E+00  3.72820E+00  3.80912E+00  3.61873E+00  3.21945E+00  2.75917E+00  2.34154E+00  2.02552E+00  1.84784E+00
   1.84758E+00  1.94189E+00  2.20492E+00  2.63059E+00  2.96112E+00  3.01704E+00  2.81918E+00  2.31648E+00  1.44196E+00  3.85519E-01
  -5.33987E-01 -1.05827E+00 -1.14385E+00 -1.04489E+00 -1.06483E+00 -9.29649E-01  5.34503E-01  3.44445E+00  7.31811E+00  1.33558E+01
   2.18203E+01  3.09809E+01  3.91477E+01  4.53603E+01  4.80525E+01  4.58524E+01  3.90602E+01  2.98867E+01  2.10711E+01  1.42605E+01
   9.06811E+00  4.43786E+00  1.26782E+00  1.51981E-01 -2.87724E-01 -5.55272E-01 -7.73493E-01 -9.43452E-01 -1.03598E+00 -9.32271E-01
   2.25110E-02  2.75885E+00  6.67136E+00  1.22342E+01  2.01527E+01  2.93389E+01  3.79279E+01  4.48999E+01  4.91115E+01  4.90719E+01
   4.42013E+01  3.58606E+01  2.66321E+01  1.86110E+01  1.22523E+01  6.65144E+00  2.09693E+00  1.40548E-01 -5.43202E-02  4.56238E-01
   1.16830E+00  1.78921E+00  2.20595E+00  2.28467E+00  2.02619E+00  1.60462E+00  1.11326E+00  5.95172E-01  1.20366E-01 -3.23115E-01
  -6.81505E-01 -9.70408E-01 -1.18906E+00 -1.35028E+00 -1.50859E+00 -1.64124E+00 -1.77825E+00 -1.96962E+00 -2.19495E+00 -2.45952E+00
  -2.71094E+00 -2.87113E+00 -2.92079E+00 -2.89695E+00 -2.83774E+00 -2.84627E+00 -3.06556E+00 -3.50603E+00 -4.01511E+00 -4.49588E+00
  -4.94608E+00 -5.34933E+00 -5.79421E+00 -6.24145E+00 -6.56734E+00 -6.77403E+00 -6.88840E+00 -6.91257E+00 -6.83889E+00 -6.72581E+00
  -6.73848E+00 -6.85982E+00 -6.94942E+00 -6.84689E+00 -6.43847E+00 -5.74850E+00 -4.81871E+00 -3.61147E+00 -2.16681E+00 -7.26026E-01
   2.90283E-01  6.70419E-01  4.02521E-01 -4.28098E-01 -1.48608E+00 -2.38607E+00 -2.93559E+00 -2.94574E+00 -2.30989E+00 -1.08325E+00
   4.90032E-01  2.11610E+00  3.40406E+00  3.95229E+00  3.75197E+00  2.78235E+00  9.20318E-01 -1.41358E+00 -3.53008E+00 -4.90615E+00
  -5.38309E+00 -4.65618E+00 -2.64305E+00  1.00732E-01  2.69981E+00  4.45954E+00  4.93994E+00  4.06121E+00  1.85311E+00 -1.33205E+00
  -4.31287E+00 -6.17912E+00 -6.80799E+00 -6.26565E+00 -4.65078E+00 -2.12915E+00  4.15315E-01  2.18483E+00  3.04492E+00  3.34705E+00
   3.50358E+00  3.49682E+00  3.43413E+00  3.68863E+00  4.30905E+00  4.86943E+00  5.04096E+00  4.90341E+00  4.55497E+00  3.92644E+00
   3.10629E+00  2.49329E+00  2.26884E+00  2.41935E+00  2.92892E+00  3.69538E+00  4.59802E+00  5.38648E+00  5.96231E+00  6.50961E+00
   7.23939E+00  8.31879E+00  1.01174E+01  1.41646E+01  2.00113E+01  2.70045E+01  3.64434E+01  4.78223E+01  5.84189E+01  6.66191E+01
   7.16853E+01  7.18157E+01  6.55929E+01  5.40677E+01  4.05840E+01  2.87308E+01  1.99846E+01  1.30840E+01  6.85247E+00  3.13461E+00
   1.96880E+00  1.48392E+00  1.26163E+00  1.24050E+00  1.29493E+00  1.31015E+00  1.24795E+00  1.08278E+00  8.33516E-01  5.47270E-01
   2.61882E-01 -7.44047E-03 -2.26188E-01 -3.66275E-01 -4.40867E-01 -4.67717E-01 -4.61069E-01 -4.35528E-01 -3.94043E-01 -3.37327E-01
  -2.69080E-01 -1.82365E-01 -7.11982E-02  6.42282E-02  2.22525E-01  4.07613E-01  6.21933E-01  8.65072E-01  1.13831E+00  1.44128E+00
   1.76867E+00  2.11656E+00  2.47964E+00  2.84730E+00  3.20897E+00  3.55533E+00  3.87875E+00  4.17213E+00  4.42836E+00  4.64341E+00
   4.81468E+00  4.94089E+00  5.02350E+00  5.06579E+00  5.07277E+00  5.05167E+00  5.01141E+00  4.96226E+00  4.91612E+00  4.88835E+00
   4.89803E+00  4.93428E+00  4.99038E+00  5.07833E+00  5.17029E+00  5.22367E+00  5.22765E+00  5.18449E+00  5.11081E+00  5.04392E+00
   5.02646E+00  5.13841E+00  5.43107E+00  5.87393E+00  6.39847E+00  6.97384E+00  7.59121E+00  8.18657E+00  8.70396E+00  9.18771E+00
   9.74066E+00  1.03137E+01  1.08794E+01  1.14599E+01  1.19111E+01  1.20530E+01  1.18308E+01  1.12757E+01  1.05171E+01  9.65527E+00
   8.96784E+00  8.87626E+00  9.52425E+00  1.06515E+01  1.19145E+01  1.31239E+01  1.41691E+01  1.47001E+01  1.44917E+01  1.37120E+01
   1.26587E+01  1.15688E+01  1.04648E+01  9.30637E+00  8.28339E+00  7.44728E+00  6.72494E+00  6.08293E+00  5.50385E+00  4.97653E+00
   4.49371E+00  4.05103E+00  3.64644E+00  3.27943E+00  2.95052E+00  2.66075E+00  2.41142E+00  2.20386E+00  2.03937E+00  1.91917E+00
   1.84441E+00  1.81613E+00  1.83533E+00  1.90289E+00  2.01951E+00  2.18565E+00  2.40138E+00  2.66622E+00  2.97897E+00  3.33747E+00
   3.73844E+00  4.17728E+00  4.64794E+00  5.14285E+00  5.65288E+00  6.16744E+00  6.67472E+00  7.16194E+00  7.61580E+00  8.02297E+00
   8.37062E+00  8.64700E+00  8.84203E+00  8.94779E+00  8.95897E+00  8.87309E+00  8.69073E+00  8.41539E+00  8.05341E+00  7.61359E+00
   7.10673E+00  6.54507E+00  5.94174E+00  5.31010E+00  4.66326E+00  4.01350E+00  3.37195E+00  2.74819E+00  2.15016E+00  1.58402E+00
   1.05425E+00  5.63663E-01  1.13641E-01 -2.95711E-01 -6.65306E-01 -9.96849E-01 -1.29261E+00 -1.55525E+00 -1.78762E+00 -1.99267E+00
  -2.17328E+00 -2.33219E+00 -2.47197E+00 -2.59497E+00 -2.70334E+00 -2.79897E+00 -2.88353E+00 -2.95848E+00 -3.02508E+00 -3.08443E+00
  -3.13748E+00 -3.18503E+00 -3.22780E+00 -3.26634E+00 -3.30119E+00 -3.33277E+00 -3.36149E+00 -3.38766E+00 -3.41155E+00 -3.43342E+00
  -3.45346E+00 -3.47187E+00 -3.48882E+00 -3.50444E+00 -3.51885E+00 -3.53214E+00 -3.54443E+00 -3.55582E+00 -3.56637E+00 -3.57616E+00
  -3.58524E+00 -3.59366E+00 -3.60148E+00 -3.60875E+00 -3.61550E+00 -3.62177E+00 -3.62758E+00 -3.63296E+00 -3.63795E+00 -3.64258E+00
  -3.64686E+00 -3.65080E+00 -3.65441E+00 -3.65772E+00 -3.66074E+00 -3.66348E+00 -3.66596E+00 -3.66816E+00 -3.67011E+00 -3.67182E+00
  -3.67330E+00 -3.67454E+00 -3.67555E+00 -3.67630E+00 -3.67683E+00 -3.67711E+00 -3.67716E+00 -3.67697E+00 -3.67651E+00 -3.67578E+00
  -3.67478E+00 -3.67349E+00 -3.67190E+00 -3.66998E+00 -3.66769E+00 -3.66503E+00 -3.66194E+00 -3.65841E+00
 NY background values follow
    -2.485E+00   -2.486E+00   -2.488E+00   -2.489E+00   -2.491E+00   -2.492E+00   -2.493E+00   -2.495E+00   -2.496E+00   -2.498E+00
    -2.499E+00   -2.501E+00   -2.502E+00   -2.503E+00   -2.505E+00   -2.506E+00   -2.508E+00   -2.509E+00   -2.511E+00   -2.512E+00
    -2.513E+00   -2.515E+00   -2.516E+00   -2.518E+00   -2.519E+00   -2.520E+00   -2.522E+00   -2.523E+00   -2.525E+00   -2.526E+00
    -2.527E+00   -2.529E+00   -2.530E+00   -2.532E+00   -2.533E+00   -2.535E+00   -2.536E+00   -2.537E+00   -2.539E+00   -2.540E+00
    -2.542E+00   -2.543E+00   -2.544E+00   -2.546E+00   -2.547E+00   -2.548E+00   -2.550E+00   -2.551E+00   -2.553E+00   -2.554E+00
    -2.555E+00   -2.557E+00   -2.558E+00   -2.560E+00   -2.561E+00   -2.562E+00   -2.564E+00   -2.565E+00   -2.567E+00   -2.568E+00
    -2.569E+00   -2.571E+00   -2.572E+00   -2.573E+00   -2.575E+00   -2.576E+00   -2.578E+00   -2.579E+00   -2.580E+00   -2.582E+00
    -2.583E+00   -2.584E+00   -2.586E+00   -2.587E+00   -2.588E+00   -2.590E+00   -2.591E+00   -2.593E+00   -2.594E+00   -2.595E+00
    -2.597E+00   -2.598E+00   -2.599E+00   -2.601E+00   -2.602E+00   -2.603E+00   -2.605E+00   -2.606E+00   -2.607E+00   -2.609E+00
    -2.610E+00   -2.611E+00   -2.613E+00   -2.614E+00   -2.615E+00   -2.617E+00   -2.618E+00   -2.619E+00   -2.621E+00   -2.622E+00
    -2.623E+00   -2.625E+00   -2.626E+00   -2.627E+00   -2.629E+00   -2.630E+00   -2.631E+00   -2.633E+00   -2.634E+00   -2.635E+00
    -2.637E+00   -2.638E+00   -2.639E+00   -2.641E+00   -2.642E+00   -2.643E+00   -2.645E+00   -2.646E+00   -2.647E+00   -2.649E+00
    -2.650E+00   -2.651E+00   -2.653E+00   -2.654E+00   -2.655E+00   -2.656E+00   -2.658E+00   -2.659E+00   -2.660E+00   -2.662E+00
    -2.663E+00   -2.664E+00   -2.666E+00   -2.667E+00   -2.668E+00   -2.669E+00   -2.671E+00   -2.672E+00   -2.673E+00   -2.675E+00
    -2.676E+00   -2.677E+00   -2.678E+00   -2.680E+00   -2.681E+00   -2.682E+00   -2.683E+00   -2.685E+00   -2.686E+00   -2.687E+00
    -2.689E+00   -2.690E+00   -2.691E+00   -2.692E+00   -2.694E+00   -2.695E+00   -2.696E+00   -2.697E+00   -2.699E+00   -2.700E+00
    -2.701E+00   -2.702E+00   -2.704E+00   -2.705E+00   -2.706E+00   -2.708E+00   -2.709E+00   -2.710E+00   -2.711E+00   -2.712E+00
    -2.714E+00   -2.715E+00   -2.716E+00   -2.717E+00   -2.719E+00   -2.720E+00   -2.721E+00   -2.722E+00   -2.724E+00   -2.725E+00
    -2.726E+00   -2.727E+00   -2.729E+00   -2.730E+00   -2.731E+00   -2.732E+00   -2.733E+00   -2.735E+00   -2.736E+00   -2.737E+00
    -2.738E+00   -2.740E+00   -2.741E+00   -2.742E+00   -2.743E+00   -2.744E+00   -2.746E+00   -2.747E+00   -2.748E+00   -2.749E+00
    -2.750E+00   -2.752E+00   -2.753E+00   -2.754E+00   -2.755E+00   -2.756E+00   -2.758E+00   -2.759E+00   -2.760E+00   -2.761E+00
    -2.762E+00   -2.764E+00   -2.765E+00   -2.766E+00   -2.767E+00   -2.768E+00   -2.770E+00   -2.771E+00   -2.772E+00   -2.773E+00
    -2.774E+00   -2.775E+00   -2.777E+00   -2.778E+00   -2.779E+00   -2.780E+00   -2.781E+00   -2.782E+00   -2.784E+00   -2.785E+00
    -2.786E+00   -2.787E+00   -2.788E+00   -2.789E+00   -2.791E+00   -2.792E+00   -2.793E+00   -2.794E+00   -2.795E+00   -2.796E+00
    -2.797E+00   -2.799E+00   -2.800E+00   -2.801E+00   -2.802E+00   -2.803E+00   -2.804E+00   -2.805E+00   -2.807E+00   -2.808E+00
    -2.809E+00   -2.810E+00   -2.811E+00   -2.812E+00   -2.813E+00   -2.814E+00   -2.816E+00   -2.817E+00   -2.818E+00   -2.819E+00
    -2.820E+00   -2.821E+00   -2.822E+00   -2.823E+00   -2.824E+00   -2.826E+00   -2.827E+00   -2.828E+00   -2.829E+00   -2.830E+00
    -2.831E+00   -2.832E+00   -2.833E+00   -2.834E+00   -2.836E+00   -2.837E+00   -2.838E+00   -2.839E+00   -2.840E+00   -2.841E+00
    -2.842E+00   -2.843E+00   -2.844E+00   -2.845E+00   -2.846E+00   -2.847E+00   -2.849E+00   -2.850E+00   -2.851E+00   -2.852E+00
    -2.853E+00   -2.854E+00   -2.855E+00   -2.856E+00   -2.857E+00   -2.858E+00   -2.859E+00   -2.860E+00   -2.861E+00   -2.862E+00
    -2.863E+00   -2.865E+00   -2.866E+00   -2.867E+00   -2.868E+00   -2.869E+00   -2.870E+00   -2.871E+00   -2.872E+00   -2.873E+00
    -2.874E+00   -2.875E+00   -2.876E+00   -2.877E+00   -2.878E+00   -2.879E+00   -2.880E+00   -2.881E+00   -2.882E+00   -2.883E+00
    -2.884E+00   -2.885E+00   -2.886E+00   -2.887E+00   -2.888E+00   -2.889E+00   -2.890E+00   -2.891E+00   -2.892E+00   -2.893E+00
    -2.894E+00   -2.895E+00   -2.896E+00   -2.897E+00   -2.898E+00   -2.899E+00   -2.900E+00   -2.901E+00   -2.902E+00   -2.903E+00
    -2.904E+00   -2.905E+00   -2.906E+00   -2.907E+00   -2.908E+00   -2.909E+00   -2.910E+00   -2.911E+00   -2.912E+00   -2.913E+00
    -2.914E+00   -2.915E+00   -2.916E+00   -2.917E+00   -2.918E+00   -2.919E+00   -2.920E+00   -2.921E+00   -2.922E+00   -2.923E+00
    -2.924E+00   -2.925E+00   -2.926E+00   -2.927E+00   -2.928E+00   -2.929E+00   -2.930E+00   -2.931E+00   -2.932E+00   -2.933E+00
    -2.934E+00   -2.934E+00   -2.935E+00   -2.936E+00   -2.937E+00   -2.938E+00   -2.939E+00   -2.940E+00   -2.941E+00   -2.942E+00
    -2.943E+00   -2.944E+00   -2.945E+00   -2.946E+00   -2.947E+00   -2.948E+00   -2.948E+00   -2.949E+00   -2.950E+00   -2.951E+00
    -2.952E+00   -2.953E+00   -2.954E+00   -2.955E+00   -2.956E+00   -2.957E+00   -2.958E+00   -2.958E+00   -2.959E+00   -2.960E+00
    -2.961E+00   -2.962E+00   -2.963E+00   -2.964E+00   -2.965E+00   -2.966E+00   -2.967E+00   -2.967E+00   -2.968E+00   -2.969E+00
    -2.970E+00   -2.971E+00   -2.972E+00   -2.973E+00   -2.974E+00   -2.974E+00   -2.975E+00   -2.976E+00   -2.977E+00   -2.978E+00
    -2.979E+00   -2.980E+00   -2.980E+00   -2.981E+00   -2.982E+00   -2.983E+00   -2.984E+00   -2.985E+00   -2.986E+00   -2.986E+00
    -2.987E+00   -2.988E+00   -2.989E+00   -2.990E+00   -2.991E+00   -2.992E+00   -2.992E+00   -2.993E+00   -2.994E+00   -2.995E+00
    -2.996E+00   -2.997E+00   -2.997E+00   -2.998E+00   -2.999E+00   -3.000E+00   -3.001E+00   -3.001E+00   -3.002E+00   -3.003E+00
    -3.004E+00   -3.005E+00   -3.006E+00   -3.006E+00   -3.007E+00   -3.008E+00   -3.009E+00   -3.010E+00   -3.010E+00   -3.011E+00
    -3.012E+00   -3.013E+00   -3.014E+00   -3.014E+00   -3.015E+00   -3.016E+00   -3.017E+00   -3.018E+00   -3.018E+00   -3.019E+00
    -3.020E+00   -3.021E+00   -3.021E+00   -3.022E+00   -3.023E+00   -3.024E+00   -3.025E+00   -3.025E+00   -3.026E+00   -3.027E+00
    -3.028E+00   -3.028E+00   -3.029E+00   -3.030E+00   -3.031E+00   -3.031E+00   -3.032E+00   -3.033E+00   -3.034E+00   -3.034E+00
    -3.035E+00   -3.036E+00   -3.037E+00   -3.037E+00   -3.038E+00   -3.039E+00   -3.040E+00   -3.040E+00
 Ala      Conc. = 6.83E+01
