 LCModel (Version 6.3-1L) Copyright: S.W. Provencher.          Ref.: Magn. Reson. Med. 30:672-679 (1993).                
 Slice#3 Row#6 Col#5  PD_24_press_1_raw_act
 36 lines in following concentration table = NCONC+1
    Conc.  %SD /Cr+PCr  Metabolite                                         
    0.000 999%   0.000 Ala                                                 
    0.000 999%   0.000 Asp                                                 
 1.05E+03  19%   0.573 Cr                                                  
  784.109  26%   0.427 PCr                                                 
    0.000 999%   0.000 GABA                                                
    0.000 999%   0.000 Glc                                                 
  462.860  52%   0.252 Gln                                                 
 1.47E+03  18%   0.801 Glu                                                 
  540.590   4%   0.294 GPC                                                 
    0.000 999%   0.000 PCh                                                 
  319.482  23%   0.174 GSH                                                 
    0.000 999%   0.000 Ins                                                 
    0.000 999%   0.000 Lac                                                 
 1.99E+03   6%   1.086 NAA                                                 
  233.695  53%   0.127 NAAG                                                
    1.130 999% 6.2E-04 Scyllo                                              
    0.000 999%   0.000 Tau                                                 
    0.000 999%   0.000 -CrCH2                                              
  540.590   4%   0.294 GPC+PCh                                             
 2.23E+03   4%   1.213 NAA+NAAG                                            
 1.84E+03   3%   1.000 Cr+PCr                                              
 1.93E+03  20%   1.053 Glu+Gln                                             
 1.80E+03  27%   0.980 Lip13a                                              
    0.000 999%   0.000 Lip13b                                              
    0.000 999%   0.000 Lip09                                               
 1.52E+03  16%   0.825 MM09                                                
  230.265  89%   0.125 Lip20                                               
 2.64E+03  16%   1.435 MM20                                                
  596.425  26%   0.325 MM12                                                
 2.04E+03  20%   1.113 MM14                                                
 1.45E+03  21%   0.788 MM17                                                
 1.80E+03  27%   0.980 Lip13a+Lip13b                                       
 4.44E+03  14%   2.418 MM14+Lip13a+Lip13b+MM12                             
 1.52E+03  16%   0.825 MM09+Lip09                                          
 2.87E+03  15%   1.561 MM20+Lip20                                          
   6 lines in following misc. output table
  FWHM = 0.046 ppm    S/N =  11                                            
  Data shift =-0.008 ppm                                                   
  Ph:   2 deg       5.1 deg/ppm                                            
  alphaB,S = 7.5E-01,   1.0E+02                                            
   14 spline knots.   Ns = 7(1)                                            
  (13) 5 infls.   (15) 1 extrs.                                            
  498 points on ppm-axis = NY
      4.000000     3.992357     3.984714     3.977070     3.969427     3.961784     3.954141     3.946497     3.938854     3.931211
      3.923568     3.915925     3.908281     3.900638     3.892995     3.885352     3.877708     3.870065     3.862422     3.854779
      3.847136     3.839492     3.831849     3.824206     3.816563     3.808919     3.801276     3.793633     3.785990     3.778347
      3.770703     3.763060     3.755417     3.747774     3.740130     3.732487     3.724844     3.717201     3.709558     3.701914
      3.694271     3.686628     3.678985     3.671341     3.663698     3.656055     3.648412     3.640769     3.633125     3.625482
      3.617839     3.610196     3.602552     3.594909     3.587266     3.579623     3.571980     3.564336     3.556693     3.549050
      3.541407     3.533763     3.526120     3.518477     3.510834     3.503191     3.495547     3.487904     3.480261     3.472618
      3.464974     3.457331     3.449688     3.442045     3.434402     3.426758     3.419115     3.411472     3.403829     3.396185
      3.388542     3.380899     3.373256     3.365613     3.357969     3.350326     3.342683     3.335040     3.327396     3.319753
      3.312110     3.304467     3.296824     3.289180     3.281537     3.273894     3.266251     3.258607     3.250964     3.243321
      3.235678     3.228034     3.220391     3.212748     3.205105     3.197462     3.189818     3.182175     3.174532     3.166889
      3.159245     3.151602     3.143959     3.136316     3.128673     3.121029     3.113386     3.105743     3.098100     3.090456
      3.082813     3.075170     3.067527     3.059884     3.052240     3.044597     3.036954     3.029311     3.021667     3.014024
      3.006381     2.998738     2.991095     2.983451     2.975808     2.968165     2.960522     2.952878     2.945235     2.937592
      2.929949     2.922306     2.914662     2.907019     2.899376     2.891733     2.884089     2.876446     2.868803     2.861160
      2.853517     2.845873     2.838230     2.830587     2.822944     2.815300     2.807657     2.800014     2.792371     2.784728
      2.777084     2.769441     2.761798     2.754155     2.746511     2.738868     2.731225     2.723582     2.715939     2.708295
      2.700652     2.693009     2.685366     2.677722     2.670079     2.662436     2.654793     2.647150     2.639506     2.631863
      2.624220     2.616577     2.608933     2.601290     2.593647     2.586004     2.578361     2.570717     2.563074     2.555431
      2.547788     2.540144     2.532501     2.524858     2.517215     2.509572     2.501928     2.494285     2.486642     2.478999
      2.471355     2.463712     2.456069     2.448426     2.440783     2.433139     2.425496     2.417853     2.410210     2.402566
      2.394923     2.387280     2.379637     2.371994     2.364350     2.356707     2.349064     2.341421     2.333777     2.326134
      2.318491     2.310848     2.303205     2.295561     2.287918     2.280275     2.272632     2.264988     2.257345     2.249702
      2.242059     2.234416     2.226772     2.219129     2.211486     2.203843     2.196199     2.188556     2.180913     2.173270
      2.165627     2.157983     2.150340     2.142697     2.135054     2.127410     2.119767     2.112124     2.104481     2.096838
      2.089194     2.081551     2.073908     2.066265     2.058621     2.050978     2.043335     2.035692     2.028049     2.020405
      2.012762     2.005119     1.997476     1.989833     1.982190     1.974546     1.966903     1.959260     1.951617     1.943974
      1.936331     1.928688     1.921045     1.913402     1.905759     1.898115     1.890472     1.882829     1.875186     1.867543
      1.859900     1.852257     1.844614     1.836971     1.829327     1.821684     1.814041     1.806398     1.798755     1.791112
      1.783469     1.775826     1.768183     1.760540     1.752896     1.745253     1.737610     1.729967     1.722324     1.714681
      1.707038     1.699395     1.691752     1.684108     1.676465     1.668822     1.661179     1.653536     1.645893     1.638250
      1.630607     1.622964     1.615321     1.607677     1.600034     1.592391     1.584748     1.577105     1.569462     1.561819
      1.554176     1.546533     1.538890     1.531246     1.523603     1.515960     1.508317     1.500674     1.493031     1.485388
      1.477745     1.470102     1.462458     1.454815     1.447172     1.439529     1.431886     1.424243     1.416600     1.408957
      1.401314     1.393671     1.386027     1.378384     1.370741     1.363098     1.355455     1.347812     1.340169     1.332526
      1.324883     1.317240     1.309596     1.301953     1.294310     1.286667     1.279024     1.271381     1.263738     1.256095
      1.248452     1.240808     1.233165     1.225522     1.217879     1.210236     1.202593     1.194950     1.187307     1.179664
      1.172021     1.164377     1.156734     1.149091     1.141448     1.133805     1.126162     1.118519     1.110876     1.103233
      1.095590     1.087946     1.080303     1.072660     1.065017     1.057374     1.049731     1.042088     1.034445     1.026802
      1.019158     1.011515     1.003872     0.996229     0.988586     0.980943     0.973300     0.965657     0.958014     0.950371
      0.942727     0.935084     0.927441     0.919798     0.912155     0.904512     0.896869     0.889226     0.881583     0.873940
      0.866296     0.858653     0.851010     0.843367     0.835724     0.828081     0.820438     0.812795     0.805152     0.797508
      0.789865     0.782222     0.774579     0.766936     0.759293     0.751650     0.744007     0.736364     0.728721     0.721077
      0.713434     0.705791     0.698148     0.690505     0.682862     0.675219     0.667576     0.659933     0.652290     0.644646
      0.637003     0.629360     0.621717     0.614074     0.606431     0.598788     0.591145     0.583502     0.575858     0.568215
      0.560572     0.552929     0.545286     0.537643     0.530000     0.522357     0.514714     0.507071     0.499427     0.491784
      0.484141     0.476498     0.468855     0.461212     0.453569     0.445925     0.438282     0.430639     0.422996     0.415353
      0.407710     0.400067     0.392424     0.384780     0.377137     0.369494     0.361851     0.354208     0.346565     0.338922
      0.331278     0.323635     0.315992     0.308349     0.300706     0.293063     0.285420     0.277777     0.270133     0.262490
      0.254847     0.247204     0.239561     0.231918     0.224275     0.216631     0.208988     0.201345
 NY phased data points follow
   9.45019E+01  9.39539E+01  9.44522E+01  9.30417E+01  9.82261E+01  1.00240E+02  1.07962E+02  1.07739E+02  1.16641E+02  1.18420E+02
   1.22480E+02  1.17371E+02  1.20873E+02  1.15996E+02  1.06192E+02  9.76440E+01  9.12945E+01  8.43763E+01  9.08887E+01  8.37220E+01
   8.37637E+01  7.77748E+01  8.29411E+01  7.69021E+01  7.57224E+01  7.16337E+01  7.80645E+01  7.61758E+01  7.68563E+01  7.71662E+01
   8.09173E+01  7.33192E+01  7.97322E+01  7.26440E+01  7.21030E+01  6.92758E+01  7.16509E+01  6.71624E+01  6.98749E+01  6.46818E+01
   6.39300E+01  6.56999E+01  6.58162E+01  6.90425E+01  6.63418E+01  6.73587E+01  7.08905E+01  7.17287E+01  6.86396E+01  6.31595E+01
   6.54363E+01  6.28582E+01  6.08207E+01  5.86876E+01  6.06527E+01  5.31697E+01  6.11199E+01  5.61154E+01  5.53954E+01  5.39552E+01
   5.57595E+01  4.84604E+01  4.81068E+01  4.17031E+01  4.66977E+01  4.18150E+01  4.03804E+01  4.34773E+01  4.20946E+01  4.13185E+01
   4.29881E+01  4.10888E+01  3.98214E+01  3.79853E+01  4.14542E+01  4.23533E+01  3.65706E+01  4.29666E+01  4.18377E+01  3.97189E+01
   4.26803E+01  3.67697E+01  3.65774E+01  3.81553E+01  4.17487E+01  3.89458E+01  4.22071E+01  4.34383E+01  3.90174E+01  4.03634E+01
   4.06877E+01  4.02039E+01  3.66139E+01  4.00818E+01  4.18053E+01  4.58022E+01  4.62042E+01  4.75827E+01  4.75021E+01  5.20270E+01
   6.20557E+01  7.39034E+01  8.10669E+01  8.64664E+01  8.06552E+01  7.58269E+01  6.58160E+01  5.53904E+01  5.48751E+01  4.52375E+01
   4.22062E+01  4.39565E+01  4.03412E+01  3.75150E+01  3.46581E+01  3.57417E+01  3.31982E+01  3.17943E+01  3.68557E+01  3.41386E+01
   3.90538E+01  4.17769E+01  4.86161E+01  5.31593E+01  5.98662E+01  6.72199E+01  8.38780E+01  8.58169E+01  8.22825E+01  7.44452E+01
   6.39806E+01  5.25632E+01  5.09958E+01  3.95982E+01  4.10850E+01  3.58239E+01  3.70087E+01  2.77032E+01  2.72161E+01  2.84981E+01
   3.29809E+01  2.69430E+01  2.76396E+01  2.56041E+01  2.70100E+01  2.33329E+01  1.92519E+01  2.59604E+01  2.77158E+01  2.14425E+01
   2.06280E+01  2.28557E+01  2.33953E+01  2.17633E+01  2.15938E+01  2.02534E+01  2.21086E+01  2.44357E+01  2.19456E+01  1.69067E+01
   2.07791E+01  1.53247E+01  1.39917E+01  1.28730E+01  1.62114E+01  1.68544E+01  2.17566E+01  1.68719E+01  1.75567E+01  8.60336E+00
   1.00576E+01  6.08250E+00  1.27041E+01  1.16803E+01  7.34349E+00  1.04245E+01  9.66478E+00  8.82473E+00  9.81307E+00  1.30815E+01
   1.22253E+01  1.14811E+01  1.23609E+01  9.76266E+00  7.78607E+00  1.07253E+01  1.18536E+01  1.54969E+01  1.16777E+01  1.17769E+01
   1.48872E+01  1.99684E+01  2.79662E+01  2.33557E+01  2.04106E+01  1.70591E+01  1.78075E+01  2.02444E+01  1.29520E+01  1.36586E+01
   2.17006E+01  1.73182E+01  1.84330E+01  2.26445E+01  1.81776E+01  1.85091E+01  1.89708E+01  1.04657E+01  9.76016E+00  1.26531E+01
   1.35142E+01  1.44688E+01  1.47873E+01  1.27099E+01  2.45284E+01  2.49860E+01  2.62212E+01  2.18735E+01  1.81663E+01  1.41108E+01
   1.45448E+01  1.27850E+01  1.31154E+01  1.20020E+01  1.67823E+01  1.24118E+01  1.95196E+01  2.04278E+01  1.94432E+01  2.16961E+01
   1.89145E+01  1.63102E+01  2.07634E+01  2.00604E+01  1.98224E+01  2.06400E+01  2.21779E+01  2.00054E+01  1.60386E+01  1.38857E+01
   1.52316E+01  1.85644E+01  1.84947E+01  1.54136E+01  2.04400E+01  2.37131E+01  2.80364E+01  2.44086E+01  2.36666E+01  2.47410E+01
   3.25825E+01  2.34825E+01  3.28946E+01  3.48345E+01  4.11375E+01  4.86305E+01  5.65412E+01  6.18524E+01  6.80334E+01  8.68466E+01
   9.41702E+01  9.38255E+01  8.12987E+01  5.60080E+01  4.57487E+01  3.78720E+01  3.43528E+01  3.11478E+01  2.51592E+01  2.27764E+01
   1.99003E+01  1.70524E+01  2.01432E+01  1.80615E+01  2.23529E+01  1.99744E+01  1.85296E+01  1.65104E+01  1.84537E+01  1.65572E+01
   1.51530E+01  1.21216E+01  1.32245E+01  9.68241E+00  1.61226E+01  1.16151E+01  1.35673E+01  1.59408E+01  1.94888E+01  1.35043E+01
   1.45866E+01  1.56599E+01  2.17650E+01  1.27785E+01  1.75395E+01  1.67977E+01  1.63259E+01  1.48234E+01  1.39384E+01  1.29537E+01
   1.57715E+01  2.05251E+01  2.18322E+01  2.38499E+01  2.11337E+01  2.48755E+01  2.98850E+01  2.82812E+01  2.56634E+01  2.85780E+01
   3.43731E+01  2.32787E+01  2.54528E+01  2.39365E+01  2.91783E+01  2.01663E+01  2.73801E+01  2.89629E+01  2.60180E+01  2.59562E+01
   2.82033E+01  2.70114E+01  2.63856E+01  2.29211E+01  2.79292E+01  2.64328E+01  2.44719E+01  2.46716E+01  2.69273E+01  2.60717E+01
   2.69030E+01  2.61033E+01  2.61604E+01  2.60654E+01  2.65572E+01  2.18573E+01  2.92096E+01  2.03647E+01  2.17904E+01  2.22908E+01
   2.33671E+01  1.95645E+01  2.01728E+01  2.69970E+01  2.23149E+01  1.78057E+01  2.10348E+01  1.78007E+01  2.16738E+01  2.18830E+01
   2.06349E+01  2.03941E+01  2.17603E+01  2.18931E+01  2.41155E+01  1.89799E+01  2.35417E+01  2.02073E+01  2.33873E+01  2.43216E+01
   2.27404E+01  1.96604E+01  2.18537E+01  1.95563E+01  2.34320E+01  2.08044E+01  2.05974E+01  2.90360E+01  2.41488E+01  2.22291E+01
   2.40537E+01  2.29027E+01  2.36069E+01  2.29746E+01  2.19406E+01  2.02043E+01  2.09055E+01  1.97697E+01  1.48652E+01  1.55609E+01
   1.85974E+01  1.56724E+01  1.72818E+01  1.48793E+01  1.60857E+01  1.70823E+01  1.95760E+01  1.48148E+01  1.53300E+01  1.28002E+01
   1.43469E+01  1.64529E+01  1.98851E+01  1.87995E+01  1.82755E+01  2.06881E+01  2.18382E+01  2.32033E+01  1.98996E+01  2.34419E+01
   2.21066E+01  1.84414E+01  2.15294E+01  2.21436E+01  2.10334E+01  2.02381E+01  1.94709E+01  2.02426E+01  2.49370E+01  1.54882E+01
   1.51583E+01  1.66467E+01  2.20940E+01  1.81549E+01  1.20214E+01  1.37075E+01  1.72218E+01  1.91215E+01  1.56243E+01  1.59349E+01
   1.37582E+01  1.35271E+01  1.32511E+01  1.18318E+01  9.24318E+00  1.24098E+01  1.43865E+01  1.28806E+01  9.97391E+00  1.06544E+01
   1.33556E+01  1.08177E+01  8.00342E+00  1.47102E+01  1.17327E+01  1.03174E+01  1.22412E+01  1.03108E+01  1.07700E+01  1.38163E+01
   1.50323E+01  1.35023E+01  1.16280E+01  1.26941E+01  1.64745E+01  9.32511E+00  1.10505E+01  1.12946E+01  6.75245E+00  1.22287E+01
   1.36285E+01  1.23853E+01  1.25129E+01  1.30728E+01  1.43597E+01  1.19957E+01  1.11904E+01  1.04611E+01  1.05194E+01  8.88764E+00
   8.19417E+00  1.26596E+01  8.78127E+00  1.00632E+01  9.93965E+00  1.09977E+01  6.26972E+00  7.73918E+00  1.47048E+01  7.80847E+00
   1.42251E+01  8.03803E+00  5.99637E+00  8.59490E+00  8.55254E+00  9.55032E+00  1.32614E+01  1.30347E+01  1.08586E+01  1.07705E+01
   1.13916E+01  1.07358E+01  8.17685E+00  1.10035E+01  1.14259E+01  7.50113E+00  1.45650E+01  1.02115E+01  5.64878E+00  1.37398E+01
   1.35542E+01  6.30650E+00  7.15136E+00  7.87467E+00  1.18386E+01  1.57997E+01  1.15822E+01  1.23946E+01
 NY points of the fit to the data follow
   8.88073E+01  8.91879E+01  9.05603E+01  9.22897E+01  9.45194E+01  9.83586E+01  1.03313E+02  1.08488E+02  1.13218E+02  1.16795E+02
   1.18645E+02  1.18281E+02  1.15479E+02  1.10535E+02  1.04361E+02  9.82709E+01  9.30925E+01  8.91095E+01  8.63851E+01  8.37190E+01
   8.08880E+01  7.89149E+01  7.76979E+01  7.70368E+01  7.65397E+01  7.60529E+01  7.57877E+01  7.59892E+01  7.67877E+01  7.78951E+01
   7.87935E+01  7.88979E+01  7.79489E+01  7.61969E+01  7.39500E+01  7.15586E+01  6.95071E+01  6.79208E+01  6.68973E+01  6.67022E+01
   6.68436E+01  6.67677E+01  6.63501E+01  6.57911E+01  6.52760E+01  6.47099E+01  6.40567E+01  6.32656E+01  6.24233E+01  6.17668E+01
   6.12251E+01  6.06086E+01  5.98805E+01  5.90589E+01  5.81182E+01  5.71864E+01  5.63824E+01  5.56035E+01  5.47604E+01  5.39334E+01
   5.31962E+01  5.25258E+01  5.18936E+01  5.12759E+01  5.06822E+01  5.01198E+01  4.95762E+01  4.90449E+01  4.85229E+01  4.80118E+01
   4.75111E+01  4.70191E+01  4.65347E+01  4.60574E+01  4.55874E+01  4.51244E+01  4.46683E+01  4.42190E+01  4.37768E+01  4.33443E+01
   4.29204E+01  4.25027E+01  4.20934E+01  4.16954E+01  4.13093E+01  4.09319E+01  4.05576E+01  4.01846E+01  3.98179E+01  3.94672E+01
   3.91432E+01  3.88556E+01  3.86183E+01  3.84629E+01  3.84807E+01  3.90720E+01  4.17219E+01  4.64492E+01  5.12049E+01  5.63067E+01
   6.31514E+01  7.20794E+01  8.10715E+01  8.62536E+01  8.46457E+01  7.66001E+01  6.57394E+01  5.62810E+01  5.00419E+01  4.61130E+01
   4.24475E+01  3.79204E+01  3.43343E+01  3.30167E+01  3.24904E+01  3.21924E+01  3.20252E+01  3.19960E+01  3.22513E+01  3.35153E+01
   3.69010E+01  4.22053E+01  4.79717E+01  5.44203E+01  6.27737E+01  7.29920E+01  8.26491E+01  8.77610E+01  8.54911E+01  7.65889E+01
   6.49911E+01  5.48795E+01  4.79428E+01  4.30734E+01  3.82006E+01  3.27969E+01  2.85400E+01  2.66622E+01  2.61867E+01  2.62210E+01
   2.63559E+01  2.63296E+01  2.60974E+01  2.57347E+01  2.52762E+01  2.48029E+01  2.43716E+01  2.39387E+01  2.34828E+01  2.30187E+01
   2.25629E+01  2.21634E+01  2.18085E+01  2.14735E+01  2.10863E+01  2.07178E+01  2.04287E+01  2.01615E+01  1.98503E+01  1.93384E+01
   1.86924E+01  1.82153E+01  1.81074E+01  1.82693E+01  1.83708E+01  1.81117E+01  1.74427E+01  1.65889E+01  1.58595E+01  1.53499E+01
   1.49323E+01  1.45968E+01  1.41983E+01  1.36491E+01  1.30502E+01  1.25841E+01  1.24673E+01  1.27068E+01  1.29995E+01  1.30110E+01
   1.26558E+01  1.22897E+01  1.22788E+01  1.26182E+01  1.30783E+01  1.34354E+01  1.37786E+01  1.44613E+01  1.55757E+01  1.68494E+01
   1.77771E+01  1.79938E+01  1.76629E+01  1.71177E+01  1.66052E+01  1.62302E+01  1.59499E+01  1.59010E+01  1.61768E+01  1.67526E+01
   1.75340E+01  1.83708E+01  1.90514E+01  1.91883E+01  1.87710E+01  1.78326E+01  1.63369E+01  1.45146E+01  1.29166E+01  1.21710E+01
   1.23536E+01  1.32075E+01  1.47108E+01  1.67948E+01  1.89898E+01  2.04684E+01  2.04823E+01  1.90516E+01  1.67270E+01  1.39121E+01
   1.14013E+01  9.82825E+00  9.42630E+00  1.03326E+01  1.22554E+01  1.47330E+01  1.70088E+01  1.84584E+01  1.91315E+01  1.93574E+01
   1.95407E+01  1.97197E+01  1.97742E+01  1.98957E+01  2.02623E+01  2.06956E+01  2.09492E+01  2.10267E+01  2.09525E+01  2.07087E+01
   2.02386E+01  1.97374E+01  1.95701E+01  1.99359E+01  2.07537E+01  2.17124E+01  2.26180E+01  2.33238E+01  2.38809E+01  2.46442E+01
   2.55992E+01  2.68027E+01  2.87645E+01  3.39163E+01  4.21648E+01  4.96172E+01  5.62112E+01  6.40797E+01  7.44442E+01  8.53326E+01
   9.17740E+01  8.93954E+01  7.82497E+01  6.30651E+01  4.98201E+01  4.14114E+01  3.64130E+01  3.16843E+01  2.54310E+01  2.04387E+01
   1.87826E+01  1.80773E+01  1.76525E+01  1.74147E+01  1.72419E+01  1.69936E+01  1.66815E+01  1.63349E+01  1.59939E+01  1.56923E+01
   1.54399E+01  1.52157E+01  1.50182E+01  1.48636E+01  1.47480E+01  1.46552E+01  1.45774E+01  1.45284E+01  1.45281E+01  1.45855E+01
   1.46981E+01  1.48734E+01  1.51149E+01  1.54219E+01  1.57893E+01  1.62191E+01  1.67173E+01  1.72878E+01  1.79306E+01  1.86411E+01
   1.94101E+01  2.02272E+01  2.10736E+01  2.19266E+01  2.27637E+01  2.35642E+01  2.43096E+01  2.49823E+01  2.55648E+01  2.60471E+01
   2.64229E+01  2.66894E+01  2.68500E+01  2.69138E+01  2.68934E+01  2.68046E+01  2.66645E+01  2.64908E+01  2.63008E+01  2.61102E+01
   2.59321E+01  2.57757E+01  2.56458E+01  2.55436E+01  2.54672E+01  2.54117E+01  2.53700E+01  2.53330E+01  2.52909E+01  2.52347E+01
   2.51567E+01  2.50513E+01  2.49142E+01  2.47437E+01  2.45402E+01  2.43071E+01  2.40501E+01  2.37763E+01  2.34936E+01  2.32107E+01
   2.29364E+01  2.26798E+01  2.24491E+01  2.22509E+01  2.20902E+01  2.19702E+01  2.18923E+01  2.18568E+01  2.18614E+01  2.19021E+01
   2.19730E+01  2.20674E+01  2.21776E+01  2.22955E+01  2.24127E+01  2.25200E+01  2.26092E+01  2.26726E+01  2.27039E+01  2.26978E+01
   2.26502E+01  2.25581E+01  2.24203E+01  2.22371E+01  2.20107E+01  2.17444E+01  2.14421E+01  2.11089E+01  2.07510E+01  2.03752E+01
   1.99889E+01  1.95992E+01  1.92131E+01  1.88373E+01  1.84786E+01  1.81436E+01  1.78378E+01  1.75664E+01  1.73334E+01  1.71427E+01
   1.69976E+01  1.69008E+01  1.68542E+01  1.68587E+01  1.69147E+01  1.70218E+01  1.71791E+01  1.73847E+01  1.76351E+01  1.79259E+01
   1.82515E+01  1.86055E+01  1.89803E+01  1.93668E+01  1.97551E+01  2.01345E+01  2.04939E+01  2.08226E+01  2.11100E+01  2.13463E+01
   2.15225E+01  2.16314E+01  2.16682E+01  2.16298E+01  2.15157E+01  2.13273E+01  2.10681E+01  2.07439E+01  2.03623E+01  1.99322E+01
   1.94630E+01  1.89647E+01  1.84472E+01  1.79202E+01  1.73928E+01  1.68733E+01  1.63682E+01  1.58831E+01  1.54222E+01  1.49889E+01
   1.45853E+01  1.42122E+01  1.38695E+01  1.35566E+01  1.32722E+01  1.30151E+01  1.27834E+01  1.25751E+01  1.23878E+01  1.22196E+01
   1.20686E+01  1.19333E+01  1.18117E+01  1.17024E+01  1.16036E+01  1.15143E+01  1.14336E+01  1.13605E+01  1.12940E+01  1.12334E+01
   1.11779E+01  1.11269E+01  1.10803E+01  1.10376E+01  1.09982E+01  1.09617E+01  1.09278E+01  1.08964E+01  1.08674E+01  1.08405E+01
   1.08154E+01  1.07918E+01  1.07696E+01  1.07491E+01  1.07299E+01  1.07119E+01  1.06950E+01  1.06790E+01  1.06639E+01  1.06499E+01
   1.06368E+01  1.06244E+01  1.06126E+01  1.06015E+01  1.05911E+01  1.05814E+01  1.05724E+01  1.05638E+01  1.05556E+01  1.05479E+01
   1.05408E+01  1.05342E+01  1.05280E+01  1.05222E+01  1.05166E+01  1.05115E+01  1.05069E+01  1.05026E+01  1.04987E+01  1.04949E+01
   1.04914E+01  1.04884E+01  1.04858E+01  1.04834E+01  1.04812E+01  1.04792E+01  1.04775E+01  1.04762E+01  1.04753E+01  1.04745E+01
   1.04738E+01  1.04734E+01  1.04734E+01  1.04737E+01  1.04743E+01  1.04750E+01  1.04759E+01  1.04770E+01
 NY background values follow
     8.692E+01    8.631E+01    8.570E+01    8.509E+01    8.447E+01    8.386E+01    8.325E+01    8.263E+01    8.202E+01    8.141E+01
     8.079E+01    8.018E+01    7.957E+01    7.896E+01    7.835E+01    7.774E+01    7.713E+01    7.652E+01    7.591E+01    7.530E+01
     7.469E+01    7.409E+01    7.348E+01    7.288E+01    7.228E+01    7.168E+01    7.108E+01    7.048E+01    6.988E+01    6.929E+01
     6.869E+01    6.810E+01    6.751E+01    6.692E+01    6.634E+01    6.576E+01    6.517E+01    6.459E+01    6.402E+01    6.344E+01
     6.287E+01    6.230E+01    6.173E+01    6.117E+01    6.060E+01    6.005E+01    5.949E+01    5.894E+01    5.838E+01    5.784E+01
     5.729E+01    5.675E+01    5.621E+01    5.568E+01    5.514E+01    5.462E+01    5.409E+01    5.357E+01    5.305E+01    5.253E+01
     5.202E+01    5.151E+01    5.100E+01    5.050E+01    5.000E+01    4.950E+01    4.901E+01    4.852E+01    4.804E+01    4.756E+01
     4.708E+01    4.660E+01    4.613E+01    4.566E+01    4.520E+01    4.474E+01    4.428E+01    4.383E+01    4.338E+01    4.294E+01
     4.250E+01    4.206E+01    4.163E+01    4.120E+01    4.078E+01    4.036E+01    3.994E+01    3.953E+01    3.912E+01    3.871E+01
     3.831E+01    3.792E+01    3.753E+01    3.714E+01    3.676E+01    3.638E+01    3.600E+01    3.563E+01    3.527E+01    3.490E+01
     3.454E+01    3.419E+01    3.384E+01    3.349E+01    3.315E+01    3.281E+01    3.247E+01    3.214E+01    3.181E+01    3.148E+01
     3.116E+01    3.084E+01    3.053E+01    3.022E+01    2.991E+01    2.960E+01    2.930E+01    2.900E+01    2.871E+01    2.842E+01
     2.813E+01    2.784E+01    2.756E+01    2.728E+01    2.701E+01    2.673E+01    2.646E+01    2.619E+01    2.593E+01    2.567E+01
     2.541E+01    2.515E+01    2.490E+01    2.465E+01    2.440E+01    2.416E+01    2.391E+01    2.367E+01    2.344E+01    2.320E+01
     2.297E+01    2.274E+01    2.251E+01    2.229E+01    2.207E+01    2.185E+01    2.163E+01    2.141E+01    2.120E+01    2.099E+01
     2.079E+01    2.058E+01    2.038E+01    2.018E+01    1.999E+01    1.980E+01    1.961E+01    1.942E+01    1.923E+01    1.905E+01
     1.887E+01    1.869E+01    1.852E+01    1.835E+01    1.818E+01    1.801E+01    1.785E+01    1.769E+01    1.753E+01    1.738E+01
     1.723E+01    1.708E+01    1.693E+01    1.679E+01    1.665E+01    1.651E+01    1.637E+01    1.624E+01    1.611E+01    1.598E+01
     1.586E+01    1.574E+01    1.562E+01    1.551E+01    1.539E+01    1.528E+01    1.518E+01    1.507E+01    1.497E+01    1.487E+01
     1.477E+01    1.468E+01    1.458E+01    1.449E+01    1.441E+01    1.432E+01    1.424E+01    1.416E+01    1.408E+01    1.400E+01
     1.392E+01    1.385E+01    1.378E+01    1.371E+01    1.364E+01    1.357E+01    1.351E+01    1.345E+01    1.339E+01    1.333E+01
     1.327E+01    1.321E+01    1.316E+01    1.310E+01    1.305E+01    1.300E+01    1.295E+01    1.290E+01    1.285E+01    1.280E+01
     1.276E+01    1.271E+01    1.267E+01    1.263E+01    1.258E+01    1.254E+01    1.250E+01    1.246E+01    1.242E+01    1.239E+01
     1.235E+01    1.231E+01    1.227E+01    1.224E+01    1.220E+01    1.217E+01    1.213E+01    1.210E+01    1.207E+01    1.204E+01
     1.200E+01    1.197E+01    1.194E+01    1.191E+01    1.188E+01    1.186E+01    1.183E+01    1.180E+01    1.178E+01    1.175E+01
     1.172E+01    1.170E+01    1.168E+01    1.165E+01    1.163E+01    1.161E+01    1.158E+01    1.156E+01    1.154E+01    1.152E+01
     1.150E+01    1.148E+01    1.146E+01    1.145E+01    1.143E+01    1.141E+01    1.139E+01    1.138E+01    1.136E+01    1.135E+01
     1.133E+01    1.132E+01    1.131E+01    1.129E+01    1.128E+01    1.127E+01    1.126E+01    1.124E+01    1.123E+01    1.122E+01
     1.121E+01    1.120E+01    1.119E+01    1.118E+01    1.117E+01    1.117E+01    1.116E+01    1.115E+01    1.114E+01    1.113E+01
     1.113E+01    1.112E+01    1.111E+01    1.111E+01    1.110E+01    1.110E+01    1.109E+01    1.108E+01    1.108E+01    1.107E+01
     1.107E+01    1.106E+01    1.106E+01    1.105E+01    1.105E+01    1.104E+01    1.104E+01    1.103E+01    1.103E+01    1.102E+01
     1.102E+01    1.101E+01    1.101E+01    1.100E+01    1.100E+01    1.099E+01    1.099E+01    1.098E+01    1.098E+01    1.097E+01
     1.096E+01    1.096E+01    1.095E+01    1.095E+01    1.094E+01    1.094E+01    1.093E+01    1.092E+01    1.092E+01    1.091E+01
     1.090E+01    1.090E+01    1.089E+01    1.088E+01    1.087E+01    1.087E+01    1.086E+01    1.085E+01    1.084E+01    1.083E+01
     1.083E+01    1.082E+01    1.081E+01    1.080E+01    1.079E+01    1.078E+01    1.077E+01    1.077E+01    1.076E+01    1.075E+01
     1.074E+01    1.073E+01    1.072E+01    1.071E+01    1.070E+01    1.069E+01    1.068E+01    1.066E+01    1.065E+01    1.064E+01
     1.063E+01    1.062E+01    1.061E+01    1.060E+01    1.058E+01    1.057E+01    1.056E+01    1.055E+01    1.053E+01    1.052E+01
     1.051E+01    1.050E+01    1.048E+01    1.047E+01    1.046E+01    1.044E+01    1.043E+01    1.042E+01    1.041E+01    1.039E+01
     1.038E+01    1.037E+01    1.035E+01    1.034E+01    1.033E+01    1.032E+01    1.030E+01    1.029E+01    1.028E+01    1.027E+01
     1.026E+01    1.024E+01    1.023E+01    1.022E+01    1.021E+01    1.020E+01    1.019E+01    1.018E+01    1.017E+01    1.016E+01
     1.015E+01    1.014E+01    1.013E+01    1.012E+01    1.012E+01    1.011E+01    1.010E+01    1.009E+01    1.009E+01    1.008E+01
     1.008E+01    1.007E+01    1.007E+01    1.006E+01    1.006E+01    1.005E+01    1.005E+01    1.005E+01    1.004E+01    1.004E+01
     1.004E+01    1.004E+01    1.003E+01    1.003E+01    1.003E+01    1.003E+01    1.003E+01    1.003E+01    1.003E+01    1.003E+01
     1.003E+01    1.003E+01    1.003E+01    1.003E+01    1.003E+01    1.003E+01    1.003E+01    1.003E+01    1.003E+01    1.003E+01
     1.004E+01    1.004E+01    1.004E+01    1.004E+01    1.004E+01    1.005E+01    1.005E+01    1.005E+01    1.005E+01    1.005E+01
     1.006E+01    1.006E+01    1.006E+01    1.006E+01    1.007E+01    1.007E+01    1.007E+01    1.007E+01    1.008E+01    1.008E+01
     1.008E+01    1.009E+01    1.009E+01    1.009E+01    1.009E+01    1.010E+01    1.010E+01    1.010E+01    1.011E+01    1.011E+01
     1.011E+01    1.011E+01    1.012E+01    1.012E+01    1.012E+01    1.013E+01    1.013E+01    1.013E+01    1.014E+01    1.014E+01
     1.015E+01    1.015E+01    1.015E+01    1.016E+01    1.016E+01    1.017E+01    1.017E+01    1.017E+01    1.018E+01    1.018E+01
     1.019E+01    1.019E+01    1.020E+01    1.020E+01    1.021E+01    1.021E+01    1.022E+01    1.022E+01
 Cr       Conc. = 1.05E+03
