 LCModel (Version 6.3-1L) Copyright: S.W. Provencher.          Ref.: Magn. Reson. Med. 30:672-679 (1993).                
 Slice#2 Row#12 Col#5  PD_24_press_1_raw_act
 36 lines in following concentration table = NCONC+1
    Conc.  %SD /Cr+PCr  Metabolite                                         
  118.419 129% 9.5E-02 Ala                                                 
    0.000 999%   0.000 Asp                                                 
 1.25E+03   5%   1.000 Cr                                                  
    0.000 999%   0.000 PCr                                                 
  166.060 107%   0.133 GABA                                                
    0.000 999%   0.000 Glc                                                 
  785.262  51%   0.628 Gln                                                 
 1.32E+03  35%   1.055 Glu                                                 
  626.266   4%   0.501 GPC                                                 
    0.000 999%   0.000 PCh                                                 
  682.529  13%   0.545 GSH                                                 
 3.67E+03  11%   2.935 Ins                                                 
  224.842  78%   0.180 Lac                                                 
 2.03E+03   7%   1.622 NAA                                                 
  126.170 136%   0.101 NAAG                                                
  282.918  12%   0.226 Scyllo                                              
    0.000 999%   0.000 Tau                                                 
  180.910  72%   0.145 -CrCH2                                              
  626.266   4%   0.501 GPC+PCh                                             
 2.16E+03   4%   1.723 NAA+NAAG                                            
 1.25E+03   5%   1.000 Cr+PCr                                              
 2.11E+03  37%   1.682 Glu+Gln                                             
  840.154  56%   0.671 Lip13a                                              
    0.000 999%   0.000 Lip13b                                              
  216.281  80%   0.173 Lip09                                               
 1.06E+03  22%   0.848 MM09                                                
  140.109  77%   0.112 Lip20                                               
 1.62E+03  25%   1.291 MM20                                                
  322.922  49%   0.258 MM12                                                
  973.451  33%   0.778 MM14                                                
  321.016  69%   0.257 MM17                                                
  840.154  56%   0.671 Lip13a+Lip13b                                       
 2.14E+03  25%   1.708 MM14+Lip13a+Lip13b+MM12                             
 1.28E+03  17%   1.021 MM09+Lip09                                          
 1.76E+03  23%   1.403 MM20+Lip20                                          
   6 lines in following misc. output table
  FWHM = 0.084 ppm    S/N =  10                                            
  Data shift = 0.023 ppm                                                   
  Ph: -57 deg     -15.4 deg/ppm                                            
  alphaB,S = 6.1E-01,   2.2E+02                                            
   14 spline knots.   Ns =10(1)                                            
  (16) 4 infls.   ( 9) 1 extrs.                                            
  498 points on ppm-axis = NY
      4.000000     3.992357     3.984714     3.977070     3.969427     3.961784     3.954141     3.946497     3.938854     3.931211
      3.923568     3.915925     3.908281     3.900638     3.892995     3.885352     3.877708     3.870065     3.862422     3.854779
      3.847136     3.839492     3.831849     3.824206     3.816563     3.808919     3.801276     3.793633     3.785990     3.778347
      3.770703     3.763060     3.755417     3.747774     3.740130     3.732487     3.724844     3.717201     3.709558     3.701914
      3.694271     3.686628     3.678985     3.671341     3.663698     3.656055     3.648412     3.640769     3.633125     3.625482
      3.617839     3.610196     3.602552     3.594909     3.587266     3.579623     3.571980     3.564336     3.556693     3.549050
      3.541407     3.533763     3.526120     3.518477     3.510834     3.503191     3.495547     3.487904     3.480261     3.472618
      3.464974     3.457331     3.449688     3.442045     3.434402     3.426758     3.419115     3.411472     3.403829     3.396185
      3.388542     3.380899     3.373256     3.365613     3.357969     3.350326     3.342683     3.335040     3.327396     3.319753
      3.312110     3.304467     3.296824     3.289180     3.281537     3.273894     3.266251     3.258607     3.250964     3.243321
      3.235678     3.228034     3.220391     3.212748     3.205105     3.197462     3.189818     3.182175     3.174532     3.166889
      3.159245     3.151602     3.143959     3.136316     3.128673     3.121029     3.113386     3.105743     3.098100     3.090456
      3.082813     3.075170     3.067527     3.059884     3.052240     3.044597     3.036954     3.029311     3.021667     3.014024
      3.006381     2.998738     2.991095     2.983451     2.975808     2.968165     2.960522     2.952878     2.945235     2.937592
      2.929949     2.922306     2.914662     2.907019     2.899376     2.891733     2.884089     2.876446     2.868803     2.861160
      2.853517     2.845873     2.838230     2.830587     2.822944     2.815300     2.807657     2.800014     2.792371     2.784728
      2.777084     2.769441     2.761798     2.754155     2.746511     2.738868     2.731225     2.723582     2.715939     2.708295
      2.700652     2.693009     2.685366     2.677722     2.670079     2.662436     2.654793     2.647150     2.639506     2.631863
      2.624220     2.616577     2.608933     2.601290     2.593647     2.586004     2.578361     2.570717     2.563074     2.555431
      2.547788     2.540144     2.532501     2.524858     2.517215     2.509572     2.501928     2.494285     2.486642     2.478999
      2.471355     2.463712     2.456069     2.448426     2.440783     2.433139     2.425496     2.417853     2.410210     2.402566
      2.394923     2.387280     2.379637     2.371994     2.364350     2.356707     2.349064     2.341421     2.333777     2.326134
      2.318491     2.310848     2.303205     2.295561     2.287918     2.280275     2.272632     2.264988     2.257345     2.249702
      2.242059     2.234416     2.226772     2.219129     2.211486     2.203843     2.196199     2.188556     2.180913     2.173270
      2.165627     2.157983     2.150340     2.142697     2.135054     2.127410     2.119767     2.112124     2.104481     2.096838
      2.089194     2.081551     2.073908     2.066265     2.058621     2.050978     2.043335     2.035692     2.028049     2.020405
      2.012762     2.005119     1.997476     1.989833     1.982190     1.974546     1.966903     1.959260     1.951617     1.943974
      1.936331     1.928688     1.921045     1.913402     1.905759     1.898115     1.890472     1.882829     1.875186     1.867543
      1.859900     1.852257     1.844614     1.836971     1.829327     1.821684     1.814041     1.806398     1.798755     1.791112
      1.783469     1.775826     1.768183     1.760540     1.752896     1.745253     1.737610     1.729967     1.722324     1.714681
      1.707038     1.699395     1.691752     1.684108     1.676465     1.668822     1.661179     1.653536     1.645893     1.638250
      1.630607     1.622964     1.615321     1.607677     1.600034     1.592391     1.584748     1.577105     1.569462     1.561819
      1.554176     1.546533     1.538890     1.531246     1.523603     1.515960     1.508317     1.500674     1.493031     1.485388
      1.477745     1.470102     1.462458     1.454815     1.447172     1.439529     1.431886     1.424243     1.416600     1.408957
      1.401314     1.393671     1.386027     1.378384     1.370741     1.363098     1.355455     1.347812     1.340169     1.332526
      1.324883     1.317240     1.309596     1.301953     1.294310     1.286667     1.279024     1.271381     1.263738     1.256095
      1.248452     1.240808     1.233165     1.225522     1.217879     1.210236     1.202593     1.194950     1.187307     1.179664
      1.172021     1.164377     1.156734     1.149091     1.141448     1.133805     1.126162     1.118519     1.110876     1.103233
      1.095590     1.087946     1.080303     1.072660     1.065017     1.057374     1.049731     1.042088     1.034445     1.026802
      1.019158     1.011515     1.003872     0.996229     0.988586     0.980943     0.973300     0.965657     0.958014     0.950371
      0.942727     0.935084     0.927441     0.919798     0.912155     0.904512     0.896869     0.889226     0.881583     0.873940
      0.866296     0.858653     0.851010     0.843367     0.835724     0.828081     0.820438     0.812795     0.805152     0.797508
      0.789865     0.782222     0.774579     0.766936     0.759293     0.751650     0.744007     0.736364     0.728721     0.721077
      0.713434     0.705791     0.698148     0.690505     0.682862     0.675219     0.667576     0.659933     0.652290     0.644646
      0.637003     0.629360     0.621717     0.614074     0.606431     0.598788     0.591145     0.583502     0.575858     0.568215
      0.560572     0.552929     0.545286     0.537643     0.530000     0.522357     0.514714     0.507071     0.499427     0.491784
      0.484141     0.476498     0.468855     0.461212     0.453569     0.445925     0.438282     0.430639     0.422996     0.415353
      0.407710     0.400067     0.392424     0.384780     0.377137     0.369494     0.361851     0.354208     0.346565     0.338922
      0.331278     0.323635     0.315992     0.308349     0.300706     0.293063     0.285420     0.277777     0.270133     0.262490
      0.254847     0.247204     0.239561     0.231918     0.224275     0.216631     0.208988     0.201345
 NY phased data points follow
  -2.14497E+02 -2.09559E+02 -2.03325E+02 -2.03433E+02 -1.96208E+02 -1.87960E+02 -1.81192E+02 -1.82282E+02 -1.72104E+02 -1.74693E+02
  -1.69655E+02 -1.67199E+02 -1.67179E+02 -1.65200E+02 -1.68007E+02 -1.70218E+02 -1.70263E+02 -1.71983E+02 -1.73969E+02 -1.68887E+02
  -1.69537E+02 -1.68330E+02 -1.66568E+02 -1.60059E+02 -1.59679E+02 -1.57587E+02 -1.51613E+02 -1.51780E+02 -1.48048E+02 -1.46639E+02
  -1.46153E+02 -1.41415E+02 -1.44463E+02 -1.40585E+02 -1.40322E+02 -1.40012E+02 -1.35279E+02 -1.32242E+02 -1.31325E+02 -1.33430E+02
  -1.25545E+02 -1.25277E+02 -1.23000E+02 -1.22836E+02 -1.20004E+02 -1.23682E+02 -1.17452E+02 -1.17862E+02 -1.16551E+02 -1.15633E+02
  -1.17907E+02 -1.12386E+02 -1.18333E+02 -1.19158E+02 -1.16310E+02 -1.09417E+02 -1.12419E+02 -1.11463E+02 -1.15701E+02 -1.11822E+02
  -1.12492E+02 -1.11327E+02 -1.09504E+02 -1.11043E+02 -1.10808E+02 -1.08091E+02 -1.05028E+02 -1.08979E+02 -1.01970E+02 -1.03581E+02
  -1.03509E+02 -9.97597E+01 -1.02604E+02 -1.00678E+02 -9.87957E+01 -9.72880E+01 -9.44398E+01 -9.57071E+01 -9.30769E+01 -9.37417E+01
  -9.32476E+01 -9.28809E+01 -8.78026E+01 -8.86292E+01 -8.62544E+01 -8.45881E+01 -8.32209E+01 -8.31226E+01 -8.43876E+01 -7.89847E+01
  -7.84876E+01 -7.83848E+01 -7.85259E+01 -7.69225E+01 -7.16187E+01 -6.69153E+01 -6.53955E+01 -6.05180E+01 -5.65118E+01 -5.18294E+01
  -4.41250E+01 -4.52506E+01 -4.47933E+01 -4.59513E+01 -4.44097E+01 -4.68133E+01 -4.94627E+01 -5.45737E+01 -6.06374E+01 -6.38637E+01
  -6.67334E+01 -6.56351E+01 -6.89006E+01 -6.72002E+01 -6.76138E+01 -6.52064E+01 -6.56937E+01 -6.29163E+01 -6.19892E+01 -6.21543E+01
  -5.86806E+01 -5.64885E+01 -4.84068E+01 -4.13721E+01 -3.65287E+01 -3.99410E+01 -3.41609E+01 -3.49060E+01 -3.18685E+01 -3.84959E+01
  -4.01423E+01 -4.34826E+01 -4.53594E+01 -5.25587E+01 -5.28089E+01 -5.86732E+01 -6.05963E+01 -5.72486E+01 -5.97979E+01 -5.51845E+01
  -5.65935E+01 -5.72120E+01 -5.59355E+01 -5.68117E+01 -5.34060E+01 -4.83629E+01 -5.50027E+01 -5.66095E+01 -5.29302E+01 -5.24555E+01
  -5.04342E+01 -5.36196E+01 -5.25849E+01 -5.05429E+01 -5.10192E+01 -5.08561E+01 -5.00331E+01 -4.97698E+01 -5.20241E+01 -5.14933E+01
  -5.04198E+01 -5.09213E+01 -4.55506E+01 -4.75779E+01 -5.04040E+01 -4.97882E+01 -4.47223E+01 -4.88668E+01 -4.85713E+01 -4.75688E+01
  -4.81381E+01 -5.04958E+01 -4.70846E+01 -4.67330E+01 -5.08357E+01 -4.40726E+01 -4.54515E+01 -5.04195E+01 -5.04166E+01 -4.72845E+01
  -4.74418E+01 -4.71690E+01 -4.51713E+01 -4.89701E+01 -4.46690E+01 -4.58270E+01 -4.65327E+01 -4.06431E+01 -4.35320E+01 -4.03811E+01
  -3.46505E+01 -3.62238E+01 -3.39057E+01 -3.86368E+01 -3.78906E+01 -3.48144E+01 -3.58313E+01 -3.14629E+01 -3.55935E+01 -3.23621E+01
  -3.34515E+01 -3.62671E+01 -3.34350E+01 -3.02586E+01 -3.31840E+01 -3.34400E+01 -3.14183E+01 -2.80348E+01 -3.12189E+01 -3.29215E+01
  -2.96983E+01 -3.21744E+01 -3.03069E+01 -2.92458E+01 -2.93962E+01 -2.70199E+01 -2.77235E+01 -2.86623E+01 -2.55125E+01 -3.02140E+01
  -2.74551E+01 -2.78440E+01 -2.68160E+01 -2.66941E+01 -2.67198E+01 -2.45356E+01 -2.45872E+01 -2.48255E+01 -2.41043E+01 -2.26837E+01
  -1.90525E+01 -2.21297E+01 -2.13627E+01 -2.01852E+01 -1.87983E+01 -2.11838E+01 -2.17774E+01 -2.26454E+01 -2.46139E+01 -2.03475E+01
  -1.89309E+01 -1.89386E+01 -1.89966E+01 -1.98444E+01 -1.93021E+01 -1.96871E+01 -1.73783E+01 -1.55003E+01 -1.34400E+01 -1.51594E+01
  -9.52020E+00 -3.60826E+00  5.32406E+00  6.64768E+00  8.71950E+00  1.28747E+01  2.33016E+01  2.77651E+01  3.46830E+01  3.33522E+01
   3.11644E+01  3.03075E+01  2.73833E+01  2.34690E+01  2.01723E+01  9.44013E+00  4.12805E+00 -3.56252E+00 -3.93506E+00 -1.08938E+01
  -8.33618E+00 -1.30387E+01 -1.04988E+01 -1.33675E+01 -1.11666E+01 -1.25368E+01 -9.19541E+00 -1.16237E+01 -1.26516E+01 -1.24475E+01
  -1.52857E+01 -1.34287E+01 -1.49106E+01 -1.39627E+01 -1.46402E+01 -1.45915E+01 -1.28137E+01 -1.39293E+01 -1.46890E+01 -1.50226E+01
  -1.48939E+01 -1.47720E+01 -1.28331E+01 -1.63794E+01 -1.31741E+01 -1.71646E+01 -1.46013E+01 -1.31370E+01 -1.28629E+01 -1.27213E+01
  -1.13002E+01 -1.61897E+01 -1.15832E+01 -8.19565E+00 -9.98681E+00 -1.06799E+01 -8.06886E+00 -8.44211E+00 -1.26836E+01 -9.51528E+00
  -6.54700E+00 -9.04794E+00 -8.05332E+00 -5.20802E+00 -8.20107E+00 -7.85198E+00 -8.18075E+00 -9.73291E+00 -8.26744E+00 -6.35658E+00
  -6.56817E+00 -8.76977E+00 -6.86447E+00 -5.50923E+00 -6.11904E+00 -4.15202E+00 -4.12522E+00 -7.36726E+00 -3.56948E+00 -4.18839E+00
  -4.29743E+00 -4.67203E+00 -5.68628E+00 -3.92819E+00 -6.67648E+00 -2.61749E+00 -2.32658E+00 -4.66408E+00  1.71662E+00  1.76271E+00
  -2.23832E+00 -2.33817E+00 -1.89602E+00  3.07721E-01  3.14454E+00 -8.03157E-01 -1.59177E+00 -7.33167E-01 -2.09867E+00 -1.21931E+00
   3.29699E-01  3.11553E-02 -1.27612E+00  1.00017E-01 -4.36076E+00 -4.01604E+00  1.55355E+00  9.64439E-01  4.17136E+00  2.13355E+00
  -9.09564E-01 -6.51735E-01 -1.56114E+00 -1.12656E+00  1.95414E+00 -2.48176E+00 -3.20844E+00 -1.91610E+00  1.93329E+00 -2.67951E+00
   5.57457E-01 -5.64570E-01  4.04677E+00 -2.97937E+00  9.20060E-01 -9.07549E-01 -1.79678E+00 -2.14148E+00 -1.66930E+00 -2.25161E+00
  -8.31255E-01  1.37185E+00 -1.99305E+00  1.93628E+00 -1.34894E+00 -7.88363E-01 -9.64964E-01 -5.34131E-01  3.12393E+00  4.42230E-01
  -2.20808E-01  1.05012E+00  2.29832E+00  1.43612E+00  2.44097E+00  4.97851E+00  7.98479E-01  2.88403E-01  8.57190E+00  3.59998E+00
   8.16966E+00  9.51478E+00  6.13344E+00  5.88050E+00  9.21519E+00  7.86185E+00  9.40901E+00  9.98289E+00  8.91973E+00  9.68079E+00
   9.76357E+00  8.13888E+00  9.29978E+00  8.27430E+00  1.04505E+01  4.53365E+00  3.79403E+00  2.79349E+00  3.38107E+00  3.57204E+00
   6.91815E+00  1.52632E+00  5.30799E+00 -9.59092E-01  3.69288E+00  4.52676E+00  2.01393E+00  2.00753E+00  1.73799E+00  2.57662E+00
   1.02668E+00  3.56620E+00  3.59650E+00  1.15932E+00  4.76214E+00 -1.56861E+00  6.98591E-01  6.67579E-01  3.94988E+00 -1.82610E+00
   7.40767E-01  2.41924E+00  3.56430E-01  3.67238E+00  5.63399E+00  1.28540E+00  4.97443E-01  1.16044E+00  1.16100E+00  3.74930E+00
   1.98497E+00  2.49673E+00  4.35339E+00  3.43818E+00  4.60982E+00  5.80741E-01  3.73807E-01  3.47649E+00  3.34714E+00 -5.86848E-01
   2.14938E+00  7.51601E-01  6.46636E+00  4.30597E+00  2.04898E+00  2.64011E+00  5.37100E-01  3.39112E+00  2.78452E+00  1.79438E+00
   2.76561E+00  5.58937E+00  4.03263E+00  2.81412E+00  4.96029E+00  3.81353E+00  2.69529E+00  1.76249E+00  2.34587E+00  5.06259E+00
   4.10513E+00  5.95668E+00  4.07934E+00  2.18192E+00  9.78574E+00  8.19704E+00  5.46293E+00  3.07946E+00  1.57955E+00  7.90876E+00
   4.21077E+00  4.59148E+00  4.59988E+00  2.49913E+00  4.36595E-01  2.03813E+00  4.10784E+00  9.85247E+00
 NY points of the fit to the data follow
  -2.04768E+02 -2.02711E+02 -1.99523E+02 -1.96156E+02 -1.92931E+02 -1.89436E+02 -1.85327E+02 -1.80955E+02 -1.77042E+02 -1.74085E+02
  -1.71983E+02 -1.70316E+02 -1.68894E+02 -1.67888E+02 -1.67563E+02 -1.67964E+02 -1.68835E+02 -1.69767E+02 -1.70405E+02 -1.70486E+02
  -1.69704E+02 -1.68034E+02 -1.65978E+02 -1.63640E+02 -1.60917E+02 -1.57725E+02 -1.54166E+02 -1.50748E+02 -1.47918E+02 -1.45656E+02
  -1.43739E+02 -1.42142E+02 -1.40979E+02 -1.40328E+02 -1.40071E+02 -1.39566E+02 -1.38280E+02 -1.36554E+02 -1.34864E+02 -1.32986E+02
  -1.30456E+02 -1.27352E+02 -1.24247E+02 -1.21779E+02 -1.20220E+02 -1.19342E+02 -1.18850E+02 -1.18556E+02 -1.18493E+02 -1.18821E+02
  -1.19443E+02 -1.20029E+02 -1.20135E+02 -1.19519E+02 -1.18299E+02 -1.16822E+02 -1.15451E+02 -1.14238E+02 -1.13100E+02 -1.12026E+02
  -1.10958E+02 -1.09951E+02 -1.09081E+02 -1.08322E+02 -1.07509E+02 -1.06478E+02 -1.05192E+02 -1.03765E+02 -1.02374E+02 -1.01099E+02
  -9.99524E+01 -9.89528E+01 -9.81052E+01 -9.74230E+01 -9.69290E+01 -9.66869E+01 -9.65092E+01 -9.57892E+01 -9.45848E+01 -9.34302E+01
  -9.24596E+01 -9.13826E+01 -8.99035E+01 -8.81420E+01 -8.64105E+01 -8.50113E+01 -8.40105E+01 -8.32091E+01 -8.24516E+01 -8.18014E+01
  -8.14187E+01 -8.12209E+01 -8.01434E+01 -7.70710E+01 -7.31848E+01 -6.94579E+01 -6.55542E+01 -6.08321E+01 -5.54365E+01 -5.02826E+01
  -4.64719E+01 -4.44213E+01 -4.36171E+01 -4.35417E+01 -4.42919E+01 -4.63195E+01 -4.97992E+01 -5.43862E+01 -5.92868E+01 -6.35999E+01
  -6.67615E+01 -6.87604E+01 -6.99308E+01 -7.06560E+01 -7.09458E+01 -7.05884E+01 -6.95151E+01 -6.67781E+01 -6.29458E+01 -5.92702E+01
  -5.58331E+01 -5.19751E+01 -4.74427E+01 -4.28132E+01 -3.89677E+01 -3.65481E+01 -3.54718E+01 -3.52108E+01 -3.55548E+01 -3.67528E+01
  -3.90385E+01 -4.23726E+01 -4.62464E+01 -4.99343E+01 -5.28187E+01 -5.46970E+01 -5.57566E+01 -5.63436E+01 -5.66636E+01 -5.65293E+01
  -5.60586E+01 -5.54496E+01 -5.47700E+01 -5.41066E+01 -5.35609E+01 -5.31895E+01 -5.29651E+01 -5.28285E+01 -5.27292E+01 -5.26164E+01
  -5.24837E+01 -5.23841E+01 -5.22956E+01 -5.21606E+01 -5.19417E+01 -5.16468E+01 -5.13640E+01 -5.11442E+01 -5.09292E+01 -5.06499E+01
  -5.03192E+01 -5.00086E+01 -4.97697E+01 -4.95959E+01 -4.94348E+01 -4.92612E+01 -4.91240E+01 -4.90525E+01 -4.89798E+01 -4.88961E+01
  -4.88391E+01 -4.88395E+01 -4.88252E+01 -4.86941E+01 -4.84259E+01 -4.81136E+01 -4.78798E+01 -4.77297E+01 -4.75314E+01 -4.71506E+01
  -4.65900E+01 -4.59199E+01 -4.51804E+01 -4.43609E+01 -4.34582E+01 -4.24478E+01 -4.13593E+01 -4.02821E+01 -3.94043E+01 -3.87551E+01
  -3.81757E+01 -3.75898E+01 -3.70366E+01 -3.65854E+01 -3.61946E+01 -3.57639E+01 -3.52229E+01 -3.46006E+01 -3.39447E+01 -3.33188E+01
  -3.28641E+01 -3.25153E+01 -3.21929E+01 -3.20227E+01 -3.20690E+01 -3.22308E+01 -3.22681E+01 -3.21761E+01 -3.20356E+01 -3.17979E+01
  -3.13903E+01 -3.08096E+01 -3.02180E+01 -2.97422E+01 -2.93020E+01 -2.88259E+01 -2.84423E+01 -2.82750E+01 -2.83031E+01 -2.83833E+01
  -2.83709E+01 -2.82527E+01 -2.81010E+01 -2.77996E+01 -2.72056E+01 -2.63846E+01 -2.55190E+01 -2.46425E+01 -2.36788E+01 -2.27477E+01
  -2.20386E+01 -2.15331E+01 -2.11182E+01 -2.07863E+01 -2.04992E+01 -2.02449E+01 -2.00077E+01 -1.98119E+01 -1.96758E+01 -1.95949E+01
  -1.95481E+01 -1.94744E+01 -1.93358E+01 -1.91191E+01 -1.88044E+01 -1.82932E+01 -1.74450E+01 -1.63279E+01 -1.51093E+01 -1.35868E+01
  -1.03466E+01 -4.77559E+00  1.04749E+00  6.10000E+00  1.11022E+01  1.68996E+01  2.31489E+01  2.85119E+01  3.17398E+01  3.26129E+01
   3.19205E+01  3.03170E+01  2.76962E+01  2.36333E+01  1.80361E+01  1.13826E+01  4.62203E+00 -1.23139E+00 -5.58635E+00 -8.54314E+00
  -1.05805E+01 -1.21387E+01 -1.31414E+01 -1.35019E+01 -1.36456E+01 -1.37241E+01 -1.37700E+01 -1.38105E+01 -1.38672E+01 -1.39372E+01
  -1.40088E+01 -1.40703E+01 -1.41111E+01 -1.41220E+01 -1.41034E+01 -1.40560E+01 -1.39795E+01 -1.38790E+01 -1.37617E+01 -1.36336E+01
  -1.34987E+01 -1.33571E+01 -1.32073E+01 -1.30482E+01 -1.28781E+01 -1.26963E+01 -1.25029E+01 -1.22979E+01 -1.20810E+01 -1.18532E+01
  -1.16167E+01 -1.13736E+01 -1.11260E+01 -1.08769E+01 -1.06287E+01 -1.03836E+01 -1.01442E+01 -9.91204E+00 -9.68808E+00 -9.47224E+00
  -9.26364E+00 -9.06081E+00 -8.86124E+00 -8.66155E+00 -8.45716E+00 -8.24094E+00 -7.99919E+00 -7.70827E+00 -7.39782E+00 -7.12751E+00
  -6.88915E+00 -6.65032E+00 -6.41028E+00 -6.20658E+00 -6.07806E+00 -5.99353E+00 -5.86659E+00 -5.68698E+00 -5.48779E+00 -5.28141E+00
  -5.04154E+00 -4.73509E+00 -4.35271E+00 -3.91098E+00 -3.43308E+00 -2.92636E+00 -2.38100E+00 -1.77257E+00 -1.18319E+00 -7.53254E-01
  -4.89741E-01 -3.33190E-01 -2.53358E-01 -2.92126E-01 -4.96211E-01 -7.65306E-01 -9.87952E-01 -1.16389E+00 -1.31794E+00 -1.44836E+00
  -1.50814E+00 -1.45677E+00 -1.29364E+00 -1.04985E+00 -7.51379E-01 -4.08963E-01 -4.75104E-02  2.82139E-01  5.26214E-01  6.59778E-01
   6.67692E-01  5.55265E-01  3.77149E-01  1.84854E-01  3.09072E-03 -1.69640E-01 -3.45404E-01 -5.07542E-01 -6.45411E-01 -7.68900E-01
  -8.81871E-01 -9.84939E-01 -1.07745E+00 -1.15822E+00 -1.22573E+00 -1.27837E+00 -1.31445E+00 -1.33227E+00 -1.33005E+00 -1.30597E+00
  -1.25810E+00 -1.18443E+00 -1.08287E+00 -9.51215E-01 -7.87134E-01 -5.88286E-01 -3.52327E-01 -7.71278E-02  2.39163E-01  5.97864E-01
   9.99628E-01  1.44411E+00  1.92977E+00  2.45362E+00  3.01106E+00  3.59573E+00  4.19952E+00  4.81260E+00  5.42362E+00  6.01999E+00
   6.58839E+00  7.11529E+00  7.58754E+00  7.99299E+00  8.32119E+00  8.56384E+00  8.71539E+00  8.77324E+00  8.73796E+00  8.61313E+00
   8.40522E+00  8.12315E+00  7.77784E+00  7.38155E+00  6.94729E+00  6.48812E+00  6.01664E+00  5.54448E+00  5.08191E+00  4.63761E+00
   4.21849E+00  3.82965E+00  3.47454E+00  3.15504E+00  2.87174E+00  2.62406E+00  2.41061E+00  2.22932E+00  2.07776E+00  1.95325E+00
   1.85305E+00  1.77446E+00  1.71488E+00  1.67190E+00  1.64336E+00  1.62730E+00  1.62203E+00  1.62602E+00  1.63798E+00  1.65676E+00
   1.68145E+00  1.71121E+00  1.74538E+00  1.78334E+00  1.82459E+00  1.86868E+00  1.91528E+00  1.96405E+00  2.01475E+00  2.06711E+00
   2.12093E+00  2.17602E+00  2.23226E+00  2.28950E+00  2.34762E+00  2.40649E+00  2.46605E+00  2.52621E+00  2.58692E+00  2.64810E+00
   2.70969E+00  2.77163E+00  2.83388E+00  2.89640E+00  2.95917E+00  3.02214E+00  3.08528E+00  3.14855E+00  3.21194E+00  3.27542E+00
   3.33900E+00  3.40262E+00  3.46628E+00  3.52995E+00  3.59364E+00  3.65733E+00  3.72101E+00  3.78465E+00  3.84826E+00  3.91181E+00
   3.97533E+00  4.03879E+00  4.10219E+00  4.16549E+00  4.22873E+00  4.29188E+00  4.35497E+00  4.41797E+00  4.48087E+00  4.54368E+00
   4.60640E+00  4.66904E+00  4.73161E+00  4.79408E+00  4.85647E+00  4.91878E+00  4.98104E+00  5.04326E+00
 NY background values follow
    -2.116E+02   -2.099E+02   -2.082E+02   -2.065E+02   -2.049E+02   -2.032E+02   -2.015E+02   -1.998E+02   -1.981E+02   -1.964E+02
    -1.948E+02   -1.931E+02   -1.914E+02   -1.898E+02   -1.881E+02   -1.864E+02   -1.848E+02   -1.831E+02   -1.815E+02   -1.799E+02
    -1.783E+02   -1.766E+02   -1.750E+02   -1.734E+02   -1.718E+02   -1.702E+02   -1.686E+02   -1.671E+02   -1.655E+02   -1.639E+02
    -1.624E+02   -1.608E+02   -1.593E+02   -1.578E+02   -1.563E+02   -1.548E+02   -1.533E+02   -1.518E+02   -1.503E+02   -1.489E+02
    -1.474E+02   -1.460E+02   -1.446E+02   -1.431E+02   -1.417E+02   -1.404E+02   -1.390E+02   -1.376E+02   -1.363E+02   -1.349E+02
    -1.336E+02   -1.323E+02   -1.310E+02   -1.297E+02   -1.285E+02   -1.272E+02   -1.259E+02   -1.247E+02   -1.235E+02   -1.223E+02
    -1.211E+02   -1.199E+02   -1.187E+02   -1.176E+02   -1.164E+02   -1.153E+02   -1.142E+02   -1.130E+02   -1.119E+02   -1.108E+02
    -1.098E+02   -1.087E+02   -1.076E+02   -1.066E+02   -1.056E+02   -1.046E+02   -1.035E+02   -1.025E+02   -1.016E+02   -1.006E+02
    -9.962E+01   -9.867E+01   -9.772E+01   -9.679E+01   -9.587E+01   -9.496E+01   -9.407E+01   -9.318E+01   -9.230E+01   -9.144E+01
    -9.058E+01   -8.974E+01   -8.890E+01   -8.808E+01   -8.727E+01   -8.646E+01   -8.567E+01   -8.488E+01   -8.411E+01   -8.335E+01
    -8.259E+01   -8.185E+01   -8.111E+01   -8.038E+01   -7.967E+01   -7.896E+01   -7.826E+01   -7.757E+01   -7.688E+01   -7.621E+01
    -7.554E+01   -7.488E+01   -7.423E+01   -7.359E+01   -7.296E+01   -7.233E+01   -7.171E+01   -7.110E+01   -7.050E+01   -6.990E+01
    -6.931E+01   -6.873E+01   -6.815E+01   -6.758E+01   -6.702E+01   -6.646E+01   -6.591E+01   -6.537E+01   -6.483E+01   -6.430E+01
    -6.377E+01   -6.325E+01   -6.274E+01   -6.223E+01   -6.172E+01   -6.123E+01   -6.073E+01   -6.024E+01   -5.976E+01   -5.928E+01
    -5.881E+01   -5.834E+01   -5.787E+01   -5.741E+01   -5.696E+01   -5.651E+01   -5.606E+01   -5.562E+01   -5.518E+01   -5.474E+01
    -5.431E+01   -5.388E+01   -5.346E+01   -5.304E+01   -5.262E+01   -5.221E+01   -5.180E+01   -5.139E+01   -5.099E+01   -5.059E+01
    -5.019E+01   -4.979E+01   -4.940E+01   -4.901E+01   -4.862E+01   -4.824E+01   -4.786E+01   -4.748E+01   -4.710E+01   -4.672E+01
    -4.635E+01   -4.598E+01   -4.561E+01   -4.524E+01   -4.487E+01   -4.451E+01   -4.414E+01   -4.378E+01   -4.342E+01   -4.306E+01
    -4.270E+01   -4.234E+01   -4.198E+01   -4.163E+01   -4.127E+01   -4.092E+01   -4.056E+01   -4.021E+01   -3.986E+01   -3.951E+01
    -3.916E+01   -3.882E+01   -3.847E+01   -3.813E+01   -3.778E+01   -3.744E+01   -3.710E+01   -3.677E+01   -3.643E+01   -3.610E+01
    -3.576E+01   -3.543E+01   -3.510E+01   -3.478E+01   -3.445E+01   -3.413E+01   -3.381E+01   -3.349E+01   -3.318E+01   -3.286E+01
    -3.255E+01   -3.224E+01   -3.194E+01   -3.163E+01   -3.133E+01   -3.103E+01   -3.074E+01   -3.044E+01   -3.015E+01   -2.986E+01
    -2.958E+01   -2.929E+01   -2.902E+01   -2.874E+01   -2.846E+01   -2.819E+01   -2.793E+01   -2.766E+01   -2.740E+01   -2.714E+01
    -2.689E+01   -2.664E+01   -2.639E+01   -2.614E+01   -2.590E+01   -2.566E+01   -2.542E+01   -2.519E+01   -2.495E+01   -2.473E+01
    -2.450E+01   -2.428E+01   -2.405E+01   -2.384E+01   -2.362E+01   -2.341E+01   -2.320E+01   -2.299E+01   -2.278E+01   -2.258E+01
    -2.238E+01   -2.218E+01   -2.198E+01   -2.179E+01   -2.159E+01   -2.140E+01   -2.122E+01   -2.103E+01   -2.085E+01   -2.067E+01
    -2.049E+01   -2.031E+01   -2.013E+01   -1.996E+01   -1.979E+01   -1.962E+01   -1.945E+01   -1.928E+01   -1.912E+01   -1.895E+01
    -1.879E+01   -1.863E+01   -1.847E+01   -1.832E+01   -1.816E+01   -1.801E+01   -1.785E+01   -1.770E+01   -1.755E+01   -1.741E+01
    -1.726E+01   -1.711E+01   -1.697E+01   -1.682E+01   -1.668E+01   -1.654E+01   -1.640E+01   -1.626E+01   -1.612E+01   -1.598E+01
    -1.585E+01   -1.571E+01   -1.558E+01   -1.544E+01   -1.531E+01   -1.517E+01   -1.504E+01   -1.491E+01   -1.478E+01   -1.465E+01
    -1.452E+01   -1.439E+01   -1.426E+01   -1.413E+01   -1.400E+01   -1.387E+01   -1.374E+01   -1.361E+01   -1.348E+01   -1.335E+01
    -1.323E+01   -1.310E+01   -1.297E+01   -1.284E+01   -1.271E+01   -1.258E+01   -1.246E+01   -1.233E+01   -1.220E+01   -1.207E+01
    -1.194E+01   -1.181E+01   -1.168E+01   -1.155E+01   -1.142E+01   -1.129E+01   -1.116E+01   -1.103E+01   -1.090E+01   -1.076E+01
    -1.063E+01   -1.050E+01   -1.037E+01   -1.024E+01   -1.012E+01   -9.986E+00   -9.857E+00   -9.728E+00   -9.600E+00   -9.471E+00
    -9.343E+00   -9.216E+00   -9.089E+00   -8.962E+00   -8.836E+00   -8.710E+00   -8.585E+00   -8.460E+00   -8.336E+00   -8.213E+00
    -8.090E+00   -7.968E+00   -7.846E+00   -7.725E+00   -7.605E+00   -7.486E+00   -7.367E+00   -7.250E+00   -7.133E+00   -7.016E+00
    -6.901E+00   -6.787E+00   -6.674E+00   -6.561E+00   -6.450E+00   -6.339E+00   -6.229E+00   -6.121E+00   -6.013E+00   -5.905E+00
    -5.799E+00   -5.694E+00   -5.589E+00   -5.485E+00   -5.382E+00   -5.279E+00   -5.177E+00   -5.076E+00   -4.976E+00   -4.876E+00
    -4.777E+00   -4.679E+00   -4.581E+00   -4.483E+00   -4.387E+00   -4.290E+00   -4.195E+00   -4.099E+00   -4.005E+00   -3.911E+00
    -3.817E+00   -3.724E+00   -3.631E+00   -3.538E+00   -3.446E+00   -3.354E+00   -3.263E+00   -3.172E+00   -3.081E+00   -2.991E+00
    -2.901E+00   -2.811E+00   -2.721E+00   -2.632E+00   -2.543E+00   -2.454E+00   -2.365E+00   -2.276E+00   -2.187E+00   -2.099E+00
    -2.011E+00   -1.923E+00   -1.835E+00   -1.747E+00   -1.659E+00   -1.572E+00   -1.485E+00   -1.398E+00   -1.311E+00   -1.224E+00
    -1.138E+00   -1.051E+00   -9.652E-01   -8.793E-01   -7.936E-01   -7.081E-01   -6.228E-01   -5.378E-01   -4.530E-01   -3.684E-01
    -2.841E-01   -2.000E-01   -1.161E-01   -3.248E-02    5.088E-02    1.340E-01    2.168E-01    2.994E-01    3.817E-01    4.638E-01
     5.456E-01    6.270E-01    7.082E-01    7.892E-01    8.698E-01    9.501E-01    1.030E+00    1.110E+00    1.189E+00    1.268E+00
     1.347E+00    1.426E+00    1.504E+00    1.582E+00    1.659E+00    1.736E+00    1.813E+00    1.889E+00    1.966E+00    2.042E+00
     2.117E+00    2.192E+00    2.267E+00    2.342E+00    2.416E+00    2.490E+00    2.564E+00    2.638E+00    2.711E+00    2.784E+00
     2.856E+00    2.929E+00    3.001E+00    3.072E+00    3.144E+00    3.215E+00    3.286E+00    3.357E+00    3.427E+00    3.497E+00
     3.567E+00    3.637E+00    3.706E+00    3.776E+00    3.844E+00    3.913E+00    3.981E+00    4.050E+00    4.118E+00    4.185E+00
     4.253E+00    4.320E+00    4.387E+00    4.454E+00    4.520E+00    4.587E+00    4.653E+00    4.719E+00
 Ala      Conc. = 1.18E+02
