 LCModel (Version 6.3-1L) Copyright: S.W. Provencher.          Ref.: Magn. Reson. Med. 30:672-679 (1993).                
 Slice#3 Row#10 Col#6  PD_24_press_1_raw_act
 36 lines in following concentration table = NCONC+1
    Conc.  %SD /Cr+PCr  Metabolite                                         
    0.000 999%   0.000 Ala                                                 
   34.987 602% 1.9E-02 Asp                                                 
  885.600  18%   0.485 Cr                                                  
  938.999  17%   0.515 PCr                                                 
    0.000 999%   0.000 GABA                                                
    4.392 999% 2.4E-03 Glc                                                 
  660.924  25%   0.362 Gln                                                 
 1.74E+03  11%   0.953 Glu                                                 
  718.841   3%   0.394 GPC                                                 
    0.000 999%   0.000 PCh                                                 
  512.762  11%   0.281 GSH                                                 
  994.834  20%   0.545 Ins                                                 
    0.000 999%   0.000 Lac                                                 
 2.31E+03   4%   1.265 NAA                                                 
  274.749  34%   0.151 NAAG                                                
   66.093  34% 3.6E-02 Scyllo                                              
    0.000 999%   0.000 Tau                                                 
    0.000 999%   0.000 -CrCH2                                              
  718.841   3%   0.394 GPC+PCh                                             
 2.58E+03   3%   1.416 NAA+NAAG                                            
 1.82E+03   3%   1.000 Cr+PCr                                              
 2.40E+03  11%   1.315 Glu+Gln                                             
    0.000 999%   0.000 Lip13a                                              
    0.000 999%   0.000 Lip13b                                              
    0.000 999%   0.000 Lip09                                               
 1.54E+03  12%   0.842 MM09                                                
    0.511 999% 2.8E-04 Lip20                                               
 3.35E+03  10%   1.836 MM20                                                
  371.583  40%   0.204 MM12                                                
    0.000 999%   0.000 MM14                                                
  772.048  27%   0.423 MM17                                                
    0.000 999%   0.000 Lip13a+Lip13b                                       
  371.583  40%   0.204 MM14+Lip13a+Lip13b+MM12                             
 1.54E+03  12%   0.842 MM09+Lip09                                          
 3.35E+03  10%   1.836 MM20+Lip20                                          
   6 lines in following misc. output table
  FWHM = 0.046 ppm    S/N =  16                                            
  Data shift = 0.023 ppm                                                   
  Ph:  13 deg       0.1 deg/ppm                                            
  alphaB,S = 9.8E-01,   1.0E+02                                            
   14 spline knots.   Ns = 6(1)                                            
  ( 6) 3 infls.   ( 3) 1 extrs.                                            
  498 points on ppm-axis = NY
      4.000000     3.992357     3.984714     3.977070     3.969427     3.961784     3.954141     3.946497     3.938854     3.931211
      3.923568     3.915925     3.908281     3.900638     3.892995     3.885352     3.877708     3.870065     3.862422     3.854779
      3.847136     3.839492     3.831849     3.824206     3.816563     3.808919     3.801276     3.793633     3.785990     3.778347
      3.770703     3.763060     3.755417     3.747774     3.740130     3.732487     3.724844     3.717201     3.709558     3.701914
      3.694271     3.686628     3.678985     3.671341     3.663698     3.656055     3.648412     3.640769     3.633125     3.625482
      3.617839     3.610196     3.602552     3.594909     3.587266     3.579623     3.571980     3.564336     3.556693     3.549050
      3.541407     3.533763     3.526120     3.518477     3.510834     3.503191     3.495547     3.487904     3.480261     3.472618
      3.464974     3.457331     3.449688     3.442045     3.434402     3.426758     3.419115     3.411472     3.403829     3.396185
      3.388542     3.380899     3.373256     3.365613     3.357969     3.350326     3.342683     3.335040     3.327396     3.319753
      3.312110     3.304467     3.296824     3.289180     3.281537     3.273894     3.266251     3.258607     3.250964     3.243321
      3.235678     3.228034     3.220391     3.212748     3.205105     3.197462     3.189818     3.182175     3.174532     3.166889
      3.159245     3.151602     3.143959     3.136316     3.128673     3.121029     3.113386     3.105743     3.098100     3.090456
      3.082813     3.075170     3.067527     3.059884     3.052240     3.044597     3.036954     3.029311     3.021667     3.014024
      3.006381     2.998738     2.991095     2.983451     2.975808     2.968165     2.960522     2.952878     2.945235     2.937592
      2.929949     2.922306     2.914662     2.907019     2.899376     2.891733     2.884089     2.876446     2.868803     2.861160
      2.853517     2.845873     2.838230     2.830587     2.822944     2.815300     2.807657     2.800014     2.792371     2.784728
      2.777084     2.769441     2.761798     2.754155     2.746511     2.738868     2.731225     2.723582     2.715939     2.708295
      2.700652     2.693009     2.685366     2.677722     2.670079     2.662436     2.654793     2.647150     2.639506     2.631863
      2.624220     2.616577     2.608933     2.601290     2.593647     2.586004     2.578361     2.570717     2.563074     2.555431
      2.547788     2.540144     2.532501     2.524858     2.517215     2.509572     2.501928     2.494285     2.486642     2.478999
      2.471355     2.463712     2.456069     2.448426     2.440783     2.433139     2.425496     2.417853     2.410210     2.402566
      2.394923     2.387280     2.379637     2.371994     2.364350     2.356707     2.349064     2.341421     2.333777     2.326134
      2.318491     2.310848     2.303205     2.295561     2.287918     2.280275     2.272632     2.264988     2.257345     2.249702
      2.242059     2.234416     2.226772     2.219129     2.211486     2.203843     2.196199     2.188556     2.180913     2.173270
      2.165627     2.157983     2.150340     2.142697     2.135054     2.127410     2.119767     2.112124     2.104481     2.096838
      2.089194     2.081551     2.073908     2.066265     2.058621     2.050978     2.043335     2.035692     2.028049     2.020405
      2.012762     2.005119     1.997476     1.989833     1.982190     1.974546     1.966903     1.959260     1.951617     1.943974
      1.936331     1.928688     1.921045     1.913402     1.905759     1.898115     1.890472     1.882829     1.875186     1.867543
      1.859900     1.852257     1.844614     1.836971     1.829327     1.821684     1.814041     1.806398     1.798755     1.791112
      1.783469     1.775826     1.768183     1.760540     1.752896     1.745253     1.737610     1.729967     1.722324     1.714681
      1.707038     1.699395     1.691752     1.684108     1.676465     1.668822     1.661179     1.653536     1.645893     1.638250
      1.630607     1.622964     1.615321     1.607677     1.600034     1.592391     1.584748     1.577105     1.569462     1.561819
      1.554176     1.546533     1.538890     1.531246     1.523603     1.515960     1.508317     1.500674     1.493031     1.485388
      1.477745     1.470102     1.462458     1.454815     1.447172     1.439529     1.431886     1.424243     1.416600     1.408957
      1.401314     1.393671     1.386027     1.378384     1.370741     1.363098     1.355455     1.347812     1.340169     1.332526
      1.324883     1.317240     1.309596     1.301953     1.294310     1.286667     1.279024     1.271381     1.263738     1.256095
      1.248452     1.240808     1.233165     1.225522     1.217879     1.210236     1.202593     1.194950     1.187307     1.179664
      1.172021     1.164377     1.156734     1.149091     1.141448     1.133805     1.126162     1.118519     1.110876     1.103233
      1.095590     1.087946     1.080303     1.072660     1.065017     1.057374     1.049731     1.042088     1.034445     1.026802
      1.019158     1.011515     1.003872     0.996229     0.988586     0.980943     0.973300     0.965657     0.958014     0.950371
      0.942727     0.935084     0.927441     0.919798     0.912155     0.904512     0.896869     0.889226     0.881583     0.873940
      0.866296     0.858653     0.851010     0.843367     0.835724     0.828081     0.820438     0.812795     0.805152     0.797508
      0.789865     0.782222     0.774579     0.766936     0.759293     0.751650     0.744007     0.736364     0.728721     0.721077
      0.713434     0.705791     0.698148     0.690505     0.682862     0.675219     0.667576     0.659933     0.652290     0.644646
      0.637003     0.629360     0.621717     0.614074     0.606431     0.598788     0.591145     0.583502     0.575858     0.568215
      0.560572     0.552929     0.545286     0.537643     0.530000     0.522357     0.514714     0.507071     0.499427     0.491784
      0.484141     0.476498     0.468855     0.461212     0.453569     0.445925     0.438282     0.430639     0.422996     0.415353
      0.407710     0.400067     0.392424     0.384780     0.377137     0.369494     0.361851     0.354208     0.346565     0.338922
      0.331278     0.323635     0.315992     0.308349     0.300706     0.293063     0.285420     0.277777     0.270133     0.262490
      0.254847     0.247204     0.239561     0.231918     0.224275     0.216631     0.208988     0.201345
 NY phased data points follow
   2.59815E+01  2.41502E+01  2.79524E+01  3.08780E+01  3.41581E+01  2.93055E+01  4.39867E+01  4.71625E+01  6.10825E+01  6.52243E+01
   7.60160E+01  7.72761E+01  7.24973E+01  6.57592E+01  5.24730E+01  4.62542E+01  4.01218E+01  3.60186E+01  3.29557E+01  2.76950E+01
   2.62341E+01  2.14014E+01  2.99144E+01  2.69587E+01  2.83519E+01  3.10667E+01  3.14402E+01  3.15242E+01  3.14356E+01  3.43900E+01
   3.47098E+01  3.46943E+01  3.61191E+01  3.31298E+01  3.31998E+01  2.96499E+01  2.39509E+01  2.59978E+01  2.95855E+01  2.80111E+01
   2.64165E+01  2.15970E+01  2.54167E+01  2.90001E+01  2.61816E+01  3.09128E+01  3.35106E+01  3.38753E+01  2.95088E+01  2.79902E+01
   2.82414E+01  1.91574E+01  2.28953E+01  2.04543E+01  1.77557E+01  1.94490E+01  2.04910E+01  2.18710E+01  2.56405E+01  2.13146E+01
   1.98160E+01  1.82297E+01  1.77641E+01  1.08151E+01  9.39558E+00  1.64230E+01  1.15025E+01  8.02017E+00  7.52506E+00  1.24574E+01
   9.98792E+00  6.40660E+00  1.22204E+01  1.64744E+01  1.29241E+01  1.28577E+01  9.39991E+00  1.56103E+01  1.07615E+01  1.27088E+01
   1.27627E+01  7.41835E+00  1.13200E+01  9.66138E+00  8.09002E+00  1.23324E+01  1.50659E+01  1.25993E+01  1.31931E+01  1.15761E+01
   9.83693E+00  1.39726E+01  7.21400E+00  1.42576E+01  1.06173E+01  7.12374E+00  7.26410E+00  8.13945E+00  1.26927E+01  2.24749E+01
   4.41017E+01  6.60337E+01  8.18770E+01  8.46162E+01  8.27043E+01  7.08448E+01  5.57763E+01  4.01449E+01  3.03015E+01  2.24809E+01
   1.54433E+01  1.24388E+01  1.27484E+01  1.10897E+01  8.83430E+00  8.45976E+00  1.33027E+01  7.52623E+00  1.17723E+01  9.07932E+00
   8.19614E+00  8.34971E+00  1.34791E+01  1.55205E+01  2.96838E+01  4.83353E+01  6.46963E+01  7.37278E+01  7.78015E+01  6.80443E+01
   5.02094E+01  3.90684E+01  2.69668E+01  2.17509E+01  1.73940E+01  1.31957E+01  3.36059E+00  6.85050E+00  9.20468E+00  1.00692E+01
   4.57582E+00  9.36339E+00  9.08573E+00  8.77502E+00  6.47129E+00  5.04229E+00  2.45283E+00  2.21029E+00  5.56380E+00  8.66730E-01
   4.10707E+00  1.23879E+00  4.32990E+00 -2.00410E+00  3.51217E+00 -8.07346E-01  1.60041E+00 -4.02744E-02 -1.67226E+00  2.49027E+00
  -1.45861E-01 -3.54879E+00 -2.53348E+00 -3.67861E-01  1.83690E+00  3.61827E+00  2.55739E+00  6.16587E-01 -2.11538E+00 -2.81115E+00
  -7.52116E+00 -5.01082E+00 -1.32243E+00 -5.35719E+00 -8.08835E+00 -7.51402E+00 -6.57989E+00 -6.99720E+00 -3.59441E+00 -8.02403E+00
  -6.16871E+00 -7.90531E+00 -6.70738E+00 -1.18662E+01 -5.19395E+00 -5.73116E+00 -8.49278E+00 -6.39632E+00 -5.24385E+00  1.36369E+00
   1.55665E+00  7.78490E+00  1.14942E+01  6.50231E+00  7.31462E+00  9.28580E+00  3.34388E+00  1.25491E+00 -2.41702E+00 -3.18873E+00
  -3.85710E+00  3.35314E+00  4.77625E+00  4.50565E+00  7.83948E+00  4.85133E+00  7.29502E-01  2.64917E+00 -2.91398E+00 -5.72032E-01
  -8.81894E+00 -5.22349E+00 -9.41386E-01  3.44025E+00  6.43601E+00  1.68443E+01  1.79388E+01  1.75045E+01  1.48321E+01  1.00386E+01
  -1.77606E+00 -2.08898E+00 -2.42458E+00 -2.77314E+00 -1.02849E+00  8.03845E+00  8.57571E+00  1.21627E+01  1.20079E+01  1.29791E+01
   1.11208E+01  1.16850E+01  9.85097E+00  7.06012E+00  1.13722E+01  9.86328E+00  1.04429E+01  1.01371E+01  8.99921E+00  7.84697E+00
   9.48433E+00  3.66971E+00  2.25399E+00  3.11709E+00  5.60113E+00  7.10626E+00  1.11557E+01  9.30295E+00  1.54947E+01  8.69466E+00
   1.04777E+01  7.10710E+00  8.76383E+00  1.48768E+01  2.44535E+01  3.03894E+01  4.12145E+01  5.06641E+01  7.34842E+01  9.21789E+01
   1.06450E+02  9.91724E+01  8.25104E+01  6.29752E+01  4.77128E+01  2.86216E+01  2.55601E+01  2.36012E+01  1.30761E+01  9.29385E+00
   9.85756E+00  5.34353E+00  4.90687E+00  6.33893E+00  6.14498E+00  7.94122E+00  3.44636E+00  6.94108E+00  5.70443E+00  4.86614E+00
   8.54275E-01  6.14657E+00  3.12692E+00  4.83525E+00  2.58648E-01  5.50777E+00  2.56447E+00  2.89181E+00  1.05603E+00  2.59911E+00
  -3.95643E-01  1.77110E+00 -2.01809E+00  1.11272E+00  2.25162E+00  2.85914E+00  1.11969E+00 -1.06225E+00  2.29612E+00  9.83047E-01
  -1.24924E+00  4.75973E+00  1.84185E+00  4.13074E+00  3.95606E+00  1.73561E+00  5.09951E+00  3.62869E+00  2.37853E+00  5.32702E+00
   2.60356E+00  4.09933E+00  7.27394E+00  3.36093E+00  2.32420E+00  8.48262E+00  7.74133E+00  1.30650E-01  1.78243E+00  3.86376E+00
   5.14220E+00  7.30021E-01  4.10768E-01  5.08440E+00  1.02769E+00 -1.20894E+00  2.43659E+00  6.95298E-01 -2.14679E+00  2.01760E+00
   1.84785E+00  2.47539E+00  2.90858E+00 -1.16173E+00  7.02703E-01 -3.55111E+00 -5.27208E+00 -9.42922E-01 -9.90453E-01 -3.89225E+00
  -3.42114E+00  7.26677E-01 -3.03025E+00 -6.37477E-01  2.79733E+00 -1.16557E+00 -1.26543E+00  1.69271E+00 -3.71290E+00 -2.07453E+00
  -1.25183E-01  9.01477E-02 -7.89811E-01 -2.48821E+00  1.08202E+00  1.93729E+00  2.24757E+00 -3.70517E+00  2.29256E+00 -2.43434E+00
   3.38143E+00  8.90861E-02 -5.85935E+00  1.66166E-01 -3.20607E+00  1.43531E+00  2.82480E-02 -2.21745E+00  3.09014E-01  2.42867E+00
  -7.44427E-01  4.10282E+00  5.27593E-01  7.01379E-01  3.65543E+00  4.33847E+00  7.33774E+00  3.74601E+00  5.34176E+00  2.48944E+00
   3.56402E+00  6.84765E+00  6.39380E+00  4.38038E+00  2.79513E+00  6.16835E+00  1.25156E+00  7.29165E+00  7.41849E+00  5.38411E+00
   3.78320E+00  5.65860E+00  5.63210E+00  7.60147E+00  8.75916E+00  1.14046E+01  1.09786E+01  8.64488E+00  7.08072E+00  9.50539E+00
   6.34981E+00  8.73946E+00  4.87568E+00  6.98777E+00  5.67632E+00  8.15649E+00  8.32434E+00  1.32494E+01  9.75853E+00  1.15784E+01
   9.63322E+00  7.29383E+00  7.17884E+00  1.02982E+01  8.19463E+00  4.91055E+00  6.64466E+00  1.18165E+00  3.10995E+00  7.97283E-01
   3.35017E+00  5.14303E+00  4.08097E+00  4.72033E+00  1.70916E+00 -4.91286E-01  2.42200E+00 -4.03424E-01  5.47999E+00 -6.26749E-02
   2.81986E+00 -4.00958E-01 -6.77887E-01  1.30854E+00  3.86910E+00 -4.48764E+00  1.01376E+00  1.92577E+00  3.00455E+00 -2.71786E+00
   2.32403E+00 -1.95411E+00  4.08437E-01  2.60162E+00  3.32451E+00  2.95449E-01 -4.03848E+00  2.19935E+00  3.04500E+00 -9.51005E-01
  -1.51084E+00  3.56609E-01  1.22057E+00  4.81259E+00  3.22587E+00  1.73995E+00  5.68896E-01  2.14929E+00 -1.58920E+00  3.00385E+00
   2.32678E+00  2.11992E+00  1.43673E+00 -1.06564E+00  8.03218E-01  3.93513E+00  1.00717E+00  2.57052E+00  1.16909E+00  4.20310E+00
  -1.39090E+00 -1.07004E+00  2.52035E+00  1.49066E+00  2.16243E+00 -1.83936E-01 -1.52084E+00  2.45185E+00  4.97808E+00  2.32679E+00
  -1.61020E-01  6.00542E+00 -7.89984E-01  2.83454E+00 -2.36815E+00 -1.26077E+00  2.89606E+00  5.42503E+00 -1.53816E+00  6.41539E-01
   1.65381E+00  1.99191E+00  6.08139E-01 -2.90244E+00 -2.82280E+00  1.06827E+00 -1.36877E+00  4.00177E+00
 NY points of the fit to the data follow
   2.80798E+01  2.78423E+01  2.79196E+01  2.84420E+01  2.98132E+01  3.27056E+01  3.80722E+01  4.63851E+01  5.67273E+01  6.65832E+01
   7.28420E+01  7.34846E+01  6.87239E+01  6.06968E+01  5.21773E+01  4.50945E+01  3.96890E+01  3.53909E+01  3.21634E+01  2.98117E+01
   2.85240E+01  2.76699E+01  2.69515E+01  2.63170E+01  2.58563E+01  2.58744E+01  2.67699E+01  2.87226E+01  3.14161E+01  3.41830E+01
   3.63431E+01  3.73672E+01  3.69919E+01  3.53279E+01  3.27414E+01  2.96887E+01  2.63735E+01  2.34081E+01  2.18877E+01  2.15477E+01
   2.19370E+01  2.28561E+01  2.40903E+01  2.56961E+01  2.75454E+01  2.93767E+01  3.05561E+01  3.04608E+01  2.91623E+01  2.70404E+01
   2.46292E+01  2.25843E+01  2.11387E+01  1.99828E+01  1.90530E+01  1.86685E+01  1.88182E+01  1.91760E+01  1.95238E+01  1.96496E+01
   1.93314E+01  1.85162E+01  1.73454E+01  1.61497E+01  1.52514E+01  1.47400E+01  1.45568E+01  1.46488E+01  1.49017E+01  1.52095E+01
   1.54490E+01  1.55008E+01  1.53254E+01  1.49454E+01  1.44468E+01  1.39506E+01  1.35239E+01  1.31882E+01  1.28773E+01  1.25928E+01
   1.23803E+01  1.22720E+01  1.23341E+01  1.26021E+01  1.29747E+01  1.31946E+01  1.30172E+01  1.23951E+01  1.15125E+01  1.06859E+01
   1.01736E+01  1.00423E+01  1.01612E+01  1.02679E+01  1.02338E+01  1.02057E+01  1.03122E+01  1.15015E+01  1.58628E+01  2.59986E+01
   4.28660E+01  6.33136E+01  8.06947E+01  8.86424E+01  8.47365E+01  7.15563E+01  5.48076E+01  3.98193E+01  2.91684E+01  2.16841E+01
   1.49297E+01  1.05686E+01  9.21234E+00  8.68192E+00  8.37994E+00  8.17149E+00  8.00435E+00  7.86200E+00  7.76556E+00  7.78064E+00
   8.05872E+00  9.12470E+00  1.23134E+01  1.96436E+01  3.25952E+01  4.97864E+01  6.63591E+01  7.64861E+01  7.67948E+01  6.81433E+01
   5.47750E+01  4.14132E+01  3.08494E+01  2.29673E+01  1.56442E+01  9.29586E+00  6.31271E+00  5.37300E+00  5.55989E+00  6.33496E+00
   7.13510E+00  7.65823E+00  7.80690E+00  7.54195E+00  7.03087E+00  6.45957E+00  5.89094E+00  5.37452E+00  4.87364E+00  4.39396E+00
   3.95579E+00  3.52825E+00  3.13915E+00  2.84782E+00  2.69864E+00  2.65762E+00  2.60116E+00  2.35263E+00  1.78975E+00  1.01592E+00
   3.45424E-01  1.06028E-01  3.66110E-01  8.50213E-01  1.16031E+00  1.00458E+00  3.73981E-01 -4.33359E-01 -1.08860E+00 -1.55441E+00
  -1.89740E+00 -2.28699E+00 -2.88173E+00 -3.57107E+00 -4.19390E+00 -4.53480E+00 -4.45634E+00 -4.10482E+00 -3.80322E+00 -3.76238E+00
  -3.93451E+00 -4.14049E+00 -4.22764E+00 -4.18270E+00 -4.12000E+00 -3.92255E+00 -3.15121E+00 -1.59886E+00  5.66396E-01  2.72072E+00
   4.22663E+00  4.77046E+00  4.37846E+00  3.33130E+00  2.01021E+00  6.62888E-01 -3.65980E-01 -7.27806E-01 -3.05023E-01  8.86049E-01
   2.70318E+00  4.81551E+00  6.75120E+00  8.05790E+00  8.40231E+00  7.52544E+00  5.32074E+00  2.15052E+00 -1.31252E+00 -4.24877E+00
  -5.86644E+00 -5.54163E+00 -3.01320E+00  1.25430E+00  6.20214E+00  1.03113E+01  1.22409E+01  1.15599E+01  8.32225E+00  3.31227E+00
  -1.93565E+00 -6.07580E+00 -8.06131E+00 -7.54420E+00 -4.79642E+00 -6.18010E-01  3.39078E+00  6.20854E+00  7.57700E+00  7.91018E+00
   7.75643E+00  7.37052E+00  7.11935E+00  7.41746E+00  8.17352E+00  9.02944E+00  9.67578E+00  9.89301E+00  9.64281E+00  8.89230E+00
   7.74141E+00  6.61622E+00  6.04699E+00  6.33910E+00  7.33187E+00  8.68324E+00  9.99642E+00  1.08225E+01  1.10378E+01  1.09148E+01
   1.11106E+01  1.20356E+01  1.40240E+01  1.72818E+01  2.18660E+01  2.84462E+01  3.89551E+01  5.50932E+01  7.50711E+01  9.29866E+01
   1.02080E+02  9.88409E+01  8.48178E+01  6.55825E+01  4.76174E+01  3.44423E+01  2.52706E+01  1.70269E+01  1.07373E+01  8.26307E+00
   7.06975E+00  6.30932E+00  5.86301E+00  5.67483E+00  5.53062E+00  5.32508E+00  5.02281E+00  4.62318E+00  4.17368E+00  3.74335E+00
   3.36224E+00  3.02976E+00  2.76115E+00  2.56254E+00  2.40389E+00  2.24662E+00  2.07904E+00  1.91647E+00  1.78226E+00  1.68184E+00
   1.62241E+00  1.61192E+00  1.64652E+00  1.70761E+00  1.78291E+00  1.86713E+00  1.96218E+00  2.07375E+00  2.20817E+00  2.36740E+00
   2.55527E+00  2.76815E+00  2.99562E+00  3.22492E+00  3.44440E+00  3.64625E+00  3.82490E+00  3.97208E+00  4.08334E+00  4.15621E+00
   4.18675E+00  4.17245E+00  4.11331E+00  4.01040E+00  3.86630E+00  3.68487E+00  3.47092E+00  3.23016E+00  2.96910E+00  2.69456E+00
   2.41320E+00  2.13107E+00  1.85343E+00  1.58502E+00  1.33005E+00  1.09184E+00  8.72544E-01  6.73252E-01  4.94347E-01  3.35857E-01
   1.97479E-01  7.84206E-02 -2.26386E-02 -1.07285E-01 -1.76987E-01 -2.32931E-01 -2.76168E-01 -3.07834E-01 -3.29148E-01 -3.41167E-01
  -3.44566E-01 -3.39691E-01 -3.26834E-01 -3.06421E-01 -2.78931E-01 -2.44668E-01 -2.03667E-01 -1.55884E-01 -1.01460E-01 -4.08007E-02
   2.55876E-02  9.72976E-02  1.74002E-01  2.55229E-01  3.40185E-01  4.27823E-01  5.17077E-01  6.07023E-01  6.96795E-01  7.85395E-01
   8.71666E-01  9.54486E-01  1.03303E+00  1.10682E+00  1.17563E+00  1.23932E+00  1.29788E+00  1.35169E+00  1.40166E+00  1.44914E+00
   1.49573E+00  1.54315E+00  1.59332E+00  1.64858E+00  1.71162E+00  1.78535E+00  1.87264E+00  1.97630E+00  2.09915E+00  2.24412E+00
   2.41415E+00  2.61188E+00  2.83948E+00  3.09857E+00  3.39031E+00  3.71534E+00  4.07348E+00  4.46345E+00  4.88270E+00  5.32747E+00
   5.79289E+00  6.27292E+00  6.76030E+00  7.24648E+00  7.72196E+00  8.17667E+00  8.60043E+00  8.98324E+00  9.31553E+00  9.58852E+00
   9.79479E+00  9.92873E+00  9.98685E+00  9.96779E+00  9.87229E+00  9.70313E+00  9.46518E+00  9.16517E+00  8.81137E+00  8.41298E+00
   7.97965E+00  7.52119E+00  7.04730E+00  6.56729E+00  6.08960E+00  5.62156E+00  5.16917E+00  4.73725E+00  4.32954E+00  3.94869E+00
   3.59626E+00  3.27275E+00  2.97784E+00  2.71068E+00  2.47010E+00  2.25462E+00  2.06244E+00  1.89155E+00  1.73993E+00  1.60571E+00
   1.48724E+00  1.38291E+00  1.29113E+00  1.21038E+00  1.13934E+00  1.07696E+00  1.02236E+00  9.74692E-01  9.33086E-01  8.96770E-01
   8.65156E-01  8.37837E-01  8.14450E-01  7.94571E-01  7.77737E-01  7.63576E-01  7.51871E-01  7.42496E-01  7.35280E-01  7.29957E-01
   7.26254E-01  7.24009E-01  7.23187E-01  7.23764E-01  7.25625E-01  7.28574E-01  7.32450E-01  7.37211E-01  7.42888E-01  7.49468E-01
   7.56829E-01  7.64816E-01  7.73358E-01  7.82493E-01  7.92276E-01  8.02670E-01  8.13545E-01  8.24786E-01  8.36386E-01  8.48417E-01
   8.60921E-01  8.73826E-01  8.87014E-01  9.00427E-01  9.14115E-01  9.28156E-01  9.42549E-01  9.57193E-01  9.71987E-01  9.86925E-01
   1.00209E+00  1.01755E+00  1.03324E+00  1.04907E+00  1.06498E+00  1.08101E+00  1.09726E+00  1.11373E+00  1.13036E+00  1.14705E+00
   1.16379E+00  1.18066E+00  1.19773E+00  1.21498E+00  1.23231E+00  1.24967E+00  1.26709E+00  1.28468E+00
 NY background values follow
     2.545E+01    2.525E+01    2.505E+01    2.486E+01    2.466E+01    2.446E+01    2.427E+01    2.407E+01    2.387E+01    2.367E+01
     2.348E+01    2.328E+01    2.308E+01    2.289E+01    2.269E+01    2.249E+01    2.230E+01    2.210E+01    2.190E+01    2.171E+01
     2.151E+01    2.131E+01    2.112E+01    2.092E+01    2.072E+01    2.053E+01    2.033E+01    2.014E+01    1.994E+01    1.975E+01
     1.955E+01    1.936E+01    1.917E+01    1.897E+01    1.878E+01    1.858E+01    1.839E+01    1.820E+01    1.801E+01    1.781E+01
     1.762E+01    1.743E+01    1.724E+01    1.705E+01    1.686E+01    1.667E+01    1.648E+01    1.629E+01    1.610E+01    1.592E+01
     1.573E+01    1.554E+01    1.536E+01    1.517E+01    1.499E+01    1.480E+01    1.462E+01    1.443E+01    1.425E+01    1.407E+01
     1.389E+01    1.371E+01    1.353E+01    1.335E+01    1.317E+01    1.299E+01    1.281E+01    1.264E+01    1.246E+01    1.229E+01
     1.211E+01    1.194E+01    1.177E+01    1.160E+01    1.143E+01    1.126E+01    1.109E+01    1.092E+01    1.076E+01    1.059E+01
     1.043E+01    1.026E+01    1.010E+01    9.940E+00    9.779E+00    9.620E+00    9.462E+00    9.305E+00    9.150E+00    8.995E+00
     8.842E+00    8.690E+00    8.539E+00    8.389E+00    8.240E+00    8.093E+00    7.947E+00    7.802E+00    7.658E+00    7.516E+00
     7.374E+00    7.234E+00    7.096E+00    6.958E+00    6.822E+00    6.687E+00    6.553E+00    6.420E+00    6.289E+00    6.159E+00
     6.030E+00    5.902E+00    5.776E+00    5.651E+00    5.527E+00    5.404E+00    5.283E+00    5.163E+00    5.044E+00    4.927E+00
     4.810E+00    4.695E+00    4.582E+00    4.469E+00    4.358E+00    4.248E+00    4.140E+00    4.033E+00    3.927E+00    3.822E+00
     3.719E+00    3.616E+00    3.516E+00    3.416E+00    3.318E+00    3.221E+00    3.126E+00    3.032E+00    2.939E+00    2.847E+00
     2.757E+00    2.668E+00    2.580E+00    2.494E+00    2.409E+00    2.325E+00    2.242E+00    2.161E+00    2.081E+00    2.002E+00
     1.925E+00    1.848E+00    1.773E+00    1.700E+00    1.627E+00    1.556E+00    1.486E+00    1.417E+00    1.349E+00    1.283E+00
     1.218E+00    1.154E+00    1.091E+00    1.029E+00    9.691E-01    9.100E-01    8.520E-01    7.952E-01    7.396E-01    6.852E-01
     6.319E-01    5.799E-01    5.290E-01    4.792E-01    4.306E-01    3.832E-01    3.369E-01    2.917E-01    2.477E-01    2.048E-01
     1.630E-01    1.224E-01    8.290E-02    4.448E-02    7.116E-03   -2.920E-02   -6.451E-02   -9.883E-02   -1.322E-01   -1.646E-01
    -1.961E-01   -2.267E-01   -2.565E-01   -2.854E-01   -3.135E-01   -3.409E-01   -3.674E-01   -3.933E-01   -4.184E-01   -4.429E-01
    -4.667E-01   -4.898E-01   -5.124E-01   -5.344E-01   -5.558E-01   -5.767E-01   -5.971E-01   -6.170E-01   -6.365E-01   -6.555E-01
    -6.742E-01   -6.925E-01   -7.104E-01   -7.280E-01   -7.453E-01   -7.623E-01   -7.790E-01   -7.956E-01   -8.120E-01   -8.281E-01
    -8.442E-01   -8.601E-01   -8.759E-01   -8.917E-01   -9.074E-01   -9.231E-01   -9.388E-01   -9.545E-01   -9.703E-01   -9.861E-01
    -1.002E+00   -1.018E+00   -1.033E+00   -1.049E+00   -1.065E+00   -1.081E+00   -1.097E+00   -1.113E+00   -1.128E+00   -1.144E+00
    -1.160E+00   -1.176E+00   -1.191E+00   -1.207E+00   -1.223E+00   -1.238E+00   -1.254E+00   -1.269E+00   -1.285E+00   -1.300E+00
    -1.315E+00   -1.330E+00   -1.345E+00   -1.361E+00   -1.375E+00   -1.390E+00   -1.405E+00   -1.420E+00   -1.434E+00   -1.449E+00
    -1.463E+00   -1.478E+00   -1.492E+00   -1.506E+00   -1.520E+00   -1.533E+00   -1.547E+00   -1.561E+00   -1.574E+00   -1.587E+00
    -1.600E+00   -1.613E+00   -1.626E+00   -1.638E+00   -1.651E+00   -1.663E+00   -1.675E+00   -1.687E+00   -1.699E+00   -1.710E+00
    -1.722E+00   -1.733E+00   -1.744E+00   -1.755E+00   -1.765E+00   -1.776E+00   -1.786E+00   -1.796E+00   -1.806E+00   -1.815E+00
    -1.825E+00   -1.834E+00   -1.843E+00   -1.852E+00   -1.860E+00   -1.869E+00   -1.877E+00   -1.885E+00   -1.892E+00   -1.900E+00
    -1.907E+00   -1.914E+00   -1.920E+00   -1.927E+00   -1.933E+00   -1.939E+00   -1.945E+00   -1.950E+00   -1.955E+00   -1.960E+00
    -1.965E+00   -1.969E+00   -1.973E+00   -1.977E+00   -1.980E+00   -1.984E+00   -1.987E+00   -1.989E+00   -1.992E+00   -1.994E+00
    -1.996E+00   -1.997E+00   -1.998E+00   -1.999E+00   -2.000E+00   -2.000E+00   -2.001E+00   -2.000E+00   -2.000E+00   -1.999E+00
    -1.998E+00   -1.997E+00   -1.995E+00   -1.993E+00   -1.991E+00   -1.988E+00   -1.985E+00   -1.982E+00   -1.979E+00   -1.975E+00
    -1.971E+00   -1.967E+00   -1.962E+00   -1.957E+00   -1.952E+00   -1.946E+00   -1.940E+00   -1.934E+00   -1.928E+00   -1.921E+00
    -1.914E+00   -1.907E+00   -1.899E+00   -1.891E+00   -1.883E+00   -1.874E+00   -1.865E+00   -1.856E+00   -1.847E+00   -1.837E+00
    -1.827E+00   -1.816E+00   -1.806E+00   -1.794E+00   -1.783E+00   -1.771E+00   -1.759E+00   -1.747E+00   -1.735E+00   -1.722E+00
    -1.709E+00   -1.695E+00   -1.682E+00   -1.668E+00   -1.654E+00   -1.639E+00   -1.624E+00   -1.610E+00   -1.594E+00   -1.579E+00
    -1.563E+00   -1.547E+00   -1.531E+00   -1.515E+00   -1.498E+00   -1.481E+00   -1.464E+00   -1.447E+00   -1.430E+00   -1.412E+00
    -1.394E+00   -1.376E+00   -1.358E+00   -1.340E+00   -1.321E+00   -1.302E+00   -1.283E+00   -1.264E+00   -1.245E+00   -1.226E+00
    -1.206E+00   -1.186E+00   -1.167E+00   -1.147E+00   -1.126E+00   -1.106E+00   -1.086E+00   -1.065E+00   -1.045E+00   -1.024E+00
    -1.003E+00   -9.820E-01   -9.609E-01   -9.397E-01   -9.184E-01   -8.970E-01   -8.754E-01   -8.538E-01   -8.321E-01   -8.104E-01
    -7.885E-01   -7.665E-01   -7.445E-01   -7.224E-01   -7.002E-01   -6.780E-01   -6.556E-01   -6.332E-01   -6.108E-01   -5.883E-01
    -5.657E-01   -5.431E-01   -5.204E-01   -4.977E-01   -4.750E-01   -4.522E-01   -4.293E-01   -4.065E-01   -3.836E-01   -3.607E-01
    -3.377E-01   -3.147E-01   -2.917E-01   -2.687E-01   -2.457E-01   -2.226E-01   -1.996E-01   -1.765E-01   -1.535E-01   -1.304E-01
    -1.074E-01   -8.436E-02   -6.133E-02   -3.831E-02   -1.531E-02    7.683E-03    3.066E-02    5.362E-02    7.656E-02    9.949E-02
     1.224E-01    1.453E-01    1.682E-01    1.910E-01    2.139E-01    2.367E-01    2.595E-01    2.823E-01    3.051E-01    3.278E-01
     3.506E-01    3.733E-01    3.959E-01    4.186E-01    4.412E-01    4.639E-01    4.864E-01    5.090E-01    5.316E-01    5.541E-01
     5.766E-01    5.990E-01    6.215E-01    6.439E-01    6.663E-01    6.886E-01    7.109E-01    7.332E-01    7.555E-01    7.777E-01
     8.000E-01    8.221E-01    8.443E-01    8.664E-01    8.885E-01    9.105E-01    9.325E-01    9.545E-01
 Asp      Conc. = 3.50E+01
