 LCModel (Version 6.3-1L) Copyright: S.W. Provencher.          Ref.: Magn. Reson. Med. 30:672-679 (1993).                
 Slice#2 Row#4 Col#10  PD_24_press_1_raw_act
 36 lines in following concentration table = NCONC+1
    Conc.  %SD /Cr+PCr  Metabolite                                         
  200.267  88%   0.105 Ala                                                 
    0.000 999%   0.000 Asp                                                 
 1.52E+03  19%   0.799 Cr                                                  
  380.754  75%   0.201 PCr                                                 
    0.000 999%   0.000 GABA                                                
    0.000 999%   0.000 Glc                                                 
 1.49E+03  24%   0.784 Gln                                                 
 1.92E+03  20%   1.012 Glu                                                 
  893.267   3%   0.471 GPC                                                 
    0.000 999%   0.000 PCh                                                 
  804.152  11%   0.424 GSH                                                 
 2.48E+03  13%   1.306 Ins                                                 
  516.358  56%   0.272 Lac                                                 
 2.66E+03   6%   1.404 NAA                                                 
  154.592 110% 8.1E-02 NAAG                                                
  194.029  17%   0.102 Scyllo                                              
    0.000 999%   0.000 Tau                                                 
    0.000 999%   0.000 -CrCH2                                              
  893.267   3%   0.471 GPC+PCh                                             
 2.82E+03   4%   1.485 NAA+NAAG                                            
 1.90E+03   4%   1.000 Cr+PCr                                              
 3.41E+03  18%   1.796 Glu+Gln                                             
 1.23E+03  66%   0.650 Lip13a                                              
 1.25E+03  20%   0.658 Lip13b                                              
  401.547 101%   0.212 Lip09                                               
 2.17E+03  20%   1.143 MM09                                                
  382.897  71%   0.202 Lip20                                               
 4.67E+03  11%   2.461 MM20                                                
  774.866  45%   0.408 MM12                                                
 2.11E+03  22%   1.109 MM14                                                
 1.31E+03  26%   0.693 MM17                                                
 2.48E+03  26%   1.308 Lip13a+Lip13b                                       
 5.36E+03   9%   2.825 MM14+Lip13a+Lip13b+MM12                             
 2.57E+03   9%   1.355 MM09+Lip09                                          
 5.06E+03   9%   2.663 MM20+Lip20                                          
   6 lines in following misc. output table
  FWHM = 0.069 ppm    S/N =  12                                            
  Data shift = 0.008 ppm                                                   
  Ph:  -9 deg      -2.7 deg/ppm                                            
  alphaB,S = 1.8E+00,   1.1E+02                                            
   14 spline knots.   Ns = 9(1)                                            
  (15) 4 infls.   (11) 1 extrs.                                            
  498 points on ppm-axis = NY
      4.000000     3.992357     3.984714     3.977070     3.969427     3.961784     3.954141     3.946497     3.938854     3.931211
      3.923568     3.915925     3.908281     3.900638     3.892995     3.885352     3.877708     3.870065     3.862422     3.854779
      3.847136     3.839492     3.831849     3.824206     3.816563     3.808919     3.801276     3.793633     3.785990     3.778347
      3.770703     3.763060     3.755417     3.747774     3.740130     3.732487     3.724844     3.717201     3.709558     3.701914
      3.694271     3.686628     3.678985     3.671341     3.663698     3.656055     3.648412     3.640769     3.633125     3.625482
      3.617839     3.610196     3.602552     3.594909     3.587266     3.579623     3.571980     3.564336     3.556693     3.549050
      3.541407     3.533763     3.526120     3.518477     3.510834     3.503191     3.495547     3.487904     3.480261     3.472618
      3.464974     3.457331     3.449688     3.442045     3.434402     3.426758     3.419115     3.411472     3.403829     3.396185
      3.388542     3.380899     3.373256     3.365613     3.357969     3.350326     3.342683     3.335040     3.327396     3.319753
      3.312110     3.304467     3.296824     3.289180     3.281537     3.273894     3.266251     3.258607     3.250964     3.243321
      3.235678     3.228034     3.220391     3.212748     3.205105     3.197462     3.189818     3.182175     3.174532     3.166889
      3.159245     3.151602     3.143959     3.136316     3.128673     3.121029     3.113386     3.105743     3.098100     3.090456
      3.082813     3.075170     3.067527     3.059884     3.052240     3.044597     3.036954     3.029311     3.021667     3.014024
      3.006381     2.998738     2.991095     2.983451     2.975808     2.968165     2.960522     2.952878     2.945235     2.937592
      2.929949     2.922306     2.914662     2.907019     2.899376     2.891733     2.884089     2.876446     2.868803     2.861160
      2.853517     2.845873     2.838230     2.830587     2.822944     2.815300     2.807657     2.800014     2.792371     2.784728
      2.777084     2.769441     2.761798     2.754155     2.746511     2.738868     2.731225     2.723582     2.715939     2.708295
      2.700652     2.693009     2.685366     2.677722     2.670079     2.662436     2.654793     2.647150     2.639506     2.631863
      2.624220     2.616577     2.608933     2.601290     2.593647     2.586004     2.578361     2.570717     2.563074     2.555431
      2.547788     2.540144     2.532501     2.524858     2.517215     2.509572     2.501928     2.494285     2.486642     2.478999
      2.471355     2.463712     2.456069     2.448426     2.440783     2.433139     2.425496     2.417853     2.410210     2.402566
      2.394923     2.387280     2.379637     2.371994     2.364350     2.356707     2.349064     2.341421     2.333777     2.326134
      2.318491     2.310848     2.303205     2.295561     2.287918     2.280275     2.272632     2.264988     2.257345     2.249702
      2.242059     2.234416     2.226772     2.219129     2.211486     2.203843     2.196199     2.188556     2.180913     2.173270
      2.165627     2.157983     2.150340     2.142697     2.135054     2.127410     2.119767     2.112124     2.104481     2.096838
      2.089194     2.081551     2.073908     2.066265     2.058621     2.050978     2.043335     2.035692     2.028049     2.020405
      2.012762     2.005119     1.997476     1.989833     1.982190     1.974546     1.966903     1.959260     1.951617     1.943974
      1.936331     1.928688     1.921045     1.913402     1.905759     1.898115     1.890472     1.882829     1.875186     1.867543
      1.859900     1.852257     1.844614     1.836971     1.829327     1.821684     1.814041     1.806398     1.798755     1.791112
      1.783469     1.775826     1.768183     1.760540     1.752896     1.745253     1.737610     1.729967     1.722324     1.714681
      1.707038     1.699395     1.691752     1.684108     1.676465     1.668822     1.661179     1.653536     1.645893     1.638250
      1.630607     1.622964     1.615321     1.607677     1.600034     1.592391     1.584748     1.577105     1.569462     1.561819
      1.554176     1.546533     1.538890     1.531246     1.523603     1.515960     1.508317     1.500674     1.493031     1.485388
      1.477745     1.470102     1.462458     1.454815     1.447172     1.439529     1.431886     1.424243     1.416600     1.408957
      1.401314     1.393671     1.386027     1.378384     1.370741     1.363098     1.355455     1.347812     1.340169     1.332526
      1.324883     1.317240     1.309596     1.301953     1.294310     1.286667     1.279024     1.271381     1.263738     1.256095
      1.248452     1.240808     1.233165     1.225522     1.217879     1.210236     1.202593     1.194950     1.187307     1.179664
      1.172021     1.164377     1.156734     1.149091     1.141448     1.133805     1.126162     1.118519     1.110876     1.103233
      1.095590     1.087946     1.080303     1.072660     1.065017     1.057374     1.049731     1.042088     1.034445     1.026802
      1.019158     1.011515     1.003872     0.996229     0.988586     0.980943     0.973300     0.965657     0.958014     0.950371
      0.942727     0.935084     0.927441     0.919798     0.912155     0.904512     0.896869     0.889226     0.881583     0.873940
      0.866296     0.858653     0.851010     0.843367     0.835724     0.828081     0.820438     0.812795     0.805152     0.797508
      0.789865     0.782222     0.774579     0.766936     0.759293     0.751650     0.744007     0.736364     0.728721     0.721077
      0.713434     0.705791     0.698148     0.690505     0.682862     0.675219     0.667576     0.659933     0.652290     0.644646
      0.637003     0.629360     0.621717     0.614074     0.606431     0.598788     0.591145     0.583502     0.575858     0.568215
      0.560572     0.552929     0.545286     0.537643     0.530000     0.522357     0.514714     0.507071     0.499427     0.491784
      0.484141     0.476498     0.468855     0.461212     0.453569     0.445925     0.438282     0.430639     0.422996     0.415353
      0.407710     0.400067     0.392424     0.384780     0.377137     0.369494     0.361851     0.354208     0.346565     0.338922
      0.331278     0.323635     0.315992     0.308349     0.300706     0.293063     0.285420     0.277777     0.270133     0.262490
      0.254847     0.247204     0.239561     0.231918     0.224275     0.216631     0.208988     0.201345
 NY phased data points follow
   1.39284E+01  1.88261E+01  1.54254E+01  1.57577E+01  1.75810E+01  2.91604E+01  3.71912E+01  4.10650E+01  3.90174E+01  5.08732E+01
   4.71810E+01  5.45224E+01  4.67956E+01  4.64843E+01  4.02456E+01  3.61207E+01  3.50274E+01  3.26108E+01  2.81894E+01  2.77269E+01
   2.03646E+01  2.78166E+01  2.05500E+01  2.10555E+01  2.26537E+01  2.11131E+01  2.00757E+01  2.13497E+01  2.58632E+01  3.06531E+01
   2.44018E+01  1.96584E+01  2.37543E+01  1.98970E+01  2.27030E+01  2.34831E+01  2.00874E+01  2.34537E+01  2.10897E+01  1.80903E+01
   1.71938E+01  1.89074E+01  1.94782E+01  2.50263E+01  2.39097E+01  2.64816E+01  2.29873E+01  2.76388E+01  2.82365E+01  2.72626E+01
   2.27973E+01  1.95042E+01  2.15217E+01  2.39079E+01  1.62685E+01  2.17308E+01  2.12745E+01  1.65781E+01  2.14217E+01  1.86725E+01
   1.15990E+01  9.48405E+00  1.19152E+01  7.92198E+00  6.65931E+00  3.14565E+00  4.92739E+00  6.10001E+00  2.01816E+00  2.73075E+00
   5.18059E+00  8.25397E+00  4.16175E+00  4.32264E+00  2.38379E+00  4.29597E+00  1.10051E+01  4.79013E+00  9.26596E+00  9.41105E+00
   3.39974E+00  4.69068E+00  8.46807E+00  6.97123E+00  1.09099E+01  7.77712E+00  1.13224E+01  1.29232E+01  1.18714E+01  1.23780E+01
   1.23177E+01  1.37123E+01  1.10420E+01  9.66003E+00  8.47391E+00  8.03636E+00  9.43925E+00  1.69941E+01  2.12237E+01  3.43899E+01
   4.88422E+01  6.45750E+01  6.75034E+01  6.36927E+01  6.22075E+01  5.59432E+01  5.19668E+01  4.42307E+01  4.13902E+01  3.05401E+01
   2.63708E+01  2.28940E+01  2.35918E+01  1.70240E+01  1.53377E+01  1.41441E+01  7.39361E+00  4.26556E+00  5.34991E+00  7.94143E+00
   3.24270E+00  1.50317E+01  1.95366E+01  2.85676E+01  3.66291E+01  5.12947E+01  5.15819E+01  5.20568E+01  5.02468E+01  4.82174E+01
   4.06172E+01  3.35709E+01  2.18827E+01  2.61404E+01  2.03741E+01  2.05711E+01  1.74582E+01  1.76138E+01  1.17509E+01  9.42514E+00
   1.09653E+01  9.77810E+00  6.48659E+00  4.36878E+00  5.91737E+00  6.99358E+00  2.88460E+00  5.56017E+00 -1.30456E-01  1.81720E+00
   1.64898E+00  2.86550E+00 -2.33534E+00 -1.03080E+00  8.38971E-01 -7.86063E-01  1.61960E+00  1.41872E+00  8.86022E-01 -9.50108E-01
  -4.81510E+00 -1.22215E+00 -4.23185E-01 -4.97750E+00 -1.74633E+00  1.04845E+00 -7.28145E-01 -3.78594E+00 -2.38045E+00 -3.06982E+00
  -5.09437E+00 -3.87909E+00 -8.45941E+00 -5.10470E+00 -1.02983E+01 -8.73800E+00 -9.37474E+00 -1.27820E+01 -9.70808E+00 -9.51492E+00
  -1.15065E+01 -1.04637E+01 -1.49155E+01 -1.56545E+01 -1.12944E+01 -1.08044E+01 -4.10505E+00 -2.62522E+00 -1.39217E+00  2.37356E-01
  -1.79382E+00  1.82642E+00 -3.49613E+00  1.77447E+00  3.04179E+00 -9.43076E-01  1.71803E+00 -2.88947E+00 -7.16568E+00 -1.59844E+00
  -2.30594E+00 -3.17003E-01  7.81851E-01 -2.42520E+00 -1.73903E-01  3.75328E-02  6.73295E-01 -3.01060E+00 -1.81707E+00 -5.27424E+00
  -3.53185E+00  1.08363E+00  1.90440E+00  5.52678E+00  6.96560E+00  1.06512E+01  1.32186E+01  7.33303E+00  6.14661E+00  6.11463E+00
   9.61321E-01 -1.54978E+00  3.15361E+00  4.62414E+00  5.98254E+00  3.86857E+00  7.14576E+00  7.15902E+00  1.00841E+01  6.84520E+00
   7.72957E+00  8.01619E+00  9.19147E+00  9.08765E+00  1.01747E+01  6.26841E+00  1.29217E+01  1.24075E+01  8.25414E+00  7.85777E+00
   8.79811E+00  7.48278E+00  8.80002E+00  1.05313E+01  4.20636E+00  1.66043E+01  1.40968E+01  1.43632E+01  1.49889E+01  1.79915E+01
   1.79085E+01  2.01804E+01  2.31883E+01  2.44958E+01  2.55810E+01  3.80997E+01  4.91557E+01  6.45895E+01  7.89799E+01  8.18066E+01
   7.88845E+01  8.04073E+01  7.70413E+01  7.28386E+01  6.09172E+01  5.79200E+01  3.89650E+01  3.68681E+01  3.00516E+01  2.24202E+01
   1.75465E+01  1.54712E+01  1.39019E+01  9.61642E+00  2.27700E+00  8.79493E+00  6.32762E+00  6.15563E+00  5.64990E+00  4.74789E+00
   4.59526E+00  2.76809E+00 -1.79609E-01  3.29998E+00  5.58824E-01  6.42029E-01  1.42770E+00  2.80881E+00  5.20818E+00  1.85670E+00
   4.77460E+00  2.79468E+00  1.20735E-01  4.27552E+00  4.38349E+00  4.66246E+00  2.36222E+00  4.40281E+00  4.33937E+00  4.26201E+00
   3.05370E+00  9.19154E+00  6.61994E+00  8.01256E+00  6.45373E+00  7.97434E+00  6.59982E+00  1.14453E+01  9.20226E+00  5.15115E+00
   6.98976E+00  9.10953E+00  8.31091E+00  1.03583E+01  5.88408E+00  9.45463E+00  3.80620E+00  9.77840E+00  8.85751E+00  5.99875E+00
   1.12661E+01  8.80593E+00  1.49351E+01  1.05856E+01  1.09246E+01  1.32591E+01  1.26218E+01  1.23674E+01  1.05219E+01  1.17083E+01
   1.01656E+01  1.18936E+01  1.10482E+01  9.18307E+00  7.12414E+00  7.93071E+00  5.47982E+00  7.41515E+00  8.47832E+00  8.19803E+00
   8.31577E+00  1.24937E+01  1.44116E+01  1.85613E+01  1.62333E+01  2.21380E+01  2.35032E+01  2.57051E+01  2.09331E+01  2.73086E+01
   2.56575E+01  2.47323E+01  2.41372E+01  2.10124E+01  2.48303E+01  2.04994E+01  2.07562E+01  1.56165E+01  1.84318E+01  1.74077E+01
   1.89122E+01  1.04785E+01  1.76260E+01  1.80644E+01  1.09956E+01  1.06102E+01  7.41068E+00  1.18125E+01  1.24923E+01  1.13876E+01
   9.54330E+00  1.01046E+01  8.08164E+00  4.41415E+00  4.24678E+00  5.51877E-01  4.95386E+00  3.93439E+00  4.64601E+00  4.94114E+00
   7.73579E+00  6.38979E+00  4.61527E+00  2.84897E+00  3.93950E+00  7.48757E+00  8.50152E+00  1.12324E+01  7.62658E+00  8.12077E+00
   9.14748E+00  1.23298E+01  1.08891E+01  6.76702E+00  1.05424E+01  1.30371E+01  1.04641E+01  1.05318E+01  1.58820E+01  1.37720E+01
   1.47824E+01  1.59947E+01  1.55266E+01  1.66975E+01  1.27033E+01  1.87114E+01  1.95914E+01  2.03121E+01  1.27729E+01  1.37013E+01
   1.20538E+01  1.62359E+01  1.35456E+01  1.65259E+01  7.42570E+00  9.23109E+00  1.05508E+01  8.65899E+00  9.93639E+00  3.89412E+00
   8.00425E+00  7.57240E+00  8.65954E+00  5.78489E+00  6.35164E+00  1.04310E+01  8.46885E+00  3.73246E+00  5.16410E+00  2.56138E+00
   5.20867E+00  4.84916E+00  1.60985E+00  2.42477E+00  5.18983E+00  1.64064E+00  2.73246E+00 -6.49245E-01  4.84794E+00  1.20843E+00
   9.01640E-01 -1.08401E+00 -1.87280E+00  2.13226E+00  4.22113E+00  2.17287E+00 -5.29249E-01  3.44369E+00  2.63204E+00  3.85961E+00
   1.59550E+00 -9.50917E-01 -8.42788E-01  5.81970E-01  2.68271E-01 -3.04567E+00  1.78328E+00  1.78956E+00 -4.11717E+00 -2.31836E+00
  -2.59812E+00  2.14612E+00  3.62575E+00 -4.39199E-02  4.12439E+00  2.83046E+00 -7.36472E-01 -1.79385E+00 -6.08046E-01  2.54916E+00
  -1.11503E+00 -1.26693E-01 -1.99458E+00  1.00701E+00  3.53560E+00  3.23329E-01 -8.68366E-01  1.21138E+00  1.19204E+00  1.40573E+00
  -1.02148E+00  2.26912E+00  1.33595E+00 -1.39041E+00 -3.41076E-01  9.65793E-01 -3.17025E-01 -4.80644E+00  1.48863E+00 -2.94843E-01
   1.09910E+00 -8.86617E-01 -9.71921E-02  9.92125E-01  1.59213E+00  3.47803E+00  4.26306E-01 -3.10313E+00
 NY points of the fit to the data follow
   1.82520E+01  1.79714E+01  1.80174E+01  1.90366E+01  2.13023E+01  2.49179E+01  2.99355E+01  3.58425E+01  4.15572E+01  4.57695E+01
   4.74579E+01  4.69779E+01  4.53023E+01  4.29296E+01  3.99203E+01  3.64898E+01  3.30689E+01  2.99444E+01  2.73550E+01  2.50727E+01
   2.28364E+01  2.00354E+01  1.73061E+01  1.68570E+01  1.80223E+01  2.01178E+01  2.26437E+01  2.48444E+01  2.63690E+01  2.73485E+01
   2.76910E+01  2.72509E+01  2.60178E+01  2.42238E+01  2.21804E+01  2.03025E+01  1.89497E+01  1.79740E+01  1.70722E+01  1.59632E+01
   1.57513E+01  1.69346E+01  1.88423E+01  2.13186E+01  2.37824E+01  2.53291E+01  2.55246E+01  2.46709E+01  2.33428E+01  2.17356E+01
   1.98008E+01  1.78176E+01  1.61548E+01  1.49833E+01  1.45533E+01  1.47918E+01  1.48466E+01  1.41924E+01  1.34666E+01  1.30686E+01
   1.26172E+01  1.18826E+01  1.11550E+01  1.05817E+01  1.01798E+01  9.96905E+00  1.00169E+01  1.03568E+01  1.07719E+01  1.09450E+01
   1.08608E+01  1.06360E+01  1.04013E+01  1.02627E+01  1.01349E+01  9.97359E+00  9.74335E+00  9.43440E+00  9.19527E+00  9.03172E+00
   9.01247E+00  9.25286E+00  9.74830E+00  1.04822E+01  1.11533E+01  1.13589E+01  1.10066E+01  1.04705E+01  1.00229E+01  9.66297E+00
   9.33299E+00  9.01017E+00  8.69364E+00  8.46982E+00  8.65572E+00  9.45973E+00  1.08968E+01  1.49345E+01  2.33943E+01  3.57621E+01
   4.94623E+01  6.07388E+01  6.63124E+01  6.66665E+01  6.41729E+01  5.99558E+01  5.39873E+01  4.67038E+01  3.91587E+01  3.24476E+01
   2.76869E+01  2.45400E+01  2.09444E+01  1.48138E+01  8.03138E+00  5.38515E+00  4.86389E+00  4.92622E+00  5.57105E+00  6.84560E+00
   9.03733E+00  1.36032E+01  2.11174E+01  3.08487E+01  4.10562E+01  4.89341E+01  5.26189E+01  5.29671E+01  5.15201E+01  4.86582E+01
   4.40963E+01  3.80505E+01  3.15438E+01  2.58119E+01  2.18218E+01  1.91846E+01  1.62242E+01  1.16185E+01  7.44561E+00  6.24800E+00
   6.05769E+00  5.86019E+00  5.44410E+00  4.92584E+00  4.57936E+00  4.35675E+00  4.11359E+00  3.84236E+00  3.46534E+00  2.94813E+00
   2.39680E+00  1.84033E+00  1.46404E+00  1.23713E+00  1.05793E+00  8.13844E-01  4.56852E-01 -2.10530E-02 -5.22027E-01 -8.35534E-01
  -9.05958E-01 -8.64429E-01 -8.69265E-01 -1.02584E+00 -1.31958E+00 -1.67259E+00 -2.03672E+00 -2.43604E+00 -2.92738E+00 -3.48103E+00
  -4.05594E+00 -4.56357E+00 -5.05135E+00 -5.54491E+00 -5.93357E+00 -6.22947E+00 -6.41208E+00 -6.55459E+00 -6.75368E+00 -6.88328E+00
  -6.90759E+00 -6.97958E+00 -7.08353E+00 -7.00709E+00 -6.48523E+00 -5.34145E+00 -3.71288E+00 -2.15457E+00 -1.15520E+00 -6.57092E-01
  -5.81349E-01 -8.32927E-01 -1.37012E+00 -2.10041E+00 -2.61042E+00 -2.57031E+00 -1.88852E+00 -6.39260E-01  8.82047E-01  2.37318E+00
   3.75860E+00  4.81093E+00  5.32595E+00  4.95858E+00  3.55386E+00  1.46488E+00 -7.29418E-01 -2.64499E+00 -3.84783E+00 -4.12922E+00
  -3.44367E+00 -1.80334E+00  6.38571E-01  3.25453E+00  5.10882E+00  5.80202E+00  5.42707E+00  4.17598E+00  2.49383E+00  8.82111E-01
  -2.35168E-01 -8.70743E-01 -6.22870E-01  5.18203E-01  1.84494E+00  2.82273E+00  3.37292E+00  3.79222E+00  4.49955E+00  5.11131E+00
   5.66513E+00  6.43189E+00  7.60035E+00  9.01516E+00  1.01936E+01  1.09294E+01  1.13328E+01  1.13383E+01  1.09226E+01  1.02982E+01
   9.83382E+00  9.84946E+00  1.01878E+01  1.06224E+01  1.12006E+01  1.20114E+01  1.28677E+01  1.35523E+01  1.43532E+01  1.52980E+01
   1.64041E+01  1.81394E+01  2.07909E+01  2.40808E+01  2.95821E+01  3.86875E+01  5.12129E+01  6.52577E+01  7.68394E+01  8.24025E+01
   8.25779E+01  7.99278E+01  7.54922E+01  6.90466E+01  6.08405E+01  5.19183E+01  4.35869E+01  3.74989E+01  3.33891E+01  2.89129E+01
   2.16098E+01  1.36977E+01  1.02582E+01  8.86128E+00  7.88800E+00  7.10811E+00  6.49588E+00  5.90481E+00  5.33520E+00  4.82378E+00
   4.37795E+00  4.00270E+00  3.69658E+00  3.42145E+00  3.14871E+00  2.90693E+00  2.73117E+00  2.62050E+00  2.56392E+00  2.56266E+00
   2.62460E+00  2.75017E+00  2.91794E+00  3.12094E+00  3.36438E+00  3.64741E+00  3.96345E+00  4.30977E+00  4.68338E+00  5.07834E+00
   5.48393E+00  5.88901E+00  6.28194E+00  6.65601E+00  7.00512E+00  7.32260E+00  7.60281E+00  7.84284E+00  8.04286E+00  8.20467E+00
   8.32972E+00  8.42338E+00  8.49283E+00  8.54544E+00  8.59041E+00  8.63867E+00  8.70098E+00  8.78963E+00  8.92175E+00  9.10301E+00
   9.34612E+00  9.69583E+00  1.01087E+01  1.04808E+01  1.06971E+01  1.06513E+01  1.03504E+01  9.93241E+00  9.47174E+00  9.03449E+00
   8.71186E+00  8.60125E+00  8.77265E+00  9.17816E+00  9.64788E+00  1.00326E+01  1.02970E+01  1.05068E+01  1.08572E+01  1.14719E+01
   1.22299E+01  1.33241E+01  1.49003E+01  1.68438E+01  1.88622E+01  2.04975E+01  2.14973E+01  2.22137E+01  2.27852E+01  2.32347E+01
   2.35821E+01  2.38774E+01  2.42095E+01  2.44711E+01  2.43425E+01  2.36005E+01  2.22482E+01  2.04328E+01  1.85291E+01  1.70389E+01
   1.57136E+01  1.44083E+01  1.33076E+01  1.25325E+01  1.19780E+01  1.12884E+01  1.02919E+01  9.46528E+00  8.84774E+00  8.33220E+00
   7.87582E+00  7.46122E+00  7.08149E+00  6.73472E+00  6.42157E+00  6.14431E+00  5.90627E+00  5.71123E+00  5.56299E+00  5.46508E+00
   5.42085E+00  5.43365E+00  5.50675E+00  5.64306E+00  5.84482E+00  6.11348E+00  6.44974E+00  6.85346E+00  7.32344E+00  7.85691E+00
   8.44930E+00  9.09416E+00  9.78326E+00  1.05066E+01  1.12523E+01  1.20067E+01  1.27544E+01  1.34792E+01  1.41646E+01  1.47941E+01
   1.53519E+01  1.58237E+01  1.61966E+01  1.64608E+01  1.66092E+01  1.66384E+01  1.65480E+01  1.63408E+01  1.60230E+01  1.56034E+01
   1.50934E+01  1.45063E+01  1.38561E+01  1.31574E+01  1.24248E+01  1.16725E+01  1.09138E+01  1.01603E+01  9.42206E+00  8.70735E+00
   8.02283E+00  7.37352E+00  6.76290E+00  6.19282E+00  5.66389E+00  5.17574E+00  4.72732E+00  4.31706E+00  3.94285E+00  3.60220E+00
   3.29248E+00  3.01110E+00  2.75563E+00  2.52375E+00  2.31313E+00  2.12156E+00  1.94702E+00  1.78779E+00  1.64240E+00  1.50946E+00
   1.38765E+00  1.27574E+00  1.17269E+00  1.07772E+00  9.90137E-01  9.09226E-01  8.34278E-01  7.64671E-01  6.99954E-01  6.39795E-01
   5.83865E-01  5.31765E-01  4.83088E-01  4.37527E-01  3.94910E-01  3.55102E-01  3.17900E-01  2.83030E-01  2.50252E-01  2.19433E-01
   1.90532E-01  1.63481E-01  1.38122E-01  1.14250E-01  9.17294E-02  7.05306E-02  5.06578E-02  3.20462E-02  1.45470E-02 -1.98329E-03
  -1.75970E-02 -3.22662E-02 -4.59767E-02 -5.88107E-02 -7.09097E-02 -8.23647E-02 -9.31671E-02 -1.03269E-01 -1.12683E-01 -1.21513E-01
  -1.29875E-01 -1.37806E-01 -1.45258E-01 -1.52192E-01 -1.58659E-01 -1.64774E-01 -1.70620E-01 -1.76186E-01 -1.81411E-01 -1.86292E-01
  -1.90915E-01 -1.95393E-01 -1.99767E-01 -2.03997E-01 -2.08043E-01 -2.11949E-01 -2.15831E-01 -2.19789E-01
 NY background values follow
     7.627E+00    7.563E+00    7.499E+00    7.435E+00    7.371E+00    7.307E+00    7.243E+00    7.179E+00    7.114E+00    7.050E+00
     6.986E+00    6.922E+00    6.858E+00    6.794E+00    6.729E+00    6.665E+00    6.601E+00    6.537E+00    6.473E+00    6.408E+00
     6.344E+00    6.280E+00    6.216E+00    6.152E+00    6.088E+00    6.024E+00    5.959E+00    5.895E+00    5.831E+00    5.767E+00
     5.703E+00    5.639E+00    5.575E+00    5.512E+00    5.448E+00    5.384E+00    5.320E+00    5.256E+00    5.193E+00    5.129E+00
     5.065E+00    5.002E+00    4.938E+00    4.875E+00    4.811E+00    4.748E+00    4.685E+00    4.622E+00    4.558E+00    4.495E+00
     4.432E+00    4.369E+00    4.306E+00    4.244E+00    4.181E+00    4.118E+00    4.056E+00    3.993E+00    3.931E+00    3.869E+00
     3.807E+00    3.745E+00    3.683E+00    3.621E+00    3.560E+00    3.498E+00    3.437E+00    3.376E+00    3.314E+00    3.254E+00
     3.193E+00    3.132E+00    3.072E+00    3.011E+00    2.951E+00    2.891E+00    2.831E+00    2.772E+00    2.712E+00    2.653E+00
     2.594E+00    2.535E+00    2.476E+00    2.417E+00    2.359E+00    2.301E+00    2.243E+00    2.185E+00    2.128E+00    2.070E+00
     2.013E+00    1.956E+00    1.900E+00    1.843E+00    1.787E+00    1.731E+00    1.675E+00    1.620E+00    1.565E+00    1.510E+00
     1.455E+00    1.400E+00    1.346E+00    1.292E+00    1.238E+00    1.184E+00    1.131E+00    1.078E+00    1.025E+00    9.725E-01
     9.201E-01    8.680E-01    8.161E-01    7.645E-01    7.131E-01    6.620E-01    6.111E-01    5.605E-01    5.101E-01    4.600E-01
     4.102E-01    3.606E-01    3.113E-01    2.622E-01    2.134E-01    1.649E-01    1.166E-01    6.863E-02    2.090E-02   -2.657E-02
    -7.376E-02   -1.207E-01   -1.673E-01   -2.137E-01   -2.598E-01   -3.057E-01   -3.512E-01   -3.965E-01   -4.415E-01   -4.862E-01
    -5.306E-01   -5.748E-01   -6.186E-01   -6.622E-01   -7.055E-01   -7.485E-01   -7.912E-01   -8.336E-01   -8.757E-01   -9.175E-01
    -9.591E-01   -1.000E+00   -1.041E+00   -1.082E+00   -1.122E+00   -1.162E+00   -1.202E+00   -1.241E+00   -1.280E+00   -1.319E+00
    -1.358E+00   -1.396E+00   -1.433E+00   -1.471E+00   -1.508E+00   -1.545E+00   -1.582E+00   -1.618E+00   -1.654E+00   -1.689E+00
    -1.725E+00   -1.759E+00   -1.794E+00   -1.828E+00   -1.862E+00   -1.896E+00   -1.929E+00   -1.962E+00   -1.994E+00   -2.027E+00
    -2.058E+00   -2.090E+00   -2.121E+00   -2.152E+00   -2.182E+00   -2.213E+00   -2.242E+00   -2.272E+00   -2.301E+00   -2.330E+00
    -2.358E+00   -2.387E+00   -2.414E+00   -2.442E+00   -2.469E+00   -2.496E+00   -2.523E+00   -2.549E+00   -2.575E+00   -2.601E+00
    -2.626E+00   -2.651E+00   -2.676E+00   -2.700E+00   -2.724E+00   -2.748E+00   -2.772E+00   -2.795E+00   -2.818E+00   -2.841E+00
    -2.864E+00   -2.886E+00   -2.908E+00   -2.929E+00   -2.951E+00   -2.972E+00   -2.993E+00   -3.013E+00   -3.034E+00   -3.054E+00
    -3.074E+00   -3.093E+00   -3.113E+00   -3.132E+00   -3.151E+00   -3.169E+00   -3.188E+00   -3.206E+00   -3.224E+00   -3.242E+00
    -3.259E+00   -3.276E+00   -3.293E+00   -3.310E+00   -3.327E+00   -3.343E+00   -3.359E+00   -3.375E+00   -3.390E+00   -3.406E+00
    -3.421E+00   -3.436E+00   -3.450E+00   -3.465E+00   -3.479E+00   -3.493E+00   -3.507E+00   -3.520E+00   -3.534E+00   -3.547E+00
    -3.559E+00   -3.572E+00   -3.584E+00   -3.597E+00   -3.608E+00   -3.620E+00   -3.632E+00   -3.643E+00   -3.654E+00   -3.665E+00
    -3.675E+00   -3.685E+00   -3.695E+00   -3.705E+00   -3.715E+00   -3.724E+00   -3.733E+00   -3.742E+00   -3.751E+00   -3.760E+00
    -3.768E+00   -3.776E+00   -3.784E+00   -3.791E+00   -3.799E+00   -3.806E+00   -3.813E+00   -3.819E+00   -3.826E+00   -3.832E+00
    -3.838E+00   -3.844E+00   -3.850E+00   -3.855E+00   -3.860E+00   -3.865E+00   -3.870E+00   -3.875E+00   -3.879E+00   -3.883E+00
    -3.887E+00   -3.891E+00   -3.894E+00   -3.898E+00   -3.901E+00   -3.904E+00   -3.907E+00   -3.909E+00   -3.911E+00   -3.914E+00
    -3.916E+00   -3.917E+00   -3.919E+00   -3.920E+00   -3.922E+00   -3.923E+00   -3.923E+00   -3.924E+00   -3.925E+00   -3.925E+00
    -3.925E+00   -3.925E+00   -3.925E+00   -3.924E+00   -3.924E+00   -3.923E+00   -3.922E+00   -3.921E+00   -3.919E+00   -3.918E+00
    -3.916E+00   -3.914E+00   -3.912E+00   -3.910E+00   -3.908E+00   -3.905E+00   -3.903E+00   -3.900E+00   -3.897E+00   -3.894E+00
    -3.891E+00   -3.887E+00   -3.884E+00   -3.880E+00   -3.876E+00   -3.872E+00   -3.868E+00   -3.863E+00   -3.859E+00   -3.854E+00
    -3.849E+00   -3.844E+00   -3.839E+00   -3.834E+00   -3.829E+00   -3.823E+00   -3.818E+00   -3.812E+00   -3.806E+00   -3.800E+00
    -3.793E+00   -3.787E+00   -3.781E+00   -3.774E+00   -3.767E+00   -3.760E+00   -3.753E+00   -3.746E+00   -3.739E+00   -3.732E+00
    -3.724E+00   -3.716E+00   -3.709E+00   -3.701E+00   -3.693E+00   -3.685E+00   -3.676E+00   -3.668E+00   -3.659E+00   -3.651E+00
    -3.642E+00   -3.633E+00   -3.624E+00   -3.615E+00   -3.606E+00   -3.597E+00   -3.587E+00   -3.578E+00   -3.568E+00   -3.559E+00
    -3.549E+00   -3.539E+00   -3.529E+00   -3.519E+00   -3.509E+00   -3.498E+00   -3.488E+00   -3.477E+00   -3.467E+00   -3.456E+00
    -3.445E+00   -3.434E+00   -3.423E+00   -3.412E+00   -3.401E+00   -3.390E+00   -3.379E+00   -3.367E+00   -3.356E+00   -3.344E+00
    -3.333E+00   -3.321E+00   -3.309E+00   -3.297E+00   -3.285E+00   -3.273E+00   -3.261E+00   -3.249E+00   -3.237E+00   -3.225E+00
    -3.212E+00   -3.200E+00   -3.187E+00   -3.175E+00   -3.162E+00   -3.149E+00   -3.137E+00   -3.124E+00   -3.111E+00   -3.098E+00
    -3.085E+00   -3.072E+00   -3.059E+00   -3.046E+00   -3.032E+00   -3.019E+00   -3.006E+00   -2.992E+00   -2.979E+00   -2.966E+00
    -2.952E+00   -2.938E+00   -2.925E+00   -2.911E+00   -2.898E+00   -2.884E+00   -2.870E+00   -2.856E+00   -2.843E+00   -2.829E+00
    -2.815E+00   -2.801E+00   -2.787E+00   -2.773E+00   -2.759E+00   -2.745E+00   -2.731E+00   -2.717E+00   -2.703E+00   -2.689E+00
    -2.675E+00   -2.661E+00   -2.646E+00   -2.632E+00   -2.618E+00   -2.604E+00   -2.590E+00   -2.575E+00   -2.561E+00   -2.547E+00
    -2.533E+00   -2.518E+00   -2.504E+00   -2.490E+00   -2.475E+00   -2.461E+00   -2.447E+00   -2.432E+00   -2.418E+00   -2.404E+00
    -2.389E+00   -2.375E+00   -2.361E+00   -2.346E+00   -2.332E+00   -2.317E+00   -2.303E+00   -2.289E+00   -2.274E+00   -2.260E+00
    -2.245E+00   -2.231E+00   -2.216E+00   -2.202E+00   -2.188E+00   -2.173E+00   -2.159E+00   -2.144E+00   -2.130E+00   -2.115E+00
    -2.101E+00   -2.087E+00   -2.072E+00   -2.058E+00   -2.043E+00   -2.029E+00   -2.015E+00   -2.000E+00
 Ala      Conc. = 2.00E+02
