 LCModel (Version 6.3-1L) Copyright: S.W. Provencher.          Ref.: Magn. Reson. Med. 30:672-679 (1993).                
 Slice#3 Row#5 Col#4  PD_24_press_1_raw_act
 36 lines in following concentration table = NCONC+1
    Conc.  %SD /Cr+PCr  Metabolite                                         
   25.732 142%   0.119 Ala                                                 
    0.000 999%   0.000 Asp                                                 
    0.000 999%   0.000 Cr                                                  
  216.633  32%   1.000 PCr                                                 
   10.372 727% 4.8E-02 GABA                                                
    0.000 999%   0.000 Glc                                                 
    0.000 999%   0.000 Gln                                                 
  245.602  45%   1.134 Glu                                                 
   63.507  32%   0.293 GPC                                                 
    0.000 999%   0.000 PCh                                                 
   56.582  57%   0.261 GSH                                                 
  134.570  80%   0.621 Ins                                                 
    0.000 999%   0.000 Lac                                                 
  269.902  33%   1.246 NAA                                                 
   12.913 201% 6.0E-02 NAAG                                                
   23.696  54%   0.109 Scyllo                                              
    0.000 999%   0.000 Tau                                                 
    0.000 999%   0.000 -CrCH2                                              
   63.507  32%   0.293 GPC+PCh                                             
  282.815  30%   1.306 NAA+NAAG                                            
  216.633  32%   1.000 Cr+PCr                                              
  245.602  45%   1.134 Glu+Gln                                             
 5.18E+04   6% 239.257 Lip13a                                              
    0.000 999%   0.000 Lip13b                                              
 1.32E+04   8%  61.012 Lip09                                               
    0.000 999%   0.000 MM09                                                
 6.71E+03  10%  30.966 Lip20                                               
    0.000 999%   0.000 MM20                                                
    0.180 999% 8.3E-04 MM12                                                
    3.747 999% 1.7E-02 MM14                                                
    0.948 999% 4.4E-03 MM17                                                
 5.18E+04   6% 239.257 Lip13a+Lip13b                                       
 5.18E+04   6% 239.275 MM14+Lip13a+Lip13b+MM12                             
 1.32E+04   8%  61.012 MM09+Lip09                                          
 6.71E+03  10%  30.966 MM20+Lip20                                          
   6 lines in following misc. output table
  FWHM = 0.046 ppm    S/N =  15                                            
  Data shift =-0.008 ppm                                                   
  Ph:  39 deg     -32.4 deg/ppm                                            
  alphaB,S = 5.1E-01,   3.4E+00                                            
   14 spline knots.   Ns = 7(2)                                            
  ( 8) 5 infls.   ( 8) 6 extrs.                                            
  498 points on ppm-axis = NY
      4.000000     3.992357     3.984714     3.977070     3.969427     3.961784     3.954141     3.946497     3.938854     3.931211
      3.923568     3.915925     3.908281     3.900638     3.892995     3.885352     3.877708     3.870065     3.862422     3.854779
      3.847136     3.839492     3.831849     3.824206     3.816563     3.808919     3.801276     3.793633     3.785990     3.778347
      3.770703     3.763060     3.755417     3.747774     3.740130     3.732487     3.724844     3.717201     3.709558     3.701914
      3.694271     3.686628     3.678985     3.671341     3.663698     3.656055     3.648412     3.640769     3.633125     3.625482
      3.617839     3.610196     3.602552     3.594909     3.587266     3.579623     3.571980     3.564336     3.556693     3.549050
      3.541407     3.533763     3.526120     3.518477     3.510834     3.503191     3.495547     3.487904     3.480261     3.472618
      3.464974     3.457331     3.449688     3.442045     3.434402     3.426758     3.419115     3.411472     3.403829     3.396185
      3.388542     3.380899     3.373256     3.365613     3.357969     3.350326     3.342683     3.335040     3.327396     3.319753
      3.312110     3.304467     3.296824     3.289180     3.281537     3.273894     3.266251     3.258607     3.250964     3.243321
      3.235678     3.228034     3.220391     3.212748     3.205105     3.197462     3.189818     3.182175     3.174532     3.166889
      3.159245     3.151602     3.143959     3.136316     3.128673     3.121029     3.113386     3.105743     3.098100     3.090456
      3.082813     3.075170     3.067527     3.059884     3.052240     3.044597     3.036954     3.029311     3.021667     3.014024
      3.006381     2.998738     2.991095     2.983451     2.975808     2.968165     2.960522     2.952878     2.945235     2.937592
      2.929949     2.922306     2.914662     2.907019     2.899376     2.891733     2.884089     2.876446     2.868803     2.861160
      2.853517     2.845873     2.838230     2.830587     2.822944     2.815300     2.807657     2.800014     2.792371     2.784728
      2.777084     2.769441     2.761798     2.754155     2.746511     2.738868     2.731225     2.723582     2.715939     2.708295
      2.700652     2.693009     2.685366     2.677722     2.670079     2.662436     2.654793     2.647150     2.639506     2.631863
      2.624220     2.616577     2.608933     2.601290     2.593647     2.586004     2.578361     2.570717     2.563074     2.555431
      2.547788     2.540144     2.532501     2.524858     2.517215     2.509572     2.501928     2.494285     2.486642     2.478999
      2.471355     2.463712     2.456069     2.448426     2.440783     2.433139     2.425496     2.417853     2.410210     2.402566
      2.394923     2.387280     2.379637     2.371994     2.364350     2.356707     2.349064     2.341421     2.333777     2.326134
      2.318491     2.310848     2.303205     2.295561     2.287918     2.280275     2.272632     2.264988     2.257345     2.249702
      2.242059     2.234416     2.226772     2.219129     2.211486     2.203843     2.196199     2.188556     2.180913     2.173270
      2.165627     2.157983     2.150340     2.142697     2.135054     2.127410     2.119767     2.112124     2.104481     2.096838
      2.089194     2.081551     2.073908     2.066265     2.058621     2.050978     2.043335     2.035692     2.028049     2.020405
      2.012762     2.005119     1.997476     1.989833     1.982190     1.974546     1.966903     1.959260     1.951617     1.943974
      1.936331     1.928688     1.921045     1.913402     1.905759     1.898115     1.890472     1.882829     1.875186     1.867543
      1.859900     1.852257     1.844614     1.836971     1.829327     1.821684     1.814041     1.806398     1.798755     1.791112
      1.783469     1.775826     1.768183     1.760540     1.752896     1.745253     1.737610     1.729967     1.722324     1.714681
      1.707038     1.699395     1.691752     1.684108     1.676465     1.668822     1.661179     1.653536     1.645893     1.638250
      1.630607     1.622964     1.615321     1.607677     1.600034     1.592391     1.584748     1.577105     1.569462     1.561819
      1.554176     1.546533     1.538890     1.531246     1.523603     1.515960     1.508317     1.500674     1.493031     1.485388
      1.477745     1.470102     1.462458     1.454815     1.447172     1.439529     1.431886     1.424243     1.416600     1.408957
      1.401314     1.393671     1.386027     1.378384     1.370741     1.363098     1.355455     1.347812     1.340169     1.332526
      1.324883     1.317240     1.309596     1.301953     1.294310     1.286667     1.279024     1.271381     1.263738     1.256095
      1.248452     1.240808     1.233165     1.225522     1.217879     1.210236     1.202593     1.194950     1.187307     1.179664
      1.172021     1.164377     1.156734     1.149091     1.141448     1.133805     1.126162     1.118519     1.110876     1.103233
      1.095590     1.087946     1.080303     1.072660     1.065017     1.057374     1.049731     1.042088     1.034445     1.026802
      1.019158     1.011515     1.003872     0.996229     0.988586     0.980943     0.973300     0.965657     0.958014     0.950371
      0.942727     0.935084     0.927441     0.919798     0.912155     0.904512     0.896869     0.889226     0.881583     0.873940
      0.866296     0.858653     0.851010     0.843367     0.835724     0.828081     0.820438     0.812795     0.805152     0.797508
      0.789865     0.782222     0.774579     0.766936     0.759293     0.751650     0.744007     0.736364     0.728721     0.721077
      0.713434     0.705791     0.698148     0.690505     0.682862     0.675219     0.667576     0.659933     0.652290     0.644646
      0.637003     0.629360     0.621717     0.614074     0.606431     0.598788     0.591145     0.583502     0.575858     0.568215
      0.560572     0.552929     0.545286     0.537643     0.530000     0.522357     0.514714     0.507071     0.499427     0.491784
      0.484141     0.476498     0.468855     0.461212     0.453569     0.445925     0.438282     0.430639     0.422996     0.415353
      0.407710     0.400067     0.392424     0.384780     0.377137     0.369494     0.361851     0.354208     0.346565     0.338922
      0.331278     0.323635     0.315992     0.308349     0.300706     0.293063     0.285420     0.277777     0.270133     0.262490
      0.254847     0.247204     0.239561     0.231918     0.224275     0.216631     0.208988     0.201345
 NY phased data points follow
  -1.90795E+01 -2.19464E+01 -2.07227E+01 -2.07375E+01 -1.27971E+01 -1.51377E+01 -9.40370E+00 -1.05297E+01 -1.84246E+00 -7.79621E+00
   1.52549E-01 -5.45096E+00 -3.10158E+00 -1.42040E+01 -1.36792E+01 -1.76520E+01 -1.44244E+01 -2.35225E+01 -1.34769E+01 -1.64993E+01
  -1.80681E+01 -2.05348E+01 -1.43336E+01 -1.75524E+01 -1.36918E+01 -1.92122E+01 -1.61254E+01 -2.55803E+01 -1.80730E+01 -1.92209E+01
  -2.18660E+01 -2.27728E+01 -2.09301E+01 -2.80442E+01 -1.93628E+01 -2.34056E+01 -1.56475E+01 -2.53237E+01 -1.68853E+01 -2.47057E+01
  -2.30009E+01 -2.34121E+01 -2.22573E+01 -2.27643E+01 -2.05975E+01 -2.20352E+01 -1.75892E+01 -1.71907E+01 -1.81874E+01 -2.55688E+01
  -1.97632E+01 -2.59314E+01 -2.07563E+01 -2.37802E+01 -1.95570E+01 -2.69608E+01 -1.82938E+01 -2.92037E+01 -2.34058E+01 -2.84210E+01
  -2.24507E+01 -2.54871E+01 -2.87066E+01 -3.20115E+01 -2.77761E+01 -3.35270E+01 -3.30093E+01 -3.34106E+01 -3.11705E+01 -3.21157E+01
  -3.25912E+01 -2.98283E+01 -2.83375E+01 -3.18428E+01 -3.03075E+01 -3.25465E+01 -3.44749E+01 -3.34839E+01 -3.68962E+01 -3.64017E+01
  -3.50065E+01 -3.60158E+01 -3.67046E+01 -3.63724E+01 -3.51857E+01 -3.60057E+01 -3.39014E+01 -3.78406E+01 -3.51422E+01 -3.63827E+01
  -3.72527E+01 -3.83015E+01 -3.55406E+01 -3.63194E+01 -3.58344E+01 -3.23665E+01 -3.20903E+01 -3.16984E+01 -3.13116E+01 -3.09015E+01
  -2.21669E+01 -1.89039E+01 -1.65103E+01 -1.39978E+01 -1.28131E+01 -2.32665E+01 -2.33868E+01 -2.76334E+01 -2.71398E+01 -2.69028E+01
  -3.10341E+01 -3.33676E+01 -3.07305E+01 -3.20388E+01 -3.16899E+01 -3.20907E+01 -3.26225E+01 -3.48904E+01 -3.23764E+01 -3.36951E+01
  -2.61331E+01 -3.34983E+01 -2.52661E+01 -1.98644E+01 -1.28138E+01 -1.86560E+01 -5.31273E+00 -7.49149E+00 -5.18525E+00 -1.14832E+01
  -1.31381E+01 -1.50788E+01 -2.12833E+01 -1.82083E+01 -1.94195E+01 -2.37514E+01 -2.14955E+01 -2.19198E+01 -1.89284E+01 -2.06838E+01
  -2.26345E+01 -2.46225E+01 -2.03543E+01 -2.42645E+01 -1.95555E+01 -2.73163E+01 -2.55257E+01 -2.52110E+01 -1.85805E+01 -2.35247E+01
  -2.55962E+01 -2.49690E+01 -2.24947E+01 -2.59010E+01 -2.20256E+01 -2.55267E+01 -1.86702E+01 -2.44708E+01 -2.28046E+01 -2.44014E+01
  -1.93825E+01 -2.46623E+01 -2.37138E+01 -2.60060E+01 -2.20113E+01 -3.02608E+01 -2.22004E+01 -2.31500E+01 -2.34292E+01 -2.43458E+01
  -2.85922E+01 -2.71386E+01 -2.84406E+01 -2.59282E+01 -2.44046E+01 -2.86156E+01 -2.99940E+01 -2.91850E+01 -2.87540E+01 -3.24496E+01
  -2.71889E+01 -2.89893E+01 -2.66953E+01 -2.77309E+01 -2.79257E+01 -2.89190E+01 -2.42942E+01 -2.62027E+01 -2.38817E+01 -2.63269E+01
  -2.35198E+01 -1.90402E+01 -1.78825E+01 -1.45877E+01 -1.76473E+01 -2.52331E+01 -2.13422E+01 -2.19771E+01 -1.71140E+01 -2.45760E+01
  -1.94730E+01 -2.37759E+01 -1.77483E+01 -1.83278E+01 -1.53136E+01 -1.48233E+01 -1.34752E+01 -1.87526E+01 -1.63336E+01 -1.57849E+01
  -1.33140E+01 -1.63284E+01 -1.33204E+01 -1.26973E+01 -1.09445E+01 -9.43171E+00 -5.37415E+00 -7.21032E+00 -4.56951E+00 -8.91401E+00
  -1.07162E+01 -1.43956E+01 -9.77093E+00 -1.05756E+01 -1.02593E+01 -7.94145E+00 -9.94965E+00 -5.12228E+00 -6.33850E+00 -2.63085E+00
  -5.85607E+00 -6.00631E+00 -5.06649E+00 -3.41226E+00 -4.46145E+00 -4.79172E+00 -2.41869E+00 -5.45505E+00 -1.78807E+00 -4.80240E+00
  -1.73887E+00 -4.95523E+00 -1.56035E+00 -5.94707E+00 -4.61754E+00 -7.97559E+00 -1.78685E+00 -2.68307E+00 -1.58450E+00 -1.81554E+00
   6.98281E-01  1.58464E+00  1.02686E+00  6.35851E+00  7.68530E+00  5.07499E+00  1.34086E+01  1.98793E+01  2.16342E+01  3.25665E+01
   3.87776E+01  4.17994E+01  4.31786E+01  4.07426E+01  3.67405E+01  3.38711E+01  3.39734E+01  3.26450E+01  3.48317E+01  3.39527E+01
   3.63586E+01  3.40377E+01  3.55121E+01  3.17343E+01  3.34607E+01  3.37528E+01  3.34588E+01  3.50577E+01  3.62415E+01  3.60020E+01
   4.08057E+01  3.89693E+01  3.86548E+01  3.72476E+01  3.95912E+01  3.97361E+01  4.14641E+01  3.81286E+01  4.39517E+01  4.38802E+01
   4.47512E+01  4.53542E+01  4.86709E+01  4.95619E+01  5.16629E+01  4.85644E+01  5.41775E+01  5.69543E+01  5.58822E+01  5.87462E+01
   6.01365E+01  6.33480E+01  6.01350E+01  6.41001E+01  7.15263E+01  7.32346E+01  7.68635E+01  7.64009E+01  7.94777E+01  8.28910E+01
   8.93450E+01  8.89445E+01  9.49792E+01  9.15922E+01  9.82392E+01  9.45971E+01  1.00238E+02  1.00491E+02  1.02011E+02  1.04212E+02
   1.06367E+02  1.06980E+02  1.07107E+02  1.10422E+02  1.14760E+02  1.18872E+02  1.19304E+02  1.22614E+02  1.24325E+02  1.28421E+02
   1.31336E+02  1.30403E+02  1.30462E+02  1.35650E+02  1.34173E+02  1.33641E+02  1.38166E+02  1.45147E+02  1.39753E+02  1.43861E+02
   1.44418E+02  1.46576E+02  1.44130E+02  1.43222E+02  1.49285E+02  1.50057E+02  1.52332E+02  1.49194E+02  1.49109E+02  1.46308E+02
   1.45254E+02  1.41690E+02  1.44155E+02  1.40214E+02  1.39456E+02  1.36096E+02  1.35586E+02  1.31237E+02  1.27715E+02  1.22658E+02
   1.24277E+02  1.22629E+02  1.19538E+02  1.14459E+02  1.12552E+02  1.08578E+02  1.07687E+02  1.05036E+02  1.01900E+02  9.90865E+01
   9.84397E+01  9.59516E+01  9.72662E+01  9.25376E+01  9.16674E+01  9.00030E+01  8.34745E+01  8.05777E+01  8.79849E+01  7.85046E+01
   7.59158E+01  7.67455E+01  7.56753E+01  7.22429E+01  7.27824E+01  7.48312E+01  7.13448E+01  7.19383E+01  6.66852E+01  6.55689E+01
   6.49083E+01  6.22310E+01  5.86202E+01  6.08805E+01  5.73266E+01  5.35499E+01  5.64005E+01  5.59249E+01  5.29377E+01  5.25881E+01
   5.40097E+01  5.22501E+01  4.60495E+01  5.09860E+01  4.78319E+01  5.11382E+01  4.66346E+01  4.88733E+01  4.75347E+01  4.88454E+01
   4.19239E+01  4.61650E+01  3.83988E+01  4.66680E+01  4.19399E+01  4.09383E+01  3.88845E+01  4.19700E+01  3.64417E+01  4.00267E+01
   4.23698E+01  3.95973E+01  3.97724E+01  3.91022E+01  3.46916E+01  3.02908E+01  3.46751E+01  3.26494E+01  3.62976E+01  3.35433E+01
   3.65203E+01  3.70126E+01  3.81552E+01  3.18418E+01  3.26021E+01  3.38628E+01  3.44938E+01  3.19580E+01  2.83103E+01  2.94354E+01
   2.97933E+01  2.71688E+01  3.00321E+01  3.14028E+01  3.15725E+01  3.25085E+01  2.83829E+01  2.89564E+01  2.78690E+01  2.74008E+01
   2.94162E+01  2.70723E+01  2.46387E+01  3.01240E+01  2.67577E+01  2.57095E+01  2.25368E+01  2.82190E+01  2.33513E+01  2.41527E+01
   2.66317E+01  2.84753E+01  2.61385E+01  2.39790E+01  1.96601E+01  2.54656E+01  2.35963E+01  2.04213E+01  2.39810E+01  2.14331E+01
   2.26823E+01  2.41607E+01  2.38904E+01  1.97830E+01  2.45073E+01  2.13583E+01  1.84724E+01  1.92202E+01  1.90812E+01  2.14609E+01
   2.01335E+01  2.05158E+01  2.00736E+01  1.68251E+01  2.05196E+01  1.85634E+01  1.59985E+01  1.91968E+01  1.86904E+01  2.38538E+01
   1.61215E+01  2.09744E+01  1.83006E+01  1.66274E+01  1.41367E+01  1.78222E+01  1.79675E+01  1.97320E+01
 NY points of the fit to the data follow
  -1.97809E+01 -1.86253E+01 -1.92423E+01 -1.75936E+01 -1.74040E+01 -1.40338E+01 -1.15288E+01 -8.47601E+00 -4.95672E+00 -5.10791E+00
  -2.62908E+00 -7.38672E+00 -8.01175E+00 -1.17219E+01 -1.21013E+01 -1.42690E+01 -1.43741E+01 -1.49608E+01 -1.47032E+01 -1.59162E+01
  -1.57881E+01 -1.73037E+01 -1.73869E+01 -2.02494E+01 -2.15254E+01 -2.10744E+01 -2.16671E+01 -2.09314E+01 -2.12258E+01 -2.02325E+01
  -2.00431E+01 -1.98576E+01 -1.92547E+01 -2.04548E+01 -2.04004E+01 -2.08885E+01 -2.14161E+01 -2.19036E+01 -2.26214E+01 -2.31734E+01
  -2.31976E+01 -2.37250E+01 -2.30049E+01 -2.31301E+01 -2.22480E+01 -2.28264E+01 -2.26627E+01 -2.23335E+01 -2.23888E+01 -2.27141E+01
  -2.34917E+01 -2.43265E+01 -2.50723E+01 -2.58344E+01 -2.60389E+01 -2.61174E+01 -2.61573E+01 -2.64862E+01 -2.64338E+01 -2.63489E+01
  -2.65603E+01 -2.67712E+01 -2.75244E+01 -2.82582E+01 -2.90055E+01 -2.93672E+01 -2.95657E+01 -2.96398E+01 -2.96789E+01 -2.95389E+01
  -2.97418E+01 -2.98678E+01 -3.10971E+01 -3.13682E+01 -3.13009E+01 -3.16852E+01 -3.15877E+01 -3.19525E+01 -3.17843E+01 -3.20078E+01
  -3.17998E+01 -3.19548E+01 -3.17819E+01 -3.16884E+01 -3.09500E+01 -3.09589E+01 -3.13849E+01 -3.51828E+01 -3.75359E+01 -3.58644E+01
  -3.78164E+01 -3.59822E+01 -3.73387E+01 -3.55218E+01 -3.59868E+01 -3.40183E+01 -3.41600E+01 -3.20214E+01 -3.11961E+01 -2.62371E+01
  -2.36732E+01 -1.87693E+01 -1.62801E+01 -1.56465E+01 -1.41517E+01 -1.97517E+01 -2.05878E+01 -2.52176E+01 -2.58356E+01 -2.74817E+01
  -2.82791E+01 -3.31781E+01 -3.52155E+01 -3.38764E+01 -3.39305E+01 -3.31172E+01 -3.40535E+01 -3.59116E+01 -3.73292E+01 -3.50135E+01
  -3.47308E+01 -3.15626E+01 -3.00576E+01 -2.37509E+01 -1.98655E+01 -1.41236E+01 -9.64190E+00 -9.17788E+00 -6.89266E+00 -1.32934E+01
  -1.37633E+01 -1.86432E+01 -1.87726E+01 -1.99303E+01 -1.90606E+01 -1.98660E+01 -1.89201E+01 -2.01394E+01 -1.92633E+01 -2.09011E+01
  -2.09377E+01 -2.46344E+01 -2.56656E+01 -2.50901E+01 -2.49469E+01 -2.47346E+01 -2.46254E+01 -2.43589E+01 -2.44252E+01 -2.43332E+01
  -2.43660E+01 -2.40966E+01 -2.39292E+01 -2.36156E+01 -2.35633E+01 -2.35145E+01 -2.34989E+01 -2.35885E+01 -2.35842E+01 -2.37299E+01
  -2.37044E+01 -2.38618E+01 -2.36144E+01 -2.38476E+01 -2.38248E+01 -2.37687E+01 -2.38248E+01 -2.36675E+01 -2.41527E+01 -2.43575E+01
  -2.46916E+01 -2.47611E+01 -2.49587E+01 -2.49977E+01 -2.56350E+01 -2.59037E+01 -2.64090E+01 -2.63853E+01 -2.66736E+01 -2.65814E+01
  -2.66034E+01 -2.67026E+01 -2.65705E+01 -2.65586E+01 -2.63964E+01 -2.64916E+01 -2.61030E+01 -2.59946E+01 -2.52316E+01 -2.49757E+01
  -2.40545E+01 -2.34921E+01 -2.27938E+01 -2.25462E+01 -2.22902E+01 -2.23452E+01 -2.16815E+01 -2.14607E+01 -2.08515E+01 -2.04424E+01
  -2.02745E+01 -1.99185E+01 -2.01605E+01 -1.90377E+01 -1.82974E+01 -1.75113E+01 -1.67181E+01 -1.60390E+01 -1.52562E+01 -1.46551E+01
  -1.53864E+01 -1.51363E+01 -1.51946E+01 -1.42283E+01 -1.27126E+01 -1.18358E+01 -9.77293E+00 -9.49919E+00 -8.91792E+00 -1.03690E+01
  -1.18738E+01 -1.31906E+01 -1.40756E+01 -1.38686E+01 -1.25757E+01 -1.06460E+01 -7.95487E+00 -5.71646E+00 -4.21115E+00 -3.16623E+00
  -3.42828E+00 -3.82995E+00 -4.29663E+00 -3.50859E+00 -2.72827E+00 -1.05130E+00  1.40228E-01  1.96616E+00  2.66627E+00  3.24775E+00
   2.46922E+00  1.80007E+00  1.45175E+00  1.34216E+00  1.65402E+00 -2.55580E-02 -4.49075E+00 -3.52893E+00 -1.66541E+00 -1.49680E-01
   1.47754E+00  2.83995E+00  4.45145E+00  6.34777E+00  9.17704E+00  1.20557E+01  1.59378E+01  2.03541E+01  2.80738E+01  3.25246E+01
   4.03322E+01  4.20034E+01  4.50634E+01  4.25705E+01  3.77409E+01  3.49167E+01  3.13120E+01  3.10206E+01  3.12115E+01  3.18147E+01
   3.26086E+01  3.30589E+01  3.36037E+01  3.37584E+01  3.33991E+01  3.20695E+01  2.84732E+01  2.90724E+01  3.03263E+01  3.16741E+01
   3.28138E+01  3.41780E+01  3.54623E+01  3.67685E+01  3.81494E+01  3.95606E+01  4.09877E+01  4.24169E+01  4.38560E+01  4.52396E+01
   4.66445E+01  4.80763E+01  4.95672E+01  5.10761E+01  5.26413E+01  5.42192E+01  5.58493E+01  5.75008E+01  5.91698E+01  6.08662E+01
   6.25983E+01  6.43539E+01  6.61481E+01  6.79739E+01  6.98373E+01  7.17289E+01  7.36533E+01  7.56076E+01  7.75919E+01  7.96054E+01
   8.16463E+01  8.37005E+01  8.57474E+01  8.78574E+01  9.04160E+01  9.27684E+01  9.52675E+01  9.76289E+01  1.00146E+02  1.02560E+02
   1.05085E+02  1.07176E+02  1.09636E+02  1.12046E+02  1.14682E+02  1.17209E+02  1.19617E+02  1.22035E+02  1.24035E+02  1.26253E+02
   1.27999E+02  1.30065E+02  1.32071E+02  1.34403E+02  1.36580E+02  1.39021E+02  1.40982E+02  1.43065E+02  1.44582E+02  1.45850E+02
   1.46768E+02  1.47485E+02  1.47941E+02  1.48368E+02  1.48738E+02  1.48865E+02  1.48684E+02  1.48299E+02  1.47620E+02  1.46711E+02
   1.45507E+02  1.43878E+02  1.42170E+02  1.40319E+02  1.38303E+02  1.36133E+02  1.33822E+02  1.31389E+02  1.28855E+02  1.26239E+02
   1.23561E+02  1.20841E+02  1.18100E+02  1.15355E+02  1.12623E+02  1.09921E+02  1.07261E+02  1.04657E+02  1.02118E+02  9.96543E+01
   9.72712E+01  9.49741E+01  9.27664E+01  9.06498E+01  8.86244E+01  8.66892E+01  8.48419E+01  8.30792E+01  8.13971E+01  7.97908E+01
   7.82552E+01  7.67845E+01  7.53731E+01  7.40149E+01  7.27044E+01  7.14358E+01  7.02036E+01  6.90029E+01  6.78289E+01  6.66774E+01
   6.55447E+01  6.44276E+01  6.33233E+01  6.22297E+01  6.11451E+01  6.00683E+01  5.89986E+01  5.79358E+01  5.68799E+01  5.58315E+01
   5.47912E+01  5.37603E+01  5.27399E+01  5.17313E+01  5.07361E+01  4.97558E+01  4.87921E+01  4.78464E+01  4.69202E+01  4.60149E+01
   4.51317E+01  4.42718E+01  4.34360E+01  4.26252E+01  4.18400E+01  4.10810E+01  4.03484E+01  3.96424E+01  3.89630E+01  3.83102E+01
   3.76835E+01  3.70826E+01  3.65070E+01  3.59561E+01  3.54292E+01  3.49256E+01  3.44444E+01  3.39847E+01  3.35456E+01  3.31263E+01
   3.27256E+01  3.23427E+01  3.19766E+01  3.16262E+01  3.12906E+01  3.09688E+01  3.06600E+01  3.03631E+01  3.00773E+01  2.98017E+01
   2.95354E+01  2.92777E+01  2.90277E+01  2.87847E+01  2.85478E+01  2.83166E+01  2.80902E+01  2.78680E+01  2.76494E+01  2.74339E+01
   2.72208E+01  2.70096E+01  2.67998E+01  2.65910E+01  2.63830E+01  2.61755E+01  2.59685E+01  2.57617E+01  2.55551E+01  2.53485E+01
   2.51418E+01  2.49350E+01  2.47279E+01  2.45206E+01  2.43131E+01  2.41051E+01  2.38969E+01  2.36883E+01  2.34794E+01  2.32702E+01
   2.30607E+01  2.28510E+01  2.26410E+01  2.24309E+01  2.22207E+01  2.20105E+01  2.18004E+01  2.15903E+01  2.13805E+01  2.11709E+01
   2.09618E+01  2.07530E+01  2.05449E+01  2.03374E+01  2.01306E+01  1.99248E+01  1.97198E+01  1.95160E+01  1.93133E+01  1.91119E+01
   1.89118E+01  1.87132E+01  1.85161E+01  1.83206E+01  1.81268E+01  1.79347E+01  1.77443E+01  1.75556E+01
 NY background values follow
    -2.142E+01   -2.167E+01   -2.192E+01   -2.217E+01   -2.242E+01   -2.267E+01   -2.293E+01   -2.318E+01   -2.343E+01   -2.369E+01
    -2.394E+01   -2.419E+01   -2.445E+01   -2.470E+01   -2.496E+01   -2.522E+01   -2.547E+01   -2.573E+01   -2.599E+01   -2.624E+01
    -2.650E+01   -2.676E+01   -2.702E+01   -2.727E+01   -2.753E+01   -2.779E+01   -2.805E+01   -2.831E+01   -2.857E+01   -2.883E+01
    -2.910E+01   -2.936E+01   -2.962E+01   -2.988E+01   -3.014E+01   -3.041E+01   -3.067E+01   -3.093E+01   -3.120E+01   -3.146E+01
    -3.173E+01   -3.199E+01   -3.226E+01   -3.252E+01   -3.279E+01   -3.305E+01   -3.332E+01   -3.359E+01   -3.385E+01   -3.412E+01
    -3.438E+01   -3.465E+01   -3.492E+01   -3.518E+01   -3.544E+01   -3.570E+01   -3.596E+01   -3.622E+01   -3.648E+01   -3.673E+01
    -3.698E+01   -3.723E+01   -3.748E+01   -3.773E+01   -3.797E+01   -3.821E+01   -3.844E+01   -3.867E+01   -3.890E+01   -3.913E+01
    -3.935E+01   -3.956E+01   -3.978E+01   -3.998E+01   -4.019E+01   -4.038E+01   -4.058E+01   -4.076E+01   -4.095E+01   -4.112E+01
    -4.129E+01   -4.146E+01   -4.162E+01   -4.177E+01   -4.192E+01   -4.206E+01   -4.219E+01   -4.232E+01   -4.243E+01   -4.255E+01
    -4.265E+01   -4.275E+01   -4.283E+01   -4.292E+01   -4.299E+01   -4.306E+01   -4.312E+01   -4.317E+01   -4.322E+01   -4.327E+01
    -4.331E+01   -4.334E+01   -4.337E+01   -4.339E+01   -4.341E+01   -4.342E+01   -4.343E+01   -4.344E+01   -4.345E+01   -4.345E+01
    -4.344E+01   -4.344E+01   -4.343E+01   -4.343E+01   -4.342E+01   -4.340E+01   -4.339E+01   -4.338E+01   -4.336E+01   -4.335E+01
    -4.333E+01   -4.332E+01   -4.330E+01   -4.329E+01   -4.327E+01   -4.326E+01   -4.325E+01   -4.324E+01   -4.323E+01   -4.323E+01
    -4.322E+01   -4.322E+01   -4.322E+01   -4.323E+01   -4.324E+01   -4.325E+01   -4.327E+01   -4.329E+01   -4.331E+01   -4.334E+01
    -4.337E+01   -4.340E+01   -4.344E+01   -4.348E+01   -4.352E+01   -4.357E+01   -4.361E+01   -4.366E+01   -4.371E+01   -4.376E+01
    -4.382E+01   -4.387E+01   -4.393E+01   -4.399E+01   -4.404E+01   -4.410E+01   -4.416E+01   -4.422E+01   -4.428E+01   -4.434E+01
    -4.440E+01   -4.446E+01   -4.451E+01   -4.457E+01   -4.463E+01   -4.468E+01   -4.473E+01   -4.478E+01   -4.483E+01   -4.488E+01
    -4.493E+01   -4.497E+01   -4.501E+01   -4.505E+01   -4.508E+01   -4.512E+01   -4.514E+01   -4.517E+01   -4.519E+01   -4.521E+01
    -4.522E+01   -4.523E+01   -4.524E+01   -4.524E+01   -4.524E+01   -4.523E+01   -4.522E+01   -4.520E+01   -4.518E+01   -4.515E+01
    -4.511E+01   -4.507E+01   -4.503E+01   -4.497E+01   -4.492E+01   -4.485E+01   -4.478E+01   -4.470E+01   -4.461E+01   -4.452E+01
    -4.442E+01   -4.431E+01   -4.420E+01   -4.407E+01   -4.394E+01   -4.380E+01   -4.366E+01   -4.350E+01   -4.333E+01   -4.316E+01
    -4.298E+01   -4.278E+01   -4.258E+01   -4.237E+01   -4.215E+01   -4.192E+01   -4.168E+01   -4.143E+01   -4.117E+01   -4.090E+01
    -4.061E+01   -4.032E+01   -4.002E+01   -3.970E+01   -3.938E+01   -3.904E+01   -3.869E+01   -3.833E+01   -3.795E+01   -3.757E+01
    -3.717E+01   -3.677E+01   -3.635E+01   -3.592E+01   -3.548E+01   -3.504E+01   -3.458E+01   -3.411E+01   -3.363E+01   -3.314E+01
    -3.264E+01   -3.214E+01   -3.162E+01   -3.109E+01   -3.056E+01   -3.002E+01   -2.947E+01   -2.891E+01   -2.834E+01   -2.777E+01
    -2.718E+01   -2.659E+01   -2.600E+01   -2.539E+01   -2.478E+01   -2.416E+01   -2.354E+01   -2.290E+01   -2.227E+01   -2.162E+01
    -2.097E+01   -2.031E+01   -1.965E+01   -1.899E+01   -1.831E+01   -1.763E+01   -1.695E+01   -1.626E+01   -1.557E+01   -1.488E+01
    -1.417E+01   -1.347E+01   -1.276E+01   -1.205E+01   -1.133E+01   -1.061E+01   -9.890E+00   -9.166E+00   -8.439E+00   -7.711E+00
    -6.982E+00   -6.252E+00   -5.521E+00   -4.789E+00   -4.058E+00   -3.327E+00   -2.596E+00   -1.866E+00   -1.138E+00   -4.108E-01
     3.142E-01    1.037E+00    1.757E+00    2.475E+00    3.189E+00    3.900E+00    4.607E+00    5.310E+00    6.009E+00    6.703E+00
     7.391E+00    8.075E+00    8.753E+00    9.425E+00    1.009E+01    1.075E+01    1.140E+01    1.205E+01    1.268E+01    1.331E+01
     1.393E+01    1.455E+01    1.515E+01    1.575E+01    1.633E+01    1.691E+01    1.747E+01    1.803E+01    1.858E+01    1.911E+01
     1.964E+01    2.015E+01    2.066E+01    2.116E+01    2.165E+01    2.212E+01    2.259E+01    2.305E+01    2.351E+01    2.395E+01
     2.438E+01    2.481E+01    2.523E+01    2.564E+01    2.604E+01    2.644E+01    2.682E+01    2.720E+01    2.758E+01    2.794E+01
     2.830E+01    2.865E+01    2.900E+01    2.934E+01    2.967E+01    2.999E+01    3.031E+01    3.063E+01    3.094E+01    3.124E+01
     3.153E+01    3.183E+01    3.211E+01    3.239E+01    3.267E+01    3.294E+01    3.320E+01    3.347E+01    3.372E+01    3.398E+01
     3.422E+01    3.447E+01    3.471E+01    3.495E+01    3.518E+01    3.541E+01    3.563E+01    3.586E+01    3.607E+01    3.629E+01
     3.650E+01    3.670E+01    3.691E+01    3.710E+01    3.730E+01    3.749E+01    3.768E+01    3.786E+01    3.804E+01    3.822E+01
     3.839E+01    3.856E+01    3.872E+01    3.888E+01    3.904E+01    3.919E+01    3.934E+01    3.949E+01    3.963E+01    3.977E+01
     3.991E+01    4.004E+01    4.017E+01    4.029E+01    4.041E+01    4.053E+01    4.064E+01    4.075E+01    4.086E+01    4.096E+01
     4.106E+01    4.115E+01    4.124E+01    4.133E+01    4.141E+01    4.149E+01    4.157E+01    4.164E+01    4.171E+01    4.178E+01
     4.184E+01    4.190E+01    4.195E+01    4.200E+01    4.205E+01    4.209E+01    4.213E+01    4.217E+01    4.220E+01    4.222E+01
     4.224E+01    4.226E+01    4.227E+01    4.228E+01    4.228E+01    4.228E+01    4.227E+01    4.226E+01    4.225E+01    4.223E+01
     4.220E+01    4.217E+01    4.213E+01    4.209E+01    4.205E+01    4.200E+01    4.194E+01    4.188E+01    4.181E+01    4.174E+01
     4.166E+01    4.157E+01    4.148E+01    4.139E+01    4.129E+01    4.118E+01    4.107E+01    4.095E+01    4.082E+01    4.069E+01
     4.056E+01    4.041E+01    4.026E+01    4.011E+01    3.995E+01    3.978E+01    3.961E+01    3.943E+01    3.925E+01    3.906E+01
     3.886E+01    3.867E+01    3.846E+01    3.826E+01    3.805E+01    3.783E+01    3.762E+01    3.740E+01    3.717E+01    3.694E+01
     3.671E+01    3.648E+01    3.625E+01    3.601E+01    3.577E+01    3.553E+01    3.529E+01    3.504E+01    3.480E+01    3.455E+01
     3.430E+01    3.405E+01    3.380E+01    3.356E+01    3.331E+01    3.306E+01    3.281E+01    3.256E+01    3.231E+01    3.206E+01
     3.182E+01    3.157E+01    3.133E+01    3.109E+01    3.084E+01    3.061E+01    3.037E+01    3.013E+01
 Ala      Conc. = 2.57E+01
