 LCModel (Version 6.3-1L) Copyright: S.W. Provencher.          Ref.: Magn. Reson. Med. 30:672-679 (1993).                
 Slice#2 Row#11 Col#9  PD_24_press_1_raw_act
 36 lines in following concentration table = NCONC+1
    Conc.  %SD /Cr+PCr  Metabolite                                         
  162.228  63% 9.3E-02 Ala                                                 
    0.000 999%   0.000 Asp                                                 
  377.692  56%   0.216 Cr                                                  
 1.37E+03  16%   0.784 PCr                                                 
    0.000 999%   0.000 GABA                                                
  105.599 167% 6.0E-02 Glc                                                 
  585.244  37%   0.334 Gln                                                 
 1.51E+03  16%   0.861 Glu                                                 
  813.047   3%   0.464 GPC                                                 
    0.000 999%   0.000 PCh                                                 
  359.541  19%   0.205 GSH                                                 
 1.53E+03  16%   0.873 Ins                                                 
   91.150 129% 5.2E-02 Lac                                                 
 2.59E+03   6%   1.479 NAA                                                 
  376.176  40%   0.215 NAAG                                                
  191.553  15%   0.109 Scyllo                                              
  102.853 209% 5.9E-02 Tau                                                 
   53.517 181% 3.1E-02 -CrCH2                                              
  813.047   3%   0.464 GPC+PCh                                             
 2.97E+03   3%   1.694 NAA+NAAG                                            
 1.75E+03   3%   1.000 Cr+PCr                                              
 2.09E+03  17%   1.195 Glu+Gln                                             
 2.16E+03  28%   1.235 Lip13a                                              
   60.777 365% 3.5E-02 Lip13b                                              
  427.351  74%   0.244 Lip09                                               
 1.37E+03  24%   0.781 MM09                                                
  346.873  66%   0.198 Lip20                                               
 2.94E+03  13%   1.678 MM20                                                
  416.552  54%   0.238 MM12                                                
   56.447 545% 3.2E-02 MM14                                                
  358.503  49%   0.205 MM17                                                
 2.22E+03  24%   1.269 Lip13a+Lip13b                                       
 2.70E+03  13%   1.539 MM14+Lip13a+Lip13b+MM12                             
 1.80E+03  10%   1.025 MM09+Lip09                                          
 3.29E+03  11%   1.876 MM20+Lip20                                          
   6 lines in following misc. output table
  FWHM = 0.054 ppm    S/N =  16                                            
  Data shift = 0.008 ppm                                                   
  Ph: -33 deg      -6.9 deg/ppm                                            
  alphaB,S = 2.8E+00,   1.3E+02                                            
   14 spline knots.   Ns = 7(1)                                            
  ( 8) 3 infls.   ( 3) 1 extrs.                                            
  498 points on ppm-axis = NY
      4.000000     3.992357     3.984714     3.977070     3.969427     3.961784     3.954141     3.946497     3.938854     3.931211
      3.923568     3.915925     3.908281     3.900638     3.892995     3.885352     3.877708     3.870065     3.862422     3.854779
      3.847136     3.839492     3.831849     3.824206     3.816563     3.808919     3.801276     3.793633     3.785990     3.778347
      3.770703     3.763060     3.755417     3.747774     3.740130     3.732487     3.724844     3.717201     3.709558     3.701914
      3.694271     3.686628     3.678985     3.671341     3.663698     3.656055     3.648412     3.640769     3.633125     3.625482
      3.617839     3.610196     3.602552     3.594909     3.587266     3.579623     3.571980     3.564336     3.556693     3.549050
      3.541407     3.533763     3.526120     3.518477     3.510834     3.503191     3.495547     3.487904     3.480261     3.472618
      3.464974     3.457331     3.449688     3.442045     3.434402     3.426758     3.419115     3.411472     3.403829     3.396185
      3.388542     3.380899     3.373256     3.365613     3.357969     3.350326     3.342683     3.335040     3.327396     3.319753
      3.312110     3.304467     3.296824     3.289180     3.281537     3.273894     3.266251     3.258607     3.250964     3.243321
      3.235678     3.228034     3.220391     3.212748     3.205105     3.197462     3.189818     3.182175     3.174532     3.166889
      3.159245     3.151602     3.143959     3.136316     3.128673     3.121029     3.113386     3.105743     3.098100     3.090456
      3.082813     3.075170     3.067527     3.059884     3.052240     3.044597     3.036954     3.029311     3.021667     3.014024
      3.006381     2.998738     2.991095     2.983451     2.975808     2.968165     2.960522     2.952878     2.945235     2.937592
      2.929949     2.922306     2.914662     2.907019     2.899376     2.891733     2.884089     2.876446     2.868803     2.861160
      2.853517     2.845873     2.838230     2.830587     2.822944     2.815300     2.807657     2.800014     2.792371     2.784728
      2.777084     2.769441     2.761798     2.754155     2.746511     2.738868     2.731225     2.723582     2.715939     2.708295
      2.700652     2.693009     2.685366     2.677722     2.670079     2.662436     2.654793     2.647150     2.639506     2.631863
      2.624220     2.616577     2.608933     2.601290     2.593647     2.586004     2.578361     2.570717     2.563074     2.555431
      2.547788     2.540144     2.532501     2.524858     2.517215     2.509572     2.501928     2.494285     2.486642     2.478999
      2.471355     2.463712     2.456069     2.448426     2.440783     2.433139     2.425496     2.417853     2.410210     2.402566
      2.394923     2.387280     2.379637     2.371994     2.364350     2.356707     2.349064     2.341421     2.333777     2.326134
      2.318491     2.310848     2.303205     2.295561     2.287918     2.280275     2.272632     2.264988     2.257345     2.249702
      2.242059     2.234416     2.226772     2.219129     2.211486     2.203843     2.196199     2.188556     2.180913     2.173270
      2.165627     2.157983     2.150340     2.142697     2.135054     2.127410     2.119767     2.112124     2.104481     2.096838
      2.089194     2.081551     2.073908     2.066265     2.058621     2.050978     2.043335     2.035692     2.028049     2.020405
      2.012762     2.005119     1.997476     1.989833     1.982190     1.974546     1.966903     1.959260     1.951617     1.943974
      1.936331     1.928688     1.921045     1.913402     1.905759     1.898115     1.890472     1.882829     1.875186     1.867543
      1.859900     1.852257     1.844614     1.836971     1.829327     1.821684     1.814041     1.806398     1.798755     1.791112
      1.783469     1.775826     1.768183     1.760540     1.752896     1.745253     1.737610     1.729967     1.722324     1.714681
      1.707038     1.699395     1.691752     1.684108     1.676465     1.668822     1.661179     1.653536     1.645893     1.638250
      1.630607     1.622964     1.615321     1.607677     1.600034     1.592391     1.584748     1.577105     1.569462     1.561819
      1.554176     1.546533     1.538890     1.531246     1.523603     1.515960     1.508317     1.500674     1.493031     1.485388
      1.477745     1.470102     1.462458     1.454815     1.447172     1.439529     1.431886     1.424243     1.416600     1.408957
      1.401314     1.393671     1.386027     1.378384     1.370741     1.363098     1.355455     1.347812     1.340169     1.332526
      1.324883     1.317240     1.309596     1.301953     1.294310     1.286667     1.279024     1.271381     1.263738     1.256095
      1.248452     1.240808     1.233165     1.225522     1.217879     1.210236     1.202593     1.194950     1.187307     1.179664
      1.172021     1.164377     1.156734     1.149091     1.141448     1.133805     1.126162     1.118519     1.110876     1.103233
      1.095590     1.087946     1.080303     1.072660     1.065017     1.057374     1.049731     1.042088     1.034445     1.026802
      1.019158     1.011515     1.003872     0.996229     0.988586     0.980943     0.973300     0.965657     0.958014     0.950371
      0.942727     0.935084     0.927441     0.919798     0.912155     0.904512     0.896869     0.889226     0.881583     0.873940
      0.866296     0.858653     0.851010     0.843367     0.835724     0.828081     0.820438     0.812795     0.805152     0.797508
      0.789865     0.782222     0.774579     0.766936     0.759293     0.751650     0.744007     0.736364     0.728721     0.721077
      0.713434     0.705791     0.698148     0.690505     0.682862     0.675219     0.667576     0.659933     0.652290     0.644646
      0.637003     0.629360     0.621717     0.614074     0.606431     0.598788     0.591145     0.583502     0.575858     0.568215
      0.560572     0.552929     0.545286     0.537643     0.530000     0.522357     0.514714     0.507071     0.499427     0.491784
      0.484141     0.476498     0.468855     0.461212     0.453569     0.445925     0.438282     0.430639     0.422996     0.415353
      0.407710     0.400067     0.392424     0.384780     0.377137     0.369494     0.361851     0.354208     0.346565     0.338922
      0.331278     0.323635     0.315992     0.308349     0.300706     0.293063     0.285420     0.277777     0.270133     0.262490
      0.254847     0.247204     0.239561     0.231918     0.224275     0.216631     0.208988     0.201345
 NY phased data points follow
  -2.77749E+01 -2.92216E+01 -2.56950E+01 -2.25802E+01 -1.39005E+01 -1.66538E+01 -6.74588E+00  1.10004E+00  6.93743E+00  9.63574E+00
   1.44613E+01  1.13481E+01  6.47493E+00  1.02970E+00 -7.33294E+00 -1.18967E+01 -1.76519E+01 -2.22460E+01 -2.03597E+01 -2.83117E+01
  -2.56239E+01 -2.68303E+01 -1.95104E+01 -2.08827E+01 -1.89840E+01 -2.08246E+01 -1.77197E+01 -2.01144E+01 -1.52023E+01 -1.70128E+01
  -1.69618E+01 -1.50812E+01 -1.59806E+01 -2.12798E+01 -1.74992E+01 -2.39234E+01 -1.68526E+01 -1.86093E+01 -1.83561E+01 -1.98667E+01
  -1.88067E+01 -1.42807E+01 -1.26028E+01 -1.63975E+01 -1.09944E+01 -1.03532E+01 -1.07438E+01 -9.86504E+00 -1.00523E+01 -1.01932E+01
  -1.47073E+01 -1.65426E+01 -1.88724E+01 -1.92029E+01 -1.44495E+01 -1.85603E+01 -1.82793E+01 -1.72762E+01 -1.24736E+01 -1.92379E+01
  -1.90852E+01 -2.01874E+01 -2.19970E+01 -2.54525E+01 -2.09174E+01 -2.62910E+01 -2.57724E+01 -2.72850E+01 -2.23728E+01 -2.31430E+01
  -2.17439E+01 -2.41858E+01 -2.13035E+01 -2.11494E+01 -1.49083E+01 -1.87950E+01 -1.97651E+01 -2.07139E+01 -1.84029E+01 -1.67097E+01
  -1.77427E+01 -1.80210E+01 -1.56816E+01 -1.68144E+01 -1.47449E+01 -1.50396E+01 -1.48598E+01 -1.32088E+01 -1.20107E+01 -1.75884E+01
  -1.28196E+01 -1.27928E+01 -1.31091E+01 -1.24045E+01 -1.18206E+01 -7.31702E+00 -8.84628E-01  3.22678E+00  9.58766E+00  1.76048E+01
   2.83785E+01  3.95523E+01  4.38816E+01  4.50820E+01  3.95347E+01  3.58148E+01  2.38815E+01  1.00959E+01  5.20835E+00 -3.83238E+00
  -9.60158E+00 -1.40058E+01 -1.29133E+01 -1.35319E+01 -1.76839E+01 -1.78998E+01 -1.88805E+01 -1.41981E+01 -1.44332E+01 -1.44019E+01
  -7.73276E+00 -1.13597E+01 -2.99434E+00  2.36818E+00  1.87582E+01  2.36018E+01  3.15993E+01  3.81432E+01  3.75304E+01  3.03416E+01
   1.95453E+01  1.23174E+01  3.32284E+00 -4.09711E+00 -2.92065E+00 -1.33215E+01 -1.37216E+01 -1.26018E+01 -1.93584E+01 -1.56489E+01
  -1.51556E+01 -1.84233E+01 -1.61928E+01 -1.45895E+01 -1.61414E+01 -1.61070E+01 -1.68454E+01 -1.63810E+01 -1.53115E+01 -1.70668E+01
  -1.65624E+01 -1.72679E+01 -1.69575E+01 -1.24391E+01 -1.70728E+01 -1.64283E+01 -1.63867E+01 -1.85422E+01 -1.52051E+01 -1.58470E+01
  -1.81750E+01 -1.65679E+01 -1.88578E+01 -1.86174E+01 -1.47255E+01 -2.17853E+01 -1.90927E+01 -1.78555E+01 -2.13636E+01 -2.13111E+01
  -2.42332E+01 -2.26543E+01 -2.03616E+01 -2.42891E+01 -2.59039E+01 -2.63082E+01 -2.67807E+01 -2.33645E+01 -2.87828E+01 -2.27937E+01
  -2.51632E+01 -2.73980E+01 -2.55210E+01 -1.99897E+01 -2.34138E+01 -2.34436E+01 -2.35751E+01 -1.93136E+01 -1.73078E+01 -1.67067E+01
  -1.11610E+01 -1.20117E+01 -8.31815E+00 -7.86400E+00 -8.65252E+00 -9.23591E+00 -8.70847E+00 -1.02645E+01 -9.05578E+00 -1.20085E+01
  -1.57562E+01 -1.10282E+01 -1.10852E+01 -8.81388E+00 -1.10683E+01 -7.10676E+00 -1.09326E+01 -9.44510E+00 -1.50433E+01 -1.64937E+01
  -1.51308E+01 -1.32297E+01 -9.38510E+00 -9.13003E+00 -3.72605E+00 -2.74507E+00  3.21723E-01 -3.36627E+00 -3.14263E+00 -8.36531E+00
  -9.72455E+00 -1.11315E+01 -1.41334E+01 -1.22133E+01 -1.19038E+01 -6.16494E+00 -6.65594E+00 -2.54041E+00 -3.19161E+00  6.46845E-03
   2.08052E-01 -1.51224E+00 -3.62049E-01 -1.46304E+00 -3.48187E+00 -5.14151E+00 -3.90407E+00 -3.47932E+00 -2.80020E+00 -7.78925E+00
  -3.69118E+00 -7.56986E+00 -9.09934E+00 -4.93369E+00 -3.13898E+00 -6.41866E+00 -2.25107E+00 -2.60408E+00  3.95038E+00  1.38390E-01
   5.05422E+00  5.17300E+00  1.34980E+01  1.89812E+01  2.88954E+01  3.53208E+01  4.91714E+01  6.06088E+01  7.00506E+01  8.19432E+01
   8.52664E+01  8.23607E+01  7.14511E+01  5.71407E+01  3.98444E+01  2.74086E+01  1.78409E+01  7.78810E+00  5.26429E+00 -2.41853E-01
  -4.80931E+00 -7.10820E-01 -4.61853E-01  1.79064E+00 -5.24147E-02 -1.56881E+00 -1.15483E+00 -3.21413E+00 -3.27708E+00  1.39066E+00
  -4.76557E+00  7.64665E-01 -5.78728E+00 -1.74447E+00 -4.64884E+00 -8.76320E+00 -2.14332E+00 -6.81997E+00 -4.87600E+00 -9.93173E+00
  -6.45863E+00 -6.22153E+00 -2.14679E+00 -4.63191E+00 -5.33592E+00 -8.65259E+00 -4.03839E+00 -6.92957E+00 -8.43174E+00 -6.19535E+00
  -5.46746E+00 -5.58094E+00 -7.56446E+00 -5.04989E+00 -2.62508E+00 -8.08930E+00 -3.53357E+00 -2.71277E+00 -3.71015E+00 -5.49791E+00
  -1.09944E+00 -4.72596E+00 -2.94315E+00 -2.66003E+00 -3.61746E+00 -2.64584E+00 -6.92111E+00  2.22152E-01 -1.83172E+00 -2.35667E+00
  -4.54447E+00 -3.58564E+00 -6.74038E+00 -7.03092E+00  4.93825E-01 -4.09413E+00 -7.04714E+00 -4.59217E+00 -3.02324E+00 -5.95718E+00
  -5.38136E+00 -5.18730E+00 -4.92084E+00 -6.35722E+00 -3.29734E+00 -1.80305E+00  1.94625E+00 -2.04900E+00 -2.90807E+00  5.59782E-01
   4.40323E+00 -1.82218E+00  3.97055E+00  4.92969E+00  9.70681E-01  5.29940E+00  5.49103E+00  3.99561E+00  6.49889E+00  3.38008E+00
   5.12083E+00  4.38281E+00  4.33798E+00  7.33203E+00  6.49555E+00  1.10797E+01  6.42121E+00  5.42265E+00  8.25744E+00  7.59681E+00
   7.35391E+00  6.12092E+00  3.58037E+00  6.20345E+00  4.92994E+00  5.94023E+00  4.92746E+00  1.08037E+00  8.36515E-01  1.97968E+00
   4.36064E+00  9.83476E-01  5.42228E+00  2.31088E+00  4.03782E+00  1.33588E+00  1.65223E+00  2.81598E-01  4.04015E+00  5.74047E+00
   3.89040E-01  2.77803E+00 -6.13780E-01 -2.60884E+00 -2.13559E+00 -1.08301E-01 -5.22340E-01  8.84835E-01  2.89578E-01  3.03295E+00
  -1.65957E+00  2.57805E+00  1.45954E+00  3.82867E+00  5.13345E+00  5.56946E+00  2.92715E+00  1.97998E+00  4.26632E+00  6.27238E+00
   8.19838E+00  7.94903E+00  6.49969E+00  7.09769E+00  7.83151E+00  1.29844E+01  1.02900E+01  1.46939E+01  1.39074E+01  1.08594E+01
   1.01825E+01  1.57836E+01  1.08544E+01  1.25341E+01  1.06493E+01  1.04107E+01  7.98184E+00  3.59029E+00  4.39299E+00  6.24767E+00
   1.50618E+00  3.63822E+00  5.70823E+00  7.13916E+00  4.46711E+00  4.28280E+00  3.97408E+00  5.55526E-03 -4.88148E+00  4.97505E+00
   2.46297E+00 -2.01340E+00  3.25573E+00  1.22743E+00  2.04860E+00  8.64496E-01  5.98620E-01  2.66302E+00  8.66458E-01 -2.28483E+00
   2.52008E-01 -4.63081E-01  6.51460E-01 -3.21468E+00  2.34281E-01 -3.08605E-01  2.90805E-01  1.34343E-01 -3.48790E-01 -3.42855E+00
  -2.89375E+00  4.20699E-02 -3.88348E-01 -3.23604E-02  1.26471E+00 -5.40874E+00  4.86696E-01  4.63792E-02 -6.69704E-01  1.25951E+00
  -2.48935E+00  1.97198E+00  1.96234E+00 -2.85523E+00 -3.60381E+00 -4.83090E-01  1.07745E-01  1.72711E+00  1.41740E-01  3.00059E-01
   3.68812E-01 -2.13406E+00 -1.37640E+00  1.23442E+00 -2.18198E+00  1.43103E+00 -3.85560E+00 -3.20207E+00  3.28252E-01 -1.30646E+00
   1.68241E+00 -3.14613E+00 -4.71252E+00 -1.98067E-01 -5.18398E+00  6.88957E-01  4.77143E-01  1.51374E+00 -1.21044E+00 -7.54320E-02
  -8.08153E-02 -1.19645E-01  2.45880E+00  1.79971E+00 -2.71890E+00  1.74207E+00  8.24527E-01  1.15863E+00
 NY points of the fit to the data follow
  -2.52422E+01 -2.49063E+01 -2.31454E+01 -1.96611E+01 -1.55316E+01 -1.09219E+01 -5.55426E+00  3.57117E-01  5.97055E+00  1.00748E+01
   1.15130E+01  9.82439E+00  5.54774E+00 -1.18778E-01 -5.84050E+00 -1.07079E+01 -1.46672E+01 -1.80258E+01 -2.04563E+01 -2.16739E+01
  -2.22484E+01 -2.26393E+01 -2.27184E+01 -2.24256E+01 -2.21251E+01 -2.16231E+01 -2.07213E+01 -1.94531E+01 -1.79701E+01 -1.65184E+01
  -1.52771E+01 -1.44926E+01 -1.43848E+01 -1.49073E+01 -1.58876E+01 -1.70959E+01 -1.83802E+01 -1.97725E+01 -2.08009E+01 -2.09042E+01
  -2.01567E+01 -1.89217E+01 -1.74392E+01 -1.56888E+01 -1.38055E+01 -1.21229E+01 -1.09856E+01 -1.07291E+01 -1.15067E+01 -1.31600E+01
  -1.53308E+01 -1.74094E+01 -1.88965E+01 -1.98553E+01 -2.04071E+01 -2.05383E+01 -2.02268E+01 -1.96660E+01 -1.91388E+01 -1.88196E+01
  -1.88080E+01 -1.91656E+01 -1.98016E+01 -2.05419E+01 -2.10714E+01 -2.12546E+01 -2.11805E+01 -2.09053E+01 -2.04311E+01 -1.98566E+01
  -1.93072E+01 -1.88903E+01 -1.86508E+01 -1.85932E+01 -1.86920E+01 -1.88810E+01 -1.90946E+01 -1.93041E+01 -1.94735E+01 -1.95251E+01
  -1.90056E+01 -1.82171E+01 -1.74625E+01 -1.65456E+01 -1.53948E+01 -1.41869E+01 -1.32112E+01 -1.27730E+01 -1.30120E+01 -1.37885E+01
  -1.48750E+01 -1.59137E+01 -1.65726E+01 -1.67284E+01 -1.60752E+01 -1.29586E+01 -6.57699E+00  6.05445E-01  8.58048E+00  1.83334E+01
   2.92320E+01  3.93236E+01  4.61058E+01  4.74451E+01  4.28188E+01  3.35756E+01  2.21205E+01  1.10041E+01  1.78120E+00 -5.61069E+00
  -1.17029E+01 -1.57818E+01 -1.73718E+01 -1.79033E+01 -1.80972E+01 -1.81406E+01 -1.80834E+01 -1.79012E+01 -1.74941E+01 -1.62570E+01
  -1.23122E+01 -6.39159E+00 -4.32937E-01  6.45950E+00  1.49225E+01  2.39915E+01  3.18541E+01  3.63441E+01  3.59346E+01  3.07775E+01
   2.24168E+01  1.29859E+01  4.44673E+00 -2.46077E+00 -8.20089E+00 -1.30263E+01 -1.57744E+01 -1.65053E+01 -1.65081E+01 -1.62080E+01
  -1.58276E+01 -1.55029E+01 -1.52826E+01 -1.52148E+01 -1.53011E+01 -1.54737E+01 -1.56849E+01 -1.59219E+01 -1.61482E+01 -1.63410E+01
  -1.64781E+01 -1.65699E+01 -1.66200E+01 -1.66909E+01 -1.68603E+01 -1.70056E+01 -1.70996E+01 -1.71801E+01 -1.72675E+01 -1.74975E+01
  -1.77754E+01 -1.79154E+01 -1.78732E+01 -1.77504E+01 -1.76724E+01 -1.77575E+01 -1.80799E+01 -1.85712E+01 -1.91087E+01 -1.96720E+01
  -2.01494E+01 -2.04589E+01 -2.07466E+01 -2.10531E+01 -2.13322E+01 -2.14638E+01 -2.13641E+01 -2.10830E+01 -2.07708E+01 -2.05681E+01
  -2.05285E+01 -2.04119E+01 -2.00915E+01 -1.95732E+01 -1.88853E+01 -1.80779E+01 -1.71154E+01 -1.59198E+01 -1.45263E+01 -1.31626E+01
  -1.21481E+01 -1.16641E+01 -1.16216E+01 -1.18636E+01 -1.22191E+01 -1.25622E+01 -1.27480E+01 -1.25656E+01 -1.20191E+01 -1.11743E+01
  -1.01519E+01 -9.14264E+00 -8.41092E+00 -8.28315E+00 -8.67527E+00 -9.62853E+00 -1.12099E+01 -1.30223E+01 -1.45624E+01 -1.53198E+01
  -1.52161E+01 -1.44132E+01 -1.28376E+01 -1.06406E+01 -8.36660E+00 -6.73737E+00 -6.22843E+00 -6.79741E+00 -8.26147E+00 -1.04866E+01
  -1.27808E+01 -1.44685E+01 -1.51968E+01 -1.47944E+01 -1.34272E+01 -1.13064E+01 -8.90956E+00 -6.87293E+00 -5.50567E+00 -4.72812E+00
  -4.21276E+00 -3.94451E+00 -3.88655E+00 -3.75856E+00 -3.40505E+00 -3.00426E+00 -2.75042E+00 -2.60915E+00 -2.56153E+00 -2.68880E+00
  -3.03930E+00 -3.40000E+00 -3.50582E+00 -3.24102E+00 -2.65637E+00 -1.84899E+00 -8.58153E-01  1.42369E-01  1.17930E+00  2.69895E+00
   4.50083E+00  6.50851E+00  9.95419E+00  1.80424E+01  2.85177E+01  3.84927E+01  4.91035E+01  6.08918E+01  7.23971E+01  8.12248E+01
   8.47976E+01  8.14547E+01  7.16164E+01  5.75061E+01  4.23510E+01  2.92456E+01  1.90266E+01  1.05840E+01  3.56151E+00 -2.31200E-01
  -1.57590E+00 -2.27442E+00 -2.71735E+00 -3.00140E+00 -3.22134E+00 -3.45919E+00 -3.71571E+00 -3.99664E+00 -4.29466E+00 -4.57883E+00
  -4.82581E+00 -5.03742E+00 -5.21398E+00 -5.34922E+00 -5.44882E+00 -5.52530E+00 -5.59657E+00 -5.66333E+00 -5.71217E+00 -5.73459E+00
  -5.73178E+00 -5.70194E+00 -5.64785E+00 -5.57345E+00 -5.48919E+00 -5.40325E+00 -5.31860E+00 -5.23378E+00 -5.14604E+00 -5.05362E+00
  -4.95601E+00 -4.85073E+00 -4.74101E+00 -4.63336E+00 -4.53390E+00 -4.44615E+00 -4.37105E+00 -4.30968E+00 -4.26406E+00 -4.23202E+00
  -4.21052E+00 -4.19747E+00 -4.19009E+00 -4.18537E+00 -4.17993E+00 -4.16950E+00 -4.14868E+00 -4.11041E+00 -4.04352E+00 -3.92408E+00
  -3.71227E+00 -3.49285E+00 -3.34524E+00 -3.21018E+00 -3.09323E+00 -3.07241E+00 -3.22436E+00 -3.59042E+00 -4.05999E+00 -4.45437E+00
  -4.73415E+00 -4.81019E+00 -4.58000E+00 -4.03703E+00 -3.25862E+00 -2.33670E+00 -1.35718E+00 -4.64958E-01  2.33923E-01  7.76139E-01
   1.26314E+00  1.72817E+00  2.14891E+00  2.53933E+00  2.93489E+00  3.34913E+00  3.70406E+00  3.95543E+00  4.16736E+00  4.38553E+00
   4.62581E+00  4.94596E+00  5.38721E+00  5.92715E+00  6.49645E+00  7.02100E+00  7.44596E+00  7.69810E+00  7.72980E+00  7.57312E+00
   7.28799E+00  6.92537E+00  6.50185E+00  6.02393E+00  5.54102E+00  5.07726E+00  4.62329E+00  4.17757E+00  3.74204E+00  3.31951E+00
   2.91309E+00  2.52597E+00  2.16122E+00  1.82156E+00  1.50945E+00  1.22698E+00  9.76106E-01  7.58488E-01  5.75545E-01  4.28425E-01
   3.18214E-01  2.46056E-01  2.13294E-01  2.21398E-01  2.71985E-01  3.66790E-01  5.07792E-01  6.97154E-01  9.37145E-01  1.22984E+00
   1.57694E+00  1.97952E+00  2.43788E+00  2.95125E+00  3.51741E+00  4.13232E+00  4.78992E+00  5.48197E+00  6.19816E+00  6.92605E+00
   7.65132E+00  8.35800E+00  9.02911E+00  9.64735E+00  1.01959E+01  1.06591E+01  1.10234E+01  1.12776E+01  1.14140E+01  1.14286E+01
   1.13216E+01  1.10968E+01  1.07619E+01  1.03276E+01  9.80761E+00  9.21732E+00  8.57343E+00  7.89289E+00  7.19216E+00  6.48662E+00
   5.79011E+00  5.11452E+00  4.46960E+00  3.86269E+00  3.29894E+00  2.78142E+00  2.31150E+00  1.88902E+00  1.51260E+00  1.17985E+00
   8.87754E-01  6.32946E-01  4.11968E-01  2.21322E-01  5.76060E-02 -8.24580E-02 -2.01843E-01 -3.03209E-01 -3.88854E-01 -4.60848E-01
  -5.21018E-01 -5.71001E-01 -6.12144E-01 -6.45578E-01 -6.72222E-01 -6.92933E-01 -7.08464E-01 -7.19488E-01 -7.26506E-01 -7.29935E-01
  -7.30116E-01 -7.27422E-01 -7.22182E-01 -7.14688E-01 -7.05113E-01 -6.93618E-01 -6.80351E-01 -6.65521E-01 -6.49293E-01 -6.31803E-01
  -6.13096E-01 -5.93248E-01 -5.72342E-01 -5.50520E-01 -5.27863E-01 -5.04425E-01 -4.80201E-01 -4.55243E-01 -4.29617E-01 -4.03425E-01
  -3.76696E-01 -3.49441E-01 -3.21637E-01 -2.93335E-01 -2.64589E-01 -2.35474E-01 -2.05980E-01 -1.76100E-01 -1.45816E-01 -1.15190E-01
  -8.42656E-02 -5.30864E-02 -2.16169E-02  1.01546E-02  4.22345E-02  7.45574E-02  1.07095E-01  1.39832E-01  1.72817E-01  2.06055E-01
   2.39537E-01  2.73202E-01  3.07041E-01  3.41065E-01  3.75327E-01  4.09822E-01  4.44537E-01  4.79422E-01
 NY background values follow
    -3.083E+01   -3.074E+01   -3.065E+01   -3.057E+01   -3.048E+01   -3.039E+01   -3.030E+01   -3.022E+01   -3.013E+01   -3.004E+01
    -2.995E+01   -2.987E+01   -2.978E+01   -2.969E+01   -2.960E+01   -2.952E+01   -2.943E+01   -2.934E+01   -2.925E+01   -2.917E+01
    -2.908E+01   -2.899E+01   -2.890E+01   -2.882E+01   -2.873E+01   -2.864E+01   -2.856E+01   -2.847E+01   -2.838E+01   -2.829E+01
    -2.821E+01   -2.812E+01   -2.803E+01   -2.795E+01   -2.786E+01   -2.777E+01   -2.769E+01   -2.760E+01   -2.751E+01   -2.743E+01
    -2.734E+01   -2.725E+01   -2.717E+01   -2.708E+01   -2.700E+01   -2.691E+01   -2.682E+01   -2.674E+01   -2.665E+01   -2.656E+01
    -2.648E+01   -2.639E+01   -2.631E+01   -2.622E+01   -2.614E+01   -2.605E+01   -2.597E+01   -2.588E+01   -2.579E+01   -2.571E+01
    -2.562E+01   -2.554E+01   -2.545E+01   -2.537E+01   -2.529E+01   -2.520E+01   -2.512E+01   -2.503E+01   -2.495E+01   -2.486E+01
    -2.478E+01   -2.469E+01   -2.461E+01   -2.453E+01   -2.444E+01   -2.436E+01   -2.428E+01   -2.419E+01   -2.411E+01   -2.403E+01
    -2.394E+01   -2.386E+01   -2.378E+01   -2.370E+01   -2.361E+01   -2.353E+01   -2.345E+01   -2.337E+01   -2.328E+01   -2.320E+01
    -2.312E+01   -2.304E+01   -2.296E+01   -2.288E+01   -2.279E+01   -2.271E+01   -2.263E+01   -2.255E+01   -2.247E+01   -2.239E+01
    -2.231E+01   -2.223E+01   -2.215E+01   -2.207E+01   -2.199E+01   -2.191E+01   -2.183E+01   -2.175E+01   -2.167E+01   -2.159E+01
    -2.151E+01   -2.143E+01   -2.136E+01   -2.128E+01   -2.120E+01   -2.112E+01   -2.104E+01   -2.096E+01   -2.088E+01   -2.081E+01
    -2.073E+01   -2.065E+01   -2.057E+01   -2.050E+01   -2.042E+01   -2.034E+01   -2.026E+01   -2.019E+01   -2.011E+01   -2.003E+01
    -1.996E+01   -1.988E+01   -1.980E+01   -1.973E+01   -1.965E+01   -1.958E+01   -1.950E+01   -1.942E+01   -1.935E+01   -1.927E+01
    -1.920E+01   -1.912E+01   -1.905E+01   -1.897E+01   -1.890E+01   -1.882E+01   -1.875E+01   -1.867E+01   -1.860E+01   -1.852E+01
    -1.845E+01   -1.837E+01   -1.830E+01   -1.822E+01   -1.815E+01   -1.808E+01   -1.800E+01   -1.793E+01   -1.785E+01   -1.778E+01
    -1.771E+01   -1.763E+01   -1.756E+01   -1.749E+01   -1.741E+01   -1.734E+01   -1.727E+01   -1.719E+01   -1.712E+01   -1.705E+01
    -1.697E+01   -1.690E+01   -1.683E+01   -1.676E+01   -1.668E+01   -1.661E+01   -1.654E+01   -1.647E+01   -1.639E+01   -1.632E+01
    -1.625E+01   -1.618E+01   -1.611E+01   -1.603E+01   -1.596E+01   -1.589E+01   -1.582E+01   -1.575E+01   -1.567E+01   -1.560E+01
    -1.553E+01   -1.546E+01   -1.539E+01   -1.532E+01   -1.525E+01   -1.517E+01   -1.510E+01   -1.503E+01   -1.496E+01   -1.489E+01
    -1.482E+01   -1.475E+01   -1.468E+01   -1.461E+01   -1.454E+01   -1.447E+01   -1.440E+01   -1.433E+01   -1.426E+01   -1.419E+01
    -1.412E+01   -1.405E+01   -1.398E+01   -1.391E+01   -1.385E+01   -1.378E+01   -1.371E+01   -1.364E+01   -1.357E+01   -1.351E+01
    -1.344E+01   -1.337E+01   -1.330E+01   -1.324E+01   -1.317E+01   -1.310E+01   -1.304E+01   -1.297E+01   -1.290E+01   -1.284E+01
    -1.277E+01   -1.271E+01   -1.264E+01   -1.257E+01   -1.251E+01   -1.245E+01   -1.238E+01   -1.232E+01   -1.225E+01   -1.219E+01
    -1.212E+01   -1.206E+01   -1.200E+01   -1.193E+01   -1.187E+01   -1.181E+01   -1.174E+01   -1.168E+01   -1.162E+01   -1.156E+01
    -1.150E+01   -1.143E+01   -1.137E+01   -1.131E+01   -1.125E+01   -1.119E+01   -1.113E+01   -1.107E+01   -1.101E+01   -1.095E+01
    -1.089E+01   -1.083E+01   -1.077E+01   -1.071E+01   -1.065E+01   -1.059E+01   -1.053E+01   -1.047E+01   -1.041E+01   -1.035E+01
    -1.029E+01   -1.023E+01   -1.018E+01   -1.012E+01   -1.006E+01   -1.000E+01   -9.945E+00   -9.888E+00   -9.831E+00   -9.774E+00
    -9.717E+00   -9.660E+00   -9.604E+00   -9.547E+00   -9.491E+00   -9.435E+00   -9.379E+00   -9.323E+00   -9.268E+00   -9.212E+00
    -9.157E+00   -9.102E+00   -9.047E+00   -8.992E+00   -8.938E+00   -8.883E+00   -8.829E+00   -8.775E+00   -8.720E+00   -8.667E+00
    -8.613E+00   -8.559E+00   -8.506E+00   -8.452E+00   -8.399E+00   -8.346E+00   -8.293E+00   -8.241E+00   -8.188E+00   -8.136E+00
    -8.083E+00   -8.031E+00   -7.979E+00   -7.927E+00   -7.876E+00   -7.824E+00   -7.772E+00   -7.721E+00   -7.670E+00   -7.619E+00
    -7.568E+00   -7.517E+00   -7.466E+00   -7.416E+00   -7.366E+00   -7.315E+00   -7.265E+00   -7.215E+00   -7.165E+00   -7.116E+00
    -7.066E+00   -7.016E+00   -6.967E+00   -6.918E+00   -6.869E+00   -6.820E+00   -6.771E+00   -6.722E+00   -6.673E+00   -6.625E+00
    -6.576E+00   -6.528E+00   -6.480E+00   -6.432E+00   -6.384E+00   -6.336E+00   -6.288E+00   -6.240E+00   -6.193E+00   -6.146E+00
    -6.098E+00   -6.051E+00   -6.004E+00   -5.957E+00   -5.910E+00   -5.863E+00   -5.817E+00   -5.770E+00   -5.724E+00   -5.677E+00
    -5.631E+00   -5.585E+00   -5.539E+00   -5.493E+00   -5.447E+00   -5.401E+00   -5.355E+00   -5.310E+00   -5.264E+00   -5.219E+00
    -5.173E+00   -5.128E+00   -5.083E+00   -5.038E+00   -4.993E+00   -4.948E+00   -4.903E+00   -4.859E+00   -4.814E+00   -4.770E+00
    -4.725E+00   -4.681E+00   -4.637E+00   -4.592E+00   -4.548E+00   -4.504E+00   -4.460E+00   -4.416E+00   -4.373E+00   -4.329E+00
    -4.285E+00   -4.242E+00   -4.198E+00   -4.155E+00   -4.111E+00   -4.068E+00   -4.025E+00   -3.982E+00   -3.939E+00   -3.896E+00
    -3.853E+00   -3.810E+00   -3.767E+00   -3.725E+00   -3.682E+00   -3.639E+00   -3.597E+00   -3.554E+00   -3.512E+00   -3.470E+00
    -3.428E+00   -3.385E+00   -3.343E+00   -3.301E+00   -3.259E+00   -3.217E+00   -3.175E+00   -3.133E+00   -3.092E+00   -3.050E+00
    -3.008E+00   -2.967E+00   -2.925E+00   -2.884E+00   -2.842E+00   -2.801E+00   -2.759E+00   -2.718E+00   -2.677E+00   -2.636E+00
    -2.595E+00   -2.553E+00   -2.512E+00   -2.471E+00   -2.430E+00   -2.389E+00   -2.349E+00   -2.308E+00   -2.267E+00   -2.226E+00
    -2.185E+00   -2.145E+00   -2.104E+00   -2.064E+00   -2.023E+00   -1.982E+00   -1.942E+00   -1.901E+00   -1.861E+00   -1.821E+00
    -1.780E+00   -1.740E+00   -1.700E+00   -1.659E+00   -1.619E+00   -1.579E+00   -1.539E+00   -1.499E+00   -1.459E+00   -1.418E+00
    -1.378E+00   -1.338E+00   -1.298E+00   -1.258E+00   -1.218E+00   -1.178E+00   -1.138E+00   -1.098E+00   -1.059E+00   -1.019E+00
    -9.788E-01   -9.389E-01   -8.991E-01   -8.592E-01   -8.194E-01   -7.796E-01   -7.398E-01   -7.000E-01   -6.602E-01   -6.204E-01
    -5.806E-01   -5.409E-01   -5.011E-01   -4.613E-01   -4.216E-01   -3.818E-01   -3.420E-01   -3.023E-01   -2.625E-01   -2.228E-01
    -1.830E-01   -1.432E-01   -1.034E-01   -6.366E-02   -2.387E-02    1.592E-02    5.573E-02    9.554E-02
 Ala      Conc. = 1.62E+02
