 LCModel (Version 6.3-1L) Copyright: S.W. Provencher.          Ref.: Magn. Reson. Med. 30:672-679 (1993).                
 Slice#1 Row#8 Col#1  PD_24_press_1_raw_act
 36 lines in following concentration table = NCONC+1
    Conc.  %SD /Cr+PCr  Metabolite                                         
   68.843  63%   0.641 Ala                                                 
   21.376 130%   0.199 Asp                                                 
   97.688  63%   0.909 Cr                                                  
    9.781 650% 9.1E-02 PCr                                                 
   10.970 152%   0.102 GABA                                                
   19.058  89%   0.177 Glc                                                 
   73.343 118%   0.682 Gln                                                 
  159.115  60%   1.481 Glu                                                 
    0.000 999%   0.000 GPC                                                 
   53.560  16%   0.498 PCh                                                 
   51.800  60%   0.482 GSH                                                 
  528.349  20%   4.916 Ins                                                 
    0.000 999%   0.000 Lac                                                 
  145.797  20%   1.357 NAA                                                 
   33.094  90%   0.308 NAAG                                                
   10.676  49% 9.9E-02 Scyllo                                              
   35.441  78%   0.330 Tau                                                 
   39.636  78%   0.369 -CrCH2                                              
   53.560  16%   0.498 GPC+PCh                                             
  178.892  16%   1.665 NAA+NAAG                                            
  107.470  21%   1.000 Cr+PCr                                              
  232.458  54%   2.163 Glu+Gln                                             
    0.000 999%   0.000 Lip13a                                              
  343.639  18%   3.198 Lip13b                                              
    0.000 999%   0.000 Lip09                                               
    0.000 999%   0.000 MM09                                                
    0.000 999%   0.000 Lip20                                               
    0.000 999%   0.000 MM20                                                
 9.97E-04 999% 9.3E-06 MM12                                                
    0.000 999%   0.000 MM14                                                
 5.67E-02 999% 5.3E-04 MM17                                                
  343.639  18%   3.198 Lip13a+Lip13b                                       
  343.640  18%   3.198 MM14+Lip13a+Lip13b+MM12                             
    0.000 999%   0.000 MM09+Lip09                                          
    0.000 999%   0.000 MM20+Lip20                                          
   6 lines in following misc. output table
  FWHM = 0.046 ppm    S/N =   2                                            
  Data shift =-0.008 ppm                                                   
  Ph:-136 deg      23.5 deg/ppm                                            
  alphaB,S = 4.7E-01,   7.2E+01                                            
   14 spline knots.   Ns = 5(1)                                            
   2 inflections.     1 extrema                                            
  498 points on ppm-axis = NY
      4.000000     3.992357     3.984714     3.977070     3.969427     3.961784     3.954141     3.946497     3.938854     3.931211
      3.923568     3.915925     3.908281     3.900638     3.892995     3.885352     3.877708     3.870065     3.862422     3.854779
      3.847136     3.839492     3.831849     3.824206     3.816563     3.808919     3.801276     3.793633     3.785990     3.778347
      3.770703     3.763060     3.755417     3.747774     3.740130     3.732487     3.724844     3.717201     3.709558     3.701914
      3.694271     3.686628     3.678985     3.671341     3.663698     3.656055     3.648412     3.640769     3.633125     3.625482
      3.617839     3.610196     3.602552     3.594909     3.587266     3.579623     3.571980     3.564336     3.556693     3.549050
      3.541407     3.533763     3.526120     3.518477     3.510834     3.503191     3.495547     3.487904     3.480261     3.472618
      3.464974     3.457331     3.449688     3.442045     3.434402     3.426758     3.419115     3.411472     3.403829     3.396185
      3.388542     3.380899     3.373256     3.365613     3.357969     3.350326     3.342683     3.335040     3.327396     3.319753
      3.312110     3.304467     3.296824     3.289180     3.281537     3.273894     3.266251     3.258607     3.250964     3.243321
      3.235678     3.228034     3.220391     3.212748     3.205105     3.197462     3.189818     3.182175     3.174532     3.166889
      3.159245     3.151602     3.143959     3.136316     3.128673     3.121029     3.113386     3.105743     3.098100     3.090456
      3.082813     3.075170     3.067527     3.059884     3.052240     3.044597     3.036954     3.029311     3.021667     3.014024
      3.006381     2.998738     2.991095     2.983451     2.975808     2.968165     2.960522     2.952878     2.945235     2.937592
      2.929949     2.922306     2.914662     2.907019     2.899376     2.891733     2.884089     2.876446     2.868803     2.861160
      2.853517     2.845873     2.838230     2.830587     2.822944     2.815300     2.807657     2.800014     2.792371     2.784728
      2.777084     2.769441     2.761798     2.754155     2.746511     2.738868     2.731225     2.723582     2.715939     2.708295
      2.700652     2.693009     2.685366     2.677722     2.670079     2.662436     2.654793     2.647150     2.639506     2.631863
      2.624220     2.616577     2.608933     2.601290     2.593647     2.586004     2.578361     2.570717     2.563074     2.555431
      2.547788     2.540144     2.532501     2.524858     2.517215     2.509572     2.501928     2.494285     2.486642     2.478999
      2.471355     2.463712     2.456069     2.448426     2.440783     2.433139     2.425496     2.417853     2.410210     2.402566
      2.394923     2.387280     2.379637     2.371994     2.364350     2.356707     2.349064     2.341421     2.333777     2.326134
      2.318491     2.310848     2.303205     2.295561     2.287918     2.280275     2.272632     2.264988     2.257345     2.249702
      2.242059     2.234416     2.226772     2.219129     2.211486     2.203843     2.196199     2.188556     2.180913     2.173270
      2.165627     2.157983     2.150340     2.142697     2.135054     2.127410     2.119767     2.112124     2.104481     2.096838
      2.089194     2.081551     2.073908     2.066265     2.058621     2.050978     2.043335     2.035692     2.028049     2.020405
      2.012762     2.005119     1.997476     1.989833     1.982190     1.974546     1.966903     1.959260     1.951617     1.943974
      1.936331     1.928688     1.921045     1.913402     1.905759     1.898115     1.890472     1.882829     1.875186     1.867543
      1.859900     1.852257     1.844614     1.836971     1.829327     1.821684     1.814041     1.806398     1.798755     1.791112
      1.783469     1.775826     1.768183     1.760540     1.752896     1.745253     1.737610     1.729967     1.722324     1.714681
      1.707038     1.699395     1.691752     1.684108     1.676465     1.668822     1.661179     1.653536     1.645893     1.638250
      1.630607     1.622964     1.615321     1.607677     1.600034     1.592391     1.584748     1.577105     1.569462     1.561819
      1.554176     1.546533     1.538890     1.531246     1.523603     1.515960     1.508317     1.500674     1.493031     1.485388
      1.477745     1.470102     1.462458     1.454815     1.447172     1.439529     1.431886     1.424243     1.416600     1.408957
      1.401314     1.393671     1.386027     1.378384     1.370741     1.363098     1.355455     1.347812     1.340169     1.332526
      1.324883     1.317240     1.309596     1.301953     1.294310     1.286667     1.279024     1.271381     1.263738     1.256095
      1.248452     1.240808     1.233165     1.225522     1.217879     1.210236     1.202593     1.194950     1.187307     1.179664
      1.172021     1.164377     1.156734     1.149091     1.141448     1.133805     1.126162     1.118519     1.110876     1.103233
      1.095590     1.087946     1.080303     1.072660     1.065017     1.057374     1.049731     1.042088     1.034445     1.026802
      1.019158     1.011515     1.003872     0.996229     0.988586     0.980943     0.973300     0.965657     0.958014     0.950371
      0.942727     0.935084     0.927441     0.919798     0.912155     0.904512     0.896869     0.889226     0.881583     0.873940
      0.866296     0.858653     0.851010     0.843367     0.835724     0.828081     0.820438     0.812795     0.805152     0.797508
      0.789865     0.782222     0.774579     0.766936     0.759293     0.751650     0.744007     0.736364     0.728721     0.721077
      0.713434     0.705791     0.698148     0.690505     0.682862     0.675219     0.667576     0.659933     0.652290     0.644646
      0.637003     0.629360     0.621717     0.614074     0.606431     0.598788     0.591145     0.583502     0.575858     0.568215
      0.560572     0.552929     0.545286     0.537643     0.530000     0.522357     0.514714     0.507071     0.499427     0.491784
      0.484141     0.476498     0.468855     0.461212     0.453569     0.445925     0.438282     0.430639     0.422996     0.415353
      0.407710     0.400067     0.392424     0.384780     0.377137     0.369494     0.361851     0.354208     0.346565     0.338922
      0.331278     0.323635     0.315992     0.308349     0.300706     0.293063     0.285420     0.277777     0.270133     0.262490
      0.254847     0.247204     0.239561     0.231918     0.224275     0.216631     0.208988     0.201345
 NY phased data points follow
  -3.34453E+01 -3.00339E+01 -3.08336E+01 -2.99023E+01 -2.76206E+01 -2.85913E+01 -2.93958E+01 -2.45015E+01 -2.71084E+01 -2.49891E+01
  -2.42094E+01 -2.58354E+01 -2.36767E+01 -2.32451E+01 -2.41115E+01 -2.38374E+01 -2.74812E+01 -2.34271E+01 -2.32698E+01 -2.77617E+01
  -2.39369E+01 -2.55263E+01 -2.25877E+01 -2.09067E+01 -2.48975E+01 -2.13953E+01 -2.07627E+01 -1.79537E+01 -1.87837E+01 -2.22381E+01
  -1.82367E+01 -1.80313E+01 -1.47961E+01 -1.73033E+01 -1.92079E+01 -1.56674E+01 -1.56919E+01 -1.69219E+01 -1.82516E+01 -1.55889E+01
  -1.65248E+01 -1.81610E+01 -1.70445E+01 -1.62583E+01 -1.50541E+01 -1.61862E+01 -1.42463E+01 -1.02998E+01 -1.27036E+01 -1.24491E+01
  -1.26602E+01 -1.52581E+01 -1.65523E+01 -1.42674E+01 -1.54505E+01 -1.20726E+01 -1.21307E+01 -1.19466E+01 -1.20994E+01 -1.11332E+01
  -1.35249E+01 -1.05924E+01 -1.04136E+01 -1.15152E+01 -1.34718E+01 -1.11634E+01 -1.13165E+01 -9.65454E+00 -8.51390E+00 -1.00730E+01
  -8.09902E+00 -1.12683E+01 -7.33124E+00 -7.48427E+00 -9.05331E+00 -5.38463E+00 -1.07013E+01 -1.01156E+01 -8.26982E+00 -6.50224E+00
  -9.04025E+00 -5.87607E+00 -9.56538E+00 -8.89861E+00 -8.03167E+00 -1.02310E+01 -6.66089E+00 -4.07143E+00 -7.34355E+00 -8.08137E+00
  -6.77298E+00 -4.73656E+00 -7.94918E+00 -7.80575E+00 -6.47108E+00 -7.73832E+00 -5.72109E+00 -5.64579E+00 -6.87593E+00 -5.31508E+00
  -6.57529E+00 -3.83041E+00 -1.86461E+00  6.96738E-01 -4.84258E-01 -1.82621E+00 -3.87008E+00 -4.34304E+00 -6.43079E+00 -5.90255E+00
  -1.04570E+01 -6.27576E+00 -6.79650E+00 -5.11500E+00 -7.05127E+00 -4.29466E+00 -4.71541E+00 -4.07063E+00 -5.68927E+00 -5.85685E+00
  -4.50011E+00 -5.53126E+00 -6.29376E+00 -5.04665E+00 -1.65652E+00 -7.45869E-01 -8.06714E-01  2.10864E+00  2.14958E+00 -6.50731E-01
  -1.02108E+00 -5.43565E+00 -6.91538E+00 -3.40805E+00 -5.07115E+00 -4.38085E+00 -7.03061E+00 -2.70503E+00 -1.70389E+00 -4.34391E+00
  -5.32695E+00 -7.38131E+00 -4.11936E+00 -3.49095E+00 -6.12659E-01 -2.27625E+00 -3.00156E+00 -2.31151E+00 -2.00193E-01 -4.45296E-01
  -1.78525E+00 -2.56406E+00  1.33157E+00  7.89530E-02  8.91985E-01 -1.58265E+00 -6.58698E-01 -2.12777E+00 -9.44733E-01 -2.23698E+00
  -3.10535E-01 -2.69527E+00 -4.09069E+00 -3.05969E+00 -2.49500E+00  6.44597E-01 -1.34381E+00 -7.01146E-01 -4.08841E+00 -4.40298E-02
  -1.54506E+00 -2.33595E+00 -2.92326E+00 -3.68105E+00 -5.23831E-01 -3.12719E+00  4.70516E-01 -1.63975E+00  8.94156E-01 -2.05823E+00
  -1.08268E+00  9.59067E-01  7.97897E-01 -2.68989E+00  1.54609E+00 -5.40991E-01  1.62261E-02  3.56837E-01  1.30549E+00 -4.11049E+00
   3.89035E-02 -6.91930E-02  1.11247E+00 -2.23780E+00 -1.15269E+00  3.26754E-01 -8.34821E-01 -5.82772E-01 -1.76318E+00  7.20213E-01
  -1.01893E+00  1.66483E+00 -3.33565E-01  2.40698E+00  1.61962E+00  8.08896E-01 -1.31905E+00 -6.62387E-01 -2.41607E+00  1.35283E+00
   1.31914E+00 -3.30821E+00  1.79220E-01 -1.53998E+00  2.18435E+00  1.24099E+00  3.39921E+00 -1.27291E+00  1.56202E-01  4.47010E-01
  -1.97502E+00 -3.80700E-02 -2.00830E+00 -4.14739E-01  2.83370E-01 -5.98823E-01  3.35979E+00 -3.30546E+00  2.40623E+00  3.73102E-01
   1.53113E+00 -1.75930E+00  4.89461E-01  8.45420E-01 -4.43451E-01  2.06782E-01 -2.53528E+00 -1.16769E+00  7.04786E-01  1.22759E+00
  -3.59172E+00 -1.12490E+00 -2.62317E-02 -1.27989E+00  6.32135E-01  1.32761E+00 -1.03667E+00 -1.53294E+00  1.21926E+00  2.71804E+00
  -4.30423E-03  4.96748E-01 -4.25235E-01  2.19447E+00  1.65271E+00  2.54401E+00  6.21638E+00  9.14107E+00  6.25061E+00  6.09724E+00
   7.84920E+00  1.08344E+01  4.05985E+00  1.69099E+00  3.15084E+00 -8.20678E-01  2.30156E+00  1.31401E+00  2.86620E-01 -1.33474E+00
   4.18197E+00 -9.58128E-01  1.14500E+00  2.24568E+00  2.37359E+00  4.41379E+00 -7.84414E-01  3.12503E+00  1.90927E+00  3.28479E+00
   3.52641E+00  5.61886E+00  3.08748E+00  5.26140E+00  3.95284E+00  2.58568E+00  2.59904E+00  2.53054E+00  3.37486E+00  4.31774E+00
   2.07486E+00  4.03291E+00  2.90850E+00  2.59163E+00  2.21249E+00  5.71625E+00  4.00672E+00  4.37812E+00  1.76310E+00  3.82058E+00
   4.85893E+00  5.07467E+00  7.26849E+00  7.28315E+00  5.50722E+00  7.66115E+00  4.10618E+00  3.83576E+00  7.34703E+00  3.74934E+00
   5.55522E+00  4.05174E+00  5.28025E+00  6.69225E+00  2.62844E+00  5.51065E+00  4.41480E+00  5.01293E+00  4.27583E+00  2.44599E+00
   1.14806E+00  3.00751E+00  5.94294E-01  5.41318E+00  2.56744E+00  5.00945E+00  6.80274E+00  4.89134E+00  4.24432E+00  4.81070E-01
   1.70339E+00  1.66231E+00  5.29473E+00  4.34794E+00  3.58980E+00  3.33314E+00  2.79587E+00  7.87216E+00  3.95583E+00  3.69294E+00
   5.31023E+00  5.07079E+00  6.60624E+00  7.44895E+00  2.07403E+00 -2.71593E-01  3.75132E+00  4.12936E+00  6.77052E+00  4.72534E+00
   7.79915E+00  8.48866E+00  7.65056E+00  2.32352E+00  7.01390E+00  7.06986E+00  8.81532E+00  8.34310E+00  9.60380E+00  7.23963E+00
   7.12291E+00  8.39892E+00  8.14468E+00  8.27658E+00  5.84247E+00  5.05078E+00  6.03806E+00  6.86730E+00  5.55108E+00  6.68937E+00
   7.31183E+00  8.72537E+00  7.67314E+00  4.04119E+00  3.25172E+00  4.73056E+00  3.01263E+00  1.68612E+00  8.14798E-01  5.10943E+00
   2.02737E+00  5.13292E+00  3.68601E+00  5.14120E+00  5.59208E+00  3.39935E+00  1.39786E+00  1.10021E+00  4.69343E+00  3.65002E+00
   3.66001E+00  4.65846E+00  3.66444E+00  3.61820E+00  1.04475E+00  4.78173E+00  6.67799E+00  7.14098E+00  2.86492E+00  2.81804E+00
   3.10254E+00  1.64026E+00  3.17249E+00  3.87340E+00  2.48640E+00  4.01299E+00  5.94724E-01  4.93770E+00  2.69918E+00  5.19575E+00
   2.46283E+00  4.91953E+00  5.22374E+00  4.86114E+00  4.56703E+00  6.10492E+00  2.40534E+00  3.32758E+00  1.78123E+00  4.67383E+00
   3.96545E+00  4.13571E+00  6.05469E+00  3.85009E+00  5.54904E+00  7.86484E+00  5.46226E+00  3.30534E+00  2.70537E+00  4.90468E+00
   5.23448E+00  4.21388E+00  3.96424E+00  6.23333E+00  7.28857E+00  6.11115E+00  4.42362E+00  4.80327E+00  3.74417E+00  4.76787E+00
   6.47613E+00  3.12294E+00  5.96747E+00  3.60109E+00  4.55506E+00  3.64755E+00  7.53971E+00  3.69741E+00  5.06298E+00  5.22948E+00
   3.35603E+00  3.84931E+00  9.17494E-01  6.73540E+00  6.29557E+00  5.64110E+00  4.90969E+00  8.72898E+00  3.62150E+00  4.96348E+00
   8.11975E+00  5.86975E+00  5.01794E+00  4.64245E+00  5.11997E+00  5.49394E+00  7.04592E+00  4.73258E+00  4.22540E+00  8.24625E+00
   4.59094E+00  5.48506E+00  6.36575E+00  3.86689E+00  6.83564E+00  3.84016E+00  5.64996E+00  6.05248E+00  4.11114E+00  3.17532E+00
   2.85729E+00  4.61246E+00  3.71002E+00  4.68461E+00  3.97499E+00  6.52990E+00  3.06365E+00  4.84826E+00  3.29612E+00  4.45298E+00
   7.28264E+00  1.13937E+00  3.70488E+00  5.40919E+00  4.24087E+00  1.84766E+00  4.73336E+00  3.10935E+00
 NY points of the fit to the data follow
  -2.82372E+01 -2.82029E+01 -2.80668E+01 -2.78817E+01 -2.77207E+01 -2.75618E+01 -2.72437E+01 -2.66728E+01 -2.59393E+01 -2.51482E+01
  -2.43931E+01 -2.37886E+01 -2.34593E+01 -2.34563E+01 -2.36869E+01 -2.39614E+01 -2.40989E+01 -2.40201E+01 -2.37652E+01 -2.34185E+01
  -2.30229E+01 -2.26137E+01 -2.22455E+01 -2.19669E+01 -2.17584E+01 -2.15047E+01 -2.11502E+01 -2.06921E+01 -2.01193E+01 -1.94546E+01
  -1.87949E+01 -1.82716E+01 -1.79506E+01 -1.78114E+01 -1.78176E+01 -1.79137E+01 -1.80339E+01 -1.81353E+01 -1.82012E+01 -1.82093E+01
  -1.81307E+01 -1.78974E+01 -1.73305E+01 -1.62961E+01 -1.49383E+01 -1.35853E+01 -1.25306E+01 -1.19731E+01 -1.20320E+01 -1.26906E+01
  -1.37204E+01 -1.47339E+01 -1.53832E+01 -1.55279E+01 -1.52112E+01 -1.45843E+01 -1.38183E+01 -1.30271E+01 -1.23150E+01 -1.17730E+01
  -1.14726E+01 -1.14397E+01 -1.16159E+01 -1.18806E+01 -1.20781E+01 -1.20939E+01 -1.18920E+01 -1.14837E+01 -1.09618E+01 -1.04445E+01
  -1.00023E+01 -9.65421E+00 -9.40711E+00 -9.26306E+00 -9.20759E+00 -9.21112E+00 -9.23560E+00 -9.24187E+00 -9.20708E+00 -9.12860E+00
  -9.00597E+00 -8.82565E+00 -8.63283E+00 -8.51983E+00 -8.54072E+00 -8.67729E+00 -8.87434E+00 -9.05948E+00 -9.15042E+00 -9.06925E+00
  -8.79052E+00 -8.34709E+00 -7.83846E+00 -7.39613E+00 -7.09653E+00 -6.94900E+00 -6.90807E+00 -6.87341E+00 -6.54779E+00 -5.64547E+00
  -4.35515E+00 -2.97464E+00 -1.78311E+00 -1.04389E+00 -9.84693E-01 -1.65313E+00 -2.81440E+00 -4.05501E+00 -5.00271E+00 -5.49515E+00
  -5.61879E+00 -5.57058E+00 -5.47880E+00 -5.38019E+00 -5.28560E+00 -5.20125E+00 -5.12570E+00 -5.05170E+00 -4.97221E+00 -4.87737E+00
  -4.74736E+00 -4.51426E+00 -3.95670E+00 -3.03558E+00 -1.96976E+00 -9.77929E-01 -2.37724E-01  9.41705E-02 -7.72907E-02 -6.96248E-01
  -1.55503E+00 -2.38525E+00 -2.98804E+00 -3.32593E+00 -3.49334E+00 -3.58820E+00 -3.62990E+00 -3.58958E+00 -3.46148E+00 -3.26792E+00
  -3.05272E+00 -2.86209E+00 -2.72618E+00 -2.65044E+00 -2.61739E+00 -2.60224E+00 -2.58657E+00 -2.56288E+00 -2.53176E+00 -2.49823E+00
  -2.46622E+00 -2.43235E+00 -2.39149E+00 -2.34055E+00 -2.27843E+00 -2.21329E+00 -2.16055E+00 -2.12389E+00 -2.09908E+00 -2.07692E+00
  -2.04296E+00 -1.99327E+00 -1.92528E+00 -1.84332E+00 -1.76292E+00 -1.70308E+00 -1.67087E+00 -1.65566E+00 -1.63996E+00 -1.61285E+00
  -1.57786E+00 -1.55121E+00 -1.53652E+00 -1.52228E+00 -1.50097E+00 -1.47126E+00 -1.43751E+00 -1.39663E+00 -1.34889E+00 -1.29829E+00
  -1.25371E+00 -1.22115E+00 -1.19685E+00 -1.16001E+00 -1.09555E+00 -1.00037E+00 -8.72769E-01 -7.11385E-01 -5.30022E-01 -3.62109E-01
  -2.42556E-01 -1.98377E-01 -2.42576E-01 -3.69625E-01 -5.28736E-01 -6.57240E-01 -7.11433E-01 -6.69178E-01 -5.27136E-01 -3.04652E-01
  -4.05916E-02  2.14303E-01  3.98535E-01  4.69854E-01  4.11122E-01  2.07166E-01 -1.01469E-01 -4.31434E-01 -7.09692E-01 -8.62351E-01
  -8.27191E-01 -5.55081E-01 -1.07218E-01  3.81413E-01  7.83159E-01  1.00287E+00  9.81619E-01  7.00163E-01  2.22436E-01 -2.94378E-01
  -6.83853E-01 -8.54533E-01 -7.83651E-01 -5.07422E-01 -1.04048E-01  3.20655E-01  6.48501E-01  8.05634E-01  8.05040E-01  7.16501E-01
   6.15266E-01  5.43274E-01  5.35408E-01  6.13914E-01  7.52162E-01  8.94574E-01  9.99816E-01  1.04424E+00  9.99039E-01  8.79702E-01
   7.33765E-01  6.12812E-01  5.52319E-01  5.78050E-01  6.86634E-01  8.38304E-01  9.85192E-01  1.09602E+00  1.16797E+00  1.22231E+00
   1.31456E+00  1.53886E+00  1.89977E+00  2.32461E+00  2.81110E+00  3.60214E+00  4.73110E+00  5.90503E+00  6.87718E+00  7.50033E+00
   7.64028E+00  7.18351E+00  6.17279E+00  4.86144E+00  3.60839E+00  2.70301E+00  2.22565E+00  2.04747E+00  1.99734E+00  1.99627E+00
   2.02839E+00  2.08605E+00  2.16122E+00  2.24465E+00  2.32489E+00  2.39046E+00  2.43491E+00  2.46081E+00  2.47731E+00  2.49447E+00
   2.51870E+00  2.55259E+00  2.59526E+00  2.64358E+00  2.69396E+00  2.74326E+00  2.78919E+00  2.83198E+00  2.87341E+00  2.91494E+00
   2.95735E+00  3.00083E+00  3.04495E+00  3.08847E+00  3.12970E+00  3.16815E+00  3.20456E+00  3.24006E+00  3.27585E+00  3.31270E+00
   3.35083E+00  3.39006E+00  3.42987E+00  3.46945E+00  3.50816E+00  3.54570E+00  3.58224E+00  3.61812E+00  3.65365E+00  3.68898E+00
   3.72426E+00  3.75960E+00  3.79517E+00  3.83120E+00  3.86808E+00  3.90633E+00  3.94676E+00  3.99057E+00  4.03976E+00  4.09777E+00
   4.17154E+00  4.27808E+00  4.44836E+00  4.63836E+00  4.75125E+00  4.73680E+00  4.57961E+00  4.28244E+00  3.87147E+00  3.41135E+00
   3.04686E+00  2.93458E+00  3.09765E+00  3.46286E+00  3.92318E+00  4.38000E+00  4.74986E+00  4.96704E+00  5.01243E+00  4.92833E+00
   4.79465E+00  4.68642E+00  4.63705E+00  4.64019E+00  4.68276E+00  4.76233E+00  4.88227E+00  5.04793E+00  5.26447E+00  5.53480E+00
   5.85754E+00  6.22513E+00  6.62265E+00  7.02779E+00  7.41222E+00  7.74458E+00  7.99456E+00  8.13746E+00  8.15827E+00  8.05415E+00
   7.83506E+00  7.52199E+00  7.14351E+00  6.73129E+00  6.31560E+00  5.92176E+00  5.56795E+00  5.26457E+00  5.01497E+00  4.81698E+00
   4.66482E+00  4.55095E+00  4.46748E+00  4.40715E+00  4.36386E+00  4.33278E+00  4.31031E+00  4.29387E+00  4.28166E+00  4.27245E+00
   4.26545E+00  4.26008E+00  4.25599E+00  4.25292E+00  4.25069E+00  4.24919E+00  4.24832E+00  4.24801E+00  4.24821E+00  4.24888E+00
   4.25000E+00  4.25153E+00  4.25348E+00  4.25581E+00  4.25852E+00  4.26162E+00  4.26509E+00  4.26893E+00  4.27314E+00  4.27772E+00
   4.28268E+00  4.28801E+00  4.29374E+00  4.29984E+00  4.30634E+00  4.31323E+00  4.32053E+00  4.32824E+00  4.33636E+00  4.34485E+00
   4.35371E+00  4.36290E+00  4.37241E+00  4.38222E+00  4.39230E+00  4.40262E+00  4.41318E+00  4.42394E+00  4.43489E+00  4.44600E+00
   4.45725E+00  4.46863E+00  4.48011E+00  4.49166E+00  4.50328E+00  4.51493E+00  4.52660E+00  4.53826E+00  4.54990E+00  4.56149E+00
   4.57302E+00  4.58445E+00  4.59578E+00  4.60697E+00  4.61802E+00  4.62890E+00  4.63959E+00  4.65006E+00  4.66031E+00  4.67029E+00
   4.68001E+00  4.68942E+00  4.69853E+00  4.70730E+00  4.71571E+00  4.72375E+00  4.73139E+00  4.73861E+00  4.74539E+00  4.75171E+00
   4.75755E+00  4.76289E+00  4.76771E+00  4.77200E+00  4.77577E+00  4.77902E+00  4.78177E+00  4.78403E+00  4.78582E+00  4.78714E+00
   4.78800E+00  4.78842E+00  4.78841E+00  4.78799E+00  4.78715E+00  4.78592E+00  4.78430E+00  4.78231E+00  4.77996E+00  4.77725E+00
   4.77422E+00  4.77085E+00  4.76717E+00  4.76318E+00  4.75891E+00  4.75435E+00  4.74953E+00  4.74445E+00  4.73913E+00  4.73357E+00
   4.72780E+00  4.72181E+00  4.71563E+00  4.70925E+00  4.70271E+00  4.69601E+00  4.68916E+00  4.68216E+00  4.67504E+00  4.66781E+00
   4.66047E+00  4.65305E+00  4.64555E+00  4.63798E+00  4.63037E+00  4.62271E+00  4.61503E+00  4.60733E+00
 NY background values follow
    -2.917E+01   -2.890E+01   -2.862E+01   -2.834E+01   -2.807E+01   -2.779E+01   -2.751E+01   -2.723E+01   -2.696E+01   -2.668E+01
    -2.640E+01   -2.613E+01   -2.585E+01   -2.557E+01   -2.530E+01   -2.502E+01   -2.475E+01   -2.447E+01   -2.420E+01   -2.393E+01
    -2.365E+01   -2.338E+01   -2.311E+01   -2.284E+01   -2.257E+01   -2.230E+01   -2.203E+01   -2.177E+01   -2.150E+01   -2.124E+01
    -2.097E+01   -2.071E+01   -2.045E+01   -2.019E+01   -1.993E+01   -1.967E+01   -1.942E+01   -1.916E+01   -1.891E+01   -1.866E+01
    -1.841E+01   -1.816E+01   -1.791E+01   -1.767E+01   -1.742E+01   -1.718E+01   -1.694E+01   -1.671E+01   -1.647E+01   -1.624E+01
    -1.600E+01   -1.577E+01   -1.555E+01   -1.532E+01   -1.510E+01   -1.487E+01   -1.465E+01   -1.443E+01   -1.422E+01   -1.400E+01
    -1.379E+01   -1.358E+01   -1.337E+01   -1.317E+01   -1.296E+01   -1.276E+01   -1.256E+01   -1.236E+01   -1.216E+01   -1.197E+01
    -1.178E+01   -1.159E+01   -1.140E+01   -1.121E+01   -1.103E+01   -1.085E+01   -1.067E+01   -1.049E+01   -1.031E+01   -1.014E+01
    -9.967E+00   -9.797E+00   -9.630E+00   -9.465E+00   -9.302E+00   -9.141E+00   -8.983E+00   -8.826E+00   -8.672E+00   -8.520E+00
    -8.370E+00   -8.222E+00   -8.077E+00   -7.934E+00   -7.792E+00   -7.653E+00   -7.516E+00   -7.381E+00   -7.248E+00   -7.117E+00
    -6.988E+00   -6.861E+00   -6.736E+00   -6.612E+00   -6.491E+00   -6.371E+00   -6.253E+00   -6.137E+00   -6.023E+00   -5.910E+00
    -5.799E+00   -5.689E+00   -5.581E+00   -5.475E+00   -5.371E+00   -5.267E+00   -5.166E+00   -5.066E+00   -4.967E+00   -4.869E+00
    -4.773E+00   -4.679E+00   -4.586E+00   -4.494E+00   -4.403E+00   -4.313E+00   -4.225E+00   -4.138E+00   -4.052E+00   -3.967E+00
    -3.883E+00   -3.801E+00   -3.719E+00   -3.638E+00   -3.559E+00   -3.480E+00   -3.402E+00   -3.325E+00   -3.249E+00   -3.174E+00
    -3.100E+00   -3.027E+00   -2.955E+00   -2.883E+00   -2.813E+00   -2.743E+00   -2.675E+00   -2.607E+00   -2.540E+00   -2.474E+00
    -2.409E+00   -2.345E+00   -2.282E+00   -2.220E+00   -2.159E+00   -2.099E+00   -2.039E+00   -1.981E+00   -1.924E+00   -1.867E+00
    -1.812E+00   -1.757E+00   -1.703E+00   -1.651E+00   -1.599E+00   -1.548E+00   -1.498E+00   -1.449E+00   -1.401E+00   -1.354E+00
    -1.308E+00   -1.263E+00   -1.219E+00   -1.176E+00   -1.134E+00   -1.093E+00   -1.053E+00   -1.013E+00   -9.752E-01   -9.379E-01
    -9.016E-01   -8.663E-01   -8.319E-01   -7.985E-01   -7.660E-01   -7.344E-01   -7.035E-01   -6.735E-01   -6.442E-01   -6.156E-01
    -5.877E-01   -5.604E-01   -5.338E-01   -5.077E-01   -4.821E-01   -4.571E-01   -4.324E-01   -4.083E-01   -3.844E-01   -3.610E-01
    -3.378E-01   -3.149E-01   -2.923E-01   -2.698E-01   -2.475E-01   -2.254E-01   -2.033E-01   -1.812E-01   -1.592E-01   -1.372E-01
    -1.151E-01   -9.288E-02   -7.054E-02   -4.804E-02   -2.533E-02   -2.378E-03    2.086E-02    4.441E-02    6.832E-02    9.262E-02
     1.173E-01    1.425E-01    1.682E-01    1.945E-01    2.213E-01    2.487E-01    2.768E-01    3.055E-01    3.349E-01    3.650E-01
     3.957E-01    4.270E-01    4.590E-01    4.915E-01    5.247E-01    5.584E-01    5.926E-01    6.274E-01    6.628E-01    6.986E-01
     7.350E-01    7.718E-01    8.091E-01    8.469E-01    8.851E-01    9.238E-01    9.629E-01    1.002E+00    1.042E+00    1.082E+00
     1.123E+00    1.164E+00    1.205E+00    1.247E+00    1.289E+00    1.331E+00    1.374E+00    1.416E+00    1.459E+00    1.503E+00
     1.546E+00    1.590E+00    1.634E+00    1.678E+00    1.722E+00    1.767E+00    1.811E+00    1.856E+00    1.901E+00    1.945E+00
     1.990E+00    2.036E+00    2.081E+00    2.126E+00    2.171E+00    2.216E+00    2.261E+00    2.306E+00    2.351E+00    2.396E+00
     2.441E+00    2.486E+00    2.530E+00    2.574E+00    2.618E+00    2.662E+00    2.706E+00    2.749E+00    2.792E+00    2.834E+00
     2.877E+00    2.919E+00    2.960E+00    3.001E+00    3.042E+00    3.082E+00    3.121E+00    3.160E+00    3.199E+00    3.237E+00
     3.274E+00    3.311E+00    3.347E+00    3.383E+00    3.418E+00    3.452E+00    3.485E+00    3.518E+00    3.550E+00    3.581E+00
     3.611E+00    3.640E+00    3.669E+00    3.696E+00    3.723E+00    3.749E+00    3.774E+00    3.797E+00    3.820E+00    3.842E+00
     3.863E+00    3.883E+00    3.902E+00    3.921E+00    3.938E+00    3.955E+00    3.970E+00    3.986E+00    4.000E+00    4.013E+00
     4.026E+00    4.038E+00    4.050E+00    4.060E+00    4.070E+00    4.080E+00    4.089E+00    4.097E+00    4.105E+00    4.112E+00
     4.119E+00    4.125E+00    4.131E+00    4.136E+00    4.141E+00    4.145E+00    4.149E+00    4.153E+00    4.156E+00    4.159E+00
     4.162E+00    4.164E+00    4.166E+00    4.168E+00    4.170E+00    4.171E+00    4.173E+00    4.174E+00    4.175E+00    4.176E+00
     4.177E+00    4.177E+00    4.178E+00    4.178E+00    4.179E+00    4.180E+00    4.180E+00    4.181E+00    4.181E+00    4.182E+00
     4.182E+00    4.183E+00    4.184E+00    4.184E+00    4.185E+00    4.186E+00    4.187E+00    4.188E+00    4.189E+00    4.190E+00
     4.192E+00    4.193E+00    4.195E+00    4.197E+00    4.199E+00    4.201E+00    4.203E+00    4.206E+00    4.208E+00    4.211E+00
     4.214E+00    4.218E+00    4.221E+00    4.225E+00    4.229E+00    4.233E+00    4.238E+00    4.243E+00    4.248E+00    4.253E+00
     4.259E+00    4.265E+00    4.272E+00    4.279E+00    4.286E+00    4.293E+00    4.301E+00    4.309E+00    4.318E+00    4.327E+00
     4.336E+00    4.346E+00    4.356E+00    4.366E+00    4.376E+00    4.387E+00    4.398E+00    4.409E+00    4.420E+00    4.431E+00
     4.443E+00    4.455E+00    4.466E+00    4.478E+00    4.490E+00    4.502E+00    4.514E+00    4.526E+00    4.537E+00    4.549E+00
     4.561E+00    4.572E+00    4.584E+00    4.595E+00    4.607E+00    4.618E+00    4.628E+00    4.639E+00    4.649E+00    4.660E+00
     4.669E+00    4.679E+00    4.688E+00    4.697E+00    4.706E+00    4.714E+00    4.721E+00    4.729E+00    4.736E+00    4.742E+00
     4.748E+00    4.754E+00    4.758E+00    4.763E+00    4.767E+00    4.770E+00    4.773E+00    4.775E+00    4.777E+00    4.778E+00
     4.779E+00    4.780E+00    4.780E+00    4.780E+00    4.779E+00    4.778E+00    4.776E+00    4.774E+00    4.772E+00    4.769E+00
     4.766E+00    4.763E+00    4.759E+00    4.755E+00    4.751E+00    4.747E+00    4.742E+00    4.737E+00    4.732E+00    4.726E+00
     4.720E+00    4.714E+00    4.708E+00    4.702E+00    4.695E+00    4.689E+00    4.682E+00    4.675E+00    4.668E+00    4.661E+00
     4.653E+00    4.646E+00    4.638E+00    4.631E+00    4.623E+00    4.615E+00    4.608E+00    4.600E+00
 Ala      Conc. = 6.88E+01
