 LCModel (Version 6.3-1L) Copyright: S.W. Provencher.          Ref.: Magn. Reson. Med. 30:672-679 (1993).                
 Slice#1 Row#10 Col#5  PD_24_press_1_raw_act
 36 lines in following concentration table = NCONC+1
    Conc.  %SD /Cr+PCr  Metabolite                                         
    9.283 999% 1.5E-02 Ala                                                 
   45.743 367% 7.2E-02 Asp                                                 
  175.198 138%   0.276 Cr                                                  
  459.217  54%   0.724 PCr                                                 
   66.701 167%   0.105 GABA                                                
   53.993 202% 8.5E-02 Glc                                                 
  706.130  38%   1.113 Gln                                                 
 1.34E+03  23%   2.107 Glu                                                 
  427.653   5%   0.674 GPC                                                 
    0.000 999%   0.000 PCh                                                 
   33.981 218% 5.4E-02 GSH                                                 
  303.918  82%   0.479 Ins                                                 
    0.000 999%   0.000 Lac                                                 
 1.37E+03   9%   2.166 NAA                                                 
  187.039  74%   0.295 NAAG                                                
   91.757  27%   0.145 Scyllo                                              
  338.934  46%   0.534 Tau                                                 
  234.354  41%   0.369 -CrCH2                                              
  427.653   5%   0.674 GPC+PCh                                             
 1.56E+03   5%   2.461 NAA+NAAG                                            
  634.415   8%   1.000 Cr+PCr                                              
 2.04E+03  23%   3.220 Glu+Gln                                             
  957.606  47%   1.509 Lip13a                                              
    0.000 999%   0.000 Lip13b                                              
   80.635 228%   0.127 Lip09                                               
 1.10E+03  20%   1.737 MM09                                                
  187.533  66%   0.296 Lip20                                               
 2.11E+03  17%   3.327 MM20                                                
  341.973  41%   0.539 MM12                                                
 1.66E+03  21%   2.614 MM14                                                
 1.13E+03  19%   1.774 MM17                                                
  957.606  47%   1.509 Lip13a+Lip13b                                       
 2.96E+03  11%   4.662 MM14+Lip13a+Lip13b+MM12                             
 1.18E+03  14%   1.864 MM09+Lip09                                          
 2.30E+03  15%   3.623 MM20+Lip20                                          
   6 lines in following misc. output table
  FWHM = 0.061 ppm    S/N =   8                                            
  Data shift = 0.000 ppm                                                   
  Ph: -64 deg     -19.9 deg/ppm                                            
  alphaB,S = 2.0E+00,   9.1E+01                                            
   14 spline knots.   Ns = 8(1)                                            
  (10) 2 infls.   ( 7) 1 extrs.                                            
  498 points on ppm-axis = NY
      4.000000     3.992357     3.984714     3.977070     3.969427     3.961784     3.954141     3.946497     3.938854     3.931211
      3.923568     3.915925     3.908281     3.900638     3.892995     3.885352     3.877708     3.870065     3.862422     3.854779
      3.847136     3.839492     3.831849     3.824206     3.816563     3.808919     3.801276     3.793633     3.785990     3.778347
      3.770703     3.763060     3.755417     3.747774     3.740130     3.732487     3.724844     3.717201     3.709558     3.701914
      3.694271     3.686628     3.678985     3.671341     3.663698     3.656055     3.648412     3.640769     3.633125     3.625482
      3.617839     3.610196     3.602552     3.594909     3.587266     3.579623     3.571980     3.564336     3.556693     3.549050
      3.541407     3.533763     3.526120     3.518477     3.510834     3.503191     3.495547     3.487904     3.480261     3.472618
      3.464974     3.457331     3.449688     3.442045     3.434402     3.426758     3.419115     3.411472     3.403829     3.396185
      3.388542     3.380899     3.373256     3.365613     3.357969     3.350326     3.342683     3.335040     3.327396     3.319753
      3.312110     3.304467     3.296824     3.289180     3.281537     3.273894     3.266251     3.258607     3.250964     3.243321
      3.235678     3.228034     3.220391     3.212748     3.205105     3.197462     3.189818     3.182175     3.174532     3.166889
      3.159245     3.151602     3.143959     3.136316     3.128673     3.121029     3.113386     3.105743     3.098100     3.090456
      3.082813     3.075170     3.067527     3.059884     3.052240     3.044597     3.036954     3.029311     3.021667     3.014024
      3.006381     2.998738     2.991095     2.983451     2.975808     2.968165     2.960522     2.952878     2.945235     2.937592
      2.929949     2.922306     2.914662     2.907019     2.899376     2.891733     2.884089     2.876446     2.868803     2.861160
      2.853517     2.845873     2.838230     2.830587     2.822944     2.815300     2.807657     2.800014     2.792371     2.784728
      2.777084     2.769441     2.761798     2.754155     2.746511     2.738868     2.731225     2.723582     2.715939     2.708295
      2.700652     2.693009     2.685366     2.677722     2.670079     2.662436     2.654793     2.647150     2.639506     2.631863
      2.624220     2.616577     2.608933     2.601290     2.593647     2.586004     2.578361     2.570717     2.563074     2.555431
      2.547788     2.540144     2.532501     2.524858     2.517215     2.509572     2.501928     2.494285     2.486642     2.478999
      2.471355     2.463712     2.456069     2.448426     2.440783     2.433139     2.425496     2.417853     2.410210     2.402566
      2.394923     2.387280     2.379637     2.371994     2.364350     2.356707     2.349064     2.341421     2.333777     2.326134
      2.318491     2.310848     2.303205     2.295561     2.287918     2.280275     2.272632     2.264988     2.257345     2.249702
      2.242059     2.234416     2.226772     2.219129     2.211486     2.203843     2.196199     2.188556     2.180913     2.173270
      2.165627     2.157983     2.150340     2.142697     2.135054     2.127410     2.119767     2.112124     2.104481     2.096838
      2.089194     2.081551     2.073908     2.066265     2.058621     2.050978     2.043335     2.035692     2.028049     2.020405
      2.012762     2.005119     1.997476     1.989833     1.982190     1.974546     1.966903     1.959260     1.951617     1.943974
      1.936331     1.928688     1.921045     1.913402     1.905759     1.898115     1.890472     1.882829     1.875186     1.867543
      1.859900     1.852257     1.844614     1.836971     1.829327     1.821684     1.814041     1.806398     1.798755     1.791112
      1.783469     1.775826     1.768183     1.760540     1.752896     1.745253     1.737610     1.729967     1.722324     1.714681
      1.707038     1.699395     1.691752     1.684108     1.676465     1.668822     1.661179     1.653536     1.645893     1.638250
      1.630607     1.622964     1.615321     1.607677     1.600034     1.592391     1.584748     1.577105     1.569462     1.561819
      1.554176     1.546533     1.538890     1.531246     1.523603     1.515960     1.508317     1.500674     1.493031     1.485388
      1.477745     1.470102     1.462458     1.454815     1.447172     1.439529     1.431886     1.424243     1.416600     1.408957
      1.401314     1.393671     1.386027     1.378384     1.370741     1.363098     1.355455     1.347812     1.340169     1.332526
      1.324883     1.317240     1.309596     1.301953     1.294310     1.286667     1.279024     1.271381     1.263738     1.256095
      1.248452     1.240808     1.233165     1.225522     1.217879     1.210236     1.202593     1.194950     1.187307     1.179664
      1.172021     1.164377     1.156734     1.149091     1.141448     1.133805     1.126162     1.118519     1.110876     1.103233
      1.095590     1.087946     1.080303     1.072660     1.065017     1.057374     1.049731     1.042088     1.034445     1.026802
      1.019158     1.011515     1.003872     0.996229     0.988586     0.980943     0.973300     0.965657     0.958014     0.950371
      0.942727     0.935084     0.927441     0.919798     0.912155     0.904512     0.896869     0.889226     0.881583     0.873940
      0.866296     0.858653     0.851010     0.843367     0.835724     0.828081     0.820438     0.812795     0.805152     0.797508
      0.789865     0.782222     0.774579     0.766936     0.759293     0.751650     0.744007     0.736364     0.728721     0.721077
      0.713434     0.705791     0.698148     0.690505     0.682862     0.675219     0.667576     0.659933     0.652290     0.644646
      0.637003     0.629360     0.621717     0.614074     0.606431     0.598788     0.591145     0.583502     0.575858     0.568215
      0.560572     0.552929     0.545286     0.537643     0.530000     0.522357     0.514714     0.507071     0.499427     0.491784
      0.484141     0.476498     0.468855     0.461212     0.453569     0.445925     0.438282     0.430639     0.422996     0.415353
      0.407710     0.400067     0.392424     0.384780     0.377137     0.369494     0.361851     0.354208     0.346565     0.338922
      0.331278     0.323635     0.315992     0.308349     0.300706     0.293063     0.285420     0.277777     0.270133     0.262490
      0.254847     0.247204     0.239561     0.231918     0.224275     0.216631     0.208988     0.201345
 NY phased data points follow
  -2.31865E+01 -2.07486E+01 -2.62649E+01 -2.54007E+01 -2.00410E+01 -1.71704E+01 -1.44707E+01 -1.54487E+01 -1.13458E+01 -6.01765E+00
  -4.28646E+00 -1.40407E+01 -1.38339E+01 -5.45595E+00 -1.12109E+01 -1.56638E+01 -1.35977E+01 -1.80097E+01 -1.75731E+01 -2.11223E+01
  -1.86888E+01 -1.91421E+01 -2.66488E+01 -1.84509E+01 -1.58442E+01 -1.94978E+01 -1.93806E+01 -1.59976E+01 -1.72078E+01 -1.47644E+01
  -1.91920E+01 -2.05740E+01 -1.17915E+01 -1.29878E+01 -1.72640E+01 -1.46603E+01 -1.44702E+01 -1.65176E+01 -2.09052E+01 -1.55383E+01
  -1.30972E+01 -1.43870E+01 -9.20748E+00 -1.53901E+01 -7.80845E+00 -1.31209E+01 -1.00165E+01 -1.53841E+01 -1.15920E+01 -1.01225E+01
  -1.08467E+01 -1.49011E+01 -8.31703E+00 -1.59215E+01 -1.18345E+01 -8.35349E+00 -1.81314E+01 -1.31830E+01 -1.34100E+01 -1.52012E+01
  -1.46353E+01 -1.58452E+01 -1.99930E+01 -1.37608E+01 -1.64533E+01 -1.69528E+01 -1.67236E+01 -1.69831E+01 -1.64253E+01 -1.10825E+01
  -1.34802E+01 -1.90207E+01 -1.10117E+01 -1.66564E+01 -9.10451E+00 -1.47614E+01 -1.66042E+01 -1.09597E+01 -9.94147E+00 -1.31828E+01
  -1.07206E+01 -1.54567E+01 -1.04451E+01 -8.13065E+00 -1.07481E+01 -9.70524E+00 -6.55266E+00 -1.37279E+01 -9.25173E+00 -9.27512E+00
  -7.52267E+00 -1.46854E+01 -4.82799E+00 -1.70848E+00 -6.68313E+00 -7.67340E+00  8.37915E-01 -1.38735E+00  9.17205E+00  1.14399E+01
   1.94572E+01  2.17916E+01  2.42102E+01  1.77042E+01  1.58760E+01  1.41849E+01  1.37296E+01  3.90159E+00 -4.40072E+00 -4.79834E+00
  -7.23457E+00 -1.16165E+01 -8.80960E+00 -8.23605E+00 -8.54756E+00 -6.08165E+00 -9.65169E+00 -1.15340E+01 -8.57901E+00 -1.03901E+01
  -1.25236E+01 -9.58963E+00 -7.22133E+00 -1.15703E+00  3.36748E-01  6.19608E+00  5.06218E+00  1.12422E+01  8.86819E+00  6.99418E+00
   2.24879E+00  3.17257E-01 -2.90201E-01 -8.44215E+00 -9.56211E+00 -7.72065E+00 -1.09613E+01 -1.48834E+01 -1.06827E+01 -1.02596E+01
  -1.01457E+01 -1.24417E+01 -7.28329E+00 -9.26121E+00 -5.23131E+00 -1.04238E+01 -9.10068E+00 -1.10437E+01 -7.78456E+00 -1.01697E+01
  -9.17302E+00 -1.08836E+01 -1.04280E+01 -7.82538E+00 -8.37610E+00 -9.92965E+00 -1.08699E+01 -7.20345E+00 -1.08723E+01 -1.08752E+01
  -6.34435E+00 -1.24384E+01 -1.09764E+01 -8.77096E+00 -5.98054E+00 -1.12079E+01 -4.58960E+00 -1.30662E+01 -1.30617E+01 -1.08311E+01
  -1.58734E+01 -1.54704E+01 -1.50230E+01 -1.01457E+01 -9.42551E+00 -1.09685E+01 -1.13563E+01 -1.05029E+01 -1.33285E+01 -1.17612E+01
  -1.09412E+01 -9.06505E+00 -1.35386E+01 -1.30152E+01 -1.50859E+01 -1.26091E+01 -1.02135E+01 -7.67427E+00 -5.89224E+00 -1.02284E+01
  -6.78111E+00 -1.14120E+01 -8.63970E+00 -6.39665E+00 -4.62948E+00 -8.98287E+00 -7.89657E+00 -1.09772E+01 -9.36420E+00 -1.01604E+01
  -7.52754E+00 -2.51758E+00 -4.50477E+00 -6.64681E+00 -3.16291E+00 -4.35706E+00 -5.49110E+00 -5.11729E+00 -1.03604E+01 -7.72849E+00
  -7.08357E+00 -2.48289E+00 -2.11797E+00 -1.23004E+00  1.01967E+00  3.60664E+00  4.40197E+00  6.66326E-01  1.21193E+00 -4.62663E+00
  -6.44468E+00 -5.86517E+00 -2.12696E+00 -6.12781E+00 -4.46653E+00 -3.69886E+00 -6.57745E+00 -5.12976E+00  8.86268E-01 -1.47198E+00
   2.16320E+00  1.95527E+00  1.76095E+00  1.12723E+00  1.22068E+00 -2.37598E+00 -3.85858E-01  4.25607E+00  1.08004E+00 -2.60606E+00
  -8.54260E-01 -1.43705E+00 -2.22290E+00 -3.68688E+00  2.13685E+00 -2.06840E-01 -2.34768E+00  3.58765E+00  6.68514E+00  5.97735E+00
   3.78573E+00  5.93051E+00  1.13801E+01  1.47246E+01  2.33564E+01  2.74451E+01  2.66662E+01  3.40942E+01  4.30684E+01  4.72127E+01
   4.28925E+01  3.81340E+01  3.90217E+01  3.59080E+01  3.08008E+01  1.71054E+01  9.02484E+00  6.25799E+00  8.50839E+00  5.09879E+00
   3.30774E+00  3.73822E+00  3.23254E+00  4.27684E+00  7.59857E+00  2.35398E+00  3.37131E+00  2.29381E-01  8.67575E-01  2.69470E+00
   1.79772E+00  1.44482E+00  3.67364E+00  1.05495E+00  6.05522E+00 -3.63438E+00  1.62891E+00  3.81902E+00  3.39933E+00 -1.32417E+00
   4.64261E+00  6.12781E+00  2.26761E+00  6.79302E-01  2.78784E+00 -1.85289E-02  1.18736E+00  5.69100E+00  5.58710E+00  5.55466E+00
   4.63239E+00  2.37826E+00  3.05925E+00  3.39888E+00  2.48609E+00  1.94978E+00  1.60104E+00 -1.07498E+00  7.34484E+00  4.73970E+00
   3.23215E+00  3.06539E+00  7.89003E+00  7.26196E+00  2.97824E+00  7.84249E+00  8.43693E+00  4.60008E+00  5.23885E-01  4.81147E+00
   6.60342E+00  4.36069E+00  4.83352E+00  3.77903E+00  3.58303E+00  3.34425E+00  1.77171E+00  4.94482E+00  3.23846E+00  8.08358E+00
   7.17432E+00  2.06788E+00  6.75058E+00  8.20962E+00  1.04482E+01  8.91783E+00  8.65811E+00  8.06314E+00  1.06435E+01  6.13607E+00
   6.84022E+00  5.95077E+00  4.80911E+00  3.24495E+00  1.41280E+01  1.46913E+01  1.23892E+01  1.04236E+01  7.40150E+00  9.50348E+00
   8.91262E+00  8.87120E+00  1.51984E+01  7.81363E+00  3.21953E+00  2.88076E+00  5.70475E+00  4.15220E-01  9.77442E+00  6.62640E+00
   2.59143E+00  6.10663E+00  3.30598E+00  2.39815E+00  7.14005E+00  6.45274E+00  6.65646E+00  3.00054E+00  3.68331E+00  7.09599E+00
   5.98737E+00  3.29264E+00  4.27864E+00  1.61672E+00  3.72747E+00  1.58698E+00  2.83853E+00  2.79555E+00  2.11921E+00  3.89981E+00
   6.57848E+00  3.80791E+00  5.21766E+00  5.34254E+00  9.86180E+00  1.32693E+01  3.76135E+00  3.77292E+00  2.55337E+00  6.67987E+00
   1.06124E+00  8.95288E+00  7.00513E+00  3.85298E+00  8.08304E+00  3.89722E+00  5.68622E+00  7.04905E+00  6.11388E+00  8.05750E+00
   5.97342E+00  8.12113E+00  3.01560E+00  4.00126E+00  4.50765E+00  2.15210E-01  2.98536E+00  3.41167E+00  6.03149E+00  6.25154E+00
   6.96058E+00  4.56695E+00  5.36051E+00 -2.30611E+00  4.80964E+00  3.20643E+00  3.07522E+00  1.42190E+00  6.35884E+00  3.89192E+00
   9.41005E-01  6.91354E-01  3.81069E+00  3.79231E+00  7.14196E+00  3.85223E+00 -3.44008E+00 -4.85098E-01  3.31396E+00  1.53241E+00
  -9.50987E-01  2.81569E+00  4.42326E+00  3.95991E+00 -4.21443E-01  4.69364E+00  6.13437E-01 -3.94091E+00 -6.09633E-01  7.07842E-02
   1.15010E+00  6.55538E+00 -7.41806E-01 -3.57119E+00  6.96466E-01 -1.47206E-01 -1.22278E+00  2.35720E+00  4.08357E+00 -6.00984E+00
  -3.57434E-01 -2.84640E+00 -8.86141E-03 -1.35020E+00  1.63298E+00 -1.32745E+00 -9.06626E-01  2.82183E+00 -1.52710E+00 -1.14625E+00
  -8.40993E-01 -2.30976E+00 -4.87047E-01 -5.65830E-02  1.42736E+00  2.70447E+00  1.24096E+00 -2.96545E-01  1.28179E+00 -1.92612E+00
   1.72005E+00 -3.37491E-01  2.70587E+00  3.29110E+00 -2.86496E-01 -1.93613E+00  5.20047E+00 -1.62953E+00 -1.38443E+00  5.18386E-01
  -4.46400E-02 -1.14693E+00 -4.33387E+00 -7.86303E-01 -2.29334E+00 -4.52755E+00  1.51967E+00  2.94279E+00  2.85084E+00 -2.23548E+00
   1.69271E+00 -6.92414E+00 -3.48069E+00 -3.49259E+00  2.29942E+00 -1.67158E+00 -2.35780E+00  3.53646E+00
 NY points of the fit to the data follow
  -2.00948E+01 -1.99674E+01 -1.94805E+01 -1.85993E+01 -1.75072E+01 -1.63535E+01 -1.50072E+01 -1.33712E+01 -1.16719E+01 -1.04018E+01
  -9.85392E+00 -9.83076E+00 -9.99592E+00 -1.03890E+01 -1.13273E+01 -1.27526E+01 -1.41181E+01 -1.50128E+01 -1.55734E+01 -1.59999E+01
  -1.63271E+01 -1.66482E+01 -1.69469E+01 -1.72262E+01 -1.74516E+01 -1.76147E+01 -1.76553E+01 -1.74494E+01 -1.69499E+01 -1.62296E+01
  -1.54425E+01 -1.47486E+01 -1.42593E+01 -1.39870E+01 -1.39475E+01 -1.41821E+01 -1.46719E+01 -1.52053E+01 -1.55662E+01 -1.56509E+01
  -1.54435E+01 -1.49948E+01 -1.43881E+01 -1.37370E+01 -1.31333E+01 -1.26921E+01 -1.25197E+01 -1.25687E+01 -1.27190E+01 -1.29561E+01
  -1.33242E+01 -1.37567E+01 -1.41556E+01 -1.44983E+01 -1.47922E+01 -1.49882E+01 -1.50536E+01 -1.50295E+01 -1.49679E+01 -1.49005E+01
  -1.48567E+01 -1.48157E+01 -1.47687E+01 -1.47359E+01 -1.47193E+01 -1.47088E+01 -1.46965E+01 -1.46384E+01 -1.44879E+01 -1.42810E+01
  -1.40739E+01 -1.38807E+01 -1.36897E+01 -1.35209E+01 -1.34176E+01 -1.34258E+01 -1.35386E+01 -1.36633E+01 -1.36169E+01 -1.33200E+01
  -1.29295E+01 -1.24746E+01 -1.18224E+01 -1.09409E+01 -1.00383E+01 -9.41937E+00 -9.25981E+00 -9.46234E+00 -9.78999E+00 -1.02145E+01
  -1.08699E+01 -1.16708E+01 -1.22575E+01 -1.21622E+01 -1.05559E+01 -7.31539E+00 -3.27710E+00  1.24510E+00  6.58774E+00  1.27514E+01
   1.84550E+01  2.18969E+01  2.23877E+01  2.08542E+01  1.84406E+01  1.49751E+01  9.65266E+00  3.11749E+00 -2.46846E+00 -5.88305E+00
  -7.90926E+00 -9.50144E+00 -1.04981E+01 -1.08751E+01 -1.10452E+01 -1.11198E+01 -1.11350E+01 -1.10925E+01 -1.08917E+01 -1.01145E+01
  -8.49337E+00 -6.43569E+00 -4.15843E+00 -1.46812E+00  1.72666E+00  4.82986E+00  6.87824E+00  7.40365E+00  6.81209E+00  5.71693E+00
   4.07653E+00  1.44152E+00 -1.96395E+00 -5.02997E+00 -6.97089E+00 -8.08165E+00 -8.91751E+00 -9.44906E+00 -9.59839E+00 -9.61800E+00
  -9.60020E+00 -9.56636E+00 -9.52789E+00 -9.49790E+00 -9.48957E+00 -9.50493E+00 -9.53362E+00 -9.56802E+00 -9.60186E+00 -9.63201E+00
  -9.65731E+00 -9.67270E+00 -9.68271E+00 -9.72059E+00 -9.78863E+00 -9.86315E+00 -9.93751E+00 -1.00151E+01 -1.01175E+01 -1.02268E+01
  -1.02807E+01 -1.02522E+01 -1.02007E+01 -1.02042E+01 -1.02652E+01 -1.03226E+01 -1.03543E+01 -1.04301E+01 -1.06311E+01 -1.09284E+01
  -1.11908E+01 -1.13628E+01 -1.14817E+01 -1.16094E+01 -1.17029E+01 -1.16692E+01 -1.15322E+01 -1.13972E+01 -1.13183E+01 -1.12465E+01
  -1.10683E+01 -1.07656E+01 -1.04707E+01 -1.02615E+01 -1.00310E+01 -9.64209E+00 -9.11731E+00 -8.58210E+00 -8.14657E+00 -7.80977E+00
  -7.53427E+00 -7.31975E+00 -7.18923E+00 -7.12724E+00 -7.07196E+00 -6.95193E+00 -6.69741E+00 -6.25852E+00 -5.61733E+00 -4.85929E+00
  -4.17632E+00 -3.72669E+00 -3.65175E+00 -3.93749E+00 -4.58569E+00 -5.65284E+00 -7.01827E+00 -8.30435E+00 -9.08888E+00 -9.14846E+00
  -8.61510E+00 -7.59833E+00 -6.09477E+00 -4.19716E+00 -2.40114E+00 -1.42723E+00 -1.52237E+00 -2.29241E+00 -3.38079E+00 -4.80468E+00
  -6.51376E+00 -7.91598E+00 -8.36626E+00 -7.81973E+00 -6.73509E+00 -5.45572E+00 -3.95313E+00 -2.30893E+00 -9.97201E-01 -3.01000E-01
  -9.26525E-02 -4.78112E-02 -1.99325E-02 -4.36218E-05  1.06708E-01  3.91225E-01  8.05861E-01  1.20485E+00  1.46746E+00  1.56425E+00
   1.55520E+00  1.49231E+00  1.41941E+00  1.38648E+00  1.41229E+00  1.54775E+00  1.92237E+00  2.65301E+00  3.73055E+00  4.95590E+00
   6.23793E+00  7.81005E+00  1.06154E+01  1.50914E+01  2.01177E+01  2.50408E+01  3.03029E+01  3.62966E+01  4.18583E+01  4.48950E+01
   4.44082E+01  4.15108E+01  3.78684E+01  3.34887E+01  2.71960E+01  1.93312E+01  1.23441E+01  7.88843E+00  5.23792E+00  3.16638E+00
   1.78628E+00  1.28773E+00  1.10203E+00  9.99041E-01  9.33149E-01  8.89645E-01  8.42544E-01  7.83767E-01  6.97259E-01  5.81326E-01
   4.71768E-01  4.08738E-01  3.96986E-01  4.24974E-01  4.95653E-01  6.14517E-01  7.72707E-01  9.53717E-01  1.15043E+00  1.36623E+00
   1.60027E+00  1.84306E+00  2.09134E+00  2.34535E+00  2.60091E+00  2.85013E+00  3.08600E+00  3.30395E+00  3.50313E+00  3.68207E+00
   3.83602E+00  3.96027E+00  4.05429E+00  4.11800E+00  4.15003E+00  4.14983E+00  4.11986E+00  4.06498E+00  3.99048E+00  3.90179E+00
   3.80598E+00  3.71015E+00  3.62088E+00  3.54442E+00  3.48666E+00  3.45269E+00  3.44707E+00  3.47369E+00  3.53617E+00  3.63747E+00
   3.77520E+00  3.94490E+00  4.14520E+00  4.37444E+00  4.62659E+00  4.89211E+00  5.16428E+00  5.44543E+00  5.74045E+00  6.04499E+00
   6.34975E+00  6.65095E+00  6.95245E+00  7.25347E+00  7.54049E+00  7.79650E+00  8.01540E+00  8.19981E+00  8.34791E+00  8.45335E+00
   8.51458E+00  8.53859E+00  8.53504E+00  8.50792E+00  8.45759E+00  8.38730E+00  8.30112E+00  8.20067E+00  8.08773E+00  7.96400E+00
   7.83103E+00  7.68995E+00  7.54154E+00  7.38614E+00  7.22395E+00  7.05495E+00  6.87919E+00  6.69665E+00  6.50742E+00  6.31169E+00
   6.10998E+00  5.90309E+00  5.69218E+00  5.47861E+00  5.26404E+00  5.05030E+00  4.83957E+00  4.63414E+00  4.43648E+00  4.24901E+00
   4.07418E+00  3.91439E+00  3.77206E+00  3.64948E+00  3.54881E+00  3.47192E+00  3.42055E+00  3.39617E+00  3.40010E+00  3.43328E+00
   3.49630E+00  3.58928E+00  3.71194E+00  3.86345E+00  4.04252E+00  4.24710E+00  4.47448E+00  4.72116E+00  4.98302E+00  5.25522E+00
   5.53233E+00  5.80830E+00  6.07670E+00  6.33082E+00  6.56403E+00  6.76990E+00  6.94248E+00  7.07644E+00  7.16736E+00  7.21193E+00
   7.20816E+00  7.15535E+00  7.05417E+00  6.90652E+00  6.71555E+00  6.48546E+00  6.22139E+00  5.92902E+00  5.61445E+00  5.28383E+00
   4.94328E+00  4.59863E+00  4.25529E+00  3.91799E+00  3.59081E+00  3.27702E+00  2.97925E+00  2.69939E+00  2.43870E+00  2.19778E+00
   1.97673E+00  1.77519E+00  1.59256E+00  1.42795E+00  1.28030E+00  1.14838E+00  1.03095E+00  9.26707E-01  8.34490E-01  7.53121E-01
   6.81513E-01  6.18587E-01  5.63403E-01  5.15101E-01  4.72966E-01  4.36306E-01  4.04516E-01  3.77004E-01  3.53309E-01  3.33015E-01
   3.15803E-01  3.01329E-01  2.89303E-01  2.79428E-01  2.71513E-01  2.65372E-01  2.60871E-01  2.57822E-01  2.56081E-01  2.55499E-01
   2.56010E-01  2.57527E-01  2.59991E-01  2.63281E-01  2.67327E-01  2.72050E-01  2.77442E-01  2.83451E-01  2.90044E-01  2.97131E-01
   3.04683E-01  3.12663E-01  3.21085E-01  3.29911E-01  3.39115E-01  3.48629E-01  3.58451E-01  3.68565E-01  3.78994E-01  3.89699E-01
   4.00657E-01  4.11822E-01  4.23212E-01  4.34825E-01  4.46682E-01  4.58736E-01  4.70973E-01  4.83363E-01  4.95938E-01  5.08698E-01
   5.21652E-01  5.34756E-01  5.48005E-01  5.61388E-01  5.74948E-01  5.88678E-01  6.02581E-01  6.16618E-01  6.30799E-01  6.45129E-01
   6.59650E-01  6.74353E-01  6.89240E-01  7.04283E-01  7.19513E-01  7.34951E-01  7.50642E-01  7.66581E-01
 NY background values follow
    -2.130E+01   -2.123E+01   -2.115E+01   -2.108E+01   -2.101E+01   -2.093E+01   -2.086E+01   -2.079E+01   -2.071E+01   -2.064E+01
    -2.056E+01   -2.049E+01   -2.042E+01   -2.034E+01   -2.027E+01   -2.019E+01   -2.012E+01   -2.005E+01   -1.997E+01   -1.990E+01
    -1.983E+01   -1.975E+01   -1.968E+01   -1.960E+01   -1.953E+01   -1.946E+01   -1.938E+01   -1.931E+01   -1.924E+01   -1.916E+01
    -1.909E+01   -1.902E+01   -1.894E+01   -1.887E+01   -1.879E+01   -1.872E+01   -1.865E+01   -1.857E+01   -1.850E+01   -1.843E+01
    -1.835E+01   -1.828E+01   -1.821E+01   -1.813E+01   -1.806E+01   -1.799E+01   -1.792E+01   -1.784E+01   -1.777E+01   -1.770E+01
    -1.762E+01   -1.755E+01   -1.748E+01   -1.741E+01   -1.733E+01   -1.726E+01   -1.719E+01   -1.711E+01   -1.704E+01   -1.697E+01
    -1.690E+01   -1.683E+01   -1.675E+01   -1.668E+01   -1.661E+01   -1.654E+01   -1.646E+01   -1.639E+01   -1.632E+01   -1.625E+01
    -1.618E+01   -1.611E+01   -1.603E+01   -1.596E+01   -1.589E+01   -1.582E+01   -1.575E+01   -1.568E+01   -1.561E+01   -1.554E+01
    -1.547E+01   -1.540E+01   -1.533E+01   -1.525E+01   -1.518E+01   -1.511E+01   -1.504E+01   -1.497E+01   -1.490E+01   -1.483E+01
    -1.476E+01   -1.469E+01   -1.463E+01   -1.456E+01   -1.449E+01   -1.442E+01   -1.435E+01   -1.428E+01   -1.421E+01   -1.414E+01
    -1.407E+01   -1.400E+01   -1.394E+01   -1.387E+01   -1.380E+01   -1.373E+01   -1.366E+01   -1.360E+01   -1.353E+01   -1.346E+01
    -1.339E+01   -1.333E+01   -1.326E+01   -1.319E+01   -1.312E+01   -1.306E+01   -1.299E+01   -1.292E+01   -1.286E+01   -1.279E+01
    -1.272E+01   -1.266E+01   -1.259E+01   -1.253E+01   -1.246E+01   -1.240E+01   -1.233E+01   -1.226E+01   -1.220E+01   -1.213E+01
    -1.207E+01   -1.200E+01   -1.194E+01   -1.187E+01   -1.181E+01   -1.175E+01   -1.168E+01   -1.162E+01   -1.155E+01   -1.149E+01
    -1.143E+01   -1.136E+01   -1.130E+01   -1.123E+01   -1.117E+01   -1.111E+01   -1.105E+01   -1.098E+01   -1.092E+01   -1.086E+01
    -1.079E+01   -1.073E+01   -1.067E+01   -1.061E+01   -1.055E+01   -1.048E+01   -1.042E+01   -1.036E+01   -1.030E+01   -1.024E+01
    -1.018E+01   -1.012E+01   -1.006E+01   -9.995E+00   -9.934E+00   -9.874E+00   -9.813E+00   -9.753E+00   -9.693E+00   -9.634E+00
    -9.574E+00   -9.514E+00   -9.455E+00   -9.396E+00   -9.337E+00   -9.278E+00   -9.219E+00   -9.160E+00   -9.102E+00   -9.043E+00
    -8.985E+00   -8.927E+00   -8.869E+00   -8.811E+00   -8.754E+00   -8.696E+00   -8.639E+00   -8.582E+00   -8.525E+00   -8.468E+00
    -8.412E+00   -8.355E+00   -8.299E+00   -8.243E+00   -8.187E+00   -8.131E+00   -8.075E+00   -8.020E+00   -7.964E+00   -7.909E+00
    -7.854E+00   -7.799E+00   -7.745E+00   -7.690E+00   -7.636E+00   -7.582E+00   -7.528E+00   -7.474E+00   -7.420E+00   -7.367E+00
    -7.314E+00   -7.261E+00   -7.208E+00   -7.155E+00   -7.103E+00   -7.050E+00   -6.998E+00   -6.946E+00   -6.894E+00   -6.843E+00
    -6.792E+00   -6.740E+00   -6.689E+00   -6.639E+00   -6.588E+00   -6.538E+00   -6.487E+00   -6.437E+00   -6.388E+00   -6.338E+00
    -6.289E+00   -6.239E+00   -6.190E+00   -6.142E+00   -6.093E+00   -6.045E+00   -5.996E+00   -5.948E+00   -5.901E+00   -5.853E+00
    -5.806E+00   -5.759E+00   -5.712E+00   -5.665E+00   -5.618E+00   -5.572E+00   -5.526E+00   -5.480E+00   -5.434E+00   -5.389E+00
    -5.343E+00   -5.298E+00   -5.253E+00   -5.208E+00   -5.164E+00   -5.120E+00   -5.076E+00   -5.032E+00   -4.988E+00   -4.945E+00
    -4.901E+00   -4.858E+00   -4.815E+00   -4.773E+00   -4.730E+00   -4.688E+00   -4.646E+00   -4.604E+00   -4.563E+00   -4.521E+00
    -4.480E+00   -4.439E+00   -4.399E+00   -4.358E+00   -4.318E+00   -4.278E+00   -4.238E+00   -4.198E+00   -4.159E+00   -4.120E+00
    -4.081E+00   -4.042E+00   -4.003E+00   -3.965E+00   -3.926E+00   -3.888E+00   -3.851E+00   -3.813E+00   -3.776E+00   -3.739E+00
    -3.702E+00   -3.665E+00   -3.628E+00   -3.592E+00   -3.556E+00   -3.520E+00   -3.484E+00   -3.448E+00   -3.413E+00   -3.378E+00
    -3.343E+00   -3.308E+00   -3.273E+00   -3.239E+00   -3.205E+00   -3.171E+00   -3.137E+00   -3.103E+00   -3.070E+00   -3.037E+00
    -3.004E+00   -2.971E+00   -2.938E+00   -2.906E+00   -2.874E+00   -2.841E+00   -2.810E+00   -2.778E+00   -2.746E+00   -2.715E+00
    -2.684E+00   -2.653E+00   -2.622E+00   -2.592E+00   -2.561E+00   -2.531E+00   -2.501E+00   -2.471E+00   -2.441E+00   -2.412E+00
    -2.382E+00   -2.353E+00   -2.324E+00   -2.295E+00   -2.267E+00   -2.238E+00   -2.210E+00   -2.182E+00   -2.154E+00   -2.126E+00
    -2.098E+00   -2.071E+00   -2.043E+00   -2.016E+00   -1.989E+00   -1.962E+00   -1.936E+00   -1.909E+00   -1.883E+00   -1.856E+00
    -1.830E+00   -1.804E+00   -1.779E+00   -1.753E+00   -1.727E+00   -1.702E+00   -1.677E+00   -1.652E+00   -1.627E+00   -1.602E+00
    -1.578E+00   -1.553E+00   -1.529E+00   -1.504E+00   -1.480E+00   -1.456E+00   -1.433E+00   -1.409E+00   -1.385E+00   -1.362E+00
    -1.339E+00   -1.315E+00   -1.292E+00   -1.270E+00   -1.247E+00   -1.224E+00   -1.202E+00   -1.179E+00   -1.157E+00   -1.135E+00
    -1.113E+00   -1.091E+00   -1.069E+00   -1.047E+00   -1.026E+00   -1.004E+00   -9.827E-01   -9.615E-01   -9.403E-01   -9.193E-01
    -8.983E-01   -8.775E-01   -8.568E-01   -8.362E-01   -8.156E-01   -7.952E-01   -7.749E-01   -7.547E-01   -7.346E-01   -7.145E-01
    -6.946E-01   -6.748E-01   -6.550E-01   -6.354E-01   -6.158E-01   -5.963E-01   -5.770E-01   -5.577E-01   -5.385E-01   -5.193E-01
    -5.003E-01   -4.813E-01   -4.625E-01   -4.437E-01   -4.250E-01   -4.063E-01   -3.878E-01   -3.693E-01   -3.509E-01   -3.325E-01
    -3.143E-01   -2.961E-01   -2.780E-01   -2.600E-01   -2.420E-01   -2.241E-01   -2.062E-01   -1.885E-01   -1.708E-01   -1.531E-01
    -1.355E-01   -1.180E-01   -1.006E-01   -8.318E-02   -6.584E-02   -4.856E-02   -3.134E-02   -1.417E-02    2.941E-03    2.000E-02
     3.701E-02    5.396E-02    7.087E-02    8.772E-02    1.045E-01    1.213E-01    1.380E-01    1.547E-01    1.713E-01    1.879E-01
     2.044E-01    2.209E-01    2.374E-01    2.538E-01    2.702E-01    2.865E-01    3.029E-01    3.191E-01    3.354E-01    3.516E-01
     3.678E-01    3.839E-01    4.000E-01    4.161E-01    4.322E-01    4.482E-01    4.642E-01    4.802E-01    4.962E-01    5.121E-01
     5.280E-01    5.439E-01    5.598E-01    5.756E-01    5.914E-01    6.073E-01    6.231E-01    6.388E-01    6.546E-01    6.704E-01
     6.861E-01    7.018E-01    7.176E-01    7.333E-01    7.490E-01    7.647E-01    7.803E-01    7.960E-01    8.117E-01    8.274E-01
     8.430E-01    8.587E-01    8.744E-01    8.900E-01    9.057E-01    9.214E-01    9.370E-01    9.527E-01
 Ala      Conc. = 9.28E+00
