 LCModel (Version 6.3-1L) Copyright: S.W. Provencher.          Ref.: Magn. Reson. Med. 30:672-679 (1993).                
 Slice#3 Row#4 Col#4  PD_24_press_1_raw_act
 36 lines in following concentration table = NCONC+1
    Conc.  %SD /Cr+PCr  Metabolite                                         
    0.000 999%   0.000 Ala                                                 
    0.000 999%   0.000 Asp                                                 
   62.549  70%   0.969 Cr                                                  
    1.997 999% 3.1E-02 PCr                                                 
    0.000 999%   0.000 GABA                                                
    0.000 999%   0.000 Glc                                                 
    0.000 999%   0.000 Gln                                                 
   49.923  99%   0.773 Glu                                                 
   13.035  59%   0.202 GPC                                                 
    0.000 999%   0.000 PCh                                                 
   17.903  85%   0.277 GSH                                                 
    0.000 999%   0.000 Ins                                                 
    0.000 999%   0.000 Lac                                                 
   95.232  58%   1.475 NAA                                                 
    7.959 162%   0.123 NAAG                                                
    0.000 999%   0.000 Scyllo                                              
    0.000 999%   0.000 Tau                                                 
    0.000 999%   0.000 -CrCH2                                              
   13.035  59%   0.202 GPC+PCh                                             
  103.192  54%   1.599 NAA+NAAG                                            
   64.547  57%   1.000 Cr+PCr                                              
   49.923  99%   0.773 Glu+Gln                                             
 4.89E+04   9% 757.490 Lip13a                                              
  314.310  56%   4.870 Lip13b                                              
 6.75E+03  22% 104.555 Lip09                                               
 1.62E+03  21%  25.030 MM09                                                
    0.000 999%   0.000-Lip20                                               
 2.02E+03  26%  31.322 MM20                                                
  487.733  24%   7.556 MM12                                                
 1.69E+03  20%  26.217 MM14                                                
  909.399  20%  14.089 MM17                                                
 4.92E+04   9% 762.360 Lip13a+Lip13b                                       
 5.14E+04   9% 796.133 MM14+Lip13a+Lip13b+MM12                             
 8.36E+03  18% 129.585 MM09+Lip09                                          
 2.02E+03  23%  31.322 MM20+Lip20                                          
   6 lines in following misc. output table
  FWHM = 0.107 ppm    S/N =  19                                            
  Data shift = 0.000 ppm                                                   
  Ph:  82 deg     -19.7 deg/ppm                                            
  alphaB,S = 4.6E-01,   1.5E+00                                            
   14 spline knots.   Ns = 7(2)                                            
   5 inflections.     4 extrema                                            
  498 points on ppm-axis = NY
      4.000000     3.992357     3.984714     3.977070     3.969427     3.961784     3.954141     3.946497     3.938854     3.931211
      3.923568     3.915925     3.908281     3.900638     3.892995     3.885352     3.877708     3.870065     3.862422     3.854779
      3.847136     3.839492     3.831849     3.824206     3.816563     3.808919     3.801276     3.793633     3.785990     3.778347
      3.770703     3.763060     3.755417     3.747774     3.740130     3.732487     3.724844     3.717201     3.709558     3.701914
      3.694271     3.686628     3.678985     3.671341     3.663698     3.656055     3.648412     3.640769     3.633125     3.625482
      3.617839     3.610196     3.602552     3.594909     3.587266     3.579623     3.571980     3.564336     3.556693     3.549050
      3.541407     3.533763     3.526120     3.518477     3.510834     3.503191     3.495547     3.487904     3.480261     3.472618
      3.464974     3.457331     3.449688     3.442045     3.434402     3.426758     3.419115     3.411472     3.403829     3.396185
      3.388542     3.380899     3.373256     3.365613     3.357969     3.350326     3.342683     3.335040     3.327396     3.319753
      3.312110     3.304467     3.296824     3.289180     3.281537     3.273894     3.266251     3.258607     3.250964     3.243321
      3.235678     3.228034     3.220391     3.212748     3.205105     3.197462     3.189818     3.182175     3.174532     3.166889
      3.159245     3.151602     3.143959     3.136316     3.128673     3.121029     3.113386     3.105743     3.098100     3.090456
      3.082813     3.075170     3.067527     3.059884     3.052240     3.044597     3.036954     3.029311     3.021667     3.014024
      3.006381     2.998738     2.991095     2.983451     2.975808     2.968165     2.960522     2.952878     2.945235     2.937592
      2.929949     2.922306     2.914662     2.907019     2.899376     2.891733     2.884089     2.876446     2.868803     2.861160
      2.853517     2.845873     2.838230     2.830587     2.822944     2.815300     2.807657     2.800014     2.792371     2.784728
      2.777084     2.769441     2.761798     2.754155     2.746511     2.738868     2.731225     2.723582     2.715939     2.708295
      2.700652     2.693009     2.685366     2.677722     2.670079     2.662436     2.654793     2.647150     2.639506     2.631863
      2.624220     2.616577     2.608933     2.601290     2.593647     2.586004     2.578361     2.570717     2.563074     2.555431
      2.547788     2.540144     2.532501     2.524858     2.517215     2.509572     2.501928     2.494285     2.486642     2.478999
      2.471355     2.463712     2.456069     2.448426     2.440783     2.433139     2.425496     2.417853     2.410210     2.402566
      2.394923     2.387280     2.379637     2.371994     2.364350     2.356707     2.349064     2.341421     2.333777     2.326134
      2.318491     2.310848     2.303205     2.295561     2.287918     2.280275     2.272632     2.264988     2.257345     2.249702
      2.242059     2.234416     2.226772     2.219129     2.211486     2.203843     2.196199     2.188556     2.180913     2.173270
      2.165627     2.157983     2.150340     2.142697     2.135054     2.127410     2.119767     2.112124     2.104481     2.096838
      2.089194     2.081551     2.073908     2.066265     2.058621     2.050978     2.043335     2.035692     2.028049     2.020405
      2.012762     2.005119     1.997476     1.989833     1.982190     1.974546     1.966903     1.959260     1.951617     1.943974
      1.936331     1.928688     1.921045     1.913402     1.905759     1.898115     1.890472     1.882829     1.875186     1.867543
      1.859900     1.852257     1.844614     1.836971     1.829327     1.821684     1.814041     1.806398     1.798755     1.791112
      1.783469     1.775826     1.768183     1.760540     1.752896     1.745253     1.737610     1.729967     1.722324     1.714681
      1.707038     1.699395     1.691752     1.684108     1.676465     1.668822     1.661179     1.653536     1.645893     1.638250
      1.630607     1.622964     1.615321     1.607677     1.600034     1.592391     1.584748     1.577105     1.569462     1.561819
      1.554176     1.546533     1.538890     1.531246     1.523603     1.515960     1.508317     1.500674     1.493031     1.485388
      1.477745     1.470102     1.462458     1.454815     1.447172     1.439529     1.431886     1.424243     1.416600     1.408957
      1.401314     1.393671     1.386027     1.378384     1.370741     1.363098     1.355455     1.347812     1.340169     1.332526
      1.324883     1.317240     1.309596     1.301953     1.294310     1.286667     1.279024     1.271381     1.263738     1.256095
      1.248452     1.240808     1.233165     1.225522     1.217879     1.210236     1.202593     1.194950     1.187307     1.179664
      1.172021     1.164377     1.156734     1.149091     1.141448     1.133805     1.126162     1.118519     1.110876     1.103233
      1.095590     1.087946     1.080303     1.072660     1.065017     1.057374     1.049731     1.042088     1.034445     1.026802
      1.019158     1.011515     1.003872     0.996229     0.988586     0.980943     0.973300     0.965657     0.958014     0.950371
      0.942727     0.935084     0.927441     0.919798     0.912155     0.904512     0.896869     0.889226     0.881583     0.873940
      0.866296     0.858653     0.851010     0.843367     0.835724     0.828081     0.820438     0.812795     0.805152     0.797508
      0.789865     0.782222     0.774579     0.766936     0.759293     0.751650     0.744007     0.736364     0.728721     0.721077
      0.713434     0.705791     0.698148     0.690505     0.682862     0.675219     0.667576     0.659933     0.652290     0.644646
      0.637003     0.629360     0.621717     0.614074     0.606431     0.598788     0.591145     0.583502     0.575858     0.568215
      0.560572     0.552929     0.545286     0.537643     0.530000     0.522357     0.514714     0.507071     0.499427     0.491784
      0.484141     0.476498     0.468855     0.461212     0.453569     0.445925     0.438282     0.430639     0.422996     0.415353
      0.407710     0.400067     0.392424     0.384780     0.377137     0.369494     0.361851     0.354208     0.346565     0.338922
      0.331278     0.323635     0.315992     0.308349     0.300706     0.293063     0.285420     0.277777     0.270133     0.262490
      0.254847     0.247204     0.239561     0.231918     0.224275     0.216631     0.208988     0.201345
 NY phased data points follow
  -3.82807E+01 -4.00545E+01 -4.04508E+01 -3.61823E+01 -4.01074E+01 -3.43793E+01 -3.33438E+01 -3.10863E+01 -3.28391E+01 -3.01352E+01
  -2.94144E+01 -2.71191E+01 -2.65727E+01 -2.71373E+01 -3.00502E+01 -2.73039E+01 -3.03979E+01 -2.99458E+01 -2.58639E+01 -3.44325E+01
  -3.24195E+01 -2.96197E+01 -2.98920E+01 -3.00640E+01 -3.27736E+01 -3.14919E+01 -3.22126E+01 -2.85605E+01 -2.67110E+01 -3.09616E+01
  -3.17719E+01 -3.30141E+01 -3.61043E+01 -3.13228E+01 -3.29779E+01 -3.19617E+01 -3.26651E+01 -2.86577E+01 -3.26997E+01 -3.12235E+01
  -3.57838E+01 -3.05571E+01 -3.29997E+01 -3.15531E+01 -3.00055E+01 -3.38243E+01 -3.06142E+01 -3.00218E+01 -3.14567E+01 -3.15774E+01
  -3.34772E+01 -3.27136E+01 -3.37986E+01 -3.12509E+01 -3.24751E+01 -3.06185E+01 -3.10744E+01 -3.27160E+01 -3.69749E+01 -3.66833E+01
  -3.17199E+01 -3.46540E+01 -3.42508E+01 -3.15378E+01 -3.85494E+01 -3.85079E+01 -4.04314E+01 -3.68269E+01 -3.66721E+01 -4.15479E+01
  -3.88047E+01 -3.63424E+01 -3.88807E+01 -3.71173E+01 -3.99631E+01 -3.97223E+01 -3.99626E+01 -4.08233E+01 -4.27078E+01 -4.20924E+01
  -4.28875E+01 -4.26237E+01 -4.50351E+01 -4.65941E+01 -4.42607E+01 -4.15490E+01 -4.53789E+01 -4.65456E+01 -4.65440E+01 -4.68499E+01
  -4.95393E+01 -4.87167E+01 -4.69815E+01 -4.63846E+01 -4.86684E+01 -4.63390E+01 -4.73115E+01 -4.57698E+01 -4.92812E+01 -4.38277E+01
  -4.50804E+01 -4.51039E+01 -4.49963E+01 -3.68644E+01 -3.96301E+01 -4.16614E+01 -4.31897E+01 -4.27215E+01 -4.58547E+01 -4.56962E+01
  -4.61520E+01 -4.55312E+01 -4.65747E+01 -5.00884E+01 -4.82884E+01 -4.88723E+01 -5.30171E+01 -5.15235E+01 -5.67507E+01 -4.79859E+01
  -5.48499E+01 -5.06923E+01 -4.90431E+01 -4.08263E+01 -4.59384E+01 -4.45130E+01 -4.27892E+01 -3.89786E+01 -3.87776E+01 -4.30063E+01
  -3.56904E+01 -4.16728E+01 -4.43220E+01 -4.55875E+01 -4.78937E+01 -4.39337E+01 -4.83475E+01 -4.21131E+01 -4.65970E+01 -4.14128E+01
  -4.97271E+01 -4.35160E+01 -4.83999E+01 -4.62934E+01 -4.88308E+01 -4.99478E+01 -4.77147E+01 -4.50348E+01 -4.96426E+01 -4.96543E+01
  -5.23773E+01 -4.57234E+01 -5.18325E+01 -5.01869E+01 -5.13020E+01 -4.91783E+01 -5.22060E+01 -4.91302E+01 -5.09934E+01 -4.71230E+01
  -4.76445E+01 -4.79874E+01 -5.14279E+01 -4.97495E+01 -5.35453E+01 -5.10340E+01 -4.98149E+01 -5.30215E+01 -5.32300E+01 -5.12797E+01
  -5.42968E+01 -5.47193E+01 -5.78442E+01 -4.89934E+01 -5.33406E+01 -5.25920E+01 -5.50054E+01 -5.37041E+01 -6.03782E+01 -5.49293E+01
  -5.88421E+01 -5.74719E+01 -5.92985E+01 -5.66846E+01 -6.32484E+01 -5.55053E+01 -5.86117E+01 -5.98232E+01 -5.99454E+01 -5.60721E+01
  -5.77795E+01 -5.76494E+01 -5.23488E+01 -5.32198E+01 -5.98499E+01 -5.26906E+01 -5.77083E+01 -5.20575E+01 -5.47172E+01 -5.39365E+01
  -5.63513E+01 -5.77754E+01 -5.61809E+01 -5.26840E+01 -5.67070E+01 -5.44510E+01 -5.59921E+01 -5.63641E+01 -5.50161E+01 -5.43467E+01
  -5.01189E+01 -5.63961E+01 -5.12747E+01 -5.35205E+01 -5.32784E+01 -5.05424E+01 -5.04906E+01 -4.78888E+01 -4.98380E+01 -5.19409E+01
  -5.29859E+01 -4.99416E+01 -4.70049E+01 -5.02464E+01 -5.26329E+01 -4.87772E+01 -4.79771E+01 -4.86680E+01 -4.58032E+01 -4.62242E+01
  -4.97708E+01 -4.87395E+01 -4.91049E+01 -4.66013E+01 -4.99734E+01 -4.64964E+01 -4.74148E+01 -4.63545E+01 -4.75887E+01 -4.84447E+01
  -4.80762E+01 -4.70453E+01 -4.92692E+01 -4.76048E+01 -5.04396E+01 -4.40621E+01 -4.95286E+01 -4.78912E+01 -5.00078E+01 -5.12917E+01
  -5.22134E+01 -5.13134E+01 -4.99128E+01 -4.93238E+01 -4.85789E+01 -4.54707E+01 -3.98944E+01 -4.22793E+01 -4.07742E+01 -4.10125E+01
  -2.80283E+01 -2.73011E+01 -2.80144E+01 -2.54809E+01 -2.69523E+01 -2.41601E+01 -2.93689E+01 -2.75077E+01 -2.45742E+01 -2.53302E+01
  -2.55383E+01 -2.29973E+01 -2.45540E+01 -2.65567E+01 -2.70120E+01 -2.37512E+01 -2.98180E+01 -2.47235E+01 -2.80854E+01 -2.50385E+01
  -2.24094E+01 -2.44250E+01 -2.60485E+01 -2.44682E+01 -2.23681E+01 -1.92251E+01 -2.43734E+01 -1.87520E+01 -1.94952E+01 -1.83386E+01
  -1.64670E+01 -1.36706E+01 -1.43333E+01 -1.39965E+01 -1.49166E+01 -7.59035E+00 -8.66886E+00 -9.91325E+00 -3.94175E+00 -5.45408E+00
  -2.09881E+00 -1.22917E+00  1.27646E+00  7.00461E-01  4.96257E+00  1.22671E+01  9.53976E+00  1.45338E+01  1.21459E+01  2.06690E+01
   1.55108E+01  2.53867E+01  2.87824E+01  2.79952E+01  2.58683E+01  3.30246E+01  3.81401E+01  3.65537E+01  3.76624E+01  4.22841E+01
   4.17664E+01  4.23345E+01  4.50997E+01  4.75748E+01  5.22223E+01  5.42792E+01  5.69472E+01  6.42889E+01  6.54744E+01  6.93698E+01
   7.45947E+01  7.18407E+01  8.00060E+01  7.82472E+01  8.00075E+01  8.22147E+01  8.65360E+01  8.68755E+01  8.73290E+01  9.12078E+01
   9.40291E+01  9.66624E+01  9.17272E+01  1.00905E+02  9.97924E+01  1.05528E+02  1.09942E+02  1.17703E+02  1.16152E+02  1.18448E+02
   1.20967E+02  1.22749E+02  1.24996E+02  1.24563E+02  1.22316E+02  1.27484E+02  1.24417E+02  1.25876E+02  1.24188E+02  1.24373E+02
   1.22470E+02  1.25693E+02  1.21211E+02  1.22400E+02  1.17258E+02  1.18128E+02  1.16693E+02  1.12098E+02  1.08054E+02  1.11364E+02
   1.09138E+02  1.06014E+02  1.07940E+02  1.09575E+02  1.06057E+02  1.04736E+02  1.01302E+02  1.10337E+02  1.02378E+02  9.85853E+01
   9.89615E+01  9.65255E+01  9.82982E+01  9.81887E+01  9.33560E+01  9.79282E+01  9.75313E+01  9.41239E+01  9.26510E+01  9.18834E+01
   9.12532E+01  8.66564E+01  8.49620E+01  8.53583E+01  8.03578E+01  8.28597E+01  8.13664E+01  7.74891E+01  7.84159E+01  7.66343E+01
   7.76599E+01  7.38023E+01  7.48687E+01  7.43567E+01  7.54864E+01  6.99258E+01  6.94007E+01  7.24977E+01  7.31190E+01  6.73476E+01
   6.88449E+01  6.91505E+01  6.66632E+01  6.69085E+01  6.55840E+01  6.46666E+01  6.40194E+01  6.31653E+01  6.19818E+01  6.28797E+01
   6.13691E+01  6.02772E+01  5.95767E+01  6.11965E+01  5.59931E+01  5.66759E+01  5.76954E+01  5.60317E+01  5.23978E+01  5.28375E+01
   5.50910E+01  6.11773E+01  5.19509E+01  5.14107E+01  4.90916E+01  5.47431E+01  5.25112E+01  5.31556E+01  4.81529E+01  4.82130E+01
   4.40167E+01  4.69327E+01  4.51782E+01  4.85532E+01  4.72260E+01  4.72397E+01  4.49951E+01  4.36576E+01  4.49105E+01  4.66884E+01
   4.46858E+01  4.18995E+01  4.34992E+01  4.60224E+01  4.15779E+01  4.20686E+01  4.22271E+01  3.92111E+01  3.69830E+01  4.11263E+01
   4.19745E+01  4.22440E+01  3.76787E+01  3.70944E+01  3.71380E+01  3.89934E+01  3.77705E+01  3.74237E+01  3.64187E+01  3.91065E+01
   3.41724E+01  3.95294E+01  3.73050E+01  3.70115E+01  3.70371E+01  3.45356E+01  3.67204E+01  3.54931E+01  3.64524E+01  3.31757E+01
   3.46205E+01  3.43371E+01  3.11334E+01  3.54848E+01  3.15350E+01  2.90021E+01  3.27684E+01  2.87027E+01  3.41459E+01  3.01917E+01
   3.18777E+01  3.20121E+01  2.96794E+01  2.88097E+01  2.74650E+01  2.96777E+01  2.84257E+01  3.25399E+01
 NY points of the fit to the data follow
  -3.76325E+01 -3.78153E+01 -3.72893E+01 -3.70597E+01 -3.61398E+01 -3.55205E+01 -3.37519E+01 -3.30639E+01 -3.25171E+01 -3.16732E+01
  -2.90819E+01 -2.80386E+01 -2.76557E+01 -2.74200E+01 -2.76600E+01 -2.79579E+01 -2.95125E+01 -2.99585E+01 -2.99986E+01 -3.01012E+01
  -3.00573E+01 -3.01066E+01 -2.99210E+01 -3.00880E+01 -3.06539E+01 -3.10279E+01 -3.16374E+01 -3.19184E+01 -3.20915E+01 -3.19345E+01
  -3.12218E+01 -3.10114E+01 -3.10720E+01 -3.08613E+01 -3.09174E+01 -3.09846E+01 -3.16524E+01 -3.17552E+01 -3.20182E+01 -3.20554E+01
  -3.21812E+01 -3.20322E+01 -3.19741E+01 -3.19226E+01 -3.22145E+01 -3.22672E+01 -3.28512E+01 -3.31489E+01 -3.34853E+01 -3.36679E+01
  -3.38156E+01 -3.39638E+01 -3.40566E+01 -3.41974E+01 -3.43442E+01 -3.45692E+01 -3.48437E+01 -3.51083E+01 -3.53837E+01 -3.56469E+01
  -3.58817E+01 -3.61475E+01 -3.64027E+01 -3.66512E+01 -3.69013E+01 -3.71928E+01 -3.74697E+01 -3.77392E+01 -3.80086E+01 -3.82705E+01
  -3.85397E+01 -3.88008E+01 -3.90610E+01 -3.93190E+01 -3.95760E+01 -3.98318E+01 -4.00856E+01 -4.03388E+01 -4.05892E+01 -4.08390E+01
  -4.10870E+01 -4.13349E+01 -4.15818E+01 -4.18302E+01 -4.20827E+01 -4.23501E+01 -4.26654E+01 -4.32447E+01 -4.49288E+01 -4.60138E+01
  -4.67466E+01 -4.75829E+01 -4.79333E+01 -4.85516E+01 -4.80662E+01 -4.82861E+01 -4.74898E+01 -4.73324E+01 -4.58109E+01 -4.53953E+01
  -4.51007E+01 -4.46267E+01 -4.25154E+01 -4.14858E+01 -4.14728E+01 -4.11732E+01 -4.18521E+01 -4.19708E+01 -4.33737E+01 -4.36950E+01
  -4.39828E+01 -4.45941E+01 -4.72419E+01 -4.78589E+01 -4.95478E+01 -4.98462E+01 -5.17649E+01 -5.19078E+01 -5.29059E+01 -5.27311E+01
  -5.20474E+01 -5.09154E+01 -4.85768E+01 -4.76968E+01 -4.70448E+01 -4.56590E+01 -4.17067E+01 -4.07497E+01 -4.00196E+01 -4.01803E+01
  -4.06185E+01 -4.15029E+01 -4.33650E+01 -4.37886E+01 -4.35590E+01 -4.36414E+01 -4.32435E+01 -4.34832E+01 -4.34940E+01 -4.41927E+01
  -4.52469E+01 -4.62646E+01 -4.79837E+01 -4.86847E+01 -4.88128E+01 -4.91791E+01 -4.93378E+01 -4.96067E+01 -4.98479E+01 -5.00840E+01
  -5.03169E+01 -5.05328E+01 -5.05444E+01 -5.07426E+01 -5.07947E+01 -5.10599E+01 -5.11728E+01 -5.14497E+01 -5.15588E+01 -5.16794E+01
  -5.17675E+01 -5.19710E+01 -5.20317E+01 -5.22284E+01 -5.23174E+01 -5.23354E+01 -5.25470E+01 -5.24934E+01 -5.28162E+01 -5.29261E+01
  -5.33157E+01 -5.34559E+01 -5.37169E+01 -5.37089E+01 -5.39386E+01 -5.41078E+01 -5.45816E+01 -5.48291E+01 -5.51289E+01 -5.54242E+01
  -5.56532E+01 -5.61123E+01 -5.61802E+01 -5.64455E+01 -5.62497E+01 -5.64241E+01 -5.62858E+01 -5.64689E+01 -5.61156E+01 -5.62214E+01
  -5.59930E+01 -5.59226E+01 -5.56750E+01 -5.55716E+01 -5.57481E+01 -5.56756E+01 -5.55526E+01 -5.53768E+01 -5.53927E+01 -5.50149E+01
  -5.48361E+01 -5.46220E+01 -5.48364E+01 -5.45443E+01 -5.45239E+01 -5.44060E+01 -5.45127E+01 -5.43143E+01 -5.40759E+01 -5.37274E+01
  -5.36425E+01 -5.33143E+01 -5.30497E+01 -5.30697E+01 -5.28009E+01 -5.27835E+01 -5.21517E+01 -5.22502E+01 -5.20949E+01 -5.23152E+01
  -5.23362E+01 -5.25399E+01 -5.29429E+01 -5.31309E+01 -5.28004E+01 -5.23808E+01 -5.16761E+01 -5.10187E+01 -5.03215E+01 -4.95546E+01
  -4.93281E+01 -4.90862E+01 -4.92164E+01 -4.87375E+01 -4.85214E+01 -4.78734E+01 -4.74397E+01 -4.64861E+01 -4.57905E+01 -4.51878E+01
  -4.49308E+01 -4.47889E+01 -4.48108E+01 -4.47229E+01 -4.46166E+01 -4.48924E+01 -4.79021E+01 -4.93778E+01 -4.99691E+01 -5.09696E+01
  -5.09360E+01 -5.16783E+01 -4.95386E+01 -4.94245E+01 -4.66027E+01 -4.52754E+01 -4.00234E+01 -3.82519E+01 -3.65278E+01 -3.49123E+01
  -2.89843E+01 -2.61211E+01 -2.56363E+01 -2.43064E+01 -2.52288E+01 -2.48501E+01 -2.75056E+01 -2.74832E+01 -2.70940E+01 -2.60671E+01
  -2.54758E+01 -2.43227E+01 -2.44395E+01 -2.35962E+01 -2.50261E+01 -2.50612E+01 -2.74684E+01 -2.77485E+01 -2.73190E+01 -2.66691E+01
  -2.60337E+01 -2.52813E+01 -2.44976E+01 -2.36655E+01 -2.27922E+01 -2.18815E+01 -2.09275E+01 -1.99469E+01 -1.89272E+01 -1.78882E+01
  -1.68024E+01 -1.56676E+01 -1.44584E+01 -1.31953E+01 -1.18532E+01 -1.04499E+01 -8.95647E+00 -7.39080E+00 -5.74128E+00 -4.01307E+00
  -2.18962E+00 -2.86253E-01  1.70335E+00  3.76200E+00  5.89082E+00  8.06856E+00  1.02891E+01  1.25348E+01  1.47989E+01  1.70697E+01
   1.93445E+01  2.16156E+01  2.38860E+01  2.61548E+01  2.84295E+01  3.07167E+01  3.30244E+01  3.53628E+01  3.77410E+01  4.01661E+01
   4.26435E+01  4.51751E+01  4.77589E+01  5.03898E+01  5.30595E+01  5.57578E+01  5.84729E+01  6.11931E+01  6.39068E+01  6.66040E+01
   6.92771E+01  7.19208E+01  7.45330E+01  7.71138E+01  7.96657E+01  8.21928E+01  8.47003E+01  8.71936E+01  8.96782E+01  9.21590E+01
   9.46400E+01  9.71247E+01  9.96161E+01  1.02116E+02  1.04626E+02  1.07144E+02  1.09661E+02  1.12161E+02  1.14619E+02  1.16993E+02
   1.19231E+02  1.21270E+02  1.23044E+02  1.24489E+02  1.25557E+02  1.26218E+02  1.26469E+02  1.26332E+02  1.25848E+02  1.25072E+02
   1.24066E+02  1.22887E+02  1.21583E+02  1.20195E+02  1.18749E+02  1.17267E+02  1.15763E+02  1.14251E+02  1.12743E+02  1.11255E+02
   1.09801E+02  1.08397E+02  1.07058E+02  1.05796E+02  1.04620E+02  1.03536E+02  1.02543E+02  1.01635E+02  1.00801E+02  1.00025E+02
   9.92880E+01  9.85666E+01  9.78379E+01  9.70788E+01  9.62685E+01  9.53894E+01  9.44288E+01  9.33798E+01  9.22413E+01  9.10184E+01
   8.97215E+01  8.83657E+01  8.69696E+01  8.55537E+01  8.41393E+01  8.27464E+01  8.13935E+01  8.00955E+01  7.88641E+01  7.77069E+01
   7.66273E+01  7.56250E+01  7.46965E+01  7.38355E+01  7.30336E+01  7.22815E+01  7.15687E+01  7.08852E+01  7.02210E+01  6.95672E+01
   6.89159E+01  6.82607E+01  6.75962E+01  6.69187E+01  6.62257E+01  6.55160E+01  6.47894E+01  6.40468E+01  6.32896E+01  6.25200E+01
   6.17404E+01  6.09539E+01  6.01635E+01  5.93723E+01  5.85832E+01  5.77993E+01  5.70233E+01  5.62577E+01  5.55048E+01  5.47665E+01
   5.40444E+01  5.33398E+01  5.26538E+01  5.19872E+01  5.13405E+01  5.07138E+01  5.01071E+01  4.95204E+01  4.89533E+01  4.84054E+01
   4.78761E+01  4.73645E+01  4.68700E+01  4.63918E+01  4.59291E+01  4.54808E+01  4.50462E+01  4.46243E+01  4.42141E+01  4.38149E+01
   4.34258E+01  4.30458E+01  4.26742E+01  4.23102E+01  4.19532E+01  4.16028E+01  4.12585E+01  4.09199E+01  4.05865E+01  4.02579E+01
   3.99339E+01  3.96141E+01  3.92981E+01  3.89858E+01  3.86767E+01  3.83708E+01  3.80679E+01  3.77677E+01  3.74700E+01  3.71748E+01
   3.68818E+01  3.65910E+01  3.63023E+01  3.60157E+01  3.57309E+01  3.54480E+01  3.51669E+01  3.48876E+01  3.46101E+01  3.43344E+01
   3.40604E+01  3.37882E+01  3.35178E+01  3.32491E+01  3.29824E+01  3.27175E+01  3.24545E+01  3.21934E+01  3.19344E+01  3.16775E+01
   3.14228E+01  3.11703E+01  3.09200E+01  3.06722E+01  3.04268E+01  3.01840E+01  2.99438E+01  2.97063E+01
 NY background values follow
    -3.311E+01   -3.309E+01   -3.307E+01   -3.306E+01   -3.304E+01   -3.301E+01   -3.299E+01   -3.297E+01   -3.295E+01   -3.293E+01
    -3.291E+01   -3.289E+01   -3.287E+01   -3.285E+01   -3.284E+01   -3.282E+01   -3.281E+01   -3.280E+01   -3.279E+01   -3.279E+01
    -3.278E+01   -3.278E+01   -3.279E+01   -3.279E+01   -3.280E+01   -3.282E+01   -3.284E+01   -3.286E+01   -3.288E+01   -3.292E+01
    -3.295E+01   -3.299E+01   -3.304E+01   -3.309E+01   -3.315E+01   -3.322E+01   -3.329E+01   -3.337E+01   -3.345E+01   -3.354E+01
    -3.364E+01   -3.375E+01   -3.386E+01   -3.398E+01   -3.411E+01   -3.425E+01   -3.440E+01   -3.455E+01   -3.471E+01   -3.488E+01
    -3.506E+01   -3.525E+01   -3.544E+01   -3.563E+01   -3.584E+01   -3.605E+01   -3.626E+01   -3.648E+01   -3.671E+01   -3.694E+01
    -3.717E+01   -3.741E+01   -3.765E+01   -3.790E+01   -3.814E+01   -3.839E+01   -3.865E+01   -3.890E+01   -3.916E+01   -3.942E+01
    -3.967E+01   -3.993E+01   -4.019E+01   -4.045E+01   -4.071E+01   -4.097E+01   -4.123E+01   -4.149E+01   -4.174E+01   -4.200E+01
    -4.225E+01   -4.250E+01   -4.275E+01   -4.299E+01   -4.323E+01   -4.347E+01   -4.370E+01   -4.393E+01   -4.415E+01   -4.437E+01
    -4.459E+01   -4.479E+01   -4.500E+01   -4.519E+01   -4.539E+01   -4.557E+01   -4.575E+01   -4.593E+01   -4.610E+01   -4.627E+01
    -4.644E+01   -4.660E+01   -4.676E+01   -4.691E+01   -4.706E+01   -4.720E+01   -4.735E+01   -4.749E+01   -4.763E+01   -4.776E+01
    -4.790E+01   -4.803E+01   -4.815E+01   -4.828E+01   -4.841E+01   -4.853E+01   -4.865E+01   -4.878E+01   -4.890E+01   -4.902E+01
    -4.914E+01   -4.925E+01   -4.937E+01   -4.949E+01   -4.961E+01   -4.973E+01   -4.985E+01   -4.997E+01   -5.009E+01   -5.021E+01
    -5.034E+01   -5.046E+01   -5.059E+01   -5.072E+01   -5.085E+01   -5.098E+01   -5.112E+01   -5.125E+01   -5.139E+01   -5.153E+01
    -5.168E+01   -5.182E+01   -5.197E+01   -5.212E+01   -5.227E+01   -5.242E+01   -5.257E+01   -5.272E+01   -5.288E+01   -5.303E+01
    -5.319E+01   -5.334E+01   -5.350E+01   -5.366E+01   -5.381E+01   -5.397E+01   -5.412E+01   -5.428E+01   -5.443E+01   -5.459E+01
    -5.474E+01   -5.490E+01   -5.505E+01   -5.520E+01   -5.535E+01   -5.549E+01   -5.564E+01   -5.579E+01   -5.593E+01   -5.607E+01
    -5.621E+01   -5.634E+01   -5.648E+01   -5.661E+01   -5.674E+01   -5.686E+01   -5.698E+01   -5.710E+01   -5.722E+01   -5.733E+01
    -5.744E+01   -5.755E+01   -5.765E+01   -5.775E+01   -5.785E+01   -5.794E+01   -5.802E+01   -5.811E+01   -5.819E+01   -5.826E+01
    -5.833E+01   -5.840E+01   -5.846E+01   -5.852E+01   -5.857E+01   -5.863E+01   -5.867E+01   -5.871E+01   -5.875E+01   -5.878E+01
    -5.881E+01   -5.884E+01   -5.886E+01   -5.887E+01   -5.888E+01   -5.889E+01   -5.889E+01   -5.889E+01   -5.888E+01   -5.886E+01
    -5.885E+01   -5.882E+01   -5.880E+01   -5.876E+01   -5.873E+01   -5.868E+01   -5.864E+01   -5.858E+01   -5.853E+01   -5.846E+01
    -5.840E+01   -5.832E+01   -5.824E+01   -5.816E+01   -5.807E+01   -5.798E+01   -5.788E+01   -5.777E+01   -5.766E+01   -5.754E+01
    -5.742E+01   -5.729E+01   -5.716E+01   -5.702E+01   -5.687E+01   -5.671E+01   -5.655E+01   -5.638E+01   -5.621E+01   -5.602E+01
    -5.583E+01   -5.563E+01   -5.542E+01   -5.521E+01   -5.498E+01   -5.475E+01   -5.451E+01   -5.426E+01   -5.400E+01   -5.374E+01
    -5.346E+01   -5.317E+01   -5.288E+01   -5.257E+01   -5.226E+01   -5.193E+01   -5.160E+01   -5.125E+01   -5.089E+01   -5.052E+01
    -5.015E+01   -4.976E+01   -4.936E+01   -4.894E+01   -4.852E+01   -4.808E+01   -4.764E+01   -4.718E+01   -4.670E+01   -4.622E+01
    -4.572E+01   -4.521E+01   -4.469E+01   -4.416E+01   -4.361E+01   -4.305E+01   -4.248E+01   -4.190E+01   -4.131E+01   -4.070E+01
    -4.009E+01   -3.947E+01   -3.884E+01   -3.820E+01   -3.756E+01   -3.690E+01   -3.624E+01   -3.558E+01   -3.490E+01   -3.422E+01
    -3.354E+01   -3.285E+01   -3.215E+01   -3.145E+01   -3.075E+01   -3.004E+01   -2.933E+01   -2.862E+01   -2.790E+01   -2.719E+01
    -2.647E+01   -2.575E+01   -2.503E+01   -2.431E+01   -2.359E+01   -2.287E+01   -2.216E+01   -2.144E+01   -2.072E+01   -2.001E+01
    -1.930E+01   -1.860E+01   -1.789E+01   -1.719E+01   -1.650E+01   -1.581E+01   -1.513E+01   -1.445E+01   -1.377E+01   -1.311E+01
    -1.244E+01   -1.179E+01   -1.114E+01   -1.049E+01   -9.855E+00   -9.221E+00   -8.593E+00   -7.971E+00   -7.355E+00   -6.744E+00
    -6.138E+00   -5.539E+00   -4.945E+00   -4.356E+00   -3.773E+00   -3.196E+00   -2.624E+00   -2.058E+00   -1.497E+00   -9.417E-01
    -3.920E-01    1.522E-01    6.908E-01    1.224E+00    1.752E+00    2.274E+00    2.791E+00    3.302E+00    3.808E+00    4.308E+00
     4.803E+00    5.293E+00    5.777E+00    6.256E+00    6.729E+00    7.197E+00    7.659E+00    8.117E+00    8.568E+00    9.015E+00
     9.456E+00    9.892E+00    1.032E+01    1.075E+01    1.117E+01    1.158E+01    1.199E+01    1.240E+01    1.279E+01    1.319E+01
     1.358E+01    1.396E+01    1.434E+01    1.471E+01    1.508E+01    1.545E+01    1.581E+01    1.616E+01    1.651E+01    1.686E+01
     1.720E+01    1.753E+01    1.787E+01    1.819E+01    1.851E+01    1.883E+01    1.915E+01    1.945E+01    1.976E+01    2.006E+01
     2.035E+01    2.065E+01    2.093E+01    2.122E+01    2.149E+01    2.177E+01    2.204E+01    2.231E+01    2.257E+01    2.283E+01
     2.308E+01    2.333E+01    2.358E+01    2.382E+01    2.406E+01    2.429E+01    2.453E+01    2.475E+01    2.498E+01    2.520E+01
     2.541E+01    2.563E+01    2.583E+01    2.604E+01    2.624E+01    2.644E+01    2.663E+01    2.681E+01    2.700E+01    2.718E+01
     2.735E+01    2.752E+01    2.768E+01    2.784E+01    2.800E+01    2.815E+01    2.829E+01    2.843E+01    2.856E+01    2.869E+01
     2.882E+01    2.893E+01    2.905E+01    2.915E+01    2.925E+01    2.935E+01    2.944E+01    2.952E+01    2.960E+01    2.967E+01
     2.974E+01    2.980E+01    2.985E+01    2.990E+01    2.994E+01    2.997E+01    3.000E+01    3.002E+01    3.004E+01    3.004E+01
     3.004E+01    3.004E+01    3.002E+01    3.000E+01    2.998E+01    2.994E+01    2.990E+01    2.986E+01    2.980E+01    2.974E+01
     2.968E+01    2.961E+01    2.953E+01    2.945E+01    2.937E+01    2.927E+01    2.918E+01    2.908E+01    2.897E+01    2.886E+01
     2.875E+01    2.863E+01    2.851E+01    2.839E+01    2.826E+01    2.813E+01    2.800E+01    2.786E+01    2.772E+01    2.758E+01
     2.744E+01    2.729E+01    2.714E+01    2.699E+01    2.684E+01    2.669E+01    2.653E+01    2.638E+01    2.622E+01    2.606E+01
     2.591E+01    2.575E+01    2.559E+01    2.543E+01    2.527E+01    2.511E+01    2.496E+01    2.480E+01
 Cr       Conc. = 6.25E+01
