 LCModel (Version 6.3-1L) Copyright: S.W. Provencher.          Ref.: Magn. Reson. Med. 30:672-679 (1993).                
 Slice#1 Row#8 Col#14  PD_24_press_1_raw_act
 36 lines in following concentration table = NCONC+1
    Conc.  %SD /Cr+PCr  Metabolite                                         
    0.663 999% 1.2E-02 Ala                                                 
    8.889  28%   0.158 Asp                                                 
    0.000 999%   0.000 Cr                                                  
   56.115  30%   1.000 PCr                                                 
    5.326  28% 9.5E-02 GABA                                                
    5.342  28% 9.5E-02 Glc                                                 
    0.000 999%   0.000 Gln                                                 
   64.746  75%   1.154 Glu                                                 
   17.577  35%   0.313 GPC                                                 
    0.000 999%   0.000 PCh                                                 
   15.001 116%   0.267 GSH                                                 
   23.373 237%   0.417 Ins                                                 
   11.181 214%   0.199 Lac                                                 
   69.156  28%   1.232 NAA                                                 
    0.000 999%   0.000 NAAG                                                
    1.783  28% 3.2E-02 Scyllo                                              
    8.927  28%   0.159 Tau                                                 
    5.487  47% 9.8E-02 -CrCH2                                              
   17.577  35%   0.313 GPC+PCh                                             
   69.156  28%   1.232 NAA+NAAG                                            
   56.115  30%   1.000 Cr+PCr                                              
   64.746  75%   1.154 Glu+Gln                                             
 9.33E+03  21% 166.218 Lip13a                                              
    0.000 999%   0.000 Lip13b                                              
 5.25E+03  15%  93.602 Lip09                                               
 4.84E+03  16%  86.234 MM09                                                
  716.184  46%  12.763 Lip20                                               
   27.871 921%   0.497 MM20                                                
 4.29E+03  25%  76.436 MM12                                                
 2.86E+03  27%  50.981 MM14                                                
 2.72E+03  22%  48.417 MM17                                                
 9.33E+03  21% 166.218 Lip13a+Lip13b                                       
 1.65E+04   9% 293.636 MM14+Lip13a+Lip13b+MM12                             
 1.01E+04   8% 179.835 MM09+Lip09                                          
  744.056  34%  13.260 MM20+Lip20                                          
   6 lines in following misc. output table
  FWHM = 0.046 ppm    S/N =  17                                            
  Data shift = 0.008 ppm                                                   
  Ph:-104 deg     -19.7 deg/ppm                                            
  alphaB,S = 9.6E-01,   1.2E+01                                            
   14 spline knots.   Ns = 5(1)                                            
  ( 6) 2 infls.   ( 4) 2 extrs.                                            
  498 points on ppm-axis = NY
      4.000000     3.992357     3.984714     3.977070     3.969427     3.961784     3.954141     3.946497     3.938854     3.931211
      3.923568     3.915925     3.908281     3.900638     3.892995     3.885352     3.877708     3.870065     3.862422     3.854779
      3.847136     3.839492     3.831849     3.824206     3.816563     3.808919     3.801276     3.793633     3.785990     3.778347
      3.770703     3.763060     3.755417     3.747774     3.740130     3.732487     3.724844     3.717201     3.709558     3.701914
      3.694271     3.686628     3.678985     3.671341     3.663698     3.656055     3.648412     3.640769     3.633125     3.625482
      3.617839     3.610196     3.602552     3.594909     3.587266     3.579623     3.571980     3.564336     3.556693     3.549050
      3.541407     3.533763     3.526120     3.518477     3.510834     3.503191     3.495547     3.487904     3.480261     3.472618
      3.464974     3.457331     3.449688     3.442045     3.434402     3.426758     3.419115     3.411472     3.403829     3.396185
      3.388542     3.380899     3.373256     3.365613     3.357969     3.350326     3.342683     3.335040     3.327396     3.319753
      3.312110     3.304467     3.296824     3.289180     3.281537     3.273894     3.266251     3.258607     3.250964     3.243321
      3.235678     3.228034     3.220391     3.212748     3.205105     3.197462     3.189818     3.182175     3.174532     3.166889
      3.159245     3.151602     3.143959     3.136316     3.128673     3.121029     3.113386     3.105743     3.098100     3.090456
      3.082813     3.075170     3.067527     3.059884     3.052240     3.044597     3.036954     3.029311     3.021667     3.014024
      3.006381     2.998738     2.991095     2.983451     2.975808     2.968165     2.960522     2.952878     2.945235     2.937592
      2.929949     2.922306     2.914662     2.907019     2.899376     2.891733     2.884089     2.876446     2.868803     2.861160
      2.853517     2.845873     2.838230     2.830587     2.822944     2.815300     2.807657     2.800014     2.792371     2.784728
      2.777084     2.769441     2.761798     2.754155     2.746511     2.738868     2.731225     2.723582     2.715939     2.708295
      2.700652     2.693009     2.685366     2.677722     2.670079     2.662436     2.654793     2.647150     2.639506     2.631863
      2.624220     2.616577     2.608933     2.601290     2.593647     2.586004     2.578361     2.570717     2.563074     2.555431
      2.547788     2.540144     2.532501     2.524858     2.517215     2.509572     2.501928     2.494285     2.486642     2.478999
      2.471355     2.463712     2.456069     2.448426     2.440783     2.433139     2.425496     2.417853     2.410210     2.402566
      2.394923     2.387280     2.379637     2.371994     2.364350     2.356707     2.349064     2.341421     2.333777     2.326134
      2.318491     2.310848     2.303205     2.295561     2.287918     2.280275     2.272632     2.264988     2.257345     2.249702
      2.242059     2.234416     2.226772     2.219129     2.211486     2.203843     2.196199     2.188556     2.180913     2.173270
      2.165627     2.157983     2.150340     2.142697     2.135054     2.127410     2.119767     2.112124     2.104481     2.096838
      2.089194     2.081551     2.073908     2.066265     2.058621     2.050978     2.043335     2.035692     2.028049     2.020405
      2.012762     2.005119     1.997476     1.989833     1.982190     1.974546     1.966903     1.959260     1.951617     1.943974
      1.936331     1.928688     1.921045     1.913402     1.905759     1.898115     1.890472     1.882829     1.875186     1.867543
      1.859900     1.852257     1.844614     1.836971     1.829327     1.821684     1.814041     1.806398     1.798755     1.791112
      1.783469     1.775826     1.768183     1.760540     1.752896     1.745253     1.737610     1.729967     1.722324     1.714681
      1.707038     1.699395     1.691752     1.684108     1.676465     1.668822     1.661179     1.653536     1.645893     1.638250
      1.630607     1.622964     1.615321     1.607677     1.600034     1.592391     1.584748     1.577105     1.569462     1.561819
      1.554176     1.546533     1.538890     1.531246     1.523603     1.515960     1.508317     1.500674     1.493031     1.485388
      1.477745     1.470102     1.462458     1.454815     1.447172     1.439529     1.431886     1.424243     1.416600     1.408957
      1.401314     1.393671     1.386027     1.378384     1.370741     1.363098     1.355455     1.347812     1.340169     1.332526
      1.324883     1.317240     1.309596     1.301953     1.294310     1.286667     1.279024     1.271381     1.263738     1.256095
      1.248452     1.240808     1.233165     1.225522     1.217879     1.210236     1.202593     1.194950     1.187307     1.179664
      1.172021     1.164377     1.156734     1.149091     1.141448     1.133805     1.126162     1.118519     1.110876     1.103233
      1.095590     1.087946     1.080303     1.072660     1.065017     1.057374     1.049731     1.042088     1.034445     1.026802
      1.019158     1.011515     1.003872     0.996229     0.988586     0.980943     0.973300     0.965657     0.958014     0.950371
      0.942727     0.935084     0.927441     0.919798     0.912155     0.904512     0.896869     0.889226     0.881583     0.873940
      0.866296     0.858653     0.851010     0.843367     0.835724     0.828081     0.820438     0.812795     0.805152     0.797508
      0.789865     0.782222     0.774579     0.766936     0.759293     0.751650     0.744007     0.736364     0.728721     0.721077
      0.713434     0.705791     0.698148     0.690505     0.682862     0.675219     0.667576     0.659933     0.652290     0.644646
      0.637003     0.629360     0.621717     0.614074     0.606431     0.598788     0.591145     0.583502     0.575858     0.568215
      0.560572     0.552929     0.545286     0.537643     0.530000     0.522357     0.514714     0.507071     0.499427     0.491784
      0.484141     0.476498     0.468855     0.461212     0.453569     0.445925     0.438282     0.430639     0.422996     0.415353
      0.407710     0.400067     0.392424     0.384780     0.377137     0.369494     0.361851     0.354208     0.346565     0.338922
      0.331278     0.323635     0.315992     0.308349     0.300706     0.293063     0.285420     0.277777     0.270133     0.262490
      0.254847     0.247204     0.239561     0.231918     0.224275     0.216631     0.208988     0.201345
 NY phased data points follow
   3.85489E+00  3.37422E+00  4.28561E+00  4.06401E+00  3.45120E+00  4.69472E+00  2.75004E+00  3.28398E+00  4.61208E+00  5.96127E+00
   6.80907E+00  7.30925E+00  4.63828E+00  6.62655E+00  6.42507E+00  5.08687E+00  4.13575E+00  3.40050E+00  4.49688E+00  4.91327E+00
   3.82154E+00  4.25761E+00  5.96441E+00  4.52531E+00  3.09888E+00  3.76313E+00  4.85413E+00  4.46656E+00  7.03900E+00  6.35446E+00
   5.68991E+00  4.14494E+00  2.95930E+00  8.22827E+00  3.72884E+00  1.79393E+00  6.68344E+00  3.96132E+00  5.76224E+00  5.31321E+00
   4.70135E+00  6.31995E+00  5.48307E+00  6.73002E+00  3.83594E+00  2.40902E+00  6.69204E+00  5.91558E+00  5.95703E+00  5.44811E+00
   4.88942E+00  4.87857E+00  5.65621E+00  5.97469E+00  5.17003E+00  5.21834E+00  5.11391E+00  4.97708E+00  5.16708E+00  5.69614E+00
   5.95941E+00  6.93569E+00  3.69705E+00  4.24640E+00  5.16492E+00  5.38176E+00  5.36401E+00  6.81482E+00  5.60826E+00  6.10226E+00
   4.54015E+00  4.72324E+00  5.76985E+00  5.55088E+00  6.99496E+00  6.83171E+00  6.61604E+00  4.78746E+00  6.14432E+00  5.76824E+00
   5.38118E+00  6.15439E+00  5.64022E+00  5.89033E+00  5.26408E+00  5.06477E+00  6.82076E+00  4.75675E+00  7.07173E+00  5.00739E+00
   8.17752E+00  7.29062E+00  4.76827E+00  7.00964E+00  5.25644E+00  7.97436E+00  6.59891E+00  5.68304E+00  6.45856E+00  5.88245E+00
   6.58052E+00  6.84886E+00  8.51091E+00  1.02419E+01  8.81376E+00  8.72498E+00  7.01934E+00  7.79984E+00  7.08789E+00  6.47077E+00
   7.67335E+00  7.12275E+00  6.46511E+00  7.64843E+00  6.58134E+00  6.82000E+00  5.74483E+00  5.82957E+00  5.76582E+00  5.79821E+00
   6.86161E+00  6.87204E+00  6.04527E+00  4.61472E+00  6.68376E+00  6.05613E+00  8.21935E+00  1.06347E+01  1.03454E+01  8.25571E+00
   7.96066E+00  8.85101E+00  9.43835E+00  9.43121E+00  9.39559E+00  8.29774E+00  7.26152E+00  8.50734E+00  4.78747E+00  1.09544E+01
   6.91775E+00  8.53941E+00  6.78352E+00  6.04356E+00  6.92353E+00  7.79137E+00  9.05329E+00  7.03899E+00  7.91721E+00  8.55744E+00
   5.83175E+00  7.31700E+00  7.66652E+00  9.24508E+00  8.73080E+00  6.91544E+00  7.47146E+00  1.17313E+01  9.32954E+00  1.18048E+01
   8.01017E+00  9.66047E+00  7.84533E+00  1.04246E+01  1.13815E+01  7.26801E+00  7.98104E+00  1.18872E+01  1.10954E+01  9.12660E+00
   7.29769E+00  9.59383E+00  9.17580E+00  7.36656E+00  7.54500E+00  8.57834E+00  9.62350E+00  7.98936E+00  8.41581E+00  9.34441E+00
   8.59023E+00  8.13179E+00  8.10841E+00  1.04256E+01  8.08587E+00  7.22116E+00  1.02281E+01  9.15714E+00  1.03287E+01  8.46618E+00
   1.09213E+01  1.07567E+01  9.92402E+00  1.09881E+01  9.43110E+00  1.04634E+01  9.89543E+00  9.11146E+00  1.18227E+01  1.08671E+01
   9.00501E+00  1.39892E+01  9.65420E+00  1.23567E+01  1.01207E+01  1.07690E+01  9.13851E+00  1.03486E+01  1.33634E+01  1.15228E+01
   7.94504E+00  1.04831E+01  1.08459E+01  1.16780E+01  9.75393E+00  1.14132E+01  1.10241E+01  1.08574E+01  1.15833E+01  1.37982E+01
   1.09005E+01  1.08421E+01  1.17618E+01  1.08428E+01  1.21143E+01  9.86615E+00  1.13490E+01  1.19092E+01  1.19802E+01  1.15841E+01
   1.36722E+01  1.44235E+01  1.28812E+01  9.88849E+00  1.27333E+01  1.25615E+01  1.28162E+01  1.47423E+01  1.49229E+01  1.29645E+01
   1.28751E+01  1.32786E+01  1.27486E+01  1.30149E+01  1.24505E+01  1.34333E+01  1.19812E+01  1.44762E+01  1.36517E+01  1.54011E+01
   1.65776E+01  1.26610E+01  1.33790E+01  1.46084E+01  1.28429E+01  1.46371E+01  1.48737E+01  1.35133E+01  1.35024E+01  1.46570E+01
   1.55245E+01  1.86544E+01  1.84075E+01  1.89340E+01  1.79710E+01  1.76074E+01  1.66906E+01  1.63827E+01  1.74370E+01  1.72764E+01
   1.66735E+01  1.84533E+01  1.64780E+01  1.73194E+01  1.92653E+01  1.68593E+01  1.70213E+01  1.77410E+01  1.92052E+01  1.87143E+01
   1.76889E+01  1.62514E+01  1.87434E+01  1.97305E+01  2.04387E+01  1.84312E+01  1.93876E+01  2.04666E+01  1.99496E+01  2.01209E+01
   2.10591E+01  2.11286E+01  1.94760E+01  2.16822E+01  2.14239E+01  2.16375E+01  2.25437E+01  2.31803E+01  2.25643E+01  2.41856E+01
   2.00576E+01  2.25614E+01  2.25853E+01  2.67029E+01  2.02746E+01  2.35997E+01  2.51828E+01  2.50905E+01  2.52369E+01  2.31347E+01
   2.18331E+01  2.43336E+01  2.56322E+01  2.30134E+01  2.44364E+01  2.51403E+01  2.57591E+01  2.67780E+01  2.71534E+01  2.68270E+01
   2.81843E+01  2.99229E+01  2.77471E+01  3.15456E+01  3.11002E+01  3.17186E+01  3.02430E+01  2.85265E+01  3.40364E+01  3.32475E+01
   3.53367E+01  3.29052E+01  3.55259E+01  3.69991E+01  3.41307E+01  3.51639E+01  3.88965E+01  3.92942E+01  3.86869E+01  3.77075E+01
   3.90303E+01  4.00228E+01  3.98758E+01  4.02308E+01  3.76307E+01  4.20339E+01  4.05547E+01  4.07765E+01  4.21887E+01  4.38085E+01
   4.14979E+01  4.42827E+01  4.33007E+01  4.40318E+01  4.59585E+01  4.79025E+01  4.82459E+01  4.74131E+01  5.00739E+01  4.94505E+01
   5.14611E+01  4.86263E+01  5.28017E+01  5.35432E+01  5.41712E+01  5.34101E+01  5.37336E+01  5.30639E+01  5.38451E+01  5.19715E+01
   5.30403E+01  5.25333E+01  5.38769E+01  5.28027E+01  5.22573E+01  5.28898E+01  5.14581E+01  5.36251E+01  5.12689E+01  5.20376E+01
   5.16582E+01  5.14675E+01  5.11630E+01  5.36719E+01  5.14273E+01  4.90935E+01  5.02746E+01  5.33914E+01  5.14624E+01  5.18680E+01
   4.86995E+01  5.05465E+01  4.88142E+01  4.91509E+01  4.73842E+01  4.67247E+01  4.88156E+01  4.59258E+01  4.43091E+01  4.54552E+01
   4.29251E+01  4.21067E+01  4.11547E+01  4.24934E+01  4.07071E+01  3.83305E+01  3.92483E+01  3.62132E+01  3.59856E+01  3.53495E+01
   3.38760E+01  3.41639E+01  3.07934E+01  2.95129E+01  2.96085E+01  2.72315E+01  3.00089E+01  2.86349E+01  2.51363E+01  2.67046E+01
   2.34301E+01  2.06163E+01  2.43195E+01  2.11260E+01  2.02062E+01  1.97803E+01  2.05880E+01  1.82090E+01  1.45520E+01  1.64304E+01
   1.42006E+01  1.56178E+01  1.23985E+01  1.26471E+01  9.97733E+00  9.27096E+00  1.17709E+01  9.31242E+00  8.04515E+00  8.86461E+00
   8.93416E+00  5.90037E+00  7.00556E+00  4.18391E+00  3.68403E+00  5.20277E+00  3.13717E+00  1.29137E+00  4.22815E+00  1.28582E+00
   2.40419E+00 -1.10009E+00  2.15287E-01  4.45257E-01  2.24981E-01 -2.79548E+00 -3.25698E+00 -4.98895E+00 -4.54099E+00 -3.25988E+00
  -4.59695E+00 -5.32135E+00 -6.20309E+00 -7.14739E+00 -6.12733E+00 -6.40717E+00 -7.34600E+00 -6.58652E+00 -1.06786E+01 -7.75128E+00
  -9.74562E+00 -8.38575E+00 -8.81910E+00 -9.77867E+00 -9.57265E+00 -1.14356E+01 -1.01018E+01 -9.71117E+00 -1.21857E+01 -1.15022E+01
  -1.12762E+01 -1.25653E+01 -1.30003E+01 -1.26610E+01 -1.40098E+01 -1.19156E+01 -1.38666E+01 -1.39620E+01 -1.50776E+01 -1.53632E+01
  -1.39653E+01 -1.43697E+01 -1.34561E+01 -1.37889E+01 -1.36661E+01 -1.39535E+01 -1.42720E+01 -1.37937E+01
 NY points of the fit to the data follow
   4.01437E+00  4.01213E+00  4.01332E+00  4.01367E+00  3.94434E+00  3.83338E+00  3.87756E+00  4.24554E+00  4.90985E+00  5.60774E+00
   6.02444E+00  6.06588E+00  5.87164E+00  5.57965E+00  5.21364E+00  4.82471E+00  4.61356E+00  4.56661E+00  4.54105E+00  4.52985E+00
   4.53490E+00  4.54496E+00  4.55118E+00  4.57039E+00  4.60309E+00  4.60981E+00  4.59231E+00  4.59472E+00  4.67016E+00  4.82960E+00
   5.00989E+00  5.14520E+00  5.24153E+00  5.32712E+00  5.37099E+00  5.29892E+00  5.15363E+00  5.04172E+00  4.94632E+00  4.87200E+00
   4.85618E+00  4.89887E+00  4.96309E+00  5.00771E+00  5.04824E+00  5.11380E+00  5.20921E+00  5.31640E+00  5.40138E+00  5.44816E+00
   5.45750E+00  5.42360E+00  5.36360E+00  5.30800E+00  5.26971E+00  5.25109E+00  5.24971E+00  5.26558E+00  5.30138E+00  5.35763E+00
   5.41853E+00  5.46508E+00  5.48829E+00  5.49297E+00  5.48686E+00  5.47756E+00  5.47774E+00  5.49017E+00  5.51049E+00  5.53809E+00
   5.56734E+00  5.59537E+00  5.62602E+00  5.66586E+00  5.71880E+00  5.77648E+00  5.82417E+00  5.84166E+00  5.83058E+00  5.81379E+00
   5.80106E+00  5.78864E+00  5.78977E+00  5.82522E+00  5.89613E+00  5.98625E+00  6.06079E+00  6.08670E+00  6.06930E+00  6.04505E+00
   6.03526E+00  6.03240E+00  6.02902E+00  6.03867E+00  6.05772E+00  6.07637E+00  6.08520E+00  6.00607E+00  5.78275E+00  5.65932E+00
   5.96933E+00  6.82466E+00  7.93966E+00  8.78637E+00  9.04652E+00  8.84744E+00  8.44985E+00  7.92094E+00  7.26884E+00  6.75330E+00
   6.60362E+00  6.58437E+00  6.59195E+00  6.60910E+00  6.63070E+00  6.66000E+00  6.69342E+00  6.72572E+00  6.75384E+00  6.77633E+00
   6.78931E+00  6.75351E+00  6.55462E+00  6.31853E+00  6.41673E+00  7.11812E+00  8.30084E+00  9.45113E+00  1.00608E+01  1.00683E+01
   9.75543E+00  9.31151E+00  8.72646E+00  8.10704E+00  7.79690E+00  7.70274E+00  7.63929E+00  7.60222E+00  7.61171E+00  7.67652E+00
   7.79367E+00  7.93570E+00  8.06462E+00  8.17286E+00  8.26201E+00  8.33152E+00  8.38952E+00  8.44072E+00  8.49344E+00  8.55075E+00
   8.60589E+00  8.65691E+00  8.70441E+00  8.75203E+00  8.80081E+00  8.85267E+00  8.91257E+00  8.97463E+00  9.02200E+00  9.03993E+00
   9.02547E+00  8.99890E+00  8.99271E+00  9.02343E+00  9.07875E+00  9.13409E+00  9.17402E+00  9.19653E+00  9.20023E+00  9.18937E+00
   9.17386E+00  9.16337E+00  9.16888E+00  9.17073E+00  9.14891E+00  9.11162E+00  9.08730E+00  9.09955E+00  9.13800E+00  9.17021E+00
   9.18151E+00  9.18946E+00  9.21831E+00  9.25674E+00  9.27058E+00  9.26044E+00  9.24717E+00  9.26505E+00  9.33328E+00  9.44478E+00
   9.57592E+00  9.69665E+00  9.78982E+00  9.85444E+00  9.88453E+00  9.88546E+00  9.87885E+00  9.87914E+00  9.89978E+00  9.93902E+00
   9.98623E+00  1.00449E+01  1.01323E+01  1.02576E+01  1.03969E+01  1.05159E+01  1.06064E+01  1.06678E+01  1.06991E+01  1.06904E+01
   1.06398E+01  1.05679E+01  1.05261E+01  1.06019E+01  1.08388E+01  1.11937E+01  1.15580E+01  1.18136E+01  1.19339E+01  1.19188E+01
   1.17436E+01  1.14432E+01  1.11523E+01  1.10533E+01  1.11860E+01  1.14524E+01  1.17693E+01  1.20922E+01  1.23761E+01  1.25476E+01
   1.25794E+01  1.25459E+01  1.25339E+01  1.25658E+01  1.26509E+01  1.27907E+01  1.29688E+01  1.31387E+01  1.32444E+01  1.32674E+01
   1.32324E+01  1.31722E+01  1.31299E+01  1.31502E+01  1.32668E+01  1.34684E+01  1.37048E+01  1.39279E+01  1.41037E+01  1.42165E+01
   1.42539E+01  1.42560E+01  1.42838E+01  1.43614E+01  1.44493E+01  1.44195E+01  1.41797E+01  1.40379E+01  1.44479E+01  1.55862E+01
   1.71016E+01  1.83002E+01  1.87402E+01  1.85623E+01  1.80949E+01  1.74271E+01  1.65772E+01  1.59017E+01  1.57176E+01  1.57155E+01
   1.57569E+01  1.58372E+01  1.59591E+01  1.61167E+01  1.63132E+01  1.65402E+01  1.67869E+01  1.70457E+01  1.73123E+01  1.75822E+01
   1.78576E+01  1.81459E+01  1.84503E+01  1.87715E+01  1.91081E+01  1.94561E+01  1.98104E+01  2.01650E+01  2.05130E+01  2.08510E+01
   2.11753E+01  2.14814E+01  2.17664E+01  2.20285E+01  2.22657E+01  2.24763E+01  2.26596E+01  2.28160E+01  2.29461E+01  2.30513E+01
   2.31346E+01  2.31991E+01  2.32492E+01  2.32899E+01  2.33266E+01  2.33651E+01  2.34115E+01  2.34724E+01  2.35538E+01  2.36620E+01
   2.38026E+01  2.39808E+01  2.42009E+01  2.44663E+01  2.47797E+01  2.51426E+01  2.55551E+01  2.60164E+01  2.65244E+01  2.70757E+01
   2.76659E+01  2.82894E+01  2.89397E+01  2.96106E+01  3.02963E+01  3.09888E+01  3.16781E+01  3.23537E+01  3.30075E+01  3.36350E+01
   3.42331E+01  3.47981E+01  3.53284E+01  3.58263E+01  3.62962E+01  3.67389E+01  3.71537E+01  3.75428E+01  3.79114E+01  3.82666E+01
   3.86149E+01  3.89613E+01  3.93113E+01  3.96903E+01  4.01331E+01  4.06467E+01  4.11994E+01  4.17412E+01  4.22477E+01  4.27423E+01
   4.32515E+01  4.37855E+01  4.43641E+01  4.50360E+01  4.58468E+01  4.67533E+01  4.76648E+01  4.85346E+01  4.93532E+01  5.01188E+01
   5.08136E+01  5.14232E+01  5.19742E+01  5.24714E+01  5.28955E+01  5.32350E+01  5.34842E+01  5.36408E+01  5.37061E+01  5.36848E+01
   5.35848E+01  5.34166E+01  5.31933E+01  5.29296E+01  5.26414E+01  5.23444E+01  5.20541E+01  5.17839E+01  5.15453E+01  5.13465E+01
   5.11921E+01  5.10831E+01  5.10164E+01  5.09848E+01  5.09781E+01  5.09828E+01  5.09835E+01  5.09633E+01  5.09052E+01  5.07925E+01
   5.06105E+01  5.03463E+01  4.99905E+01  4.95368E+01  4.89828E+01  4.83298E+01  4.75826E+01  4.67491E+01  4.58400E+01  4.48677E+01
   4.38459E+01  4.27887E+01  4.17100E+01  4.06226E+01  3.95381E+01  3.84660E+01  3.74140E+01  3.63871E+01  3.53886E+01  3.44191E+01
   3.34779E+01  3.25624E+01  3.16688E+01  3.07924E+01  2.99283E+01  2.90710E+01  2.82156E+01  2.73573E+01  2.64921E+01  2.56168E+01
   2.47291E+01  2.38275E+01  2.29115E+01  2.19815E+01  2.10387E+01  2.00849E+01  1.91227E+01  1.81547E+01  1.71843E+01  1.62147E+01
   1.52492E+01  1.42912E+01  1.33439E+01  1.24101E+01  1.14926E+01  1.05935E+01  9.71499E+00  8.85855E+00  8.02547E+00  7.21666E+00
   6.43273E+00  5.67399E+00  4.94048E+00  4.23200E+00  3.54819E+00  2.88848E+00  2.25222E+00  1.63862E+00  1.04681E+00  4.75899E-01
  -7.50684E-02 -6.07048E-01 -1.12101E+00 -1.61789E+00 -2.09863E+00 -2.56412E+00 -3.01521E+00 -3.45274E+00 -3.87749E+00 -4.29021E+00
  -4.69163E+00 -5.08241E+00 -5.46318E+00 -5.83453E+00 -6.19703E+00 -6.55119E+00 -6.89750E+00 -7.23642E+00 -7.56838E+00 -7.89376E+00
  -8.21294E+00 -8.52627E+00 -8.83407E+00 -9.13664E+00 -9.43425E+00 -9.72717E+00 -1.00156E+01 -1.02999E+01 -1.05801E+01 -1.08565E+01
  -1.11293E+01 -1.13986E+01 -1.16646E+01 -1.19274E+01 -1.21873E+01 -1.24442E+01 -1.26983E+01 -1.29498E+01 -1.31988E+01 -1.34452E+01
  -1.36893E+01 -1.39311E+01 -1.41708E+01 -1.44082E+01 -1.46436E+01 -1.48770E+01 -1.51085E+01 -1.53381E+01
 NY background values follow
     3.675E+00    3.696E+00    3.717E+00    3.738E+00    3.759E+00    3.780E+00    3.801E+00    3.822E+00    3.843E+00    3.864E+00
     3.885E+00    3.906E+00    3.927E+00    3.948E+00    3.969E+00    3.990E+00    4.011E+00    4.032E+00    4.053E+00    4.074E+00
     4.094E+00    4.115E+00    4.136E+00    4.157E+00    4.177E+00    4.198E+00    4.219E+00    4.239E+00    4.260E+00    4.281E+00
     4.301E+00    4.322E+00    4.342E+00    4.363E+00    4.383E+00    4.404E+00    4.424E+00    4.444E+00    4.465E+00    4.485E+00
     4.505E+00    4.526E+00    4.546E+00    4.566E+00    4.586E+00    4.606E+00    4.626E+00    4.646E+00    4.666E+00    4.686E+00
     4.706E+00    4.726E+00    4.746E+00    4.766E+00    4.785E+00    4.805E+00    4.825E+00    4.845E+00    4.864E+00    4.884E+00
     4.903E+00    4.923E+00    4.943E+00    4.962E+00    4.981E+00    5.001E+00    5.020E+00    5.040E+00    5.059E+00    5.078E+00
     5.098E+00    5.117E+00    5.136E+00    5.155E+00    5.175E+00    5.194E+00    5.213E+00    5.232E+00    5.251E+00    5.270E+00
     5.289E+00    5.308E+00    5.327E+00    5.346E+00    5.365E+00    5.384E+00    5.403E+00    5.422E+00    5.441E+00    5.459E+00
     5.478E+00    5.497E+00    5.516E+00    5.535E+00    5.553E+00    5.572E+00    5.591E+00    5.610E+00    5.629E+00    5.648E+00
     5.667E+00    5.686E+00    5.705E+00    5.724E+00    5.744E+00    5.763E+00    5.783E+00    5.802E+00    5.822E+00    5.842E+00
     5.862E+00    5.882E+00    5.903E+00    5.923E+00    5.944E+00    5.965E+00    5.986E+00    6.007E+00    6.029E+00    6.051E+00
     6.073E+00    6.095E+00    6.117E+00    6.140E+00    6.163E+00    6.187E+00    6.210E+00    6.234E+00    6.258E+00    6.283E+00
     6.308E+00    6.333E+00    6.358E+00    6.384E+00    6.410E+00    6.437E+00    6.464E+00    6.491E+00    6.519E+00    6.547E+00
     6.576E+00    6.604E+00    6.633E+00    6.663E+00    6.692E+00    6.722E+00    6.752E+00    6.783E+00    6.814E+00    6.845E+00
     6.876E+00    6.907E+00    6.939E+00    6.971E+00    7.003E+00    7.035E+00    7.067E+00    7.100E+00    7.132E+00    7.165E+00
     7.198E+00    7.231E+00    7.264E+00    7.297E+00    7.330E+00    7.363E+00    7.396E+00    7.430E+00    7.463E+00    7.496E+00
     7.530E+00    7.563E+00    7.596E+00    7.630E+00    7.663E+00    7.696E+00    7.729E+00    7.762E+00    7.795E+00    7.828E+00
     7.860E+00    7.893E+00    7.925E+00    7.958E+00    7.990E+00    8.022E+00    8.053E+00    8.085E+00    8.116E+00    8.147E+00
     8.178E+00    8.209E+00    8.239E+00    8.269E+00    8.299E+00    8.329E+00    8.358E+00    8.387E+00    8.415E+00    8.444E+00
     8.472E+00    8.499E+00    8.526E+00    8.553E+00    8.580E+00    8.606E+00    8.631E+00    8.656E+00    8.681E+00    8.705E+00
     8.729E+00    8.753E+00    8.775E+00    8.798E+00    8.820E+00    8.841E+00    8.862E+00    8.882E+00    8.902E+00    8.921E+00
     8.939E+00    8.957E+00    8.975E+00    8.991E+00    9.008E+00    9.023E+00    9.038E+00    9.052E+00    9.066E+00    9.079E+00
     9.091E+00    9.102E+00    9.113E+00    9.123E+00    9.132E+00    9.141E+00    9.149E+00    9.156E+00    9.162E+00    9.168E+00
     9.173E+00    9.177E+00    9.180E+00    9.182E+00    9.184E+00    9.185E+00    9.185E+00    9.184E+00    9.182E+00    9.180E+00
     9.176E+00    9.172E+00    9.167E+00    9.161E+00    9.154E+00    9.146E+00    9.137E+00    9.128E+00    9.117E+00    9.105E+00
     9.093E+00    9.079E+00    9.065E+00    9.050E+00    9.033E+00    9.016E+00    8.997E+00    8.978E+00    8.957E+00    8.936E+00
     8.913E+00    8.890E+00    8.865E+00    8.840E+00    8.813E+00    8.785E+00    8.756E+00    8.726E+00    8.696E+00    8.664E+00
     8.631E+00    8.597E+00    8.562E+00    8.526E+00    8.489E+00    8.450E+00    8.411E+00    8.371E+00    8.330E+00    8.288E+00
     8.245E+00    8.201E+00    8.156E+00    8.110E+00    8.063E+00    8.015E+00    7.966E+00    7.916E+00    7.865E+00    7.813E+00
     7.760E+00    7.707E+00    7.652E+00    7.596E+00    7.539E+00    7.482E+00    7.423E+00    7.364E+00    7.303E+00    7.242E+00
     7.180E+00    7.117E+00    7.053E+00    6.988E+00    6.922E+00    6.855E+00    6.787E+00    6.719E+00    6.649E+00    6.579E+00
     6.507E+00    6.435E+00    6.362E+00    6.288E+00    6.213E+00    6.137E+00    6.061E+00    5.983E+00    5.905E+00    5.826E+00
     5.746E+00    5.665E+00    5.583E+00    5.500E+00    5.417E+00    5.332E+00    5.247E+00    5.161E+00    5.074E+00    4.986E+00
     4.897E+00    4.808E+00    4.718E+00    4.627E+00    4.535E+00    4.442E+00    4.348E+00    4.254E+00    4.158E+00    4.062E+00
     3.965E+00    3.868E+00    3.769E+00    3.670E+00    3.570E+00    3.469E+00    3.367E+00    3.264E+00    3.161E+00    3.057E+00
     2.952E+00    2.846E+00    2.740E+00    2.632E+00    2.524E+00    2.416E+00    2.306E+00    2.196E+00    2.084E+00    1.972E+00
     1.860E+00    1.746E+00    1.632E+00    1.517E+00    1.401E+00    1.284E+00    1.167E+00    1.049E+00    9.298E-01    8.101E-01
     6.897E-01    5.685E-01    4.465E-01    3.237E-01    2.002E-01    7.597E-02   -4.906E-02   -1.749E-01   -3.014E-01   -4.287E-01
    -5.568E-01   -6.856E-01   -8.151E-01   -9.455E-01   -1.077E+00   -1.208E+00   -1.341E+00   -1.474E+00   -1.608E+00   -1.743E+00
    -1.879E+00   -2.015E+00   -2.152E+00   -2.290E+00   -2.428E+00   -2.568E+00   -2.708E+00   -2.848E+00   -2.990E+00   -3.132E+00
    -3.275E+00   -3.419E+00   -3.563E+00   -3.708E+00   -3.854E+00   -4.001E+00   -4.148E+00   -4.296E+00   -4.444E+00   -4.594E+00
    -4.744E+00   -4.895E+00   -5.046E+00   -5.198E+00   -5.351E+00   -5.504E+00   -5.659E+00   -5.813E+00   -5.969E+00   -6.125E+00
    -6.282E+00   -6.439E+00   -6.597E+00   -6.756E+00   -6.916E+00   -7.076E+00   -7.236E+00   -7.398E+00   -7.560E+00   -7.722E+00
    -7.886E+00   -8.049E+00   -8.214E+00   -8.379E+00   -8.545E+00   -8.711E+00   -8.878E+00   -9.045E+00   -9.213E+00   -9.382E+00
    -9.551E+00   -9.721E+00   -9.892E+00   -1.006E+01   -1.023E+01   -1.041E+01   -1.058E+01   -1.075E+01   -1.093E+01   -1.110E+01
    -1.127E+01   -1.145E+01   -1.163E+01   -1.180E+01   -1.198E+01   -1.215E+01   -1.233E+01   -1.251E+01   -1.269E+01   -1.286E+01
    -1.304E+01   -1.322E+01   -1.340E+01   -1.358E+01   -1.376E+01   -1.393E+01   -1.411E+01   -1.429E+01   -1.447E+01   -1.465E+01
    -1.483E+01   -1.501E+01   -1.519E+01   -1.537E+01   -1.555E+01   -1.573E+01   -1.591E+01   -1.609E+01   -1.627E+01   -1.645E+01
    -1.663E+01   -1.681E+01   -1.699E+01   -1.717E+01   -1.735E+01   -1.752E+01   -1.770E+01   -1.788E+01
 Ala      Conc. = 6.63E-01
