 LCModel (Version 6.3-1L) Copyright: S.W. Provencher.          Ref.: Magn. Reson. Med. 30:672-679 (1993).                
 Slice#3 Row#12 Col#11  PD_24_press_1_raw_act
 36 lines in following concentration table = NCONC+1
    Conc.  %SD /Cr+PCr  Metabolite                                         
   53.186 105%   0.221 Ala                                                 
   27.294 182%   0.114 Asp                                                 
  240.148  12%   1.000 Cr                                                  
    0.000 999%   0.000 PCr                                                 
   10.197 293% 4.2E-02 GABA                                                
   29.917 101%   0.125 Glc                                                 
    0.000 999%   0.000 Gln                                                 
  138.853  85%   0.578 Glu                                                 
   94.733  11%   0.394 GPC                                                 
    0.000 999%   0.000 PCh                                                 
   87.289  43%   0.363 GSH                                                 
  394.908  32%   1.644 Ins                                                 
   23.021 260% 9.6E-02 Lac                                                 
    0.000 999%   0.000 NAA                                                 
  264.048  11%   1.100 NAAG                                                
   11.995  73% 5.0E-02 Scyllo                                              
   72.100  68%   0.300 Tau                                                 
  252.549  18%   1.052 -CrCH2                                              
   94.733  11%   0.394 GPC+PCh                                             
  264.048  11%   1.100 NAA+NAAG                                            
  240.148  12%   1.000 Cr+PCr                                              
  138.853  85%   0.578 Glu+Gln                                             
 5.64E+03  18%  23.506 Lip13a                                              
    0.000 999%   0.000 Lip13b                                              
  120.600 117%   0.502 Lip09                                               
    0.000 999%   0.000 MM09                                                
    0.000 999%   0.000 Lip20                                               
    0.000 999%   0.000 MM20                                                
   82.497 247%   0.344 MM12                                                
 2.63E+03  23%  10.970 MM14                                                
  838.495  32%   3.492 MM17                                                
 5.64E+03  18%  23.506 Lip13a+Lip13b                                       
 8.36E+03   8%  34.820 MM14+Lip13a+Lip13b+MM12                             
  120.600 117%   0.502 MM09+Lip09                                          
    0.000 999%   0.000 MM20+Lip20                                          
   6 lines in following misc. output table
  FWHM = 0.046 ppm    S/N =   6                                            
  Data shift = 0.000 ppm                                                   
  Ph:  99 deg      84.1 deg/ppm                                            
  alphaB,S = 3.8E-01,   4.6E+01                                            
   14 spline knots.   Ns = 5(1)                                            
  ( 8) 2 infls.   ( 7) 1 extrs.                                            
  498 points on ppm-axis = NY
      4.000000     3.992357     3.984714     3.977070     3.969427     3.961784     3.954141     3.946497     3.938854     3.931211
      3.923568     3.915925     3.908281     3.900638     3.892995     3.885352     3.877708     3.870065     3.862422     3.854779
      3.847136     3.839492     3.831849     3.824206     3.816563     3.808919     3.801276     3.793633     3.785990     3.778347
      3.770703     3.763060     3.755417     3.747774     3.740130     3.732487     3.724844     3.717201     3.709558     3.701914
      3.694271     3.686628     3.678985     3.671341     3.663698     3.656055     3.648412     3.640769     3.633125     3.625482
      3.617839     3.610196     3.602552     3.594909     3.587266     3.579623     3.571980     3.564336     3.556693     3.549050
      3.541407     3.533763     3.526120     3.518477     3.510834     3.503191     3.495547     3.487904     3.480261     3.472618
      3.464974     3.457331     3.449688     3.442045     3.434402     3.426758     3.419115     3.411472     3.403829     3.396185
      3.388542     3.380899     3.373256     3.365613     3.357969     3.350326     3.342683     3.335040     3.327396     3.319753
      3.312110     3.304467     3.296824     3.289180     3.281537     3.273894     3.266251     3.258607     3.250964     3.243321
      3.235678     3.228034     3.220391     3.212748     3.205105     3.197462     3.189818     3.182175     3.174532     3.166889
      3.159245     3.151602     3.143959     3.136316     3.128673     3.121029     3.113386     3.105743     3.098100     3.090456
      3.082813     3.075170     3.067527     3.059884     3.052240     3.044597     3.036954     3.029311     3.021667     3.014024
      3.006381     2.998738     2.991095     2.983451     2.975808     2.968165     2.960522     2.952878     2.945235     2.937592
      2.929949     2.922306     2.914662     2.907019     2.899376     2.891733     2.884089     2.876446     2.868803     2.861160
      2.853517     2.845873     2.838230     2.830587     2.822944     2.815300     2.807657     2.800014     2.792371     2.784728
      2.777084     2.769441     2.761798     2.754155     2.746511     2.738868     2.731225     2.723582     2.715939     2.708295
      2.700652     2.693009     2.685366     2.677722     2.670079     2.662436     2.654793     2.647150     2.639506     2.631863
      2.624220     2.616577     2.608933     2.601290     2.593647     2.586004     2.578361     2.570717     2.563074     2.555431
      2.547788     2.540144     2.532501     2.524858     2.517215     2.509572     2.501928     2.494285     2.486642     2.478999
      2.471355     2.463712     2.456069     2.448426     2.440783     2.433139     2.425496     2.417853     2.410210     2.402566
      2.394923     2.387280     2.379637     2.371994     2.364350     2.356707     2.349064     2.341421     2.333777     2.326134
      2.318491     2.310848     2.303205     2.295561     2.287918     2.280275     2.272632     2.264988     2.257345     2.249702
      2.242059     2.234416     2.226772     2.219129     2.211486     2.203843     2.196199     2.188556     2.180913     2.173270
      2.165627     2.157983     2.150340     2.142697     2.135054     2.127410     2.119767     2.112124     2.104481     2.096838
      2.089194     2.081551     2.073908     2.066265     2.058621     2.050978     2.043335     2.035692     2.028049     2.020405
      2.012762     2.005119     1.997476     1.989833     1.982190     1.974546     1.966903     1.959260     1.951617     1.943974
      1.936331     1.928688     1.921045     1.913402     1.905759     1.898115     1.890472     1.882829     1.875186     1.867543
      1.859900     1.852257     1.844614     1.836971     1.829327     1.821684     1.814041     1.806398     1.798755     1.791112
      1.783469     1.775826     1.768183     1.760540     1.752896     1.745253     1.737610     1.729967     1.722324     1.714681
      1.707038     1.699395     1.691752     1.684108     1.676465     1.668822     1.661179     1.653536     1.645893     1.638250
      1.630607     1.622964     1.615321     1.607677     1.600034     1.592391     1.584748     1.577105     1.569462     1.561819
      1.554176     1.546533     1.538890     1.531246     1.523603     1.515960     1.508317     1.500674     1.493031     1.485388
      1.477745     1.470102     1.462458     1.454815     1.447172     1.439529     1.431886     1.424243     1.416600     1.408957
      1.401314     1.393671     1.386027     1.378384     1.370741     1.363098     1.355455     1.347812     1.340169     1.332526
      1.324883     1.317240     1.309596     1.301953     1.294310     1.286667     1.279024     1.271381     1.263738     1.256095
      1.248452     1.240808     1.233165     1.225522     1.217879     1.210236     1.202593     1.194950     1.187307     1.179664
      1.172021     1.164377     1.156734     1.149091     1.141448     1.133805     1.126162     1.118519     1.110876     1.103233
      1.095590     1.087946     1.080303     1.072660     1.065017     1.057374     1.049731     1.042088     1.034445     1.026802
      1.019158     1.011515     1.003872     0.996229     0.988586     0.980943     0.973300     0.965657     0.958014     0.950371
      0.942727     0.935084     0.927441     0.919798     0.912155     0.904512     0.896869     0.889226     0.881583     0.873940
      0.866296     0.858653     0.851010     0.843367     0.835724     0.828081     0.820438     0.812795     0.805152     0.797508
      0.789865     0.782222     0.774579     0.766936     0.759293     0.751650     0.744007     0.736364     0.728721     0.721077
      0.713434     0.705791     0.698148     0.690505     0.682862     0.675219     0.667576     0.659933     0.652290     0.644646
      0.637003     0.629360     0.621717     0.614074     0.606431     0.598788     0.591145     0.583502     0.575858     0.568215
      0.560572     0.552929     0.545286     0.537643     0.530000     0.522357     0.514714     0.507071     0.499427     0.491784
      0.484141     0.476498     0.468855     0.461212     0.453569     0.445925     0.438282     0.430639     0.422996     0.415353
      0.407710     0.400067     0.392424     0.384780     0.377137     0.369494     0.361851     0.354208     0.346565     0.338922
      0.331278     0.323635     0.315992     0.308349     0.300706     0.293063     0.285420     0.277777     0.270133     0.262490
      0.254847     0.247204     0.239561     0.231918     0.224275     0.216631     0.208988     0.201345
 NY phased data points follow
  -1.33028E+00 -1.33392E+00 -7.58762E-01 -3.31141E-01 -2.76580E+00 -8.81644E-01 -2.55742E+00 -3.47093E+00 -3.65221E+00 -2.20260E+00
  -5.22149E+00  4.44913E+00  1.38250E+00  3.79917E+00  5.19512E+00  5.84435E+00  4.16857E+00  5.10706E+00  4.72553E+00  4.52661E+00
   4.57120E+00  5.37331E+00  2.99710E+00  4.55972E+00  2.08096E+00  3.25477E+00  1.26912E+00  5.40278E+00  3.13735E+00  5.37136E+00
   1.78471E+00  4.60802E+00  6.29533E+00  5.33297E+00  5.15060E+00  4.00820E+00  3.87860E+00  3.14547E+00  3.98587E+00  4.07646E+00
   2.45848E+00  4.80065E+00  3.67635E+00  5.68465E+00  2.15851E+00  5.12968E+00  5.83550E+00  5.81574E+00  5.33446E+00  5.34144E+00
   4.36131E+00  6.07478E+00  4.99580E+00  6.62180E+00  3.97698E+00  6.18614E+00  5.91776E+00  5.51548E+00  6.70694E+00  6.78366E+00
   4.07155E+00  6.68092E+00  5.26102E+00  3.53502E+00  2.26430E+00  4.66302E+00  3.93841E+00  5.72872E+00  4.16367E+00  4.84712E+00
   2.20044E+00  4.58856E+00  1.63219E+00  4.13380E+00  2.34059E+00  5.75955E+00  6.10971E+00  4.15716E+00  4.19818E+00  4.82492E+00
   4.03259E+00  4.27715E+00  3.27176E+00  7.03161E-01  1.91122E+00  3.01372E+00  1.77904E+00  2.55286E+00  3.93717E+00  3.83355E+00
   3.57553E+00  3.12896E+00  3.79826E+00  4.05768E+00  3.12392E+00  2.95676E+00  4.80486E+00  3.58320E-02  3.53627E-01  6.53950E-01
   8.56330E-01  3.20058E+00  7.05032E+00  1.01444E+01  1.10207E+01  1.07606E+01  1.10457E+01  9.43827E+00  7.32522E+00  9.04884E+00
   6.93014E+00  4.57997E+00  6.29230E+00  5.64660E+00  5.35191E+00  1.29521E+00  4.76156E+00 -1.85384E-01  3.47127E+00 -1.07955E+00
   2.02438E+00 -1.42942E+00  3.36002E-01  5.69834E-01 -7.11408E-02  3.69811E+00  4.33895E+00  1.15231E+01  9.30110E+00  1.23021E+01
   1.04739E+01  7.59021E+00  5.46681E+00  5.76998E+00  6.30664E+00  5.41051E+00  2.83060E+00  2.74133E+00 -1.35833E-01  5.20155E-01
   4.13319E-01  7.68236E-01  1.79045E+00 -2.11704E-01 -1.66369E+00 -1.47399E+00 -1.61402E+00  1.86662E+00  4.55922E-01  6.65134E-01
  -1.25132E+00  2.84774E+00 -8.42644E-01  2.56182E-01 -8.11037E-01 -1.64110E+00  4.50272E-03 -2.77194E-02 -1.85891E+00 -3.59902E-01
  -1.16812E+00 -1.10238E+00 -2.91821E-01 -4.47439E-01 -3.07112E-01 -1.62945E+00  6.47851E-01 -2.81557E+00 -9.77519E-01 -2.21695E+00
  -5.34678E+00 -4.87704E+00 -2.10197E+00 -4.60222E+00 -3.15025E+00 -2.46152E+00 -2.06503E+00 -2.89265E+00 -2.61257E+00 -1.64970E+00
   6.21150E-02 -4.05836E+00 -4.40217E+00 -4.20831E+00 -1.78722E+00 -3.18055E+00 -2.98050E+00 -1.04414E+00 -1.12780E+00 -1.20241E+00
   7.73912E-01 -3.82925E+00 -9.86802E-01  1.20819E+00 -3.78217E+00 -2.13702E+00 -4.12710E+00 -1.19613E+00 -4.71991E+00 -2.58641E+00
  -4.58348E+00 -2.31863E+00 -3.12367E+00  8.07653E-01 -3.37185E+00 -3.17690E+00 -3.44363E+00 -3.90374E+00 -1.99192E+00 -3.12716E+00
  -4.42913E+00 -2.13370E+00 -1.59119E+00 -1.20083E+00 -1.81865E+00  2.27721E-01 -6.09382E-01 -3.04838E+00 -1.96169E+00 -1.88823E+00
  -4.81547E+00 -3.57001E+00 -5.81768E+00 -4.15834E+00 -3.84807E+00 -4.18189E+00 -1.80901E+00 -2.47133E+00 -3.37474E+00 -2.58582E+00
   1.50033E-01 -3.57745E+00 -2.81448E+00 -4.28936E+00 -3.10359E+00 -4.98061E+00 -3.62931E+00 -5.53151E+00 -4.82900E+00 -6.12487E+00
  -4.68318E+00 -3.87605E+00 -5.07141E+00 -4.44335E+00 -4.04950E+00 -3.64797E+00 -3.33216E+00 -3.58995E+00 -5.14997E+00 -2.87070E+00
  -4.83894E+00 -3.23397E+00 -4.22946E+00 -2.11726E+00 -1.60673E-01  3.11859E+00  6.90892E-01  4.71337E+00  6.83226E+00  3.67169E+00
   4.20272E-01 -2.14105E+00 -8.55083E+00 -1.13563E+01 -1.35261E+01 -1.42500E+01 -1.10409E+01 -1.32447E+01 -1.22517E+01 -1.51525E+01
  -1.12376E+01 -1.36384E+01 -1.27242E+01 -1.16891E+01 -1.11106E+01 -9.83612E+00 -6.80951E+00 -7.77700E+00 -9.81902E+00 -6.52943E+00
  -9.87895E+00 -6.84684E+00 -6.52187E+00 -6.47806E+00 -3.65997E+00 -5.68758E+00 -3.83436E+00 -4.11077E+00 -5.64886E+00 -3.27548E+00
  -4.23097E+00 -3.85960E+00 -5.03370E+00 -3.34901E+00 -2.38447E+00 -1.23513E+00 -3.93424E+00 -3.48142E+00 -2.63060E+00 -4.48860E+00
  -1.91458E+00 -4.59840E+00 -2.17122E+00 -3.16572E+00 -1.74582E+00 -2.97780E+00 -1.16359E+00 -4.17976E+00  4.06097E-01  6.84201E-02
  -1.23665E+00 -4.47765E+00 -6.29228E-01 -2.60086E+00 -9.39409E-01 -1.15365E+00 -1.11661E-01  2.82068E+00  1.32618E+00  1.50284E+00
   5.22711E+00  2.99415E+00  5.46816E+00  4.42782E+00  4.59018E+00  1.67084E+00  3.06186E+00  3.86259E+00  4.82201E+00  5.10608E+00
   7.24736E+00  8.01470E+00  1.26896E+01  9.69056E+00  1.01118E+01  1.35582E+01  1.52080E+01  1.63206E+01  1.34528E+01  1.45398E+01
   1.67023E+01  1.70551E+01  1.60319E+01  1.60301E+01  1.79593E+01  1.81012E+01  1.88271E+01  1.70986E+01  1.84942E+01  1.76531E+01
   1.67314E+01  1.77457E+01  1.83232E+01  1.75631E+01  1.58259E+01  1.65969E+01  1.51311E+01  1.70251E+01  1.50127E+01  1.65409E+01
   1.51030E+01  1.42875E+01  1.30066E+01  1.49753E+01  1.21043E+01  1.36397E+01  1.51666E+01  1.24676E+01  1.07261E+01  1.10551E+01
   1.09947E+01  1.02994E+01  1.05109E+01  7.53517E+00  8.98068E+00  6.00661E+00  5.53513E+00  2.88192E+00  6.24529E+00  5.35295E+00
   5.02305E+00  4.28657E+00  3.78040E+00  1.77129E+00  4.13119E+00  3.52930E-01  6.12702E-01  2.54168E+00 -4.20697E-01  1.85241E+00
  -3.03965E-01  9.35640E-01 -3.92887E-01 -2.03589E+00 -3.02709E+00 -1.46880E+00 -1.72545E+00 -9.14359E-01 -1.33536E+00 -3.59079E+00
  -6.49611E-01 -4.97615E-01 -2.57404E-01 -1.81350E+00 -1.83633E+00  9.68598E-03 -2.87879E+00 -7.03388E-02 -2.34056E+00 -3.57736E+00
  -1.23906E+00 -3.04909E+00 -3.98450E+00  4.26682E-01 -1.18288E+00 -3.66978E+00 -1.38602E+00 -2.49751E+00 -3.22506E+00 -1.49016E+00
  -4.01496E+00 -2.19785E+00 -7.83409E-01 -2.81293E+00 -3.08581E-01 -7.04419E-01 -2.85642E+00 -1.71349E+00 -1.18453E+00 -2.54275E+00
  -4.11325E+00 -1.40984E+00 -9.73021E-01  1.43779E+00 -2.31452E+00 -4.36145E+00 -4.64269E+00 -6.62371E-01 -2.53273E+00 -2.75719E+00
  -1.39791E+00 -2.89145E+00 -1.94080E+00 -3.86469E+00 -2.50924E+00 -4.06545E+00 -4.06394E+00 -1.93866E+00 -1.66823E-01 -2.61136E+00
  -4.05627E-01 -2.93799E+00 -5.09326E+00 -1.00052E+00 -1.83659E+00 -2.37809E+00 -3.65953E+00 -5.79173E-01 -4.27598E+00 -2.08593E+00
  -1.84146E+00 -3.07316E+00 -3.31212E+00 -1.13532E+00 -3.20828E+00 -3.30246E+00 -2.28123E+00 -2.87084E+00 -1.81439E+00 -4.23884E+00
  -3.69667E+00 -3.85521E+00 -3.09222E+00 -3.36367E+00 -2.36352E+00 -3.50863E+00 -2.55133E+00 -3.47385E+00 -1.38381E+00 -2.55807E+00
  -3.14493E+00 -1.04525E+00 -2.67707E+00 -2.60952E+00 -2.47276E+00 -2.11584E+00 -3.23975E+00 -9.49663E-01 -1.44454E+00 -3.27297E+00
  -2.76292E+00 -1.65074E+00 -4.84736E-01 -3.43007E+00 -1.94334E+00 -7.66915E-01 -2.11216E+00 -4.42645E+00
 NY points of the fit to the data follow
   2.49312E+00  2.28798E+00  2.15365E+00  1.93214E+00  1.37455E+00  3.82620E-01 -9.38285E-01 -2.10012E+00 -2.49984E+00 -1.93089E+00
  -4.50918E-01  1.58449E+00  3.60680E+00  5.25637E+00  6.37630E+00  6.57305E+00  5.91913E+00  4.94063E+00  3.91057E+00  3.24060E+00
   3.03095E+00  2.96763E+00  2.91589E+00  2.84730E+00  2.75337E+00  2.71664E+00  2.82752E+00  3.13797E+00  3.62813E+00  4.18602E+00
   4.67609E+00  5.02795E+00  5.18309E+00  5.11982E+00  4.87460E+00  4.47890E+00  3.99563E+00  3.60812E+00  3.34476E+00  3.11957E+00
   2.94608E+00  2.90262E+00  3.07794E+00  3.53305E+00  4.26980E+00  5.13353E+00  5.83172E+00  6.18866E+00  6.17691E+00  5.81804E+00
   5.18758E+00  4.45487E+00  3.75934E+00  3.22593E+00  3.02103E+00  3.14113E+00  3.42475E+00  3.74951E+00  4.05653E+00  4.28956E+00
   4.38350E+00  4.30913E+00  4.10258E+00  3.83680E+00  3.56609E+00  3.35363E+00  3.26567E+00  3.30711E+00  3.45478E+00  3.64242E+00
   3.81285E+00  3.94244E+00  4.02372E+00  4.07544E+00  4.09896E+00  4.06261E+00  3.96576E+00  3.80825E+00  3.62315E+00  3.45323E+00
   3.31650E+00  3.21170E+00  3.15252E+00  3.13747E+00  3.10487E+00  3.00160E+00  2.81972E+00  2.59887E+00  2.39130E+00  2.23932E+00
   2.16772E+00  2.16844E+00  2.19794E+00  2.23510E+00  2.25940E+00  2.20652E+00  2.08853E+00  1.94547E+00  1.82636E+00  2.01135E+00
   2.88444E+00  4.54692E+00  6.83173E+00  9.18047E+00  1.09011E+01  1.17191E+01  1.15902E+01  1.05098E+01  8.79281E+00  6.79008E+00
   4.76202E+00  3.33721E+00  2.74897E+00  2.45086E+00  2.23205E+00  2.05360E+00  1.89376E+00  1.74105E+00  1.59172E+00  1.44875E+00
   1.31741E+00  1.20762E+00  1.17272E+00  1.47750E+00  2.39823E+00  3.99586E+00  6.06728E+00  8.05554E+00  9.43285E+00  1.00395E+01
   9.81420E+00  8.79075E+00  7.25612E+00  5.43503E+00  3.57303E+00  2.28372E+00  1.64332E+00  1.25329E+00  1.02326E+00  9.25489E-01
   9.38729E-01  1.03269E+00  1.12673E+00  1.16736E+00  1.14036E+00  1.04514E+00  9.06709E-01  7.60860E-01  6.18622E-01  4.89950E-01
   3.51759E-01  1.93905E-01  2.23213E-02 -1.33043E-01 -2.42335E-01 -3.03881E-01 -3.25773E-01 -3.29995E-01 -3.49741E-01 -3.96675E-01
  -4.71137E-01 -5.89750E-01 -7.43200E-01 -8.96142E-01 -1.03668E+00 -1.16119E+00 -1.26476E+00 -1.36401E+00 -1.44481E+00 -1.48041E+00
  -1.47768E+00 -1.46845E+00 -1.47546E+00 -1.51417E+00 -1.58319E+00 -1.66538E+00 -1.76335E+00 -1.89297E+00 -2.03145E+00 -2.15151E+00
  -2.24584E+00 -2.29724E+00 -2.31307E+00 -2.31141E+00 -2.28676E+00 -2.23124E+00 -2.14780E+00 -2.03009E+00 -1.87665E+00 -1.72822E+00
  -1.63570E+00 -1.60889E+00 -1.68344E+00 -1.88281E+00 -2.18620E+00 -2.53405E+00 -2.84391E+00 -3.03919E+00 -3.09145E+00 -3.01603E+00
  -2.87167E+00 -2.72444E+00 -2.61983E+00 -2.57956E+00 -2.63347E+00 -2.80742E+00 -3.05033E+00 -3.29698E+00 -3.52612E+00 -3.70870E+00
  -3.81598E+00 -3.81013E+00 -3.68637E+00 -3.47880E+00 -3.26076E+00 -3.11613E+00 -3.11766E+00 -3.28692E+00 -3.62137E+00 -4.07109E+00
  -4.53850E+00 -4.92018E+00 -5.12924E+00 -5.12248E+00 -4.96590E+00 -4.72980E+00 -4.49587E+00 -4.33735E+00 -4.30623E+00 -4.43187E+00
  -4.64813E+00 -4.83054E+00 -4.90988E+00 -4.86991E+00 -4.73417E+00 -4.58471E+00 -4.49421E+00 -4.53569E+00 -4.77480E+00 -5.18339E+00
  -5.66491E+00 -6.09766E+00 -6.36889E+00 -6.44288E+00 -6.35225E+00 -6.15805E+00 -5.96219E+00 -5.85086E+00 -5.85318E+00 -5.96817E+00
  -6.04424E+00 -5.63008E+00 -4.45901E+00 -2.50859E+00 -1.60904E-01  1.86361E+00  3.07896E+00  3.39137E+00  2.72418E+00  1.27468E+00
  -5.48830E-01 -2.53257E+00 -4.27435E+00 -5.12321E+00 -5.46624E+00 -5.70401E+00 -5.91297E+00 -6.09611E+00 -6.24590E+00 -6.35460E+00
  -6.41654E+00 -6.43364E+00 -6.43145E+00 -6.42889E+00 -6.44397E+00 -6.48976E+00 -6.56103E+00 -6.64756E+00 -6.73005E+00 -6.78343E+00
  -6.79516E+00 -6.75949E+00 -6.67937E+00 -6.57210E+00 -6.45850E+00 -6.34396E+00 -6.22769E+00 -6.10201E+00 -5.95893E+00 -5.78568E+00
  -5.56618E+00 -5.29942E+00 -4.99754E+00 -4.66693E+00 -4.32276E+00 -3.97885E+00 -3.64375E+00 -3.32548E+00 -3.02529E+00 -2.73456E+00
  -2.45556E+00 -2.19331E+00 -1.95436E+00 -1.74520E+00 -1.56975E+00 -1.43134E+00 -1.33426E+00 -1.27209E+00 -1.23656E+00 -1.21890E+00
  -1.20915E+00 -1.19647E+00 -1.17001E+00 -1.11823E+00 -1.03015E+00 -8.94874E-01 -7.02701E-01 -4.44609E-01 -1.13223E-01  2.98488E-01
   7.97613E-01  1.39729E+00  2.11341E+00  2.92725E+00  3.79491E+00  4.65315E+00  5.44444E+00  6.15844E+00  6.81038E+00  7.41015E+00
   8.01418E+00  8.69263E+00  9.48952E+00  1.04375E+01  1.15040E+01  1.25529E+01  1.35108E+01  1.43416E+01  1.50198E+01  1.55530E+01
   1.59477E+01  1.62250E+01  1.64776E+01  1.67422E+01  1.69925E+01  1.72035E+01  1.73489E+01  1.74164E+01  1.74141E+01  1.73531E+01
   1.72549E+01  1.71567E+01  1.70855E+01  1.70552E+01  1.70645E+01  1.70722E+01  1.70256E+01  1.69039E+01  1.66929E+01  1.63928E+01
   1.60061E+01  1.55371E+01  1.50172E+01  1.44693E+01  1.38890E+01  1.32768E+01  1.26363E+01  1.19730E+01  1.12928E+01  1.06023E+01
   9.90742E+00  9.21449E+00  8.52893E+00  7.85600E+00  7.19995E+00  6.56473E+00  5.95323E+00  5.36806E+00  4.81081E+00  4.28283E+00
   3.78458E+00  3.31644E+00  2.87804E+00  2.46906E+00  2.08857E+00  1.73581E+00  1.40951E+00  1.10869E+00  8.31942E-01  5.78206E-01
   3.46042E-01  1.34347E-01 -5.83053E-02 -2.32996E-01 -3.91123E-01 -5.33767E-01 -6.62349E-01 -7.77979E-01 -8.82093E-01 -9.75812E-01
  -1.06058E+00 -1.13753E+00 -1.20811E+00 -1.27339E+00 -1.33471E+00 -1.39302E+00 -1.44947E+00 -1.50479E+00 -1.55989E+00 -1.61520E+00
  -1.67131E+00 -1.72832E+00 -1.78649E+00 -1.84564E+00 -1.90577E+00 -1.96644E+00 -2.02745E+00 -2.08821E+00 -2.14845E+00 -2.20756E+00
  -2.26526E+00 -2.32099E+00 -2.37453E+00 -2.42543E+00 -2.47360E+00 -2.51872E+00 -2.56082E+00 -2.59969E+00 -2.63548E+00 -2.66807E+00
  -2.69768E+00 -2.72430E+00 -2.74817E+00 -2.76929E+00 -2.78794E+00 -2.80415E+00 -2.81820E+00 -2.83011E+00 -2.84015E+00 -2.84831E+00
  -2.85486E+00 -2.85978E+00 -2.86333E+00 -2.86547E+00 -2.86641E+00 -2.86611E+00 -2.86479E+00 -2.86239E+00 -2.85911E+00 -2.85487E+00
  -2.84987E+00 -2.84401E+00 -2.83750E+00 -2.83024E+00 -2.82240E+00 -2.81387E+00 -2.80482E+00 -2.79514E+00 -2.78499E+00 -2.77428E+00
  -2.76315E+00 -2.75149E+00 -2.73944E+00 -2.72690E+00 -2.71403E+00 -2.70069E+00 -2.68705E+00 -2.67297E+00 -2.65860E+00 -2.64383E+00
  -2.62880E+00 -2.61340E+00 -2.59775E+00 -2.58174E+00 -2.56551E+00 -2.54894E+00 -2.53217E+00 -2.51507E+00 -2.49779E+00 -2.48019E+00
  -2.46241E+00 -2.44435E+00 -2.42613E+00 -2.40762E+00 -2.38896E+00 -2.37003E+00 -2.35096E+00 -2.33164E+00 -2.31218E+00 -2.29248E+00
  -2.27265E+00 -2.25259E+00 -2.23242E+00 -2.21202E+00 -2.19153E+00 -2.17081E+00 -2.15000E+00 -2.12899E+00
 NY background values follow
     1.936E+00    1.960E+00    1.985E+00    2.009E+00    2.034E+00    2.059E+00    2.083E+00    2.108E+00    2.133E+00    2.157E+00
     2.182E+00    2.206E+00    2.230E+00    2.254E+00    2.278E+00    2.302E+00    2.325E+00    2.349E+00    2.372E+00    2.395E+00
     2.418E+00    2.440E+00    2.462E+00    2.484E+00    2.506E+00    2.527E+00    2.548E+00    2.569E+00    2.589E+00    2.609E+00
     2.629E+00    2.648E+00    2.666E+00    2.685E+00    2.702E+00    2.720E+00    2.736E+00    2.753E+00    2.768E+00    2.784E+00
     2.798E+00    2.812E+00    2.826E+00    2.839E+00    2.851E+00    2.863E+00    2.874E+00    2.884E+00    2.894E+00    2.903E+00
     2.912E+00    2.919E+00    2.927E+00    2.933E+00    2.939E+00    2.944E+00    2.948E+00    2.952E+00    2.955E+00    2.958E+00
     2.959E+00    2.960E+00    2.961E+00    2.960E+00    2.959E+00    2.957E+00    2.955E+00    2.952E+00    2.948E+00    2.943E+00
     2.938E+00    2.932E+00    2.925E+00    2.918E+00    2.910E+00    2.901E+00    2.891E+00    2.881E+00    2.870E+00    2.858E+00
     2.846E+00    2.832E+00    2.818E+00    2.804E+00    2.788E+00    2.772E+00    2.755E+00    2.737E+00    2.719E+00    2.699E+00
     2.679E+00    2.659E+00    2.637E+00    2.615E+00    2.592E+00    2.568E+00    2.543E+00    2.518E+00    2.492E+00    2.465E+00
     2.438E+00    2.410E+00    2.381E+00    2.352E+00    2.322E+00    2.292E+00    2.260E+00    2.228E+00    2.196E+00    2.163E+00
     2.129E+00    2.095E+00    2.060E+00    2.025E+00    1.989E+00    1.952E+00    1.915E+00    1.878E+00    1.839E+00    1.801E+00
     1.762E+00    1.722E+00    1.682E+00    1.641E+00    1.600E+00    1.559E+00    1.517E+00    1.475E+00    1.432E+00    1.389E+00
     1.345E+00    1.301E+00    1.257E+00    1.212E+00    1.167E+00    1.121E+00    1.075E+00    1.029E+00    9.825E-01    9.356E-01
     8.884E-01    8.408E-01    7.930E-01    7.448E-01    6.963E-01    6.476E-01    5.985E-01    5.492E-01    4.996E-01    4.497E-01
     3.996E-01    3.492E-01    2.985E-01    2.476E-01    1.965E-01    1.451E-01    9.350E-02    4.168E-02   -1.035E-02   -6.259E-02
    -1.150E-01   -1.677E-01   -2.205E-01   -2.735E-01   -3.267E-01   -3.800E-01   -4.335E-01   -4.872E-01   -5.410E-01   -5.950E-01
    -6.491E-01   -7.034E-01   -7.577E-01   -8.122E-01   -8.668E-01   -9.215E-01   -9.763E-01   -1.031E+00   -1.086E+00   -1.141E+00
    -1.196E+00   -1.252E+00   -1.307E+00   -1.362E+00   -1.418E+00   -1.473E+00   -1.529E+00   -1.584E+00   -1.640E+00   -1.696E+00
    -1.752E+00   -1.808E+00   -1.864E+00   -1.920E+00   -1.976E+00   -2.033E+00   -2.089E+00   -2.146E+00   -2.202E+00   -2.259E+00
    -2.316E+00   -2.373E+00   -2.430E+00   -2.487E+00   -2.544E+00   -2.602E+00   -2.659E+00   -2.717E+00   -2.775E+00   -2.833E+00
    -2.891E+00   -2.949E+00   -3.007E+00   -3.066E+00   -3.124E+00   -3.183E+00   -3.242E+00   -3.301E+00   -3.360E+00   -3.419E+00
    -3.478E+00   -3.538E+00   -3.598E+00   -3.658E+00   -3.718E+00   -3.778E+00   -3.838E+00   -3.899E+00   -3.959E+00   -4.020E+00
    -4.081E+00   -4.142E+00   -4.203E+00   -4.264E+00   -4.325E+00   -4.385E+00   -4.446E+00   -4.507E+00   -4.567E+00   -4.628E+00
    -4.688E+00   -4.748E+00   -4.808E+00   -4.867E+00   -4.927E+00   -4.986E+00   -5.044E+00   -5.103E+00   -5.160E+00   -5.218E+00
    -5.275E+00   -5.331E+00   -5.387E+00   -5.443E+00   -5.498E+00   -5.552E+00   -5.606E+00   -5.659E+00   -5.712E+00   -5.764E+00
    -5.815E+00   -5.866E+00   -5.915E+00   -5.964E+00   -6.012E+00   -6.060E+00   -6.106E+00   -6.152E+00   -6.196E+00   -6.240E+00
    -6.283E+00   -6.324E+00   -6.365E+00   -6.405E+00   -6.444E+00   -6.482E+00   -6.518E+00   -6.554E+00   -6.589E+00   -6.623E+00
    -6.656E+00   -6.688E+00   -6.719E+00   -6.749E+00   -6.778E+00   -6.807E+00   -6.834E+00   -6.861E+00   -6.887E+00   -6.912E+00
    -6.936E+00   -6.959E+00   -6.981E+00   -7.003E+00   -7.024E+00   -7.044E+00   -7.063E+00   -7.081E+00   -7.099E+00   -7.116E+00
    -7.132E+00   -7.147E+00   -7.162E+00   -7.176E+00   -7.189E+00   -7.201E+00   -7.213E+00   -7.224E+00   -7.235E+00   -7.244E+00
    -7.253E+00   -7.262E+00   -7.270E+00   -7.277E+00   -7.283E+00   -7.289E+00   -7.295E+00   -7.299E+00   -7.303E+00   -7.307E+00
    -7.310E+00   -7.312E+00   -7.314E+00   -7.315E+00   -7.316E+00   -7.316E+00   -7.316E+00   -7.315E+00   -7.313E+00   -7.311E+00
    -7.309E+00   -7.306E+00   -7.302E+00   -7.298E+00   -7.293E+00   -7.288E+00   -7.283E+00   -7.276E+00   -7.270E+00   -7.263E+00
    -7.255E+00   -7.247E+00   -7.238E+00   -7.229E+00   -7.220E+00   -7.210E+00   -7.199E+00   -7.188E+00   -7.177E+00   -7.165E+00
    -7.153E+00   -7.140E+00   -7.127E+00   -7.114E+00   -7.100E+00   -7.085E+00   -7.071E+00   -7.055E+00   -7.040E+00   -7.024E+00
    -7.007E+00   -6.991E+00   -6.974E+00   -6.956E+00   -6.938E+00   -6.920E+00   -6.901E+00   -6.882E+00   -6.863E+00   -6.843E+00
    -6.823E+00   -6.803E+00   -6.782E+00   -6.761E+00   -6.740E+00   -6.718E+00   -6.696E+00   -6.674E+00   -6.651E+00   -6.628E+00
    -6.605E+00   -6.581E+00   -6.558E+00   -6.533E+00   -6.509E+00   -6.484E+00   -6.460E+00   -6.434E+00   -6.409E+00   -6.383E+00
    -6.357E+00   -6.331E+00   -6.305E+00   -6.278E+00   -6.251E+00   -6.224E+00   -6.197E+00   -6.169E+00   -6.142E+00   -6.114E+00
    -6.085E+00   -6.057E+00   -6.029E+00   -6.000E+00   -5.971E+00   -5.942E+00   -5.913E+00   -5.883E+00   -5.854E+00   -5.824E+00
    -5.794E+00   -5.764E+00   -5.734E+00   -5.704E+00   -5.673E+00   -5.642E+00   -5.612E+00   -5.581E+00   -5.550E+00   -5.519E+00
    -5.488E+00   -5.457E+00   -5.425E+00   -5.394E+00   -5.362E+00   -5.331E+00   -5.299E+00   -5.268E+00   -5.236E+00   -5.204E+00
    -5.172E+00   -5.140E+00   -5.108E+00   -5.076E+00   -5.044E+00   -5.012E+00   -4.980E+00   -4.948E+00   -4.916E+00   -4.884E+00
    -4.851E+00   -4.819E+00   -4.787E+00   -4.755E+00   -4.723E+00   -4.691E+00   -4.659E+00   -4.627E+00   -4.595E+00   -4.563E+00
    -4.531E+00   -4.499E+00   -4.467E+00   -4.436E+00   -4.404E+00   -4.372E+00   -4.341E+00   -4.309E+00   -4.278E+00   -4.247E+00
    -4.215E+00   -4.184E+00   -4.153E+00   -4.122E+00   -4.090E+00   -4.059E+00   -4.028E+00   -3.997E+00   -3.966E+00   -3.935E+00
    -3.904E+00   -3.873E+00   -3.842E+00   -3.811E+00   -3.781E+00   -3.750E+00   -3.719E+00   -3.688E+00   -3.657E+00   -3.626E+00
    -3.596E+00   -3.565E+00   -3.534E+00   -3.503E+00   -3.473E+00   -3.442E+00   -3.411E+00   -3.380E+00   -3.350E+00   -3.319E+00
    -3.288E+00   -3.257E+00   -3.226E+00   -3.196E+00   -3.165E+00   -3.134E+00   -3.103E+00   -3.072E+00
 Ala      Conc. = 5.32E+01
