 LCModel (Version 6.3-1L) Copyright: S.W. Provencher.          Ref.: Magn. Reson. Med. 30:672-679 (1993).                
 Slice#2 Row#8 Col#6  PD_24_press_1_raw_act
 36 lines in following concentration table = NCONC+1
    Conc.  %SD /Cr+PCr  Metabolite                                         
  133.036 121% 9.9E-02 Ala                                                 
    0.000 999%   0.000 Asp                                                 
    0.000 999%   0.000 Cr                                                  
 1.35E+03   6%   1.000 PCr                                                 
   29.163 624% 2.2E-02 GABA                                                
   88.985 203% 6.6E-02 Glc                                                 
  582.219  57%   0.433 Gln                                                 
 1.39E+03  28%   1.030 Glu                                                 
  532.075  34%   0.395 GPC                                                 
  176.179 105%   0.131 PCh                                                 
  168.329  62%   0.125 GSH                                                 
  278.282 130%   0.207 Ins                                                 
  188.238  95%   0.140 Lac                                                 
 2.16E+03   7%   1.602 NAA                                                 
  197.643  89%   0.147 NAAG                                                
  180.323  21%   0.134 Scyllo                                              
  464.945  57%   0.346 Tau                                                 
  411.672  34%   0.306 -CrCH2                                              
  708.253   5%   0.526 GPC+PCh                                             
 2.35E+03   5%   1.749 NAA+NAAG                                            
 1.35E+03   6%   1.000 Cr+PCr                                              
 1.97E+03  28%   1.463 Glu+Gln                                             
    0.000 999%   0.000 Lip13a                                              
    0.000 999%   0.000 Lip13b                                              
    0.000 999%   0.000 Lip09                                               
 1.23E+03  17%   0.917 MM09                                                
   27.014 348% 2.0E-02 Lip20                                               
 2.89E+03  17%   2.147 MM20                                                
  415.847  45%   0.309 MM12                                                
  855.095  38%   0.635 MM14                                                
 1.21E+03  24%   0.899 MM17                                                
    0.000 999%   0.000 Lip13a+Lip13b                                       
 1.27E+03  30%   0.945 MM14+Lip13a+Lip13b+MM12                             
 1.23E+03  17%   0.917 MM09+Lip09                                          
 2.92E+03  17%   2.167 MM20+Lip20                                          
   6 lines in following misc. output table
  FWHM = 0.054 ppm    S/N =   8                                            
  Data shift = 0.015 ppm                                                   
  Ph: -67 deg     -20.9 deg/ppm                                            
  alphaB,S = 2.3E+00,   6.6E+01                                            
   14 spline knots.   Ns = 8(1)                                            
  (13) 3 infls.   (15) 1 extrs.                                            
  498 points on ppm-axis = NY
      4.000000     3.992357     3.984714     3.977070     3.969427     3.961784     3.954141     3.946497     3.938854     3.931211
      3.923568     3.915925     3.908281     3.900638     3.892995     3.885352     3.877708     3.870065     3.862422     3.854779
      3.847136     3.839492     3.831849     3.824206     3.816563     3.808919     3.801276     3.793633     3.785990     3.778347
      3.770703     3.763060     3.755417     3.747774     3.740130     3.732487     3.724844     3.717201     3.709558     3.701914
      3.694271     3.686628     3.678985     3.671341     3.663698     3.656055     3.648412     3.640769     3.633125     3.625482
      3.617839     3.610196     3.602552     3.594909     3.587266     3.579623     3.571980     3.564336     3.556693     3.549050
      3.541407     3.533763     3.526120     3.518477     3.510834     3.503191     3.495547     3.487904     3.480261     3.472618
      3.464974     3.457331     3.449688     3.442045     3.434402     3.426758     3.419115     3.411472     3.403829     3.396185
      3.388542     3.380899     3.373256     3.365613     3.357969     3.350326     3.342683     3.335040     3.327396     3.319753
      3.312110     3.304467     3.296824     3.289180     3.281537     3.273894     3.266251     3.258607     3.250964     3.243321
      3.235678     3.228034     3.220391     3.212748     3.205105     3.197462     3.189818     3.182175     3.174532     3.166889
      3.159245     3.151602     3.143959     3.136316     3.128673     3.121029     3.113386     3.105743     3.098100     3.090456
      3.082813     3.075170     3.067527     3.059884     3.052240     3.044597     3.036954     3.029311     3.021667     3.014024
      3.006381     2.998738     2.991095     2.983451     2.975808     2.968165     2.960522     2.952878     2.945235     2.937592
      2.929949     2.922306     2.914662     2.907019     2.899376     2.891733     2.884089     2.876446     2.868803     2.861160
      2.853517     2.845873     2.838230     2.830587     2.822944     2.815300     2.807657     2.800014     2.792371     2.784728
      2.777084     2.769441     2.761798     2.754155     2.746511     2.738868     2.731225     2.723582     2.715939     2.708295
      2.700652     2.693009     2.685366     2.677722     2.670079     2.662436     2.654793     2.647150     2.639506     2.631863
      2.624220     2.616577     2.608933     2.601290     2.593647     2.586004     2.578361     2.570717     2.563074     2.555431
      2.547788     2.540144     2.532501     2.524858     2.517215     2.509572     2.501928     2.494285     2.486642     2.478999
      2.471355     2.463712     2.456069     2.448426     2.440783     2.433139     2.425496     2.417853     2.410210     2.402566
      2.394923     2.387280     2.379637     2.371994     2.364350     2.356707     2.349064     2.341421     2.333777     2.326134
      2.318491     2.310848     2.303205     2.295561     2.287918     2.280275     2.272632     2.264988     2.257345     2.249702
      2.242059     2.234416     2.226772     2.219129     2.211486     2.203843     2.196199     2.188556     2.180913     2.173270
      2.165627     2.157983     2.150340     2.142697     2.135054     2.127410     2.119767     2.112124     2.104481     2.096838
      2.089194     2.081551     2.073908     2.066265     2.058621     2.050978     2.043335     2.035692     2.028049     2.020405
      2.012762     2.005119     1.997476     1.989833     1.982190     1.974546     1.966903     1.959260     1.951617     1.943974
      1.936331     1.928688     1.921045     1.913402     1.905759     1.898115     1.890472     1.882829     1.875186     1.867543
      1.859900     1.852257     1.844614     1.836971     1.829327     1.821684     1.814041     1.806398     1.798755     1.791112
      1.783469     1.775826     1.768183     1.760540     1.752896     1.745253     1.737610     1.729967     1.722324     1.714681
      1.707038     1.699395     1.691752     1.684108     1.676465     1.668822     1.661179     1.653536     1.645893     1.638250
      1.630607     1.622964     1.615321     1.607677     1.600034     1.592391     1.584748     1.577105     1.569462     1.561819
      1.554176     1.546533     1.538890     1.531246     1.523603     1.515960     1.508317     1.500674     1.493031     1.485388
      1.477745     1.470102     1.462458     1.454815     1.447172     1.439529     1.431886     1.424243     1.416600     1.408957
      1.401314     1.393671     1.386027     1.378384     1.370741     1.363098     1.355455     1.347812     1.340169     1.332526
      1.324883     1.317240     1.309596     1.301953     1.294310     1.286667     1.279024     1.271381     1.263738     1.256095
      1.248452     1.240808     1.233165     1.225522     1.217879     1.210236     1.202593     1.194950     1.187307     1.179664
      1.172021     1.164377     1.156734     1.149091     1.141448     1.133805     1.126162     1.118519     1.110876     1.103233
      1.095590     1.087946     1.080303     1.072660     1.065017     1.057374     1.049731     1.042088     1.034445     1.026802
      1.019158     1.011515     1.003872     0.996229     0.988586     0.980943     0.973300     0.965657     0.958014     0.950371
      0.942727     0.935084     0.927441     0.919798     0.912155     0.904512     0.896869     0.889226     0.881583     0.873940
      0.866296     0.858653     0.851010     0.843367     0.835724     0.828081     0.820438     0.812795     0.805152     0.797508
      0.789865     0.782222     0.774579     0.766936     0.759293     0.751650     0.744007     0.736364     0.728721     0.721077
      0.713434     0.705791     0.698148     0.690505     0.682862     0.675219     0.667576     0.659933     0.652290     0.644646
      0.637003     0.629360     0.621717     0.614074     0.606431     0.598788     0.591145     0.583502     0.575858     0.568215
      0.560572     0.552929     0.545286     0.537643     0.530000     0.522357     0.514714     0.507071     0.499427     0.491784
      0.484141     0.476498     0.468855     0.461212     0.453569     0.445925     0.438282     0.430639     0.422996     0.415353
      0.407710     0.400067     0.392424     0.384780     0.377137     0.369494     0.361851     0.354208     0.346565     0.338922
      0.331278     0.323635     0.315992     0.308349     0.300706     0.293063     0.285420     0.277777     0.270133     0.262490
      0.254847     0.247204     0.239561     0.231918     0.224275     0.216631     0.208988     0.201345
 NY phased data points follow
  -4.25336E+01 -4.43853E+01 -4.06252E+01 -3.36251E+01 -2.54425E+01 -2.26787E+01 -1.51038E+01 -2.02802E+01 -5.73278E+00 -8.67425E+00
  -1.04138E+01 -1.31497E+01 -1.33429E+01 -2.37201E+01 -2.13517E+01 -4.11066E+01 -2.84639E+01 -3.32791E+01 -3.99589E+01 -4.10989E+01
  -3.55210E+01 -2.96987E+01 -2.71697E+01 -3.44878E+01 -2.94166E+01 -2.77082E+01 -2.63552E+01 -3.60387E+01 -1.87388E+01 -2.65407E+01
  -2.60948E+01 -2.78844E+01 -2.41728E+01 -2.49565E+01 -2.07807E+01 -3.05948E+01 -2.01219E+01 -2.72465E+01 -1.88153E+01 -3.13921E+01
  -2.03133E+01 -2.10818E+01 -1.98513E+01 -2.47407E+01 -1.37698E+01 -2.27529E+01 -1.68006E+01 -2.22034E+01 -1.62298E+01 -1.99441E+01
  -2.02890E+01 -2.10483E+01 -2.82346E+01 -1.80618E+01 -1.90026E+01 -2.41332E+01 -2.23529E+01 -2.79937E+01 -2.47353E+01 -2.37945E+01
  -2.66189E+01 -3.09640E+01 -2.40843E+01 -3.01803E+01 -2.59876E+01 -2.53390E+01 -1.88474E+01 -3.13689E+01 -2.47479E+01 -2.63397E+01
  -2.73157E+01 -2.16522E+01 -1.22888E+01 -2.07346E+01 -1.89132E+01 -1.73473E+01 -2.17029E+01 -2.09110E+01 -1.97642E+01 -1.62482E+01
  -1.96357E+01 -2.17851E+01 -1.49779E+01 -1.81485E+01 -1.02581E+01 -1.41774E+01 -9.68407E+00 -8.88061E+00 -2.86706E+00 -1.46237E+01
  -7.37239E+00 -1.27639E+01 -9.33585E+00 -5.74345E+00 -3.35105E+00 -3.68355E+00 -2.83290E+00  8.77880E+00  1.83444E+01  2.63984E+01
   3.10040E+01  3.87711E+01  4.64294E+01  4.58467E+01  3.26705E+01  1.90570E+01  1.97507E+01 -4.53508E+00  3.09813E-01 -1.05361E+01
  -1.86084E+00 -1.47402E+01 -9.60664E+00 -1.16224E+01 -1.27186E+01 -1.57153E+01 -9.77135E+00 -1.65478E+01 -5.71554E+00 -1.35247E+01
  -4.74735E+00 -4.99988E+00  2.49911E+00  9.10114E+00  1.23605E+01  2.16189E+01  2.41269E+01  2.81127E+01  3.16273E+01  2.11852E+01
   1.46665E+01  2.25816E+00 -7.14917E+00 -5.18599E+00 -7.69249E+00 -1.54147E+01 -7.01193E+00 -1.33290E+01 -1.66133E+01 -1.72183E+01
  -1.29401E+01 -1.62899E+01 -1.12336E+01 -1.30277E+01 -1.17277E+01 -1.97389E+01 -6.61157E+00 -1.20724E+01 -7.34244E+00 -1.39496E+01
  -9.56194E+00 -8.82146E+00 -4.38424E-01 -1.07452E+01 -8.03774E+00 -1.26339E+01 -9.62379E+00 -9.48303E+00 -9.21712E+00 -8.72903E+00
  -1.31649E+01 -1.49944E+01 -9.09929E+00 -1.12686E+01 -1.04264E+01 -7.06775E+00 -1.14270E+01 -1.58616E+01 -7.54082E+00 -1.41086E+01
  -1.35136E+01 -1.74613E+01 -1.58579E+01 -1.41341E+01 -1.28768E+01 -2.11237E+01 -1.04626E+01 -2.22606E+01 -1.72578E+01 -1.52270E+01
  -1.60765E+01 -2.28889E+01 -1.69416E+01 -1.82600E+01 -1.69954E+01 -1.08955E+01 -6.85710E+00 -6.80769E+00 -1.74510E+00 -2.54817E+00
   1.89265E+00  1.51136E+00  1.71272E+00 -1.27226E+00 -1.87228E+00 -5.50974E+00 -4.24412E-01 -7.20551E+00 -3.24984E-01 -2.42204E+00
  -6.11927E+00 -3.49989E+00  2.48398E+00 -3.16673E+00  3.48698E+00  8.45268E-01  6.09619E+00 -2.04934E+00 -1.41914E+01 -3.63623E+00
  -8.43752E+00  1.91682E+00  3.74066E+00  4.30557E+00  8.83051E+00  3.84042E+00  8.25647E+00  7.63175E+00  1.24334E+01  2.78591E+00
   1.84771E+00 -8.69640E+00 -4.70393E+00 -3.27045E+00  4.02408E+00 -4.71369E+00  3.88131E+00  4.06555E+00  3.80701E+00  4.49247E+00
   6.46821E+00  1.27789E+00  3.37721E+00 -1.87399E+00  2.81700E+00  8.41553E+00 -2.07609E-02  1.71714E+00  8.93633E+00  4.24926E+00
   5.47918E+00 -2.88748E+00  5.07797E+00  8.44010E+00  1.05805E+01 -6.54530E+00  1.02308E+01  8.01910E+00  1.14568E+01  8.01238E+00
   1.49840E+01  1.51113E+01  1.63808E+01  2.37333E+01  3.48343E+01  4.17039E+01  4.70008E+01  5.06304E+01  6.04556E+01  7.44138E+01
   8.30336E+01  7.26133E+01  6.60655E+01  5.51805E+01  4.29220E+01  3.10416E+01  2.85603E+01  2.23791E+01  1.84507E+01  1.10372E+01
   1.61564E+01  1.73967E+01  1.38383E+01  1.22162E+01  1.01062E+01  1.10176E+01  1.33348E+01  7.79851E+00  2.83695E+00  1.37337E+01
   5.50803E+00  7.66008E+00  2.48760E+00  5.12392E+00  5.79987E+00  4.88691E+00  3.51565E+00  4.72484E+00  7.44280E+00  7.46591E+00
   6.44403E+00  1.11651E+01  1.02765E+01  1.03094E+01  1.07258E+01  7.33260E+00  6.34712E+00  7.74907E+00  1.29800E+01  1.29652E+01
   1.27535E+01  8.20429E+00  1.13686E+01  9.62287E+00  1.63366E+01  7.50552E+00  9.78267E+00  6.68707E+00  1.37410E+01  1.31048E+01
   1.71973E+01  9.59819E+00  9.78784E+00  1.33268E+01  9.84940E+00  1.67574E+01  6.37346E+00  1.22751E+01  1.70052E+01  1.16445E+01
   1.62012E+01  9.55108E+00  1.39553E+01  6.95411E+00  1.36184E+01  7.69576E+00  1.02335E+01  1.44435E+01  1.28746E+01  6.37453E+00
   1.17518E+01  1.19937E+00  9.94324E+00  1.31073E+01  1.76356E+01  1.48183E+01  8.68610E+00  1.28243E+01  1.06597E+01  1.56738E+01
   1.22028E+01  1.12017E+01  7.86592E+00  1.02613E+01  1.18436E+01  1.11192E+01  1.68848E+01  9.36645E+00  8.67754E+00  6.13534E+00
   6.39280E+00  6.81601E-01  1.09258E+01  5.52122E+00  1.73422E+01  9.76352E+00  1.22892E+01  6.73791E+00  9.95467E+00  7.61576E+00
   1.70531E+01  4.61229E+00  5.63814E+00  4.66041E-01  1.10616E+01  7.60721E+00  1.04293E+01  1.01071E+01  8.92440E+00  1.09121E+01
   1.32190E+01  1.13495E+01  1.65837E+01  1.44858E+01  1.88140E+01  1.29070E+01  1.18423E+01  1.49662E+01  1.49689E+01  5.47363E+00
   1.62504E+01  1.44663E+01  2.00314E+01  8.66602E+00  1.51336E+01  7.83209E+00  1.45878E+01  8.22824E+00  7.91800E+00  1.18211E+01
   1.18616E+01  7.10807E+00  1.46196E+01  1.28957E+01  1.78792E+01  1.00936E+01  1.38456E+01  2.07184E+01  1.69581E+01  1.34115E+01
   1.13596E+01  1.66976E+01  1.66087E+01  8.41900E+00  1.87931E+01  1.55315E+01  1.37170E+01  1.49613E+01  2.04219E+01  1.81643E+01
   1.83423E+01  1.27414E+01  2.26064E+01  1.84045E+01  2.20306E+01  1.80109E+01  1.83255E+01  1.31903E+01  1.75268E+01  1.54461E+01
   1.35237E+01  1.11050E+01  1.49869E+01  1.28430E+01  1.08575E+01  1.78229E+01  1.71391E+01  1.28181E+01  1.53733E+01  6.65891E+00
   1.49268E+01  5.38450E+00  8.79720E+00  8.54922E+00  6.09992E+00  1.14848E+01  7.92769E+00  1.20998E+01  1.30972E+01  7.92130E+00
   1.36319E+01  8.06276E+00  1.06133E+01  2.31400E+00  1.62306E+01  1.29093E+01  1.20868E+01  1.07090E+01  1.23636E+01  8.47298E+00
   1.49992E+01  1.03614E+01  1.01999E+01  1.31596E+01  1.31345E+01  5.05313E+00  1.12858E+01  1.12061E+01  1.30169E+01  9.83314E+00
   9.90506E+00  7.15533E+00  7.73553E+00  1.02417E+01  9.56340E+00  1.12414E+01  1.31572E+01  1.45578E+01  8.95606E+00  9.67526E+00
   1.06249E+01  7.06690E+00  1.41834E+01  1.09206E+01  1.03554E+01  5.79791E+00  1.12964E+01  7.35515E+00  7.72811E+00  1.07898E+01
   7.94559E+00  8.07326E+00  1.21927E+01  1.03697E+01  9.60332E+00  8.06205E+00  1.08027E+01  1.04825E+01  9.60516E+00  1.04590E+01
   1.06823E+01  8.03292E+00  8.10079E+00  1.07306E+01  1.06989E+01  1.10264E+01  1.14752E+01  1.17607E+01
 NY points of the fit to the data follow
  -3.36258E+01 -3.23637E+01 -3.00851E+01 -2.74780E+01 -2.48075E+01 -2.21442E+01 -1.92822E+01 -1.59162E+01 -1.25332E+01 -1.05085E+01
  -1.08153E+01 -1.32665E+01 -1.69782E+01 -2.08673E+01 -2.39831E+01 -2.57779E+01 -2.66574E+01 -2.74571E+01 -2.84009E+01 -2.89965E+01
  -2.91349E+01 -2.91835E+01 -2.90973E+01 -2.89393E+01 -2.87356E+01 -2.84696E+01 -2.81410E+01 -2.76463E+01 -2.68756E+01 -2.58089E+01
  -2.45755E+01 -2.34419E+01 -2.27098E+01 -2.25558E+01 -2.30303E+01 -2.39791E+01 -2.50385E+01 -2.58720E+01 -2.62997E+01 -2.61934E+01
  -2.55682E+01 -2.47431E+01 -2.40450E+01 -2.35435E+01 -2.31894E+01 -2.29315E+01 -2.27179E+01 -2.25008E+01 -2.23764E+01 -2.25183E+01
  -2.29124E+01 -2.33477E+01 -2.36915E+01 -2.39379E+01 -2.40775E+01 -2.41146E+01 -2.41105E+01 -2.40829E+01 -2.39812E+01 -2.37834E+01
  -2.35757E+01 -2.34009E+01 -2.32836E+01 -2.32079E+01 -2.30972E+01 -2.29244E+01 -2.27296E+01 -2.25029E+01 -2.22248E+01 -2.19601E+01
  -2.17057E+01 -2.14287E+01 -2.11195E+01 -2.07553E+01 -2.03499E+01 -2.00437E+01 -1.99936E+01 -2.01822E+01 -2.03297E+01 -1.99378E+01
  -1.90267E+01 -1.77406E+01 -1.61983E+01 -1.45489E+01 -1.27653E+01 -1.09225E+01 -9.54841E+00 -9.24507E+00 -1.00847E+01 -1.17021E+01
  -1.35478E+01 -1.50458E+01 -1.57723E+01 -1.50725E+01 -1.18982E+01 -6.75992E+00 -2.90868E-01  7.08653E+00  1.51269E+01  2.41191E+01
   3.38426E+01  4.21087E+01  4.57583E+01  4.31017E+01  3.48470E+01  2.34325E+01  1.18580E+01  2.66971E+00 -3.15986E+00 -6.83735E+00
  -9.86418E+00 -1.25093E+01 -1.40960E+01 -1.47864E+01 -1.49468E+01 -1.49008E+01 -1.47456E+01 -1.44543E+01 -1.36588E+01 -1.10693E+01
  -6.94008E+00 -2.37311E+00  2.37499E+00  7.43478E+00  1.34047E+01  2.04317E+01  2.67082E+01  2.93759E+01  2.71314E+01  2.08627E+01
   1.25835E+01  4.55210E+00 -1.41211E+00 -4.74019E+00 -6.72777E+00 -8.77344E+00 -1.07812E+01 -1.17782E+01 -1.18881E+01 -1.16958E+01
  -1.13963E+01 -1.11315E+01 -1.09819E+01 -1.09449E+01 -1.09777E+01 -1.10415E+01 -1.11036E+01 -1.11493E+01 -1.11760E+01 -1.11915E+01
  -1.11947E+01 -1.11797E+01 -1.11591E+01 -1.11970E+01 -1.12779E+01 -1.13402E+01 -1.13525E+01 -1.13003E+01 -1.12901E+01 -1.14251E+01
  -1.16417E+01 -1.17750E+01 -1.16948E+01 -1.14151E+01 -1.11121E+01 -1.10003E+01 -1.11764E+01 -1.16020E+01 -1.21384E+01 -1.25941E+01
  -1.28139E+01 -1.28623E+01 -1.28946E+01 -1.30433E+01 -1.32765E+01 -1.33931E+01 -1.32464E+01 -1.28554E+01 -1.23966E+01 -1.20894E+01
  -1.19448E+01 -1.17999E+01 -1.15368E+01 -1.10914E+01 -1.04744E+01 -9.78948E+00 -9.09003E+00 -8.29333E+00 -7.32465E+00 -6.25449E+00
  -5.32501E+00 -4.76174E+00 -4.61153E+00 -4.73108E+00 -4.87583E+00 -4.87600E+00 -4.68872E+00 -4.34649E+00 -3.82665E+00 -3.12828E+00
  -2.35993E+00 -1.61631E+00 -1.11572E+00 -9.81323E-01 -1.31634E+00 -2.22479E+00 -3.57410E+00 -5.06446E+00 -6.31092E+00 -6.86595E+00
  -6.60680E+00 -5.58763E+00 -3.97450E+00 -1.96880E+00  7.67344E-02  1.55642E+00  1.97948E+00  1.31947E+00 -2.03153E-01 -2.25035E+00
  -4.37985E+00 -5.98291E+00 -6.48138E+00 -5.73053E+00 -4.05985E+00 -1.90537E+00  3.21809E-01  2.19017E+00  3.29336E+00  3.70158E+00
   3.79413E+00  3.90508E+00  4.11382E+00  4.34845E+00  4.62838E+00  4.98399E+00  5.42064E+00  5.87727E+00  6.26657E+00  6.50579E+00
   6.53623E+00  6.35198E+00  6.11385E+00  6.12713E+00  6.53301E+00  7.25141E+00  8.12830E+00  9.09211E+00  1.01809E+01  1.12714E+01
   1.23991E+01  1.39882E+01  1.76256E+01  2.42142E+01  3.20439E+01  3.99759E+01  4.75773E+01  5.53492E+01  6.42188E+01  7.30622E+01
   7.82054E+01  7.67014E+01  6.86729E+01  5.63584E+01  4.28714E+01  3.13783E+01  2.38991E+01  1.96409E+01  1.61502E+01  1.26039E+01
   1.00377E+01  8.96854E+00  8.47356E+00  8.19145E+00  8.02106E+00  7.88129E+00  7.70362E+00  7.48549E+00  7.24592E+00  7.01153E+00
   6.81778E+00  6.68467E+00  6.60349E+00  6.56230E+00  6.56479E+00  6.61017E+00  6.68643E+00  6.78477E+00  6.91092E+00  7.07585E+00
   7.28353E+00  7.52758E+00  7.80381E+00  8.10741E+00  8.43061E+00  8.76587E+00  9.10883E+00  9.45575E+00  9.80442E+00  1.01504E+01
   1.04866E+01  1.08048E+01  1.10981E+01  1.13583E+01  1.15772E+01  1.17493E+01  1.18728E+01  1.19487E+01  1.19785E+01  1.19653E+01
   1.19143E+01  1.18316E+01  1.17241E+01  1.15999E+01  1.14683E+01  1.13387E+01  1.12218E+01  1.11304E+01  1.10863E+01  1.11192E+01
   1.11821E+01  1.12219E+01  1.12411E+01  1.12482E+01  1.12465E+01  1.11936E+01  1.09881E+01  1.06165E+01  1.01828E+01  9.79077E+00
   9.53544E+00  9.47771E+00  9.65426E+00  1.00747E+01  1.06565E+01  1.12560E+01  1.17645E+01  1.21330E+01  1.23401E+01  1.24433E+01
   1.24705E+01  1.24399E+01  1.23882E+01  1.22874E+01  1.21163E+01  1.18512E+01  1.13921E+01  1.07240E+01  9.93885E+00  9.18142E+00
   8.60702E+00  8.32757E+00  8.42902E+00  8.92528E+00  9.64740E+00  1.03455E+01  1.08738E+01  1.11915E+01  1.12698E+01  1.11475E+01
   1.09600E+01  1.08322E+01  1.07663E+01  1.06933E+01  1.05894E+01  1.05072E+01  1.04598E+01  1.04275E+01  1.04016E+01  1.03783E+01
   1.03560E+01  1.03345E+01  1.03141E+01  1.02956E+01  1.02804E+01  1.02702E+01  1.02667E+01  1.02720E+01  1.02882E+01  1.03172E+01
   1.03614E+01  1.04230E+01  1.05044E+01  1.06077E+01  1.07350E+01  1.08884E+01  1.10701E+01  1.12817E+01  1.15248E+01  1.18002E+01
   1.21082E+01  1.24485E+01  1.28201E+01  1.32204E+01  1.36463E+01  1.40928E+01  1.45540E+01  1.50229E+01  1.54913E+01  1.59501E+01
   1.63896E+01  1.67996E+01  1.71705E+01  1.74930E+01  1.77590E+01  1.79615E+01  1.80956E+01  1.81580E+01  1.81479E+01  1.80666E+01
   1.79177E+01  1.77062E+01  1.74393E+01  1.71250E+01  1.67726E+01  1.63914E+01  1.59910E+01  1.55805E+01  1.51682E+01  1.47616E+01
   1.43672E+01  1.39901E+01  1.36343E+01  1.33025E+01  1.29963E+01  1.27166E+01  1.24634E+01  1.22360E+01  1.20332E+01  1.18535E+01
   1.16950E+01  1.15561E+01  1.14350E+01  1.13297E+01  1.12386E+01  1.11599E+01  1.10923E+01  1.10345E+01  1.09853E+01  1.09437E+01
   1.09086E+01  1.08792E+01  1.08551E+01  1.08355E+01  1.08199E+01  1.08078E+01  1.07988E+01  1.07927E+01  1.07890E+01  1.07877E+01
   1.07884E+01  1.07909E+01  1.07950E+01  1.08007E+01  1.08077E+01  1.08161E+01  1.08255E+01  1.08360E+01  1.08474E+01  1.08597E+01
   1.08729E+01  1.08868E+01  1.09014E+01  1.09165E+01  1.09323E+01  1.09487E+01  1.09656E+01  1.09830E+01  1.10008E+01  1.10190E+01
   1.10376E+01  1.10567E+01  1.10760E+01  1.10957E+01  1.11156E+01  1.11359E+01  1.11564E+01  1.11772E+01  1.11983E+01  1.12195E+01
   1.12409E+01  1.12625E+01  1.12844E+01  1.13065E+01  1.13287E+01  1.13511E+01  1.13735E+01  1.13962E+01  1.14190E+01  1.14420E+01
   1.14651E+01  1.14882E+01  1.15114E+01  1.15348E+01  1.15584E+01  1.15820E+01  1.16056E+01  1.16293E+01
 NY background values follow
    -3.662E+01   -3.645E+01   -3.628E+01   -3.611E+01   -3.594E+01   -3.577E+01   -3.560E+01   -3.543E+01   -3.526E+01   -3.509E+01
    -3.492E+01   -3.475E+01   -3.458E+01   -3.441E+01   -3.424E+01   -3.407E+01   -3.390E+01   -3.373E+01   -3.356E+01   -3.339E+01
    -3.322E+01   -3.305E+01   -3.288E+01   -3.271E+01   -3.254E+01   -3.237E+01   -3.220E+01   -3.203E+01   -3.186E+01   -3.170E+01
    -3.153E+01   -3.136E+01   -3.119E+01   -3.102E+01   -3.085E+01   -3.068E+01   -3.051E+01   -3.034E+01   -3.018E+01   -3.001E+01
    -2.984E+01   -2.967E+01   -2.950E+01   -2.934E+01   -2.917E+01   -2.900E+01   -2.883E+01   -2.867E+01   -2.850E+01   -2.833E+01
    -2.816E+01   -2.800E+01   -2.783E+01   -2.766E+01   -2.750E+01   -2.733E+01   -2.716E+01   -2.700E+01   -2.683E+01   -2.667E+01
    -2.650E+01   -2.634E+01   -2.617E+01   -2.601E+01   -2.584E+01   -2.568E+01   -2.551E+01   -2.535E+01   -2.518E+01   -2.502E+01
    -2.486E+01   -2.469E+01   -2.453E+01   -2.437E+01   -2.420E+01   -2.404E+01   -2.388E+01   -2.372E+01   -2.356E+01   -2.339E+01
    -2.323E+01   -2.307E+01   -2.291E+01   -2.275E+01   -2.259E+01   -2.243E+01   -2.227E+01   -2.211E+01   -2.195E+01   -2.179E+01
    -2.163E+01   -2.148E+01   -2.132E+01   -2.116E+01   -2.100E+01   -2.084E+01   -2.069E+01   -2.053E+01   -2.037E+01   -2.022E+01
    -2.006E+01   -1.991E+01   -1.975E+01   -1.960E+01   -1.944E+01   -1.929E+01   -1.913E+01   -1.898E+01   -1.883E+01   -1.867E+01
    -1.852E+01   -1.837E+01   -1.822E+01   -1.806E+01   -1.791E+01   -1.776E+01   -1.761E+01   -1.746E+01   -1.731E+01   -1.716E+01
    -1.701E+01   -1.686E+01   -1.671E+01   -1.656E+01   -1.641E+01   -1.627E+01   -1.612E+01   -1.597E+01   -1.582E+01   -1.568E+01
    -1.553E+01   -1.539E+01   -1.524E+01   -1.509E+01   -1.495E+01   -1.480E+01   -1.466E+01   -1.452E+01   -1.437E+01   -1.423E+01
    -1.409E+01   -1.394E+01   -1.380E+01   -1.366E+01   -1.352E+01   -1.338E+01   -1.324E+01   -1.310E+01   -1.296E+01   -1.282E+01
    -1.268E+01   -1.254E+01   -1.240E+01   -1.226E+01   -1.213E+01   -1.199E+01   -1.185E+01   -1.172E+01   -1.158E+01   -1.145E+01
    -1.131E+01   -1.118E+01   -1.104E+01   -1.091E+01   -1.077E+01   -1.064E+01   -1.051E+01   -1.038E+01   -1.024E+01   -1.011E+01
    -9.981E+00   -9.850E+00   -9.720E+00   -9.590E+00   -9.461E+00   -9.332E+00   -9.204E+00   -9.076E+00   -8.948E+00   -8.821E+00
    -8.694E+00   -8.568E+00   -8.442E+00   -8.317E+00   -8.192E+00   -8.068E+00   -7.944E+00   -7.820E+00   -7.697E+00   -7.575E+00
    -7.452E+00   -7.331E+00   -7.210E+00   -7.089E+00   -6.969E+00   -6.849E+00   -6.730E+00   -6.611E+00   -6.493E+00   -6.375E+00
    -6.257E+00   -6.141E+00   -6.024E+00   -5.908E+00   -5.793E+00   -5.678E+00   -5.564E+00   -5.450E+00   -5.336E+00   -5.223E+00
    -5.111E+00   -4.999E+00   -4.888E+00   -4.777E+00   -4.666E+00   -4.556E+00   -4.447E+00   -4.338E+00   -4.230E+00   -4.122E+00
    -4.015E+00   -3.908E+00   -3.802E+00   -3.696E+00   -3.591E+00   -3.486E+00   -3.382E+00   -3.278E+00   -3.175E+00   -3.072E+00
    -2.970E+00   -2.869E+00   -2.768E+00   -2.667E+00   -2.568E+00   -2.468E+00   -2.369E+00   -2.271E+00   -2.173E+00   -2.076E+00
    -1.979E+00   -1.882E+00   -1.787E+00   -1.691E+00   -1.597E+00   -1.502E+00   -1.408E+00   -1.315E+00   -1.222E+00   -1.130E+00
    -1.038E+00   -9.471E-01   -8.564E-01   -7.661E-01   -6.763E-01   -5.871E-01   -4.983E-01   -4.100E-01   -3.222E-01   -2.349E-01
    -1.481E-01   -6.179E-02    2.405E-02    1.094E-01    1.943E-01    2.787E-01    3.626E-01    4.460E-01    5.289E-01    6.114E-01
     6.934E-01    7.749E-01    8.560E-01    9.365E-01    1.017E+00    1.096E+00    1.175E+00    1.254E+00    1.332E+00    1.410E+00
     1.487E+00    1.564E+00    1.641E+00    1.717E+00    1.792E+00    1.867E+00    1.942E+00    2.016E+00    2.090E+00    2.163E+00
     2.236E+00    2.308E+00    2.380E+00    2.452E+00    2.523E+00    2.593E+00    2.664E+00    2.734E+00    2.803E+00    2.872E+00
     2.940E+00    3.008E+00    3.076E+00    3.143E+00    3.210E+00    3.277E+00    3.343E+00    3.408E+00    3.474E+00    3.538E+00
     3.603E+00    3.667E+00    3.730E+00    3.794E+00    3.856E+00    3.919E+00    3.981E+00    4.042E+00    4.104E+00    4.165E+00
     4.225E+00    4.285E+00    4.345E+00    4.404E+00    4.463E+00    4.522E+00    4.580E+00    4.638E+00    4.695E+00    4.752E+00
     4.809E+00    4.865E+00    4.921E+00    4.977E+00    5.032E+00    5.087E+00    5.142E+00    5.196E+00    5.250E+00    5.304E+00
     5.357E+00    5.410E+00    5.463E+00    5.515E+00    5.567E+00    5.618E+00    5.670E+00    5.721E+00    5.771E+00    5.822E+00
     5.872E+00    5.921E+00    5.971E+00    6.020E+00    6.069E+00    6.117E+00    6.165E+00    6.213E+00    6.261E+00    6.308E+00
     6.355E+00    6.402E+00    6.448E+00    6.494E+00    6.540E+00    6.586E+00    6.631E+00    6.676E+00    6.721E+00    6.765E+00
     6.809E+00    6.853E+00    6.897E+00    6.940E+00    6.983E+00    7.026E+00    7.069E+00    7.111E+00    7.154E+00    7.195E+00
     7.237E+00    7.278E+00    7.320E+00    7.361E+00    7.401E+00    7.442E+00    7.482E+00    7.522E+00    7.562E+00    7.601E+00
     7.641E+00    7.680E+00    7.719E+00    7.758E+00    7.796E+00    7.834E+00    7.872E+00    7.910E+00    7.948E+00    7.985E+00
     8.023E+00    8.060E+00    8.097E+00    8.133E+00    8.170E+00    8.206E+00    8.242E+00    8.278E+00    8.314E+00    8.350E+00
     8.385E+00    8.421E+00    8.456E+00    8.491E+00    8.526E+00    8.560E+00    8.595E+00    8.629E+00    8.663E+00    8.697E+00
     8.731E+00    8.765E+00    8.798E+00    8.832E+00    8.865E+00    8.899E+00    8.932E+00    8.965E+00    8.997E+00    9.030E+00
     9.063E+00    9.095E+00    9.128E+00    9.160E+00    9.192E+00    9.224E+00    9.256E+00    9.288E+00    9.320E+00    9.351E+00
     9.383E+00    9.414E+00    9.446E+00    9.477E+00    9.508E+00    9.539E+00    9.570E+00    9.601E+00    9.632E+00    9.663E+00
     9.694E+00    9.725E+00    9.755E+00    9.786E+00    9.817E+00    9.847E+00    9.877E+00    9.908E+00    9.938E+00    9.969E+00
     9.999E+00    1.003E+01    1.006E+01    1.009E+01    1.012E+01    1.015E+01    1.018E+01    1.021E+01    1.024E+01    1.027E+01
     1.030E+01    1.033E+01    1.036E+01    1.039E+01    1.042E+01    1.045E+01    1.048E+01    1.051E+01    1.054E+01    1.057E+01
     1.060E+01    1.063E+01    1.066E+01    1.069E+01    1.071E+01    1.074E+01    1.077E+01    1.080E+01    1.083E+01    1.086E+01
     1.089E+01    1.092E+01    1.095E+01    1.098E+01    1.101E+01    1.104E+01    1.107E+01    1.110E+01
 Ala      Conc. = 1.33E+02
