 LCModel (Version 6.3-1L) Copyright: S.W. Provencher.          Ref.: Magn. Reson. Med. 30:672-679 (1993).                
 Slice#1 Row#2 Col#14  PD_24_press_1_raw_act
 36 lines in following concentration table = NCONC+1
    Conc.  %SD /Cr+PCr  Metabolite                                         
    0.888 637%   0.128 Ala                                                 
    0.809 244%   0.117 Asp                                                 
    1.165 516%   0.168 Cr                                                  
    5.769 116%   0.832 PCr                                                 
    0.421 280% 6.1E-02 GABA                                                
    0.371 319% 5.4E-02 Glc                                                 
   22.049  67%   3.180 Gln                                                 
    5.622 207%   0.811 Glu                                                 
    0.000 999%   0.000 GPC                                                 
    2.487  75%   0.359 PCh                                                 
    4.163 121%   0.600 GSH                                                 
    0.000 999%   0.000 Ins                                                 
    8.207  87%   1.184 Lac                                                 
    0.000 999%   0.000 NAA                                                 
    0.000 999%   0.000 NAAG                                                
    0.125 312% 1.8E-02 Scyllo                                              
    0.843 233%   0.122 Tau                                                 
    2.322 178%   0.335 -CrCH2                                              
    2.487  75%   0.359 GPC+PCh                                             
    0.000 999%   0.000 NAA+NAAG                                            
    6.934  74%   1.000 Cr+PCr                                              
   27.670  68%   3.990 Glu+Gln                                             
 2.17E+04  15% 3.1E+03 Lip13a                                              
 1.73E+03  37% 248.973 Lip13b                                              
 1.02E+04  13% 1.5E+03 Lip09                                               
 1.08E+04  15% 1.6E+03 MM09                                                
    0.000 999%   0.000 Lip20                                               
    0.000 999%   0.000 MM20                                                
 3.72E+03  45% 536.139 MM12                                                
 3.53E+03  31% 509.693 MM14                                                
 3.48E+03  21% 501.595 MM17                                                
 2.34E+04  14% 3.4E+03 Lip13a+Lip13b                                       
 3.07E+04   8% 4.4E+03 MM14+Lip13a+Lip13b+MM12                             
 2.11E+04   5% 3.0E+03 MM09+Lip09                                          
    0.000 999%   0.000 MM20+Lip20                                          
   6 lines in following misc. output table
  FWHM = 0.023 ppm    S/N =  30                                            
  Data shift = 0.023 ppm                                                   
  Ph:  40 deg      13.4 deg/ppm                                            
  alphaB,S = 8.5E+01,   1.2E+00                                            
   14 spline knots.   Ns = 5(1)                                            
   2 inflections.     2 extrema                                            
  498 points on ppm-axis = NY
      4.000000     3.992357     3.984714     3.977070     3.969427     3.961784     3.954141     3.946497     3.938854     3.931211
      3.923568     3.915925     3.908281     3.900638     3.892995     3.885352     3.877708     3.870065     3.862422     3.854779
      3.847136     3.839492     3.831849     3.824206     3.816563     3.808919     3.801276     3.793633     3.785990     3.778347
      3.770703     3.763060     3.755417     3.747774     3.740130     3.732487     3.724844     3.717201     3.709558     3.701914
      3.694271     3.686628     3.678985     3.671341     3.663698     3.656055     3.648412     3.640769     3.633125     3.625482
      3.617839     3.610196     3.602552     3.594909     3.587266     3.579623     3.571980     3.564336     3.556693     3.549050
      3.541407     3.533763     3.526120     3.518477     3.510834     3.503191     3.495547     3.487904     3.480261     3.472618
      3.464974     3.457331     3.449688     3.442045     3.434402     3.426758     3.419115     3.411472     3.403829     3.396185
      3.388542     3.380899     3.373256     3.365613     3.357969     3.350326     3.342683     3.335040     3.327396     3.319753
      3.312110     3.304467     3.296824     3.289180     3.281537     3.273894     3.266251     3.258607     3.250964     3.243321
      3.235678     3.228034     3.220391     3.212748     3.205105     3.197462     3.189818     3.182175     3.174532     3.166889
      3.159245     3.151602     3.143959     3.136316     3.128673     3.121029     3.113386     3.105743     3.098100     3.090456
      3.082813     3.075170     3.067527     3.059884     3.052240     3.044597     3.036954     3.029311     3.021667     3.014024
      3.006381     2.998738     2.991095     2.983451     2.975808     2.968165     2.960522     2.952878     2.945235     2.937592
      2.929949     2.922306     2.914662     2.907019     2.899376     2.891733     2.884089     2.876446     2.868803     2.861160
      2.853517     2.845873     2.838230     2.830587     2.822944     2.815300     2.807657     2.800014     2.792371     2.784728
      2.777084     2.769441     2.761798     2.754155     2.746511     2.738868     2.731225     2.723582     2.715939     2.708295
      2.700652     2.693009     2.685366     2.677722     2.670079     2.662436     2.654793     2.647150     2.639506     2.631863
      2.624220     2.616577     2.608933     2.601290     2.593647     2.586004     2.578361     2.570717     2.563074     2.555431
      2.547788     2.540144     2.532501     2.524858     2.517215     2.509572     2.501928     2.494285     2.486642     2.478999
      2.471355     2.463712     2.456069     2.448426     2.440783     2.433139     2.425496     2.417853     2.410210     2.402566
      2.394923     2.387280     2.379637     2.371994     2.364350     2.356707     2.349064     2.341421     2.333777     2.326134
      2.318491     2.310848     2.303205     2.295561     2.287918     2.280275     2.272632     2.264988     2.257345     2.249702
      2.242059     2.234416     2.226772     2.219129     2.211486     2.203843     2.196199     2.188556     2.180913     2.173270
      2.165627     2.157983     2.150340     2.142697     2.135054     2.127410     2.119767     2.112124     2.104481     2.096838
      2.089194     2.081551     2.073908     2.066265     2.058621     2.050978     2.043335     2.035692     2.028049     2.020405
      2.012762     2.005119     1.997476     1.989833     1.982190     1.974546     1.966903     1.959260     1.951617     1.943974
      1.936331     1.928688     1.921045     1.913402     1.905759     1.898115     1.890472     1.882829     1.875186     1.867543
      1.859900     1.852257     1.844614     1.836971     1.829327     1.821684     1.814041     1.806398     1.798755     1.791112
      1.783469     1.775826     1.768183     1.760540     1.752896     1.745253     1.737610     1.729967     1.722324     1.714681
      1.707038     1.699395     1.691752     1.684108     1.676465     1.668822     1.661179     1.653536     1.645893     1.638250
      1.630607     1.622964     1.615321     1.607677     1.600034     1.592391     1.584748     1.577105     1.569462     1.561819
      1.554176     1.546533     1.538890     1.531246     1.523603     1.515960     1.508317     1.500674     1.493031     1.485388
      1.477745     1.470102     1.462458     1.454815     1.447172     1.439529     1.431886     1.424243     1.416600     1.408957
      1.401314     1.393671     1.386027     1.378384     1.370741     1.363098     1.355455     1.347812     1.340169     1.332526
      1.324883     1.317240     1.309596     1.301953     1.294310     1.286667     1.279024     1.271381     1.263738     1.256095
      1.248452     1.240808     1.233165     1.225522     1.217879     1.210236     1.202593     1.194950     1.187307     1.179664
      1.172021     1.164377     1.156734     1.149091     1.141448     1.133805     1.126162     1.118519     1.110876     1.103233
      1.095590     1.087946     1.080303     1.072660     1.065017     1.057374     1.049731     1.042088     1.034445     1.026802
      1.019158     1.011515     1.003872     0.996229     0.988586     0.980943     0.973300     0.965657     0.958014     0.950371
      0.942727     0.935084     0.927441     0.919798     0.912155     0.904512     0.896869     0.889226     0.881583     0.873940
      0.866296     0.858653     0.851010     0.843367     0.835724     0.828081     0.820438     0.812795     0.805152     0.797508
      0.789865     0.782222     0.774579     0.766936     0.759293     0.751650     0.744007     0.736364     0.728721     0.721077
      0.713434     0.705791     0.698148     0.690505     0.682862     0.675219     0.667576     0.659933     0.652290     0.644646
      0.637003     0.629360     0.621717     0.614074     0.606431     0.598788     0.591145     0.583502     0.575858     0.568215
      0.560572     0.552929     0.545286     0.537643     0.530000     0.522357     0.514714     0.507071     0.499427     0.491784
      0.484141     0.476498     0.468855     0.461212     0.453569     0.445925     0.438282     0.430639     0.422996     0.415353
      0.407710     0.400067     0.392424     0.384780     0.377137     0.369494     0.361851     0.354208     0.346565     0.338922
      0.331278     0.323635     0.315992     0.308349     0.300706     0.293063     0.285420     0.277777     0.270133     0.262490
      0.254847     0.247204     0.239561     0.231918     0.224275     0.216631     0.208988     0.201345
 NY phased data points follow
  -1.01711E+00 -1.98061E+00 -1.69614E-01  1.43964E+00  3.25397E+00 -2.71986E-01 -2.42904E+00 -2.55453E+00 -3.22316E+00 -1.73316E+00
  -2.90771E+00  1.03585E+00 -4.20838E+00 -2.64716E+00 -5.59971E-01 -3.03570E+00 -1.80507E+00 -1.46783E+00  1.00800E+00  6.86312E-01
   1.41979E+00  2.05214E+00 -1.10104E+00  9.51162E-01  1.20209E+00 -1.94396E+00 -1.15051E+00 -1.89508E+00 -3.47407E-01 -8.18387E-01
  -4.06838E+00 -1.71536E+00 -2.17328E+00  1.28503E+00 -2.05700E+00 -2.46536E+00 -1.49490E+00 -1.05841E+00 -1.42614E+00 -1.00462E+00
  -2.52992E+00 -3.36292E+00 -1.82420E+00 -2.23914E+00 -2.08256E+00 -2.69915E+00 -3.06781E+00 -3.19512E-01 -9.33514E-01 -9.91607E-01
  -1.96584E+00 -2.35175E+00 -1.66692E+00 -1.60008E+00 -4.61573E+00 -1.04692E+00 -8.90642E-01 -3.88250E+00  1.05557E-01 -4.36541E+00
   3.48821E-01 -2.39493E+00  6.00592E-01 -8.01436E-01 -9.93519E-01 -3.92807E+00  1.31847E+00 -3.86061E+00 -1.31037E-01 -7.15903E-01
  -2.09514E+00 -1.09487E+00  2.05105E+00 -2.81847E+00 -1.51252E+00 -9.36487E-01 -5.58368E-01 -4.33427E+00 -2.55539E-01 -9.46159E-01
  -4.62098E-01 -3.03635E+00  3.74657E-01 -8.78800E-01 -1.78020E+00 -9.83780E-01 -4.75545E+00 -1.56531E+00  4.51716E-03 -1.82042E+00
  -4.58281E+00 -2.77064E+00 -6.30659E-01 -5.02240E-01 -5.96591E-01 -2.11683E+00 -2.99004E+00 -3.72956E+00 -3.67000E+00 -5.43606E+00
  -1.07396E+00 -2.92655E+00 -6.16212E+00 -6.72668E+00 -4.12704E+00 -3.75291E+00 -2.07483E+00 -3.58455E+00 -1.20892E+00 -2.54493E+00
  -3.35246E-01 -4.76476E+00 -3.70411E+00 -3.08881E+00  5.27526E-01  2.43683E+00 -2.07053E+00 -2.80980E+00 -1.07095E+00 -6.46003E-01
  -2.54149E+00 -6.60016E-01 -2.71750E+00 -2.32645E+00 -3.00954E+00 -3.63248E+00 -3.88070E+00 -6.16202E+00 -1.86074E+00 -2.98488E+00
   1.05394E+00 -1.88332E+00 -3.95183E+00  7.49360E-02 -4.35001E+00 -1.15301E+00 -5.15737E-01 -1.38097E+00 -8.82223E-01 -2.01095E+00
  -3.66917E+00 -2.62558E+00 -1.52551E+00 -6.25471E-01  6.34107E-01 -1.41249E+00 -1.75981E+00 -3.57578E+00 -4.52089E+00 -3.35850E+00
  -4.20686E-02 -3.96461E+00 -2.77265E+00 -3.46063E+00 -3.03610E+00 -4.50569E+00 -1.35908E+00 -4.87440E+00 -2.54360E+00 -2.95936E+00
  -2.15711E+00  3.20964E-01 -1.25375E+00  3.61714E-01 -2.52107E+00 -1.22499E+00 -5.27513E+00 -3.03704E+00 -3.16993E+00 -3.92002E+00
  -1.00133E-01 -7.81868E-01 -2.33532E+00 -9.03437E-01 -6.60376E-01 -2.47957E+00 -2.34036E+00 -3.33041E+00 -3.25286E+00 -1.52891E+00
   1.47648E+00 -1.61584E+00 -1.66128E+00 -2.42644E+00 -2.31589E+00 -6.06100E-01 -1.68509E+00 -2.76953E+00 -6.16019E-01  4.64943E-01
  -1.39131E+00 -3.43549E-01  1.71641E-01 -2.43710E+00  1.34769E-01  1.12705E+00 -8.29203E-01 -2.94329E+00 -2.98610E+00 -3.31266E+00
  -1.91658E+00 -4.34955E+00 -2.40175E+00 -3.31529E+00 -1.05863E+00 -1.61072E+00  4.93198E-02 -1.21590E-01 -7.85561E-01  1.77662E-01
  -1.81078E+00 -5.65618E-01 -3.13313E+00 -2.33265E+00 -4.27639E+00 -2.36284E+00  8.35935E-01 -3.02366E+00  2.47479E+00  2.05515E-01
  -9.96767E-01 -3.39457E+00 -1.10523E+00 -9.27357E-01 -6.33956E-01 -2.96097E+00 -2.25938E+00 -4.01782E+00  9.18332E-01 -3.78295E+00
  -3.46299E+00 -6.78880E-01 -3.00442E-01 -3.01576E+00 -2.71376E+00 -1.05639E+00 -9.42717E-01 -2.07406E+00 -4.57932E+00 -2.39417E+00
  -3.06395E+00 -1.15663E+00 -2.71771E+00 -2.36901E+00 -1.80618E+00 -2.55284E+00 -1.56183E-01 -6.22816E-01 -1.20211E+00 -4.11750E+00
  -1.57038E+00 -2.71022E+00 -2.73463E+00 -7.87407E-01  2.53195E-02 -1.89678E-01 -2.72729E+00 -1.38072E+00  5.77367E-01 -2.62646E+00
  -1.52257E+00 -1.89665E-01  1.02442E+00  3.36831E-01 -3.07754E+00  6.99734E-01 -1.68542E+00  2.33307E-01  2.88873E+00  4.23757E+00
   1.56262E+00  1.78943E+00  3.09529E+00  1.97231E+00  2.63436E+00  6.08791E+00  2.66084E+00  4.23915E+00  1.42047E+00  3.95424E+00
   3.42790E+00  8.00846E+00  4.09291E+00  3.55554E+00  8.46496E+00  3.69060E+00  7.26590E+00  6.50103E+00  6.27626E+00  9.31445E+00
   1.16337E+01  1.13466E+01  1.08725E+01  1.11200E+01  9.75895E+00  1.29303E+01  1.40820E+01  1.17722E+01  1.45748E+01  1.10485E+01
   1.71881E+01  1.39661E+01  1.59415E+01  1.88699E+01  1.77954E+01  1.94318E+01  2.17955E+01  2.14021E+01  2.40779E+01  2.53824E+01
   2.30360E+01  2.38981E+01  2.74161E+01  3.17046E+01  2.83999E+01  3.05201E+01  3.12971E+01  3.02328E+01  3.02452E+01  3.41640E+01
   3.12435E+01  3.45739E+01  3.48214E+01  3.76080E+01  3.90985E+01  3.95216E+01  4.12906E+01  3.92407E+01  4.45509E+01  4.30320E+01
   4.47668E+01  4.62858E+01  4.56105E+01  4.73050E+01  4.92645E+01  5.31650E+01  5.20755E+01  5.17658E+01  5.86133E+01  5.70744E+01
   6.05025E+01  6.21527E+01  6.41722E+01  6.85512E+01  7.13799E+01  7.30475E+01  7.57335E+01  8.04175E+01  8.46867E+01  8.79344E+01
   8.92697E+01  9.48496E+01  9.56122E+01  9.95599E+01  1.01855E+02  1.01332E+02  1.02507E+02  1.02469E+02  1.04333E+02  1.04634E+02
   1.04689E+02  1.06514E+02  1.01429E+02  1.02318E+02  1.03148E+02  1.02231E+02  9.87052E+01  9.72879E+01  9.69441E+01  9.38384E+01
   9.65655E+01  9.49426E+01  9.83626E+01  9.51123E+01  9.57137E+01  9.71743E+01  9.81413E+01  9.85166E+01  1.01231E+02  1.01137E+02
   1.04303E+02  1.03861E+02  1.01924E+02  1.07485E+02  1.06288E+02  1.10634E+02  1.09098E+02  1.13318E+02  1.12867E+02  1.11086E+02
   1.11269E+02  1.09412E+02  1.07362E+02  1.05662E+02  1.06258E+02  1.01260E+02  1.03259E+02  1.00442E+02  1.00958E+02  9.87647E+01
   9.65948E+01  9.47011E+01  9.17845E+01  8.90111E+01  8.50092E+01  8.54590E+01  8.08610E+01  8.03669E+01  7.56562E+01  7.19896E+01
   7.05047E+01  6.89768E+01  6.36149E+01  6.14678E+01  5.80639E+01  5.68257E+01  5.37899E+01  5.02316E+01  4.67338E+01  4.57256E+01
   4.44604E+01  4.28054E+01  4.02718E+01  3.42265E+01  3.50676E+01  3.20639E+01  3.04633E+01  2.60827E+01  2.70400E+01  2.30385E+01
   2.23593E+01  2.15349E+01  2.08772E+01  1.90890E+01  1.91856E+01  1.61240E+01  1.48693E+01  1.47055E+01  1.50174E+01  1.45725E+01
   1.18500E+01  1.24058E+01  7.20509E+00  1.08646E+01  7.42447E+00  8.91135E+00  6.32211E+00  5.47063E+00  6.85632E+00  2.74595E+00
   5.85363E+00  5.62875E+00  4.41117E+00  5.23601E+00  4.96213E+00  5.38702E+00  3.09670E+00  3.62876E+00 -2.74773E-01  3.03298E+00
   1.01575E+00  2.03420E+00  2.11128E+00  1.54589E+00 -3.28800E+00 -7.06224E-02  1.75586E+00 -1.02380E+00 -5.11158E-02 -3.44358E+00
  -2.99438E+00 -3.62827E+00 -3.03952E+00 -8.85443E-01 -2.70338E+00  3.39967E-01 -5.89665E+00 -3.25472E+00 -4.90428E+00 -4.16833E+00
  -3.59322E+00 -3.11525E+00 -4.42310E+00 -2.45127E+00 -5.38301E+00 -2.52207E+00 -3.30808E+00 -3.77837E+00 -3.60435E+00 -2.27000E+00
  -6.83574E+00 -6.54478E+00 -2.46630E+00 -3.99503E+00 -4.24049E+00 -4.97338E+00 -4.37443E+00 -2.15017E+00
 NY points of the fit to the data follow
  -9.08197E-01 -9.70442E-01 -9.97016E-01 -9.88600E-01 -9.61451E-01 -9.72961E-01 -1.07250E+00 -1.24500E+00 -1.39382E+00 -1.39851E+00
  -1.20630E+00 -8.99368E-01 -6.28785E-01 -5.17234E-01 -5.93453E-01 -7.75160E-01 -9.18064E-01 -1.01660E+00 -1.08137E+00 -1.12046E+00
  -1.16159E+00 -1.20801E+00 -1.25053E+00 -1.24904E+00 -1.14721E+00 -9.46895E-01 -7.89818E-01 -8.78037E-01 -1.27107E+00 -1.80974E+00
  -2.20138E+00 -2.18409E+00 -1.70296E+00 -9.83669E-01 -3.61367E-01 -7.19737E-02 -1.82521E-01 -5.81100E-01 -1.16623E+00 -1.65370E+00
  -1.85713E+00 -1.79978E+00 -1.58140E+00 -1.35438E+00 -1.23369E+00 -1.25325E+00 -1.32348E+00 -1.37777E+00 -1.40718E+00 -1.41693E+00
  -1.42679E+00 -1.44559E+00 -1.47337E+00 -1.50193E+00 -1.51648E+00 -1.51582E+00 -1.51061E+00 -1.50879E+00 -1.51807E+00 -1.53678E+00
  -1.55455E+00 -1.56964E+00 -1.58264E+00 -1.59514E+00 -1.60808E+00 -1.62071E+00 -1.63093E+00 -1.63714E+00 -1.64000E+00 -1.64389E+00
  -1.65209E+00 -1.66615E+00 -1.68696E+00 -1.71254E+00 -1.73588E+00 -1.74859E+00 -1.74237E+00 -1.72329E+00 -1.70707E+00 -1.70764E+00
  -1.73010E+00 -1.76673E+00 -1.80031E+00 -1.82403E+00 -1.84373E+00 -1.85708E+00 -1.85620E+00 -1.83942E+00 -1.81711E+00 -1.80498E+00
  -1.81239E+00 -1.83474E+00 -1.85785E+00 -1.86804E+00 -1.87231E+00 -1.88838E+00 -1.92026E+00 -1.95553E+00 -1.96070E+00 -1.93557E+00
  -2.04143E+00 -2.44336E+00 -2.99383E+00 -3.24753E+00 -2.84500E+00 -1.87058E+00 -8.66287E-01 -3.68468E-01 -5.49026E-01 -1.16988E+00
  -1.74944E+00 -1.95136E+00 -2.00324E+00 -2.02940E+00 -2.04907E+00 -2.06482E+00 -2.07768E+00 -2.08557E+00 -2.08775E+00 -2.08799E+00
  -2.09130E+00 -2.09200E+00 -2.08331E+00 -2.17448E+00 -2.52100E+00 -3.04560E+00 -3.37108E+00 -3.12478E+00 -2.28665E+00 -1.30765E+00
  -7.36107E-01 -8.13138E-01 -1.35078E+00 -1.89300E+00 -2.02919E+00 -1.94830E+00 -1.90195E+00 -1.97391E+00 -2.15343E+00 -2.36082E+00
  -2.48836E+00 -2.48623E+00 -2.39464E+00 -2.27266E+00 -2.17903E+00 -2.14959E+00 -2.16948E+00 -2.20922E+00 -2.24148E+00 -2.25345E+00
  -2.25832E+00 -2.26161E+00 -2.26585E+00 -2.27339E+00 -2.28749E+00 -2.30682E+00 -2.32306E+00 -2.33058E+00 -2.32809E+00 -2.32056E+00
  -2.31571E+00 -2.31816E+00 -2.32567E+00 -2.33078E+00 -2.33286E+00 -2.33643E+00 -2.34380E+00 -2.35284E+00 -2.35704E+00 -2.35438E+00
  -2.34873E+00 -2.34540E+00 -2.34537E+00 -2.34520E+00 -2.33991E+00 -2.33100E+00 -2.32368E+00 -2.32188E+00 -2.32586E+00 -2.33198E+00
  -2.33732E+00 -2.34125E+00 -2.34144E+00 -2.33484E+00 -2.32325E+00 -2.31374E+00 -2.31688E+00 -2.34061E+00 -2.38569E+00 -2.43762E+00
  -2.45810E+00 -2.40574E+00 -2.28106E+00 -2.11512E+00 -1.95559E+00 -1.86683E+00 -1.90191E+00 -2.07618E+00 -2.36384E+00 -2.69634E+00
  -2.95982E+00 -3.04405E+00 -2.89074E+00 -2.57240E+00 -2.22138E+00 -1.92196E+00 -1.64516E+00 -1.33462E+00 -1.05111E+00 -1.02736E+00
  -1.47442E+00 -2.31230E+00 -3.10540E+00 -3.46850E+00 -3.31439E+00 -2.79729E+00 -2.21210E+00 -1.85107E+00 -1.68261E+00 -1.56831E+00
  -1.52337E+00 -1.57303E+00 -1.70606E+00 -1.87078E+00 -2.02458E+00 -2.10683E+00 -2.07795E+00 -1.95672E+00 -1.79062E+00 -1.63507E+00
  -1.52864E+00 -1.49467E+00 -1.51346E+00 -1.51181E+00 -1.44604E+00 -1.38906E+00 -1.44378E+00 -1.64003E+00 -1.89821E+00 -2.03975E+00
  -1.88238E+00 -1.41052E+00 -8.36465E-01 -4.75869E-01 -4.28516E-01 -6.18501E-01 -9.24179E-01 -1.17815E+00 -1.27164E+00 -1.24817E+00
  -1.23422E+00 -1.18553E+00 -1.05569E+00 -8.54260E-01 -6.14481E-01 -3.73351E-01 -1.81552E-01 -6.70826E-02 -1.96450E-02 -2.54060E-02
  -5.31588E-02 -5.02371E-02  2.15952E-02  1.61353E-01  3.37803E-01  5.21714E-01  6.81681E-01  8.27228E-01  9.74877E-01  1.12972E+00
   1.29191E+00  1.46097E+00  1.63373E+00  1.81278E+00  2.01076E+00  2.23402E+00  2.48224E+00  2.75118E+00  3.03676E+00  3.33563E+00
   3.64926E+00  3.98125E+00  4.33389E+00  4.71083E+00  5.11636E+00  5.55344E+00  6.02423E+00  6.52980E+00  7.07000E+00  7.64532E+00
   8.25615E+00  8.90256E+00  9.58470E+00  1.03021E+01  1.10533E+01  1.18359E+01  1.26474E+01  1.34851E+01  1.43455E+01  1.52243E+01
   1.61173E+01  1.70197E+01  1.79266E+01  1.88337E+01  1.97369E+01  2.06329E+01  2.15190E+01  2.23936E+01  2.32561E+01  2.41069E+01
   2.49474E+01  2.57801E+01  2.66083E+01  2.74360E+01  2.82677E+01  2.91081E+01  2.99617E+01  3.08330E+01  3.17255E+01  3.26424E+01
   3.35859E+01  3.45577E+01  3.55583E+01  3.65830E+01  3.76275E+01  3.87012E+01  3.98253E+01  4.10108E+01  4.22428E+01  4.34884E+01
   4.47283E+01  4.59721E+01  4.72405E+01  4.85527E+01  4.99322E+01  5.13955E+01  5.29690E+01  5.46805E+01  5.65286E+01  5.84966E+01
   6.05754E+01  6.27760E+01  6.51360E+01  6.76567E+01  7.02823E+01  7.30560E+01  7.61573E+01  7.97168E+01  8.36182E+01  8.75016E+01
   9.10130E+01  9.40156E+01  9.65016E+01  9.85190E+01  1.00208E+02  1.01667E+02  1.02930E+02  1.04069E+02  1.04945E+02  1.05327E+02
   1.05082E+02  1.04276E+02  1.03215E+02  1.02139E+02  1.01067E+02  1.00026E+02  9.90516E+01  9.81741E+01  9.74194E+01  9.68092E+01
   9.63623E+01  9.60944E+01  9.60188E+01  9.61451E+01  9.64785E+01  9.70188E+01  9.77586E+01  9.86832E+01  9.97702E+01  1.00989E+02
   1.02304E+02  1.03671E+02  1.05042E+02  1.06368E+02  1.07599E+02  1.08687E+02  1.09586E+02  1.10257E+02  1.10671E+02  1.10804E+02
   1.10643E+02  1.10185E+02  1.09433E+02  1.08402E+02  1.07112E+02  1.05586E+02  1.03854E+02  1.01945E+02  9.98885E+01  9.77118E+01
   9.54400E+01  9.30939E+01  9.06907E+01  8.82430E+01  8.57600E+01  8.32471E+01  8.07073E+01  7.81420E+01  7.55515E+01  7.29361E+01
   7.02968E+01  6.76353E+01  6.49554E+01  6.22620E+01  5.95620E+01  5.68638E+01  5.41769E+01  5.15116E+01  4.88790E+01  4.62899E+01
   4.37552E+01  4.12848E+01  3.88876E+01  3.65714E+01  3.43428E+01  3.22065E+01  3.01664E+01  2.82244E+01  2.63813E+01  2.46369E+01
   2.29898E+01  2.14375E+01  1.99773E+01  1.86055E+01  1.73180E+01  1.61108E+01  1.49793E+01  1.39192E+01  1.29260E+01  1.19953E+01
   1.11228E+01  1.03047E+01  9.53698E+00  8.81610E+00  8.13865E+00  7.50142E+00  6.90148E+00  6.33611E+00  5.80280E+00  5.29921E+00
   4.82317E+00  4.37269E+00  3.94598E+00  3.54137E+00  3.15734E+00  2.79245E+00  2.44539E+00  2.11497E+00  1.80012E+00  1.49982E+00
   1.21314E+00  9.39194E-01  6.77194E-01  4.26392E-01  1.86150E-01 -4.41762E-02 -2.65161E-01 -4.77379E-01 -6.81313E-01 -8.77436E-01
  -1.06615E+00 -1.24788E+00 -1.42300E+00 -1.59189E+00 -1.75485E+00 -1.91219E+00 -2.06417E+00 -2.21110E+00 -2.35321E+00 -2.49076E+00
  -2.62394E+00 -2.75298E+00 -2.87804E+00 -2.99934E+00 -3.11705E+00 -3.23134E+00 -3.34233E+00 -3.45019E+00 -3.55503E+00 -3.65703E+00
  -3.75628E+00 -3.85291E+00 -3.94700E+00 -4.03867E+00 -4.12802E+00 -4.21517E+00 -4.30017E+00 -4.38313E+00
 NY background values follow
    -1.292E+00   -1.305E+00   -1.319E+00   -1.333E+00   -1.346E+00   -1.360E+00   -1.373E+00   -1.387E+00   -1.401E+00   -1.414E+00
    -1.428E+00   -1.441E+00   -1.455E+00   -1.469E+00   -1.482E+00   -1.496E+00   -1.509E+00   -1.523E+00   -1.537E+00   -1.550E+00
    -1.564E+00   -1.577E+00   -1.591E+00   -1.605E+00   -1.618E+00   -1.632E+00   -1.645E+00   -1.659E+00   -1.673E+00   -1.686E+00
    -1.700E+00   -1.713E+00   -1.727E+00   -1.741E+00   -1.754E+00   -1.768E+00   -1.781E+00   -1.795E+00   -1.809E+00   -1.822E+00
    -1.836E+00   -1.850E+00   -1.863E+00   -1.877E+00   -1.890E+00   -1.904E+00   -1.918E+00   -1.931E+00   -1.945E+00   -1.958E+00
    -1.972E+00   -1.986E+00   -1.999E+00   -2.013E+00   -2.026E+00   -2.040E+00   -2.054E+00   -2.067E+00   -2.081E+00   -2.094E+00
    -2.108E+00   -2.122E+00   -2.135E+00   -2.149E+00   -2.162E+00   -2.176E+00   -2.190E+00   -2.203E+00   -2.217E+00   -2.230E+00
    -2.244E+00   -2.258E+00   -2.271E+00   -2.285E+00   -2.298E+00   -2.312E+00   -2.326E+00   -2.339E+00   -2.353E+00   -2.366E+00
    -2.380E+00   -2.394E+00   -2.407E+00   -2.421E+00   -2.434E+00   -2.448E+00   -2.462E+00   -2.475E+00   -2.489E+00   -2.502E+00
    -2.516E+00   -2.530E+00   -2.543E+00   -2.557E+00   -2.570E+00   -2.584E+00   -2.598E+00   -2.611E+00   -2.625E+00   -2.638E+00
    -2.652E+00   -2.666E+00   -2.679E+00   -2.693E+00   -2.706E+00   -2.720E+00   -2.734E+00   -2.747E+00   -2.761E+00   -2.774E+00
    -2.788E+00   -2.802E+00   -2.815E+00   -2.829E+00   -2.842E+00   -2.856E+00   -2.870E+00   -2.883E+00   -2.897E+00   -2.910E+00
    -2.924E+00   -2.938E+00   -2.951E+00   -2.965E+00   -2.978E+00   -2.992E+00   -3.006E+00   -3.019E+00   -3.033E+00   -3.046E+00
    -3.060E+00   -3.074E+00   -3.087E+00   -3.101E+00   -3.114E+00   -3.128E+00   -3.142E+00   -3.155E+00   -3.169E+00   -3.182E+00
    -3.196E+00   -3.210E+00   -3.223E+00   -3.237E+00   -3.251E+00   -3.264E+00   -3.278E+00   -3.291E+00   -3.305E+00   -3.319E+00
    -3.332E+00   -3.346E+00   -3.359E+00   -3.373E+00   -3.387E+00   -3.400E+00   -3.414E+00   -3.427E+00   -3.441E+00   -3.455E+00
    -3.468E+00   -3.482E+00   -3.496E+00   -3.509E+00   -3.523E+00   -3.536E+00   -3.550E+00   -3.564E+00   -3.577E+00   -3.591E+00
    -3.605E+00   -3.618E+00   -3.632E+00   -3.645E+00   -3.659E+00   -3.673E+00   -3.686E+00   -3.700E+00   -3.713E+00   -3.727E+00
    -3.741E+00   -3.754E+00   -3.768E+00   -3.782E+00   -3.795E+00   -3.809E+00   -3.823E+00   -3.836E+00   -3.850E+00   -3.863E+00
    -3.877E+00   -3.891E+00   -3.904E+00   -3.918E+00   -3.932E+00   -3.945E+00   -3.959E+00   -3.973E+00   -3.986E+00   -4.000E+00
    -4.013E+00   -4.027E+00   -4.041E+00   -4.054E+00   -4.068E+00   -4.082E+00   -4.095E+00   -4.109E+00   -4.123E+00   -4.136E+00
    -4.150E+00   -4.164E+00   -4.177E+00   -4.191E+00   -4.204E+00   -4.218E+00   -4.232E+00   -4.245E+00   -4.259E+00   -4.273E+00
    -4.286E+00   -4.300E+00   -4.314E+00   -4.327E+00   -4.341E+00   -4.355E+00   -4.368E+00   -4.382E+00   -4.396E+00   -4.409E+00
    -4.423E+00   -4.437E+00   -4.450E+00   -4.464E+00   -4.478E+00   -4.491E+00   -4.505E+00   -4.519E+00   -4.532E+00   -4.546E+00
    -4.560E+00   -4.573E+00   -4.587E+00   -4.601E+00   -4.614E+00   -4.628E+00   -4.642E+00   -4.655E+00   -4.669E+00   -4.683E+00
    -4.696E+00   -4.710E+00   -4.724E+00   -4.737E+00   -4.751E+00   -4.765E+00   -4.778E+00   -4.792E+00   -4.806E+00   -4.819E+00
    -4.833E+00   -4.847E+00   -4.860E+00   -4.874E+00   -4.888E+00   -4.901E+00   -4.915E+00   -4.929E+00   -4.942E+00   -4.956E+00
    -4.970E+00   -4.984E+00   -4.997E+00   -5.011E+00   -5.025E+00   -5.038E+00   -5.052E+00   -5.066E+00   -5.079E+00   -5.093E+00
    -5.107E+00   -5.120E+00   -5.134E+00   -5.148E+00   -5.161E+00   -5.175E+00   -5.189E+00   -5.202E+00   -5.216E+00   -5.230E+00
    -5.244E+00   -5.257E+00   -5.271E+00   -5.285E+00   -5.298E+00   -5.312E+00   -5.326E+00   -5.339E+00   -5.353E+00   -5.367E+00
    -5.381E+00   -5.394E+00   -5.408E+00   -5.422E+00   -5.435E+00   -5.449E+00   -5.463E+00   -5.476E+00   -5.490E+00   -5.504E+00
    -5.518E+00   -5.531E+00   -5.545E+00   -5.559E+00   -5.572E+00   -5.586E+00   -5.600E+00   -5.613E+00   -5.627E+00   -5.641E+00
    -5.655E+00   -5.668E+00   -5.682E+00   -5.696E+00   -5.709E+00   -5.723E+00   -5.737E+00   -5.751E+00   -5.764E+00   -5.778E+00
    -5.792E+00   -5.805E+00   -5.819E+00   -5.833E+00   -5.846E+00   -5.860E+00   -5.874E+00   -5.888E+00   -5.901E+00   -5.915E+00
    -5.929E+00   -5.943E+00   -5.956E+00   -5.970E+00   -5.984E+00   -5.997E+00   -6.011E+00   -6.025E+00   -6.039E+00   -6.052E+00
    -6.066E+00   -6.080E+00   -6.093E+00   -6.107E+00   -6.121E+00   -6.135E+00   -6.148E+00   -6.162E+00   -6.176E+00   -6.189E+00
    -6.203E+00   -6.217E+00   -6.231E+00   -6.244E+00   -6.258E+00   -6.272E+00   -6.286E+00   -6.299E+00   -6.313E+00   -6.327E+00
    -6.340E+00   -6.354E+00   -6.368E+00   -6.382E+00   -6.395E+00   -6.409E+00   -6.423E+00   -6.437E+00   -6.450E+00   -6.464E+00
    -6.478E+00   -6.491E+00   -6.505E+00   -6.519E+00   -6.533E+00   -6.546E+00   -6.560E+00   -6.574E+00   -6.588E+00   -6.601E+00
    -6.615E+00   -6.629E+00   -6.643E+00   -6.656E+00   -6.670E+00   -6.684E+00   -6.697E+00   -6.711E+00   -6.725E+00   -6.739E+00
    -6.752E+00   -6.766E+00   -6.780E+00   -6.794E+00   -6.807E+00   -6.821E+00   -6.835E+00   -6.849E+00   -6.862E+00   -6.876E+00
    -6.890E+00   -6.904E+00   -6.917E+00   -6.931E+00   -6.945E+00   -6.959E+00   -6.972E+00   -6.986E+00   -7.000E+00   -7.013E+00
    -7.027E+00   -7.041E+00   -7.055E+00   -7.068E+00   -7.082E+00   -7.096E+00   -7.110E+00   -7.123E+00   -7.137E+00   -7.151E+00
    -7.165E+00   -7.178E+00   -7.192E+00   -7.206E+00   -7.220E+00   -7.233E+00   -7.247E+00   -7.261E+00   -7.275E+00   -7.288E+00
    -7.302E+00   -7.316E+00   -7.330E+00   -7.343E+00   -7.357E+00   -7.371E+00   -7.385E+00   -7.398E+00   -7.412E+00   -7.426E+00
    -7.440E+00   -7.453E+00   -7.467E+00   -7.481E+00   -7.495E+00   -7.508E+00   -7.522E+00   -7.536E+00   -7.550E+00   -7.563E+00
    -7.577E+00   -7.591E+00   -7.605E+00   -7.618E+00   -7.632E+00   -7.646E+00   -7.660E+00   -7.673E+00   -7.687E+00   -7.701E+00
    -7.715E+00   -7.728E+00   -7.742E+00   -7.756E+00   -7.770E+00   -7.783E+00   -7.797E+00   -7.811E+00   -7.825E+00   -7.838E+00
    -7.852E+00   -7.866E+00   -7.880E+00   -7.893E+00   -7.907E+00   -7.921E+00   -7.935E+00   -7.948E+00   -7.962E+00   -7.976E+00
    -7.990E+00   -8.003E+00   -8.017E+00   -8.031E+00   -8.045E+00   -8.059E+00   -8.072E+00   -8.086E+00
 Ala      Conc. = 8.88E-01
