 LCModel (Version 6.3-1L) Copyright: S.W. Provencher.          Ref.: Magn. Reson. Med. 30:672-679 (1993).                
 Slice#3 Row#5 Col#11  PD_24_press_1_raw_act
 36 lines in following concentration table = NCONC+1
    Conc.  %SD /Cr+PCr  Metabolite                                         
    0.000 999%   0.000 Ala                                                 
   67.826 245% 7.0E-02 Asp                                                 
  634.677  34%   0.658 Cr                                                  
  329.205  68%   0.342 PCr                                                 
    0.000 999%   0.000 GABA                                                
   10.843 977% 1.1E-02 Glc                                                 
   91.168 235% 9.5E-02 Gln                                                 
 1.17E+03  21%   1.217 Glu                                                 
  311.907   7%   0.324 GPC                                                 
    0.000 999%   0.000 PCh                                                 
  243.020  30%   0.252 GSH                                                 
  353.210  76%   0.366 Ins                                                 
    0.000 999%   0.000 Lac                                                 
 1.24E+03   5%   1.285 NAA                                                 
    0.000 999%   0.000 NAAG                                                
   35.652  68% 3.7E-02 Scyllo                                              
    0.000 999%   0.000 Tau                                                 
  368.079  31%   0.382 -CrCH2                                              
  311.907   7%   0.324 GPC+PCh                                             
 1.24E+03   5%   1.285 NAA+NAAG                                            
  963.882   6%   1.000 Cr+PCr                                              
 1.26E+03  27%   1.311 Glu+Gln                                             
    0.000 999%   0.000 Lip13a                                              
 1.36E+03   8%   1.410 Lip13b                                              
    0.000 999%   0.000 Lip09                                               
 1.21E+03  18%   1.258 MM09                                                
  343.530  70%   0.356 Lip20                                               
 2.50E+03  14%   2.593 MM20                                                
  405.931  26%   0.421 MM12                                                
    0.000 999%   0.000 MM14                                                
 1.45E+03  15%   1.502+MM17                                                
 1.36E+03   8%   1.410 Lip13a+Lip13b                                       
 1.76E+03   8%   1.831 MM14+Lip13a+Lip13b+MM12                             
 1.21E+03  18%   1.258 MM09+Lip09                                          
 2.84E+03  13%   2.950 MM20+Lip20                                          
   6 lines in following misc. output table
  FWHM = 0.054 ppm    S/N =   7                                            
  Data shift = 0.008 ppm                                                   
  Ph:  26 deg       5.2 deg/ppm                                            
  alphaB,S = 2.9E-01,   8.7E+01                                            
   14 spline knots.   Ns = 7(1)                                            
  (11) 2 infls.   ( 7) 1 extrs.                                            
  498 points on ppm-axis = NY
      4.000000     3.992357     3.984714     3.977070     3.969427     3.961784     3.954141     3.946497     3.938854     3.931211
      3.923568     3.915925     3.908281     3.900638     3.892995     3.885352     3.877708     3.870065     3.862422     3.854779
      3.847136     3.839492     3.831849     3.824206     3.816563     3.808919     3.801276     3.793633     3.785990     3.778347
      3.770703     3.763060     3.755417     3.747774     3.740130     3.732487     3.724844     3.717201     3.709558     3.701914
      3.694271     3.686628     3.678985     3.671341     3.663698     3.656055     3.648412     3.640769     3.633125     3.625482
      3.617839     3.610196     3.602552     3.594909     3.587266     3.579623     3.571980     3.564336     3.556693     3.549050
      3.541407     3.533763     3.526120     3.518477     3.510834     3.503191     3.495547     3.487904     3.480261     3.472618
      3.464974     3.457331     3.449688     3.442045     3.434402     3.426758     3.419115     3.411472     3.403829     3.396185
      3.388542     3.380899     3.373256     3.365613     3.357969     3.350326     3.342683     3.335040     3.327396     3.319753
      3.312110     3.304467     3.296824     3.289180     3.281537     3.273894     3.266251     3.258607     3.250964     3.243321
      3.235678     3.228034     3.220391     3.212748     3.205105     3.197462     3.189818     3.182175     3.174532     3.166889
      3.159245     3.151602     3.143959     3.136316     3.128673     3.121029     3.113386     3.105743     3.098100     3.090456
      3.082813     3.075170     3.067527     3.059884     3.052240     3.044597     3.036954     3.029311     3.021667     3.014024
      3.006381     2.998738     2.991095     2.983451     2.975808     2.968165     2.960522     2.952878     2.945235     2.937592
      2.929949     2.922306     2.914662     2.907019     2.899376     2.891733     2.884089     2.876446     2.868803     2.861160
      2.853517     2.845873     2.838230     2.830587     2.822944     2.815300     2.807657     2.800014     2.792371     2.784728
      2.777084     2.769441     2.761798     2.754155     2.746511     2.738868     2.731225     2.723582     2.715939     2.708295
      2.700652     2.693009     2.685366     2.677722     2.670079     2.662436     2.654793     2.647150     2.639506     2.631863
      2.624220     2.616577     2.608933     2.601290     2.593647     2.586004     2.578361     2.570717     2.563074     2.555431
      2.547788     2.540144     2.532501     2.524858     2.517215     2.509572     2.501928     2.494285     2.486642     2.478999
      2.471355     2.463712     2.456069     2.448426     2.440783     2.433139     2.425496     2.417853     2.410210     2.402566
      2.394923     2.387280     2.379637     2.371994     2.364350     2.356707     2.349064     2.341421     2.333777     2.326134
      2.318491     2.310848     2.303205     2.295561     2.287918     2.280275     2.272632     2.264988     2.257345     2.249702
      2.242059     2.234416     2.226772     2.219129     2.211486     2.203843     2.196199     2.188556     2.180913     2.173270
      2.165627     2.157983     2.150340     2.142697     2.135054     2.127410     2.119767     2.112124     2.104481     2.096838
      2.089194     2.081551     2.073908     2.066265     2.058621     2.050978     2.043335     2.035692     2.028049     2.020405
      2.012762     2.005119     1.997476     1.989833     1.982190     1.974546     1.966903     1.959260     1.951617     1.943974
      1.936331     1.928688     1.921045     1.913402     1.905759     1.898115     1.890472     1.882829     1.875186     1.867543
      1.859900     1.852257     1.844614     1.836971     1.829327     1.821684     1.814041     1.806398     1.798755     1.791112
      1.783469     1.775826     1.768183     1.760540     1.752896     1.745253     1.737610     1.729967     1.722324     1.714681
      1.707038     1.699395     1.691752     1.684108     1.676465     1.668822     1.661179     1.653536     1.645893     1.638250
      1.630607     1.622964     1.615321     1.607677     1.600034     1.592391     1.584748     1.577105     1.569462     1.561819
      1.554176     1.546533     1.538890     1.531246     1.523603     1.515960     1.508317     1.500674     1.493031     1.485388
      1.477745     1.470102     1.462458     1.454815     1.447172     1.439529     1.431886     1.424243     1.416600     1.408957
      1.401314     1.393671     1.386027     1.378384     1.370741     1.363098     1.355455     1.347812     1.340169     1.332526
      1.324883     1.317240     1.309596     1.301953     1.294310     1.286667     1.279024     1.271381     1.263738     1.256095
      1.248452     1.240808     1.233165     1.225522     1.217879     1.210236     1.202593     1.194950     1.187307     1.179664
      1.172021     1.164377     1.156734     1.149091     1.141448     1.133805     1.126162     1.118519     1.110876     1.103233
      1.095590     1.087946     1.080303     1.072660     1.065017     1.057374     1.049731     1.042088     1.034445     1.026802
      1.019158     1.011515     1.003872     0.996229     0.988586     0.980943     0.973300     0.965657     0.958014     0.950371
      0.942727     0.935084     0.927441     0.919798     0.912155     0.904512     0.896869     0.889226     0.881583     0.873940
      0.866296     0.858653     0.851010     0.843367     0.835724     0.828081     0.820438     0.812795     0.805152     0.797508
      0.789865     0.782222     0.774579     0.766936     0.759293     0.751650     0.744007     0.736364     0.728721     0.721077
      0.713434     0.705791     0.698148     0.690505     0.682862     0.675219     0.667576     0.659933     0.652290     0.644646
      0.637003     0.629360     0.621717     0.614074     0.606431     0.598788     0.591145     0.583502     0.575858     0.568215
      0.560572     0.552929     0.545286     0.537643     0.530000     0.522357     0.514714     0.507071     0.499427     0.491784
      0.484141     0.476498     0.468855     0.461212     0.453569     0.445925     0.438282     0.430639     0.422996     0.415353
      0.407710     0.400067     0.392424     0.384780     0.377137     0.369494     0.361851     0.354208     0.346565     0.338922
      0.331278     0.323635     0.315992     0.308349     0.300706     0.293063     0.285420     0.277777     0.270133     0.262490
      0.254847     0.247204     0.239561     0.231918     0.224275     0.216631     0.208988     0.201345
 NY phased data points follow
   8.54772E+00  2.76836E+00  7.81074E+00  7.95833E+00  7.08107E+00  1.04600E+01  1.03774E+01  1.35592E+01  1.54529E+01  2.00200E+01
   2.15054E+01  2.38723E+01  2.58982E+01  2.15020E+01  2.28866E+01  1.88639E+01  1.68767E+01  1.45323E+01  1.35921E+01  1.17017E+01
   1.43737E+01  1.04863E+01  1.51167E+01  1.25424E+01  1.54145E+01  1.35226E+01  1.91521E+01  1.34485E+01  1.46589E+01  1.42579E+01
   1.55636E+01  1.50439E+01  2.04200E+01  1.74621E+01  1.59139E+01  1.57817E+01  1.80103E+01  1.61623E+01  1.59020E+01  1.81741E+01
   1.44284E+01  1.48429E+01  1.51603E+01  1.44863E+01  1.93189E+01  1.56038E+01  1.89595E+01  1.95600E+01  1.89960E+01  2.11744E+01
   1.75985E+01  1.85495E+01  1.71970E+01  1.78498E+01  1.83544E+01  1.75936E+01  1.82750E+01  1.62668E+01  2.21844E+01  1.83101E+01
   1.69664E+01  1.11657E+01  1.11755E+01  1.19420E+01  9.66609E+00  1.17336E+01  1.04740E+01  1.06697E+01  9.16710E+00  1.26560E+01
   7.50849E+00  1.32350E+01  1.00686E+01  1.00746E+01  1.06822E+01  1.12465E+01  1.53201E+01  9.92990E+00  1.14056E+01  1.73100E+01
   1.34230E+01  1.42277E+01  1.39647E+01  1.35773E+01  1.31970E+01  1.15176E+01  1.43426E+01  2.03287E+01  1.80218E+01  1.71540E+01
   1.62615E+01  1.78969E+01  1.69910E+01  1.68557E+01  1.44251E+01  1.64530E+01  1.43602E+01  1.51714E+01  2.04453E+01  2.16076E+01
   2.76227E+01  3.94123E+01  4.26703E+01  4.53867E+01  4.60690E+01  3.94367E+01  3.79206E+01  3.20214E+01  3.08820E+01  2.64164E+01
   2.24543E+01  2.39194E+01  1.96910E+01  1.79037E+01  2.14517E+01  2.30043E+01  2.21495E+01  1.66954E+01  2.40383E+01  2.03894E+01
   2.40214E+01  2.57463E+01  2.58863E+01  3.27264E+01  3.72478E+01  4.04418E+01  4.96802E+01  5.10352E+01  5.22589E+01  4.76072E+01
   4.59891E+01  4.08629E+01  3.21242E+01  3.41124E+01  2.87816E+01  2.82954E+01  2.40897E+01  2.29867E+01  2.32771E+01  2.52483E+01
   2.46789E+01  2.41489E+01  2.25465E+01  2.04268E+01  2.45338E+01  2.04978E+01  2.28516E+01  2.50482E+01  2.55664E+01  2.21678E+01
   2.32658E+01  2.56316E+01  2.24721E+01  2.05845E+01  2.33639E+01  2.30626E+01  2.41311E+01  2.87702E+01  2.65201E+01  2.67334E+01
   2.61138E+01  2.39724E+01  2.36141E+01  2.42535E+01  2.51654E+01  2.55313E+01  2.08309E+01  2.27207E+01  2.05706E+01  2.37809E+01
   2.26523E+01  2.14234E+01  2.03792E+01  2.07709E+01  2.15868E+01  2.03990E+01  2.15159E+01  2.27377E+01  2.49395E+01  2.50930E+01
   2.76287E+01  2.67544E+01  2.96775E+01  2.77225E+01  2.65428E+01  2.91110E+01  3.01878E+01  3.03741E+01  3.16296E+01  2.91929E+01
   3.27534E+01  3.18300E+01  3.61818E+01  3.72812E+01  3.56454E+01  3.56736E+01  3.80885E+01  3.88701E+01  3.61815E+01  3.19675E+01
   3.87313E+01  3.92278E+01  4.48515E+01  4.13391E+01  4.62371E+01  4.73331E+01  4.58095E+01  4.89609E+01  4.52933E+01  4.47047E+01
   4.53298E+01  4.72778E+01  5.06861E+01  5.28003E+01  5.14622E+01  5.38731E+01  5.54754E+01  5.33717E+01  5.34635E+01  5.17432E+01
   4.78687E+01  4.71413E+01  4.48661E+01  4.67038E+01  4.92886E+01  4.89022E+01  5.26739E+01  5.26188E+01  5.29501E+01  5.56078E+01
   5.59161E+01  5.82639E+01  5.68790E+01  5.38838E+01  5.89134E+01  5.70568E+01  5.41396E+01  5.78474E+01  5.85890E+01  5.46189E+01
   5.69735E+01  5.39728E+01  5.68590E+01  5.90962E+01  5.97422E+01  5.77670E+01  5.67146E+01  5.79391E+01  5.58450E+01  6.05210E+01
   6.25372E+01  6.09415E+01  6.12442E+01  6.22137E+01  5.97186E+01  6.46469E+01  7.12565E+01  7.69753E+01  9.44350E+01  9.57960E+01
   1.00688E+02  9.37335E+01  8.18293E+01  7.84326E+01  7.36241E+01  6.61302E+01  5.60733E+01  5.65207E+01  5.28458E+01  5.24685E+01
   4.72237E+01  4.59810E+01  4.72888E+01  4.37604E+01  4.72451E+01  4.22805E+01  4.36423E+01  4.38961E+01  4.10883E+01  4.48008E+01
   4.60027E+01  4.43088E+01  4.24117E+01  4.11838E+01  4.21662E+01  4.00335E+01  4.03450E+01  3.85589E+01  3.99444E+01  4.03481E+01
   3.94565E+01  3.81875E+01  3.96561E+01  4.10630E+01  3.66574E+01  3.95912E+01  3.79555E+01  3.85820E+01  3.67053E+01  4.10653E+01
   3.89395E+01  3.82565E+01  3.94206E+01  3.83927E+01  3.88426E+01  3.90402E+01  3.89197E+01  3.64751E+01  3.72702E+01  3.79016E+01
   3.33766E+01  3.66430E+01  3.20078E+01  3.20319E+01  3.37398E+01  3.09861E+01  3.03170E+01  2.93818E+01  2.95043E+01  2.61962E+01
   2.75372E+01  2.52382E+01  2.72846E+01  2.56236E+01  2.50144E+01  2.49349E+01  2.50189E+01  2.85979E+01  1.94791E+01  2.24126E+01
   1.69834E+01  1.93975E+01  1.48659E+01  1.33355E+01  1.05398E+01  6.39586E+00  9.34797E+00  3.31656E+00  4.00715E+00  3.61142E+00
   3.81042E+00 -1.65798E+00  2.68280E+00 -2.53297E+00 -2.67597E+00 -2.52726E+00 -3.72575E+00 -5.42360E+00 -2.07096E+00 -5.15746E+00
  -3.41365E+00 -1.11225E+00  1.75869E+00  3.61329E+00  4.89984E+00  9.93437E+00  1.20243E+01  1.25272E+01  1.57388E+01  1.78024E+01
   1.67635E+01  1.79043E+01  1.41617E+01  1.76882E+01  1.52028E+01  9.45444E+00  1.22552E+01  8.67303E+00  1.05967E+01  8.85914E+00
   2.14518E+00  4.86559E+00  3.69072E+00  9.66565E-01 -2.41700E+00 -2.28833E-02  1.62441E-01 -1.61808E+00 -1.27352E+00 -4.13611E+00
  -2.85959E+00 -4.49810E+00 -4.42882E+00 -6.80957E+00 -3.92741E+00 -5.07573E+00 -3.44618E+00 -6.93282E+00 -8.80972E+00 -8.42023E+00
  -7.86872E+00 -8.04672E+00 -1.03951E+01 -9.62922E+00 -6.59756E+00 -9.98174E+00 -7.39398E+00 -1.02729E+01 -7.26716E+00 -1.01430E+01
  -8.08712E+00 -7.99715E+00 -6.04026E+00 -1.14289E+01 -6.81336E+00 -7.03624E+00 -9.43937E+00 -6.28102E+00 -6.39175E+00 -1.14715E+01
  -1.15454E+01 -1.04027E+01 -8.85707E+00 -8.84373E+00 -7.82613E+00 -9.45181E+00 -1.14509E+01 -1.41736E+01 -1.06973E+01 -1.29021E+01
  -1.12744E+01 -1.33987E+01 -9.49275E+00 -1.54297E+01 -1.34013E+01 -1.23528E+01 -1.16806E+01 -1.38306E+01 -1.35013E+01 -1.72007E+01
  -1.18631E+01 -9.64665E+00 -1.30155E+01 -1.29018E+01 -1.15445E+01 -1.42702E+01 -1.19598E+01 -1.25046E+01 -1.03711E+01 -1.09385E+01
  -7.71107E+00 -1.28969E+01 -1.05946E+01 -9.54660E+00 -1.07681E+01 -8.94893E+00 -9.96566E+00 -1.14715E+01 -1.07709E+01 -1.07285E+01
  -9.24949E+00 -1.06979E+01 -1.00813E+01 -1.09383E+01 -1.02855E+01 -7.68483E+00 -1.23396E+01 -1.20265E+01 -1.26981E+01 -7.25269E+00
  -7.79025E+00 -8.20068E+00 -1.18761E+01 -1.26229E+01 -1.03828E+01 -1.10387E+01 -1.15082E+01 -1.10734E+01 -7.55816E+00 -9.19596E+00
  -9.43523E+00 -9.60316E+00 -9.93155E+00 -8.92466E+00 -1.06131E+01 -1.05336E+01 -7.15688E+00 -8.81107E+00 -7.25176E+00 -5.27377E+00
  -7.27161E+00 -9.29235E+00 -6.69135E+00 -7.95615E+00 -7.01391E+00 -5.30964E+00 -9.93161E+00 -1.03100E+01 -6.61661E+00 -1.00540E+01
  -8.89028E+00 -9.55568E+00 -7.23909E+00 -9.72622E+00 -7.56060E+00 -5.33692E+00 -4.95307E+00 -8.32674E+00
 NY points of the fit to the data follow
   8.19937E+00  8.27137E+00  8.42817E+00  8.68917E+00  9.10483E+00  9.88005E+00  1.11070E+01  1.30872E+01  1.59655E+01  1.93828E+01
   2.24713E+01  2.42863E+01  2.44541E+01  2.32899E+01  2.15274E+01  1.97055E+01  1.79882E+01  1.63549E+01  1.48592E+01  1.36468E+01
   1.28062E+01  1.24932E+01  1.24096E+01  1.24607E+01  1.26007E+01  1.28697E+01  1.34064E+01  1.42988E+01  1.54894E+01  1.67351E+01
   1.77697E+01  1.83671E+01  1.84544E+01  1.80721E+01  1.72484E+01  1.61182E+01  1.49945E+01  1.40981E+01  1.35246E+01  1.34210E+01
   1.36861E+01  1.41070E+01  1.46228E+01  1.52446E+01  1.59657E+01  1.66150E+01  1.70478E+01  1.71532E+01  1.68913E+01  1.64310E+01
   1.59459E+01  1.54723E+01  1.50433E+01  1.47107E+01  1.44639E+01  1.43107E+01  1.43034E+01  1.44172E+01  1.45488E+01  1.46170E+01
   1.45911E+01  1.44555E+01  1.42509E+01  1.40357E+01  1.38696E+01  1.37933E+01  1.37977E+01  1.38615E+01  1.39751E+01  1.41239E+01
   1.42772E+01  1.44042E+01  1.44788E+01  1.45005E+01  1.44889E+01  1.44650E+01  1.44437E+01  1.44301E+01  1.44329E+01  1.44745E+01
   1.45766E+01  1.47518E+01  1.50226E+01  1.53786E+01  1.57418E+01  1.59890E+01  1.60302E+01  1.58756E+01  1.56278E+01  1.54193E+01
   1.53075E+01  1.52772E+01  1.53046E+01  1.53732E+01  1.54713E+01  1.56706E+01  1.63022E+01  1.77643E+01  2.02043E+01  2.41990E+01
   2.99549E+01  3.66764E+01  4.25584E+01  4.57216E+01  4.53855E+01  4.22292E+01  3.78804E+01  3.35256E+01  2.95072E+01  2.59212E+01
   2.28946E+01  2.04203E+01  1.87745E+01  1.83319E+01  1.83501E+01  1.84825E+01  1.86644E+01  1.88858E+01  1.91689E+01  1.96232E+01
   2.06458E+01  2.25888E+01  2.56769E+01  3.04228E+01  3.68193E+01  4.38142E+01  4.94963E+01  5.21615E+01  5.13232E+01  4.79343E+01
   4.36021E+01  3.92795E+01  3.51424E+01  3.12460E+01  2.77339E+01  2.47637E+01  2.28931E+01  2.23364E+01  2.23766E+01  2.26562E+01
   2.30085E+01  2.33197E+01  2.35574E+01  2.37348E+01  2.38437E+01  2.38871E+01  2.38845E+01  2.38469E+01  2.37978E+01  2.37673E+01
   2.37632E+01  2.38048E+01  2.38851E+01  2.39927E+01  2.41079E+01  2.42205E+01  2.42900E+01  2.42902E+01  2.42492E+01  2.42335E+01
   2.43517E+01  2.46482E+01  2.50597E+01  2.54454E+01  2.56989E+01  2.58208E+01  2.58764E+01  2.59356E+01  2.60206E+01  2.60895E+01
   2.61135E+01  2.61161E+01  2.61064E+01  2.61351E+01  2.62794E+01  2.65655E+01  2.69644E+01  2.73914E+01  2.77579E+01  2.80561E+01
   2.83549E+01  2.87188E+01  2.91201E+01  2.95225E+01  2.99675E+01  3.05505E+01  3.13939E+01  3.25037E+01  3.37447E+01  3.49275E+01
   3.58918E+01  3.66049E+01  3.71096E+01  3.74428E+01  3.76341E+01  3.77192E+01  3.77832E+01  3.79924E+01  3.84465E+01  3.91818E+01
   4.01355E+01  4.11812E+01  4.21949E+01  4.30087E+01  4.35098E+01  4.36702E+01  4.35083E+01  4.30845E+01  4.25722E+01  4.22421E+01
   4.23524E+01  4.30784E+01  4.45629E+01  4.66434E+01  4.88304E+01  5.04799E+01  5.10788E+01  5.05087E+01  4.90498E+01  4.70814E+01
   4.50895E+01  4.36172E+01  4.31007E+01  4.37462E+01  4.53108E+01  4.73427E+01  4.94238E+01  5.11733E+01  5.24820E+01  5.33589E+01
   5.39304E+01  5.43420E+01  5.46726E+01  5.50481E+01  5.55429E+01  5.60541E+01  5.64078E+01  5.65062E+01  5.63389E+01  5.60131E+01
   5.56925E+01  5.55528E+01  5.57544E+01  5.63168E+01  5.71161E+01  5.79380E+01  5.85976E+01  5.89895E+01  5.90868E+01  5.89626E+01
   5.87485E+01  5.86346E+01  5.88661E+01  6.00925E+01  6.24430E+01  6.64466E+01  7.27729E+01  8.10905E+01  8.95304E+01  9.52989E+01
   9.64980E+01  9.31055E+01  8.69990E+01  8.02527E+01  7.37408E+01  6.76339E+01  6.21456E+01  5.73588E+01  5.33308E+01  5.09581E+01
   4.97148E+01  4.88128E+01  4.80908E+01  4.74877E+01  4.69453E+01  4.63826E+01  4.57860E+01  4.51619E+01  4.45139E+01  4.38507E+01
   4.31891E+01  4.25402E+01  4.19138E+01  4.13212E+01  4.07637E+01  4.02350E+01  3.97326E+01  3.92574E+01  3.88125E+01  3.84015E+01
   3.80244E+01  3.76864E+01  3.73936E+01  3.71504E+01  3.69591E+01  3.68204E+01  3.67334E+01  3.66958E+01  3.67024E+01  3.67466E+01
   3.68192E+01  3.69075E+01  3.69966E+01  3.70697E+01  3.71086E+01  3.70948E+01  3.70107E+01  3.68402E+01  3.65693E+01  3.61875E+01
   3.56879E+01  3.50677E+01  3.43286E+01  3.34766E+01  3.25218E+01  3.14772E+01  3.03586E+01  2.91831E+01  2.79687E+01  2.67330E+01
   2.54930E+01  2.42636E+01  2.30577E+01  2.18852E+01  2.07539E+01  1.96686E+01  1.86323E+01  1.76457E+01  1.67078E+01  1.58161E+01
   1.49675E+01  1.41583E+01  1.33847E+01  1.26427E+01  1.19285E+01  1.12386E+01  1.05700E+01  9.92020E+00  9.28726E+00  8.66950E+00
   8.06584E+00  7.47571E+00  6.89952E+00  6.33879E+00  5.79696E+00  5.28030E+00  4.79971E+00  4.37270E+00  4.02586E+00  3.79646E+00
   3.73318E+00  3.89391E+00  4.34029E+00  5.12731E+00  6.28930E+00  7.82341E+00  9.67535E+00  1.17312E+01  1.38207E+01  1.57330E+01
   1.72459E+01  1.81608E+01  1.83386E+01  1.77253E+01  1.63621E+01  1.43765E+01  1.19573E+01  9.32000E+00  6.67163E+00  4.18204E+00
   1.96782E+00  8.85211E-02 -1.44596E+00 -2.66203E+00 -3.60665E+00 -4.33393E+00 -4.89501E+00 -5.33282E+00 -5.67991E+00 -5.95919E+00
  -6.18545E+00 -6.36780E+00 -6.51146E+00 -6.61970E+00 -6.69475E+00 -6.73875E+00 -6.75394E+00 -6.74310E+00 -6.70945E+00 -6.65703E+00
  -6.59031E+00 -6.51441E+00 -6.43461E+00 -6.35653E+00 -6.28574E+00 -6.22788E+00 -6.18816E+00 -6.17140E+00 -6.18156E+00 -6.22193E+00
  -6.29476E+00 -6.40141E+00 -6.54210E+00 -6.71603E+00 -6.92128E+00 -7.15517E+00 -7.41417E+00 -7.69429E+00 -7.99102E+00 -8.29970E+00
  -8.61553E+00 -8.93393E+00 -9.25051E+00 -9.56137E+00 -9.86289E+00 -1.01521E+01 -1.04264E+01 -1.06840E+01 -1.09234E+01 -1.11439E+01
  -1.13448E+01 -1.15261E+01 -1.16880E+01 -1.18310E+01 -1.19558E+01 -1.20633E+01 -1.21543E+01 -1.22297E+01 -1.22906E+01 -1.23381E+01
  -1.23730E+01 -1.23963E+01 -1.24088E+01 -1.24114E+01 -1.24048E+01 -1.23899E+01 -1.23673E+01 -1.23375E+01 -1.23012E+01 -1.22589E+01
  -1.22110E+01 -1.21582E+01 -1.21007E+01 -1.20390E+01 -1.19733E+01 -1.19042E+01 -1.18318E+01 -1.17566E+01 -1.16788E+01 -1.15987E+01
  -1.15165E+01 -1.14325E+01 -1.13470E+01 -1.12602E+01 -1.11721E+01 -1.10828E+01 -1.09924E+01 -1.09010E+01 -1.08087E+01 -1.07155E+01
  -1.06215E+01 -1.05268E+01 -1.04313E+01 -1.03351E+01 -1.02384E+01 -1.01411E+01 -1.00433E+01 -9.94497E+00 -9.84617E+00 -9.74703E+00
  -9.64748E+00 -9.54761E+00 -9.44737E+00 -9.34686E+00 -9.24609E+00 -9.14514E+00 -9.04396E+00 -8.94261E+00 -8.84107E+00 -8.73944E+00
  -8.63771E+00 -8.53595E+00 -8.43409E+00 -8.33221E+00 -8.23028E+00 -8.12842E+00 -8.02658E+00 -7.92483E+00 -7.82310E+00 -7.72149E+00
  -7.61995E+00 -7.51861E+00 -7.41740E+00 -7.31640E+00 -7.21553E+00 -7.11489E+00 -7.01446E+00 -6.91433E+00
 NY background values follow
     6.707E+00    6.841E+00    6.974E+00    7.108E+00    7.240E+00    7.372E+00    7.504E+00    7.635E+00    7.766E+00    7.896E+00
     8.025E+00    8.153E+00    8.280E+00    8.407E+00    8.533E+00    8.657E+00    8.781E+00    8.904E+00    9.025E+00    9.146E+00
     9.265E+00    9.383E+00    9.500E+00    9.615E+00    9.729E+00    9.841E+00    9.952E+00    1.006E+01    1.017E+01    1.028E+01
     1.038E+01    1.048E+01    1.058E+01    1.068E+01    1.078E+01    1.088E+01    1.097E+01    1.106E+01    1.115E+01    1.124E+01
     1.132E+01    1.141E+01    1.149E+01    1.157E+01    1.164E+01    1.172E+01    1.179E+01    1.186E+01    1.192E+01    1.199E+01
     1.205E+01    1.211E+01    1.217E+01    1.223E+01    1.228E+01    1.234E+01    1.239E+01    1.244E+01    1.249E+01    1.254E+01
     1.259E+01    1.264E+01    1.268E+01    1.273E+01    1.278E+01    1.282E+01    1.287E+01    1.291E+01    1.295E+01    1.300E+01
     1.304E+01    1.309E+01    1.313E+01    1.318E+01    1.322E+01    1.327E+01    1.332E+01    1.336E+01    1.341E+01    1.346E+01
     1.351E+01    1.357E+01    1.362E+01    1.368E+01    1.373E+01    1.379E+01    1.385E+01    1.391E+01    1.398E+01    1.404E+01
     1.411E+01    1.418E+01    1.425E+01    1.433E+01    1.441E+01    1.449E+01    1.457E+01    1.465E+01    1.474E+01    1.483E+01
     1.492E+01    1.501E+01    1.511E+01    1.521E+01    1.531E+01    1.541E+01    1.551E+01    1.562E+01    1.573E+01    1.584E+01
     1.595E+01    1.607E+01    1.618E+01    1.630E+01    1.642E+01    1.654E+01    1.667E+01    1.679E+01    1.692E+01    1.705E+01
     1.718E+01    1.732E+01    1.745E+01    1.759E+01    1.773E+01    1.787E+01    1.802E+01    1.816E+01    1.831E+01    1.846E+01
     1.861E+01    1.876E+01    1.891E+01    1.907E+01    1.922E+01    1.938E+01    1.954E+01    1.970E+01    1.987E+01    2.003E+01
     2.020E+01    2.037E+01    2.054E+01    2.072E+01    2.090E+01    2.108E+01    2.126E+01    2.144E+01    2.163E+01    2.182E+01
     2.202E+01    2.222E+01    2.242E+01    2.263E+01    2.284E+01    2.305E+01    2.327E+01    2.349E+01    2.372E+01    2.395E+01
     2.419E+01    2.443E+01    2.468E+01    2.493E+01    2.518E+01    2.545E+01    2.571E+01    2.599E+01    2.626E+01    2.655E+01
     2.684E+01    2.713E+01    2.744E+01    2.774E+01    2.806E+01    2.838E+01    2.871E+01    2.905E+01    2.939E+01    2.974E+01
     3.009E+01    3.046E+01    3.083E+01    3.121E+01    3.159E+01    3.198E+01    3.238E+01    3.278E+01    3.319E+01    3.359E+01
     3.401E+01    3.442E+01    3.484E+01    3.526E+01    3.568E+01    3.610E+01    3.652E+01    3.695E+01    3.737E+01    3.779E+01
     3.821E+01    3.862E+01    3.904E+01    3.945E+01    3.985E+01    4.026E+01    4.066E+01    4.105E+01    4.144E+01    4.182E+01
     4.220E+01    4.256E+01    4.292E+01    4.328E+01    4.362E+01    4.396E+01    4.428E+01    4.460E+01    4.490E+01    4.520E+01
     4.548E+01    4.575E+01    4.601E+01    4.625E+01    4.648E+01    4.670E+01    4.690E+01    4.709E+01    4.726E+01    4.742E+01
     4.756E+01    4.769E+01    4.781E+01    4.791E+01    4.800E+01    4.807E+01    4.813E+01    4.818E+01    4.821E+01    4.823E+01
     4.824E+01    4.823E+01    4.821E+01    4.818E+01    4.813E+01    4.808E+01    4.801E+01    4.793E+01    4.783E+01    4.773E+01
     4.761E+01    4.748E+01    4.734E+01    4.719E+01    4.703E+01    4.686E+01    4.668E+01    4.648E+01    4.628E+01    4.606E+01
     4.584E+01    4.560E+01    4.536E+01    4.510E+01    4.484E+01    4.457E+01    4.428E+01    4.399E+01    4.369E+01    4.338E+01
     4.306E+01    4.273E+01    4.240E+01    4.205E+01    4.170E+01    4.134E+01    4.097E+01    4.059E+01    4.021E+01    3.982E+01
     3.942E+01    3.901E+01    3.860E+01    3.818E+01    3.775E+01    3.731E+01    3.687E+01    3.642E+01    3.597E+01    3.551E+01
     3.504E+01    3.457E+01    3.409E+01    3.360E+01    3.311E+01    3.262E+01    3.211E+01    3.161E+01    3.109E+01    3.058E+01
     3.005E+01    2.953E+01    2.899E+01    2.846E+01    2.792E+01    2.737E+01    2.682E+01    2.627E+01    2.571E+01    2.515E+01
     2.458E+01    2.401E+01    2.344E+01    2.286E+01    2.228E+01    2.170E+01    2.112E+01    2.053E+01    1.994E+01    1.934E+01
     1.875E+01    1.815E+01    1.755E+01    1.695E+01    1.635E+01    1.575E+01    1.515E+01    1.455E+01    1.395E+01    1.334E+01
     1.274E+01    1.214E+01    1.155E+01    1.095E+01    1.035E+01    9.761E+00    9.171E+00    8.583E+00    7.998E+00    7.417E+00
     6.839E+00    6.265E+00    5.695E+00    5.129E+00    4.568E+00    4.012E+00    3.461E+00    2.915E+00    2.375E+00    1.841E+00
     1.314E+00    7.932E-01    2.793E-01   -2.275E-01   -7.269E-01   -1.219E+00   -1.702E+00   -2.178E+00   -2.645E+00   -3.103E+00
    -3.552E+00   -3.991E+00   -4.421E+00   -4.841E+00   -5.252E+00   -5.653E+00   -6.044E+00   -6.426E+00   -6.798E+00   -7.161E+00
    -7.515E+00   -7.859E+00   -8.195E+00   -8.521E+00   -8.838E+00   -9.146E+00   -9.445E+00   -9.736E+00   -1.002E+01   -1.029E+01
    -1.055E+01   -1.081E+01   -1.106E+01   -1.130E+01   -1.153E+01   -1.175E+01   -1.196E+01   -1.217E+01   -1.236E+01   -1.255E+01
    -1.273E+01   -1.291E+01   -1.307E+01   -1.323E+01   -1.338E+01   -1.352E+01   -1.365E+01   -1.378E+01   -1.390E+01   -1.401E+01
    -1.412E+01   -1.421E+01   -1.430E+01   -1.438E+01   -1.446E+01   -1.453E+01   -1.459E+01   -1.464E+01   -1.469E+01   -1.473E+01
    -1.477E+01   -1.479E+01   -1.481E+01   -1.483E+01   -1.484E+01   -1.484E+01   -1.484E+01   -1.483E+01   -1.482E+01   -1.480E+01
    -1.478E+01   -1.475E+01   -1.472E+01   -1.468E+01   -1.464E+01   -1.459E+01   -1.454E+01   -1.449E+01   -1.443E+01   -1.437E+01
    -1.430E+01   -1.423E+01   -1.416E+01   -1.408E+01   -1.400E+01   -1.392E+01   -1.384E+01   -1.375E+01   -1.366E+01   -1.357E+01
    -1.348E+01   -1.338E+01   -1.328E+01   -1.318E+01   -1.308E+01   -1.298E+01   -1.288E+01   -1.277E+01   -1.267E+01   -1.256E+01
    -1.245E+01   -1.235E+01   -1.224E+01   -1.213E+01   -1.202E+01   -1.192E+01   -1.181E+01   -1.170E+01   -1.159E+01   -1.148E+01
    -1.137E+01   -1.126E+01   -1.115E+01   -1.104E+01   -1.093E+01   -1.082E+01   -1.071E+01   -1.060E+01   -1.049E+01   -1.039E+01
    -1.028E+01   -1.017E+01   -1.006E+01   -9.946E+00   -9.836E+00   -9.726E+00   -9.617E+00   -9.507E+00   -9.398E+00   -9.289E+00
    -9.179E+00   -9.070E+00   -8.961E+00   -8.853E+00   -8.744E+00   -8.636E+00   -8.527E+00   -8.419E+00   -8.311E+00   -8.204E+00
    -8.097E+00   -7.989E+00   -7.883E+00   -7.776E+00   -7.670E+00   -7.564E+00   -7.458E+00   -7.353E+00
 Asp      Conc. = 6.78E+01
