 LCModel (Version 6.3-1L) Copyright: S.W. Provencher.          Ref.: Magn. Reson. Med. 30:672-679 (1993).                
 Slice#1 Row#6 Col#7  PD_24_press_1_raw_act
 36 lines in following concentration table = NCONC+1
    Conc.  %SD /Cr+PCr  Metabolite                                         
    0.000 999%   0.000 Ala                                                 
  118.596  99%   0.304 Asp                                                 
    0.000 999%   0.000 Cr                                                  
  389.617  15%   1.000 PCr                                                 
   70.890 103%   0.182 GABA                                                
   64.421 112%   0.165 Glc                                                 
  384.596  76%   0.987 Gln                                                 
  456.961  72%   1.173 Glu                                                 
  268.068   8%   0.688 GPC                                                 
    0.000 999%   0.000 PCh                                                 
  165.941  48%   0.426 GSH                                                 
  382.957  62%   0.983 Ins                                                 
    0.000 999%   0.000 Lac                                                 
  857.384  12%   2.201 NAA                                                 
  306.691  34%   0.787 NAAG                                                
   30.492  65% 7.8E-02 Scyllo                                              
   92.348 118%   0.237 Tau                                                 
  223.776  36%   0.574 -CrCH2                                              
  268.068   8%   0.688 GPC+PCh                                             
 1.16E+03   6%   2.988 NAA+NAAG                                            
  389.617  15%   1.000 Cr+PCr                                              
  841.557  59%   2.160 Glu+Gln                                             
    0.000 999%   0.000 Lip13a                                              
  672.116  13%   1.725 Lip13b                                              
    0.000 999%   0.000 Lip09                                               
  340.403  33%   0.874 MM09                                                
  141.948  47%   0.364 Lip20                                               
  567.565  31%   1.457 MM20                                                
   99.315  39%   0.255 MM12                                                
  199.158  54%   0.511 MM14                                                
  231.442  28%   0.594 MM17                                                
  672.116  13%   1.725 Lip13a+Lip13b                                       
  970.589  16%   2.491 MM14+Lip13a+Lip13b+MM12                             
  340.403  33%   0.874 MM09+Lip09                                          
  709.513  26%   1.821 MM20+Lip20                                          
   6 lines in following misc. output table
  FWHM = 0.076 ppm    S/N =   4                                            
  Data shift = 0.008 ppm                                                   
  Ph: -42 deg      -2.5 deg/ppm                                            
  alphaB,S = 1.6E+01,   5.0E+01                                            
   14 spline knots.   Ns = 8(1)                                            
   3 inflections.     3 extrema                                            
  498 points on ppm-axis = NY
      4.000000     3.992357     3.984714     3.977070     3.969427     3.961784     3.954141     3.946497     3.938854     3.931211
      3.923568     3.915925     3.908281     3.900638     3.892995     3.885352     3.877708     3.870065     3.862422     3.854779
      3.847136     3.839492     3.831849     3.824206     3.816563     3.808919     3.801276     3.793633     3.785990     3.778347
      3.770703     3.763060     3.755417     3.747774     3.740130     3.732487     3.724844     3.717201     3.709558     3.701914
      3.694271     3.686628     3.678985     3.671341     3.663698     3.656055     3.648412     3.640769     3.633125     3.625482
      3.617839     3.610196     3.602552     3.594909     3.587266     3.579623     3.571980     3.564336     3.556693     3.549050
      3.541407     3.533763     3.526120     3.518477     3.510834     3.503191     3.495547     3.487904     3.480261     3.472618
      3.464974     3.457331     3.449688     3.442045     3.434402     3.426758     3.419115     3.411472     3.403829     3.396185
      3.388542     3.380899     3.373256     3.365613     3.357969     3.350326     3.342683     3.335040     3.327396     3.319753
      3.312110     3.304467     3.296824     3.289180     3.281537     3.273894     3.266251     3.258607     3.250964     3.243321
      3.235678     3.228034     3.220391     3.212748     3.205105     3.197462     3.189818     3.182175     3.174532     3.166889
      3.159245     3.151602     3.143959     3.136316     3.128673     3.121029     3.113386     3.105743     3.098100     3.090456
      3.082813     3.075170     3.067527     3.059884     3.052240     3.044597     3.036954     3.029311     3.021667     3.014024
      3.006381     2.998738     2.991095     2.983451     2.975808     2.968165     2.960522     2.952878     2.945235     2.937592
      2.929949     2.922306     2.914662     2.907019     2.899376     2.891733     2.884089     2.876446     2.868803     2.861160
      2.853517     2.845873     2.838230     2.830587     2.822944     2.815300     2.807657     2.800014     2.792371     2.784728
      2.777084     2.769441     2.761798     2.754155     2.746511     2.738868     2.731225     2.723582     2.715939     2.708295
      2.700652     2.693009     2.685366     2.677722     2.670079     2.662436     2.654793     2.647150     2.639506     2.631863
      2.624220     2.616577     2.608933     2.601290     2.593647     2.586004     2.578361     2.570717     2.563074     2.555431
      2.547788     2.540144     2.532501     2.524858     2.517215     2.509572     2.501928     2.494285     2.486642     2.478999
      2.471355     2.463712     2.456069     2.448426     2.440783     2.433139     2.425496     2.417853     2.410210     2.402566
      2.394923     2.387280     2.379637     2.371994     2.364350     2.356707     2.349064     2.341421     2.333777     2.326134
      2.318491     2.310848     2.303205     2.295561     2.287918     2.280275     2.272632     2.264988     2.257345     2.249702
      2.242059     2.234416     2.226772     2.219129     2.211486     2.203843     2.196199     2.188556     2.180913     2.173270
      2.165627     2.157983     2.150340     2.142697     2.135054     2.127410     2.119767     2.112124     2.104481     2.096838
      2.089194     2.081551     2.073908     2.066265     2.058621     2.050978     2.043335     2.035692     2.028049     2.020405
      2.012762     2.005119     1.997476     1.989833     1.982190     1.974546     1.966903     1.959260     1.951617     1.943974
      1.936331     1.928688     1.921045     1.913402     1.905759     1.898115     1.890472     1.882829     1.875186     1.867543
      1.859900     1.852257     1.844614     1.836971     1.829327     1.821684     1.814041     1.806398     1.798755     1.791112
      1.783469     1.775826     1.768183     1.760540     1.752896     1.745253     1.737610     1.729967     1.722324     1.714681
      1.707038     1.699395     1.691752     1.684108     1.676465     1.668822     1.661179     1.653536     1.645893     1.638250
      1.630607     1.622964     1.615321     1.607677     1.600034     1.592391     1.584748     1.577105     1.569462     1.561819
      1.554176     1.546533     1.538890     1.531246     1.523603     1.515960     1.508317     1.500674     1.493031     1.485388
      1.477745     1.470102     1.462458     1.454815     1.447172     1.439529     1.431886     1.424243     1.416600     1.408957
      1.401314     1.393671     1.386027     1.378384     1.370741     1.363098     1.355455     1.347812     1.340169     1.332526
      1.324883     1.317240     1.309596     1.301953     1.294310     1.286667     1.279024     1.271381     1.263738     1.256095
      1.248452     1.240808     1.233165     1.225522     1.217879     1.210236     1.202593     1.194950     1.187307     1.179664
      1.172021     1.164377     1.156734     1.149091     1.141448     1.133805     1.126162     1.118519     1.110876     1.103233
      1.095590     1.087946     1.080303     1.072660     1.065017     1.057374     1.049731     1.042088     1.034445     1.026802
      1.019158     1.011515     1.003872     0.996229     0.988586     0.980943     0.973300     0.965657     0.958014     0.950371
      0.942727     0.935084     0.927441     0.919798     0.912155     0.904512     0.896869     0.889226     0.881583     0.873940
      0.866296     0.858653     0.851010     0.843367     0.835724     0.828081     0.820438     0.812795     0.805152     0.797508
      0.789865     0.782222     0.774579     0.766936     0.759293     0.751650     0.744007     0.736364     0.728721     0.721077
      0.713434     0.705791     0.698148     0.690505     0.682862     0.675219     0.667576     0.659933     0.652290     0.644646
      0.637003     0.629360     0.621717     0.614074     0.606431     0.598788     0.591145     0.583502     0.575858     0.568215
      0.560572     0.552929     0.545286     0.537643     0.530000     0.522357     0.514714     0.507071     0.499427     0.491784
      0.484141     0.476498     0.468855     0.461212     0.453569     0.445925     0.438282     0.430639     0.422996     0.415353
      0.407710     0.400067     0.392424     0.384780     0.377137     0.369494     0.361851     0.354208     0.346565     0.338922
      0.331278     0.323635     0.315992     0.308349     0.300706     0.293063     0.285420     0.277777     0.270133     0.262490
      0.254847     0.247204     0.239561     0.231918     0.224275     0.216631     0.208988     0.201345
 NY phased data points follow
  -5.07007E+00 -5.17282E+00 -4.91172E+00 -4.18331E-01 -4.44832E+00 -2.33326E+00 -3.64054E+00  1.79849E+00  3.76511E+00  1.06607E+00
  -1.80567E+00  5.00320E-01  2.78354E-01  2.17198E+00 -5.25837E+00 -3.16598E+00 -5.31230E+00 -3.69833E+00 -8.29364E+00 -1.08833E+00
  -6.50701E+00 -3.14343E+00  6.80303E-01  6.77102E-01 -3.94232E+00  5.51012E+00  1.86932E+00 -1.69770E+00  1.46538E-01 -2.55926E+00
  -5.20183E+00  2.05342E+00 -2.79937E+00  6.65377E-01  2.83583E+00 -1.77796E-01  3.68919E-02 -5.03309E-02  3.21507E-01  2.57190E+00
   1.80004E+00  1.32228E+00 -2.50769E+00 -1.77448E+00  2.13447E+00  1.50344E+00  1.70323E+00  4.32889E+00 -9.43030E-01 -1.44336E+00
   8.05494E-01 -2.14628E+00  1.41798E+00  2.50174E+00 -3.68618E+00  1.80745E+00  5.11684E+00 -2.78637E+00 -3.58169E+00 -3.89256E+00
   2.15804E+00 -5.98405E-01 -3.10406E+00 -7.66842E+00 -3.84434E+00 -1.32335E+00 -9.70001E+00  1.43916E+00 -1.25192E+00 -9.66930E-01
   1.61138E+00  3.56774E-01 -4.99406E+00 -4.52956E+00 -5.12830E+00 -5.95541E+00 -9.19188E-01 -1.68008E+00 -6.28495E+00 -5.38407E+00
   3.03897E+00 -9.71032E-01 -4.53779E+00 -2.85157E+00 -7.77625E-01 -1.95119E+00 -4.49167E+00  1.68984E-01 -3.22428E+00 -1.02730E-01
  -3.76192E+00 -1.47204E+00 -5.18465E+00  9.04837E-01 -1.59880E+00  6.66425E+00  1.20568E+01  8.92376E+00  1.34871E+01  8.46681E+00
   7.60003E+00  1.32997E+01  1.45024E+01  1.93974E+01  2.07275E+01  1.50640E+01  8.50765E+00  3.57782E+00 -2.07054E+00  2.68289E+00
  -3.28632E+00 -3.62395E+00 -6.52803E-01 -3.94316E+00 -9.10025E+00 -1.08870E+00 -1.43110E+00 -2.88773E+00 -4.52352E+00 -1.15673E+00
   2.24899E+00  3.39984E+00  5.38901E-01 -1.91173E-01  6.42554E-01  3.48576E+00  5.31452E+00  1.62471E+01  1.41411E+01  8.49935E+00
   5.02692E+00  3.21220E+00 -3.44924E+00  1.57043E+00 -4.08236E+00 -5.74503E+00  5.14397E+00 -8.11647E-01 -1.20901E+00 -5.11310E+00
  -3.44053E+00 -3.62412E+00 -1.58816E+00 -2.06785E+00 -5.79649E+00  1.86304E+00 -4.39409E+00  3.76860E+00 -1.87568E+00 -3.60031E+00
  -3.24298E+00  3.48488E+00 -6.77756E+00 -4.91122E+00 -3.73877E+00 -6.24287E+00 -2.97257E+00  4.59871E-01 -5.33977E+00 -3.43387E+00
  -3.50835E+00 -5.34310E+00 -4.15365E+00 -5.72663E+00 -6.17895E+00 -8.02687E-01 -7.44153E+00 -3.80959E+00 -8.30906E+00 -4.41760E+00
  -1.18367E+01 -4.60210E+00 -5.82738E+00 -4.25896E+00 -1.11946E+01 -7.54838E+00 -1.13501E+01 -5.50329E+00 -5.72907E+00 -5.80566E+00
  -9.44463E+00 -5.47971E+00 -7.28771E+00 -7.74573E+00 -7.28484E+00 -1.13644E+00 -5.15678E+00 -4.13119E+00 -1.14383E+01 -2.65751E+00
  -3.32504E+00 -3.46984E+00  1.63085E+00 -6.83997E+00 -1.31033E+01  1.10754E+00 -3.22039E+00 -1.26541E+00 -2.45172E+00 -2.93359E+00
  -3.69839E+00 -2.85556E-01 -1.79854E+00 -3.03529E-01 -2.85221E-01 -3.42125E+00  4.21485E-01  2.15166E+00 -2.11959E+00 -2.35560E+00
  -2.94837E+00 -4.29433E+00  1.31845E+00 -2.38496E+00  6.66326E-01  3.13462E-01 -1.04464E+00  9.81540E-01  6.21172E-01 -4.78619E+00
  -1.05230E-01  1.41476E+00 -1.81194E+00  1.78625E+00 -1.18513E+00 -8.08897E-01  1.20112E+00  1.70705E+00 -3.48655E+00  6.44195E-01
   3.94146E+00 -1.86389E+00  2.90009E-01  4.59103E+00 -5.72254E-01  1.60557E+00 -6.27632E-01  1.38249E+00  5.45066E-02 -2.49822E-01
  -2.37466E+00  3.49110E-01 -2.32008E+00 -1.82580E+00 -2.42598E+00  2.03542E+00 -2.81552E-01  3.81044E+00  6.34900E+00  8.59354E+00
   1.06922E+01  1.44000E+01  1.21337E+01  1.77552E+01  1.60463E+01  2.29037E+01  1.75109E+01  1.61027E+01  1.75055E+01  2.31065E+01
   3.01362E+01  3.47304E+01  2.08033E+01  1.39663E+01  7.79717E+00  6.97270E+00  6.42681E-01  3.08173E+00  1.94797E+00  3.13437E+00
  -3.37941E+00  9.74007E-01  2.88188E+00  4.22648E-01  2.21205E+00  6.74373E+00  2.18622E+00  6.07594E-03  2.14455E+00  3.42452E-01
   5.86049E+00  2.59952E+00  3.47333E+00  3.08844E+00 -7.47205E-01  1.03129E+00  3.42297E-01 -2.34397E-01  2.12163E+00  4.62376E-01
  -1.41673E+00 -3.43876E+00  4.80616E+00 -2.51813E+00  3.62052E+00  1.13980E+00 -5.60629E+00  7.59951E-01  1.67461E+00  5.76727E+00
  -3.81251E-01  9.03723E-01 -2.75472E-01 -2.14546E-01  2.17644E+00  4.30093E+00  3.05043E+00  7.75880E+00 -3.73480E+00  4.70293E+00
   5.53768E+00  1.46687E+00  4.66389E+00  4.92263E+00  1.23977E+00  3.16854E+00  1.97597E+00  2.08663E+00 -2.60167E+00  3.94745E+00
  -1.01912E+00 -9.81376E-01 -4.63939E+00 -4.48077E+00 -8.17239E+00  2.51745E+00 -3.41385E+00 -1.38227E+00 -1.61796E+00  1.17495E+00
  -6.78181E+00  4.36308E+00 -6.60608E+00  1.50894E+00 -5.21423E+00 -4.72999E+00  2.13106E-01 -3.91716E+00 -2.64760E+00 -7.46507E+00
  -8.00777E+00 -1.09265E+01 -7.65147E+00 -1.00218E+01 -5.11622E+00  8.84665E-01 -2.33815E+00 -4.79665E-01  1.03264E+00  5.07109E-01
   4.02366E+00  6.61122E+00  4.49980E+00  8.17770E+00  5.67959E+00  5.93665E+00  4.90118E+00  1.33267E+01  3.00323E+00  5.26031E+00
   7.42651E+00  5.85389E+00  1.37654E+00  6.19629E+00  6.55250E+00  1.58250E+00  8.32365E-01  2.57954E+00 -6.04663E-01 -3.94483E+00
   2.95003E+00 -5.50061E+00 -5.27009E+00 -1.64552E+00 -2.33647E+00 -4.92066E+00 -1.91787E+00 -7.68715E+00 -8.65421E+00 -7.10862E+00
  -7.46356E+00 -9.54180E+00 -6.53213E+00 -8.72979E+00 -9.26770E+00 -2.51284E+00 -4.52951E+00 -2.24223E+00 -2.14513E+00  1.64147E+00
  -2.21252E+00 -4.66026E-01 -2.87810E+00 -3.61677E+00 -1.75768E+00  3.47625E-02 -4.58270E+00  1.98832E+00 -8.98301E+00 -6.00148E+00
  -5.61112E+00 -4.76176E+00  1.04171E-01  3.75809E-01 -2.55239E+00  1.47489E+00 -1.59486E+00  3.98572E+00 -2.21213E+00  1.97538E-02
  -9.47988E-02  1.42841E+00 -2.00156E+00  2.63090E+00 -2.98694E+00 -6.70911E+00 -3.98998E+00  1.19952E+00 -3.71223E+00 -4.71766E-01
   4.27730E-01 -2.83133E+00 -3.79680E+00 -2.36653E+00  1.88356E+00  2.94984E+00 -2.92459E+00  7.99027E-01 -3.25474E+00 -1.77790E+00
   1.05957E+00 -4.99418E+00 -4.57990E+00 -1.07161E+00 -4.43627E+00 -8.98504E-01  3.91665E+00 -7.75954E-01  3.16434E+00  6.98429E-02
   1.10524E+00 -6.11262E+00 -2.46309E+00 -4.97419E+00 -5.52726E+00 -9.86982E-01 -2.53557E+00 -5.81266E+00 -1.48518E+00 -5.01799E+00
  -3.55523E+00 -8.49276E+00 -5.18470E+00 -3.20358E+00 -2.84198E-01 -1.70418E+00 -8.87742E-01 -8.91273E+00 -7.46356E-01  2.01613E+00
  -2.39733E+00 -5.65540E+00  1.88223E+00 -5.96469E+00 -2.75818E+00  1.48552E+00 -5.72934E-01  6.28339E+00  7.76790E-01  1.62244E+00
  -9.58736E-01 -1.07942E+00  2.53004E-01 -2.44422E+00 -2.72990E+00 -8.37305E-01 -5.46799E+00 -7.57740E+00 -2.41272E+00 -2.66003E+00
  -1.40628E+00 -1.03394E+00 -3.76011E-01  1.79879E-01  1.10539E+00 -9.27850E-01 -4.67439E+00 -1.53557E-01 -8.11390E-01  6.33416E-01
  -5.78188E+00  1.66815E+00 -5.87140E+00 -6.26017E-01 -5.68147E+00 -1.90634E+00 -4.30984E+00 -2.57049E+00
 NY points of the fit to the data follow
  -2.40716E+00 -1.96286E+00 -1.28274E+00 -8.11727E-01 -6.33701E-01 -6.39647E-01 -5.79623E-01 -1.82139E-01  5.61510E-01  1.31821E+00
   1.59108E+00  1.18109E+00  3.42891E-01 -4.78861E-01 -9.94532E-01 -1.16791E+00 -1.19576E+00 -1.29880E+00 -1.60357E+00 -2.03799E+00
  -2.49464E+00 -2.75531E+00 -2.38152E+00 -1.41951E+00 -4.45093E-01  7.24286E-02 -6.87170E-02 -5.94895E-01 -9.65795E-01 -6.95927E-01
   2.34531E-01  1.34614E+00  1.99917E+00  1.84403E+00  1.05608E+00  5.03313E-02 -9.31550E-01 -1.64766E+00 -1.86078E+00 -1.57610E+00
  -1.02019E+00 -5.20767E-01 -2.89348E-01 -3.37491E-01 -4.76200E-01 -4.46819E-01 -1.46337E-01  2.47291E-01  4.20184E-01  1.95640E-01
  -3.66094E-01 -9.95126E-01 -1.45857E+00 -1.69188E+00 -1.79789E+00 -1.92709E+00 -2.11152E+00 -2.27594E+00 -2.31196E+00 -2.17260E+00
  -1.97974E+00 -1.87457E+00 -1.96615E+00 -2.21383E+00 -2.44407E+00 -2.56616E+00 -2.58010E+00 -2.48650E+00 -2.32305E+00 -2.18556E+00
  -2.12274E+00 -2.12410E+00 -2.16012E+00 -2.18936E+00 -2.16248E+00 -2.08636E+00 -2.04159E+00 -2.07662E+00 -2.06829E+00 -2.00780E+00
  -2.08415E+00 -2.30444E+00 -2.53066E+00 -2.61076E+00 -2.45331E+00 -2.14239E+00 -1.91197E+00 -1.98366E+00 -2.34392E+00 -2.78392E+00
  -3.06814E+00 -3.09611E+00 -2.94270E+00 -2.48187E+00 -2.47309E-01  4.83633E+00  9.23184E+00  1.06066E+01  9.30583E+00  7.44129E+00
   7.80715E+00  1.15504E+01  1.69733E+01  2.06001E+01  1.97945E+01  1.51350E+01  9.41777E+00  4.77509E+00  1.82244E+00  2.39507E-01
  -7.01030E-01 -1.51155E+00 -2.21438E+00 -2.52645E+00 -2.65395E+00 -2.71851E+00 -2.72728E+00 -2.61570E+00 -1.95185E+00  2.56210E-01
   2.77401E+00  3.97769E+00  3.68100E+00  2.72589E+00  2.51147E+00  4.01748E+00  6.84850E+00  9.29911E+00  9.63822E+00  7.63079E+00
   4.58064E+00  1.92737E+00  3.02262E-01 -4.53818E-01 -8.51319E-01 -1.37386E+00 -2.10301E+00 -2.67013E+00 -2.90720E+00 -2.84454E+00
  -2.59220E+00 -2.30640E+00 -2.11858E+00 -2.06946E+00 -2.11383E+00 -2.20353E+00 -2.33863E+00 -2.51925E+00 -2.69109E+00 -2.80029E+00
  -2.83186E+00 -2.83073E+00 -2.93419E+00 -3.23644E+00 -3.57948E+00 -3.75983E+00 -3.67422E+00 -3.38840E+00 -3.22589E+00 -3.36567E+00
  -3.74306E+00 -4.14347E+00 -4.34575E+00 -4.26213E+00 -4.01232E+00 -3.81703E+00 -3.82191E+00 -4.06143E+00 -4.48210E+00 -4.83280E+00
  -4.89358E+00 -4.71549E+00 -4.51820E+00 -4.57742E+00 -4.89897E+00 -5.25796E+00 -5.36389E+00 -5.13368E+00 -4.81225E+00 -4.70280E+00
  -4.76119E+00 -4.76360E+00 -4.53106E+00 -4.05177E+00 -3.51248E+00 -3.17974E+00 -3.15278E+00 -3.20004E+00 -3.07256E+00 -2.73930E+00
  -2.44001E+00 -2.27538E+00 -2.20090E+00 -2.18890E+00 -2.18294E+00 -2.14644E+00 -2.13026E+00 -2.16325E+00 -2.17646E+00 -2.11201E+00
  -1.94615E+00 -1.80664E+00 -1.93021E+00 -2.08374E+00 -2.06386E+00 -2.05862E+00 -2.18494E+00 -2.51514E+00 -2.93944E+00 -3.43555E+00
  -3.90083E+00 -4.06492E+00 -3.80631E+00 -3.23019E+00 -2.56192E+00 -1.94615E+00 -1.41561E+00 -1.07282E+00 -1.07632E+00 -1.41020E+00
  -2.02442E+00 -2.71864E+00 -3.17426E+00 -3.21926E+00 -2.83107E+00 -2.13644E+00 -1.36881E+00 -7.78430E-01 -5.71587E-01 -6.37514E-01
  -7.53180E-01 -8.26218E-01 -8.41547E-01 -7.68045E-01 -7.27752E-01 -8.79750E-01 -9.92990E-01 -8.48541E-01 -4.77131E-01 -1.23999E-01
  -2.00247E-02 -2.72378E-01 -7.75215E-01 -1.21264E+00 -1.27637E+00 -8.80556E-01 -1.83431E-01  9.29626E-01  3.02305E+00  5.16816E+00
   6.35664E+00  7.28590E+00  1.08753E+01  1.65006E+01  2.08744E+01  2.26189E+01  2.20318E+01  2.08302E+01  2.12971E+01  2.41299E+01
   2.72586E+01  2.73603E+01  2.31272E+01  1.64927E+01  1.02051E+01  5.66481E+00  3.06961E+00  1.70757E+00  7.33206E-01 -2.33648E-01
  -8.94150E-01 -1.17611E+00 -1.29260E+00 -1.31705E+00 -1.30215E+00 -1.30157E+00 -1.35516E+00 -1.46275E+00 -1.58978E+00 -1.70927E+00
  -1.81168E+00 -1.88669E+00 -1.93083E+00 -1.94688E+00 -1.92941E+00 -1.88786E+00 -1.84291E+00 -1.80964E+00 -1.79120E+00 -1.77444E+00
  -1.74295E+00 -1.69251E+00 -1.61865E+00 -1.52614E+00 -1.42924E+00 -1.33610E+00 -1.24966E+00 -1.17272E+00 -1.10404E+00 -1.03712E+00
  -9.65892E-01 -8.90623E-01 -8.17621E-01 -7.55236E-01 -7.10059E-01 -6.84586E-01 -6.78717E-01 -6.90515E-01 -7.18292E-01 -7.60637E-01
  -8.14944E-01 -8.78058E-01 -9.47702E-01 -1.02125E+00 -1.09634E+00 -1.17003E+00 -1.23979E+00 -1.30333E+00 -1.35943E+00 -1.40711E+00
  -1.44609E+00 -1.47600E+00 -1.49713E+00 -1.50986E+00 -1.51531E+00 -1.51443E+00 -1.50847E+00 -1.49837E+00 -1.48543E+00 -1.47073E+00
  -1.45566E+00 -1.44101E+00 -1.42761E+00 -1.41578E+00 -1.40612E+00 -1.39875E+00 -1.39379E+00 -1.39050E+00 -1.38768E+00 -1.38287E+00
  -1.37256E+00 -1.35069E+00 -1.30822E+00 -1.23143E+00 -1.10184E+00 -8.95655E-01 -5.85545E-01 -1.42889E-01  4.56598E-01  1.22658E+00
   2.16160E+00  3.23105E+00  4.37526E+00  5.50851E+00  6.52706E+00  7.32427E+00  7.80753E+00  7.91586E+00  7.63143E+00  6.98402E+00
   6.04483E+00  4.91362E+00  3.70020E+00  2.50741E+00  1.41681E+00  4.81881E-01 -2.73602E-01 -8.50629E-01 -1.26823E+00 -1.55464E+00
  -1.74086E+00 -1.85507E+00 -1.92071E+00 -1.95512E+00 -1.97059E+00 -1.97470E+00 -1.97198E+00 -1.96445E+00 -1.95311E+00 -1.93802E+00
  -1.91912E+00 -1.89583E+00 -1.86764E+00 -1.83369E+00 -1.79349E+00 -1.74637E+00 -1.69199E+00 -1.62967E+00 -1.55905E+00 -1.47962E+00
  -1.39145E+00 -1.29456E+00 -1.18949E+00 -1.07671E+00 -9.57278E-01 -8.32397E-01 -7.04043E-01 -5.74270E-01 -4.45697E-01 -3.20828E-01
  -2.02674E-01 -9.40987E-02  1.70513E-03  8.20696E-02  1.44429E-01  1.87021E-01  2.08286E-01  2.07524E-01  1.84394E-01  1.39621E-01
   7.43809E-02 -9.24433E-03 -1.09049E-01 -2.22211E-01 -3.45953E-01 -4.77012E-01 -6.12403E-01 -7.49036E-01 -8.84469E-01 -1.01634E+00
  -1.14291E+00 -1.26250E+00 -1.37408E+00 -1.47681E+00 -1.57055E+00 -1.65517E+00 -1.73101E+00 -1.79823E+00 -1.85748E+00 -1.90925E+00
  -1.95443E+00 -1.99359E+00 -2.02749E+00 -2.05655E+00 -2.08148E+00 -2.10274E+00 -2.12101E+00 -2.13657E+00 -2.14987E+00 -2.16103E+00
  -2.17049E+00 -2.17841E+00 -2.18519E+00 -2.19080E+00 -2.19548E+00 -2.19917E+00 -2.20217E+00 -2.20450E+00 -2.20639E+00 -2.20769E+00
  -2.20855E+00 -2.20889E+00 -2.20896E+00 -2.20869E+00 -2.20824E+00 -2.20742E+00 -2.20637E+00 -2.20500E+00 -2.20354E+00 -2.20189E+00
  -2.20016E+00 -2.19815E+00 -2.19602E+00 -2.19369E+00 -2.19137E+00 -2.18890E+00 -2.18638E+00 -2.18362E+00 -2.18081E+00 -2.17789E+00
  -2.17501E+00 -2.17199E+00 -2.16893E+00 -2.16567E+00 -2.16241E+00 -2.15907E+00 -2.15578E+00 -2.15234E+00 -2.14885E+00 -2.14519E+00
  -2.14158E+00 -2.13790E+00 -2.13425E+00 -2.13043E+00 -2.12656E+00 -2.12255E+00 -2.11861E+00 -2.11457E+00 -2.11052E+00 -2.10628E+00
  -2.10198E+00 -2.09756E+00 -2.09319E+00 -2.08867E+00 -2.08407E+00 -2.07923E+00 -2.07431E+00 -2.06924E+00
 NY background values follow
    -3.896E+00   -3.892E+00   -3.889E+00   -3.885E+00   -3.881E+00   -3.877E+00   -3.873E+00   -3.870E+00   -3.866E+00   -3.862E+00
    -3.858E+00   -3.854E+00   -3.851E+00   -3.847E+00   -3.843E+00   -3.839E+00   -3.835E+00   -3.832E+00   -3.828E+00   -3.824E+00
    -3.820E+00   -3.816E+00   -3.812E+00   -3.809E+00   -3.805E+00   -3.801E+00   -3.797E+00   -3.793E+00   -3.790E+00   -3.786E+00
    -3.782E+00   -3.778E+00   -3.774E+00   -3.770E+00   -3.767E+00   -3.763E+00   -3.759E+00   -3.755E+00   -3.751E+00   -3.747E+00
    -3.744E+00   -3.740E+00   -3.736E+00   -3.732E+00   -3.728E+00   -3.724E+00   -3.721E+00   -3.717E+00   -3.713E+00   -3.709E+00
    -3.705E+00   -3.701E+00   -3.697E+00   -3.694E+00   -3.690E+00   -3.686E+00   -3.682E+00   -3.678E+00   -3.674E+00   -3.671E+00
    -3.667E+00   -3.663E+00   -3.659E+00   -3.655E+00   -3.651E+00   -3.647E+00   -3.643E+00   -3.640E+00   -3.636E+00   -3.632E+00
    -3.628E+00   -3.624E+00   -3.620E+00   -3.616E+00   -3.613E+00   -3.609E+00   -3.605E+00   -3.601E+00   -3.597E+00   -3.593E+00
    -3.589E+00   -3.585E+00   -3.582E+00   -3.578E+00   -3.574E+00   -3.570E+00   -3.566E+00   -3.562E+00   -3.558E+00   -3.554E+00
    -3.551E+00   -3.547E+00   -3.543E+00   -3.539E+00   -3.535E+00   -3.531E+00   -3.527E+00   -3.523E+00   -3.519E+00   -3.516E+00
    -3.512E+00   -3.508E+00   -3.504E+00   -3.500E+00   -3.496E+00   -3.492E+00   -3.488E+00   -3.484E+00   -3.481E+00   -3.477E+00
    -3.473E+00   -3.469E+00   -3.465E+00   -3.461E+00   -3.457E+00   -3.453E+00   -3.449E+00   -3.445E+00   -3.442E+00   -3.438E+00
    -3.434E+00   -3.430E+00   -3.426E+00   -3.422E+00   -3.418E+00   -3.414E+00   -3.410E+00   -3.406E+00   -3.402E+00   -3.399E+00
    -3.395E+00   -3.391E+00   -3.387E+00   -3.383E+00   -3.379E+00   -3.375E+00   -3.371E+00   -3.367E+00   -3.363E+00   -3.359E+00
    -3.356E+00   -3.352E+00   -3.348E+00   -3.344E+00   -3.340E+00   -3.336E+00   -3.332E+00   -3.328E+00   -3.324E+00   -3.320E+00
    -3.316E+00   -3.312E+00   -3.309E+00   -3.305E+00   -3.301E+00   -3.297E+00   -3.293E+00   -3.289E+00   -3.285E+00   -3.281E+00
    -3.277E+00   -3.273E+00   -3.269E+00   -3.265E+00   -3.261E+00   -3.257E+00   -3.254E+00   -3.250E+00   -3.246E+00   -3.242E+00
    -3.238E+00   -3.234E+00   -3.230E+00   -3.226E+00   -3.222E+00   -3.218E+00   -3.214E+00   -3.210E+00   -3.206E+00   -3.202E+00
    -3.198E+00   -3.195E+00   -3.191E+00   -3.187E+00   -3.183E+00   -3.179E+00   -3.175E+00   -3.171E+00   -3.167E+00   -3.163E+00
    -3.159E+00   -3.155E+00   -3.151E+00   -3.147E+00   -3.143E+00   -3.139E+00   -3.136E+00   -3.132E+00   -3.128E+00   -3.124E+00
    -3.120E+00   -3.116E+00   -3.112E+00   -3.108E+00   -3.104E+00   -3.100E+00   -3.096E+00   -3.092E+00   -3.088E+00   -3.084E+00
    -3.080E+00   -3.076E+00   -3.072E+00   -3.069E+00   -3.065E+00   -3.061E+00   -3.057E+00   -3.053E+00   -3.049E+00   -3.045E+00
    -3.041E+00   -3.037E+00   -3.033E+00   -3.029E+00   -3.025E+00   -3.021E+00   -3.017E+00   -3.013E+00   -3.009E+00   -3.006E+00
    -3.002E+00   -2.998E+00   -2.994E+00   -2.990E+00   -2.986E+00   -2.982E+00   -2.978E+00   -2.974E+00   -2.970E+00   -2.966E+00
    -2.962E+00   -2.958E+00   -2.954E+00   -2.950E+00   -2.947E+00   -2.943E+00   -2.939E+00   -2.935E+00   -2.931E+00   -2.927E+00
    -2.923E+00   -2.919E+00   -2.915E+00   -2.911E+00   -2.907E+00   -2.903E+00   -2.899E+00   -2.895E+00   -2.892E+00   -2.888E+00
    -2.884E+00   -2.880E+00   -2.876E+00   -2.872E+00   -2.868E+00   -2.864E+00   -2.860E+00   -2.856E+00   -2.852E+00   -2.848E+00
    -2.844E+00   -2.840E+00   -2.837E+00   -2.833E+00   -2.829E+00   -2.825E+00   -2.821E+00   -2.817E+00   -2.813E+00   -2.809E+00
    -2.805E+00   -2.801E+00   -2.797E+00   -2.793E+00   -2.790E+00   -2.786E+00   -2.782E+00   -2.778E+00   -2.774E+00   -2.770E+00
    -2.766E+00   -2.762E+00   -2.758E+00   -2.754E+00   -2.750E+00   -2.747E+00   -2.743E+00   -2.739E+00   -2.735E+00   -2.731E+00
    -2.727E+00   -2.723E+00   -2.719E+00   -2.715E+00   -2.711E+00   -2.707E+00   -2.704E+00   -2.700E+00   -2.696E+00   -2.692E+00
    -2.688E+00   -2.684E+00   -2.680E+00   -2.676E+00   -2.672E+00   -2.668E+00   -2.665E+00   -2.661E+00   -2.657E+00   -2.653E+00
    -2.649E+00   -2.645E+00   -2.641E+00   -2.637E+00   -2.633E+00   -2.629E+00   -2.626E+00   -2.622E+00   -2.618E+00   -2.614E+00
    -2.610E+00   -2.606E+00   -2.602E+00   -2.598E+00   -2.594E+00   -2.590E+00   -2.587E+00   -2.583E+00   -2.579E+00   -2.575E+00
    -2.571E+00   -2.567E+00   -2.563E+00   -2.559E+00   -2.555E+00   -2.551E+00   -2.548E+00   -2.544E+00   -2.540E+00   -2.536E+00
    -2.532E+00   -2.528E+00   -2.524E+00   -2.520E+00   -2.516E+00   -2.513E+00   -2.509E+00   -2.505E+00   -2.501E+00   -2.497E+00
    -2.493E+00   -2.489E+00   -2.485E+00   -2.481E+00   -2.477E+00   -2.474E+00   -2.470E+00   -2.466E+00   -2.462E+00   -2.458E+00
    -2.454E+00   -2.450E+00   -2.446E+00   -2.442E+00   -2.438E+00   -2.435E+00   -2.431E+00   -2.427E+00   -2.423E+00   -2.419E+00
    -2.415E+00   -2.411E+00   -2.407E+00   -2.403E+00   -2.399E+00   -2.396E+00   -2.392E+00   -2.388E+00   -2.384E+00   -2.380E+00
    -2.376E+00   -2.372E+00   -2.368E+00   -2.364E+00   -2.360E+00   -2.356E+00   -2.353E+00   -2.349E+00   -2.345E+00   -2.341E+00
    -2.337E+00   -2.333E+00   -2.329E+00   -2.325E+00   -2.321E+00   -2.317E+00   -2.314E+00   -2.310E+00   -2.306E+00   -2.302E+00
    -2.298E+00   -2.294E+00   -2.290E+00   -2.286E+00   -2.282E+00   -2.278E+00   -2.274E+00   -2.270E+00   -2.267E+00   -2.263E+00
    -2.259E+00   -2.255E+00   -2.251E+00   -2.247E+00   -2.243E+00   -2.239E+00   -2.235E+00   -2.231E+00   -2.227E+00   -2.224E+00
    -2.220E+00   -2.216E+00   -2.212E+00   -2.208E+00   -2.204E+00   -2.200E+00   -2.196E+00   -2.192E+00   -2.188E+00   -2.184E+00
    -2.180E+00   -2.177E+00   -2.173E+00   -2.169E+00   -2.165E+00   -2.161E+00   -2.157E+00   -2.153E+00   -2.149E+00   -2.145E+00
    -2.141E+00   -2.137E+00   -2.133E+00   -2.130E+00   -2.126E+00   -2.122E+00   -2.118E+00   -2.114E+00   -2.110E+00   -2.106E+00
    -2.102E+00   -2.098E+00   -2.094E+00   -2.090E+00   -2.086E+00   -2.083E+00   -2.079E+00   -2.075E+00   -2.071E+00   -2.067E+00
    -2.063E+00   -2.059E+00   -2.055E+00   -2.051E+00   -2.047E+00   -2.043E+00   -2.039E+00   -2.036E+00   -2.032E+00   -2.028E+00
    -2.024E+00   -2.020E+00   -2.016E+00   -2.012E+00   -2.008E+00   -2.004E+00   -2.000E+00   -1.996E+00   -1.992E+00   -1.989E+00
    -1.985E+00   -1.981E+00   -1.977E+00   -1.973E+00   -1.969E+00   -1.965E+00   -1.961E+00   -1.957E+00
 Asp      Conc. = 1.19E+02
