 LCModel (Version 6.3-1L) Copyright: S.W. Provencher.          Ref.: Magn. Reson. Med. 30:672-679 (1993).                
 Slice#2 Row#8 Col#4  PD_24_press_1_raw_act
 36 lines in following concentration table = NCONC+1
    Conc.  %SD /Cr+PCr  Metabolite                                         
    0.000 999%   0.000 Ala                                                 
    0.000 999%   0.000 Asp                                                 
  673.406  40%   0.344 Cr                                                  
 1.28E+03  22%   0.656 PCr                                                 
  150.889 134% 7.7E-02 GABA                                                
    0.000 999%   0.000 Glc                                                 
  967.023  29%   0.494 Gln                                                 
 2.06E+03  17%   1.053 Glu                                                 
  812.591   3%   0.415 GPC                                                 
    0.000 999%   0.000 PCh                                                 
  418.134  19%   0.214 GSH                                                 
  819.102  37%   0.419 Ins                                                 
   90.561 156% 4.6E-02 Lac                                                 
 2.90E+03   6%   1.482 NAA                                                 
  861.755  20%   0.441 NAAG                                                
  102.130  34% 5.2E-02 Scyllo                                              
    0.000 999%   0.000 Tau                                                 
    0.000 999%   0.000 -CrCH2                                              
  812.591   3%   0.415 GPC+PCh                                             
 3.76E+03   2%   1.922 NAA+NAAG                                            
 1.96E+03   3%   1.000 Cr+PCr                                              
 3.03E+03  16%   1.547 Glu+Gln                                             
    0.000 999%   0.000 Lip13a                                              
    0.000 999%   0.000 Lip13b                                              
    0.000 999%   0.000 Lip09                                               
 1.06E+03  19%   0.543 MM09                                                
    0.175 999% 8.9E-05 Lip20                                               
 1.81E+03  17%   0.927 MM20                                                
  306.960  23%   0.157 MM12                                                
  705.375  29%   0.361 MM14                                                
  605.470  20%   0.310 MM17                                                
    0.000 999%   0.000 Lip13a+Lip13b                                       
 1.01E+03  25%   0.518 MM14+Lip13a+Lip13b+MM12                             
 1.06E+03  19%   0.543 MM09+Lip09                                          
 1.81E+03  17%   0.927 MM20+Lip20                                          
   6 lines in following misc. output table
  FWHM = 0.054 ppm    S/N =  15                                            
  Data shift = 0.008 ppm                                                   
  Ph: -43 deg      -7.3 deg/ppm                                            
  alphaB,S = 5.9E-01,   1.1E+02                                            
   14 spline knots.   Ns = 8(1)                                            
  (14) 3 infls.   (13) 1 extrs.                                            
  498 points on ppm-axis = NY
      4.000000     3.992357     3.984714     3.977070     3.969427     3.961784     3.954141     3.946497     3.938854     3.931211
      3.923568     3.915925     3.908281     3.900638     3.892995     3.885352     3.877708     3.870065     3.862422     3.854779
      3.847136     3.839492     3.831849     3.824206     3.816563     3.808919     3.801276     3.793633     3.785990     3.778347
      3.770703     3.763060     3.755417     3.747774     3.740130     3.732487     3.724844     3.717201     3.709558     3.701914
      3.694271     3.686628     3.678985     3.671341     3.663698     3.656055     3.648412     3.640769     3.633125     3.625482
      3.617839     3.610196     3.602552     3.594909     3.587266     3.579623     3.571980     3.564336     3.556693     3.549050
      3.541407     3.533763     3.526120     3.518477     3.510834     3.503191     3.495547     3.487904     3.480261     3.472618
      3.464974     3.457331     3.449688     3.442045     3.434402     3.426758     3.419115     3.411472     3.403829     3.396185
      3.388542     3.380899     3.373256     3.365613     3.357969     3.350326     3.342683     3.335040     3.327396     3.319753
      3.312110     3.304467     3.296824     3.289180     3.281537     3.273894     3.266251     3.258607     3.250964     3.243321
      3.235678     3.228034     3.220391     3.212748     3.205105     3.197462     3.189818     3.182175     3.174532     3.166889
      3.159245     3.151602     3.143959     3.136316     3.128673     3.121029     3.113386     3.105743     3.098100     3.090456
      3.082813     3.075170     3.067527     3.059884     3.052240     3.044597     3.036954     3.029311     3.021667     3.014024
      3.006381     2.998738     2.991095     2.983451     2.975808     2.968165     2.960522     2.952878     2.945235     2.937592
      2.929949     2.922306     2.914662     2.907019     2.899376     2.891733     2.884089     2.876446     2.868803     2.861160
      2.853517     2.845873     2.838230     2.830587     2.822944     2.815300     2.807657     2.800014     2.792371     2.784728
      2.777084     2.769441     2.761798     2.754155     2.746511     2.738868     2.731225     2.723582     2.715939     2.708295
      2.700652     2.693009     2.685366     2.677722     2.670079     2.662436     2.654793     2.647150     2.639506     2.631863
      2.624220     2.616577     2.608933     2.601290     2.593647     2.586004     2.578361     2.570717     2.563074     2.555431
      2.547788     2.540144     2.532501     2.524858     2.517215     2.509572     2.501928     2.494285     2.486642     2.478999
      2.471355     2.463712     2.456069     2.448426     2.440783     2.433139     2.425496     2.417853     2.410210     2.402566
      2.394923     2.387280     2.379637     2.371994     2.364350     2.356707     2.349064     2.341421     2.333777     2.326134
      2.318491     2.310848     2.303205     2.295561     2.287918     2.280275     2.272632     2.264988     2.257345     2.249702
      2.242059     2.234416     2.226772     2.219129     2.211486     2.203843     2.196199     2.188556     2.180913     2.173270
      2.165627     2.157983     2.150340     2.142697     2.135054     2.127410     2.119767     2.112124     2.104481     2.096838
      2.089194     2.081551     2.073908     2.066265     2.058621     2.050978     2.043335     2.035692     2.028049     2.020405
      2.012762     2.005119     1.997476     1.989833     1.982190     1.974546     1.966903     1.959260     1.951617     1.943974
      1.936331     1.928688     1.921045     1.913402     1.905759     1.898115     1.890472     1.882829     1.875186     1.867543
      1.859900     1.852257     1.844614     1.836971     1.829327     1.821684     1.814041     1.806398     1.798755     1.791112
      1.783469     1.775826     1.768183     1.760540     1.752896     1.745253     1.737610     1.729967     1.722324     1.714681
      1.707038     1.699395     1.691752     1.684108     1.676465     1.668822     1.661179     1.653536     1.645893     1.638250
      1.630607     1.622964     1.615321     1.607677     1.600034     1.592391     1.584748     1.577105     1.569462     1.561819
      1.554176     1.546533     1.538890     1.531246     1.523603     1.515960     1.508317     1.500674     1.493031     1.485388
      1.477745     1.470102     1.462458     1.454815     1.447172     1.439529     1.431886     1.424243     1.416600     1.408957
      1.401314     1.393671     1.386027     1.378384     1.370741     1.363098     1.355455     1.347812     1.340169     1.332526
      1.324883     1.317240     1.309596     1.301953     1.294310     1.286667     1.279024     1.271381     1.263738     1.256095
      1.248452     1.240808     1.233165     1.225522     1.217879     1.210236     1.202593     1.194950     1.187307     1.179664
      1.172021     1.164377     1.156734     1.149091     1.141448     1.133805     1.126162     1.118519     1.110876     1.103233
      1.095590     1.087946     1.080303     1.072660     1.065017     1.057374     1.049731     1.042088     1.034445     1.026802
      1.019158     1.011515     1.003872     0.996229     0.988586     0.980943     0.973300     0.965657     0.958014     0.950371
      0.942727     0.935084     0.927441     0.919798     0.912155     0.904512     0.896869     0.889226     0.881583     0.873940
      0.866296     0.858653     0.851010     0.843367     0.835724     0.828081     0.820438     0.812795     0.805152     0.797508
      0.789865     0.782222     0.774579     0.766936     0.759293     0.751650     0.744007     0.736364     0.728721     0.721077
      0.713434     0.705791     0.698148     0.690505     0.682862     0.675219     0.667576     0.659933     0.652290     0.644646
      0.637003     0.629360     0.621717     0.614074     0.606431     0.598788     0.591145     0.583502     0.575858     0.568215
      0.560572     0.552929     0.545286     0.537643     0.530000     0.522357     0.514714     0.507071     0.499427     0.491784
      0.484141     0.476498     0.468855     0.461212     0.453569     0.445925     0.438282     0.430639     0.422996     0.415353
      0.407710     0.400067     0.392424     0.384780     0.377137     0.369494     0.361851     0.354208     0.346565     0.338922
      0.331278     0.323635     0.315992     0.308349     0.300706     0.293063     0.285420     0.277777     0.270133     0.262490
      0.254847     0.247204     0.239561     0.231918     0.224275     0.216631     0.208988     0.201345
 NY phased data points follow
   3.04138E+01  2.69911E+01  2.57862E+01  3.51452E+01  3.72594E+01  3.80892E+01  4.76666E+01  4.95000E+01  5.95819E+01  6.34197E+01
   6.81067E+01  6.90109E+01  7.05151E+01  6.05953E+01  5.99869E+01  5.05223E+01  4.52470E+01  3.90980E+01  3.84723E+01  2.69953E+01
   2.93240E+01  2.95069E+01  2.48874E+01  2.75150E+01  2.70985E+01  3.23653E+01  3.08553E+01  2.28167E+01  3.32766E+01  3.20014E+01
   3.39105E+01  2.99863E+01  3.52976E+01  2.87143E+01  3.19848E+01  2.89404E+01  2.56863E+01  2.46011E+01  2.36731E+01  2.54318E+01
   2.71242E+01  2.71444E+01  2.49883E+01  2.83277E+01  2.95797E+01  3.46263E+01  3.20659E+01  3.22632E+01  3.22583E+01  3.21821E+01
   3.23299E+01  2.50668E+01  2.88091E+01  2.52972E+01  2.70272E+01  2.20773E+01  2.91061E+01  2.49579E+01  2.21914E+01  2.32922E+01
   2.10617E+01  1.82845E+01  1.58692E+01  1.04674E+01  1.38360E+01  1.18802E+01  1.13912E+01  8.29277E+00  8.68303E+00  6.74648E+00
   1.21959E+01  1.39806E+01  1.12545E+01  9.49298E+00  1.81164E+01  7.02315E+00  1.74335E+01  1.30860E+01  1.28120E+01  1.07224E+01
   1.42135E+01  1.44892E+01  1.30679E+01  1.51667E+01  1.54785E+01  1.38700E+01  1.71337E+01  1.33745E+01  1.70036E+01  1.11886E+01
   1.77611E+01  1.45754E+01  1.70401E+01  1.46952E+01  1.57999E+01  1.81163E+01  1.70354E+01  2.15346E+01  2.33101E+01  3.06543E+01
   4.64964E+01  6.04462E+01  7.34972E+01  7.98170E+01  7.99701E+01  7.09940E+01  6.72769E+01  4.79232E+01  4.47511E+01  3.43282E+01
   2.86421E+01  2.04621E+01  2.55141E+01  2.03896E+01  1.77181E+01  9.39422E+00  1.95475E+01  1.28841E+01  1.94954E+01  1.58521E+01
   2.35766E+01  1.77715E+01  2.49635E+01  2.78510E+01  3.77141E+01  4.47855E+01  6.18436E+01  6.83162E+01  6.54795E+01  6.16619E+01
   5.49471E+01  4.79866E+01  4.14196E+01  3.30759E+01  2.19038E+01  1.98171E+01  1.08319E+01  1.58411E+01  1.61101E+01  8.81364E+00
   1.75855E+01  1.24193E+01  1.53973E+01  1.37424E+01  1.25484E+01  8.70347E+00  7.87511E+00  9.29812E+00  1.27690E+01  8.46837E+00
   9.88611E+00  1.16996E+01  1.10660E+01  1.17898E+01  9.23576E+00  7.07208E+00  6.43633E+00  1.63284E+00  8.19505E+00  5.84355E+00
   6.76848E+00  5.86377E+00  6.06696E+00  2.43997E+00  3.73206E+00  4.54567E+00  3.30551E+00  2.90281E+00  1.64236E+00  2.75803E+00
  -4.82386E+00 -1.86985E-01  4.26254E-01 -4.93370E+00 -6.94007E+00 -6.97738E+00 -1.05592E+01 -3.09283E+00 -1.26586E+00 -5.50516E+00
  -3.20969E+00 -3.26417E+00 -8.47501E+00 -6.40652E+00  1.20737E+00 -6.46011E+00  1.57430E+00  2.46132E+00  3.08813E+00  6.30571E+00
   6.13699E+00  9.97254E+00  1.28332E+01  1.07724E+01  9.97429E+00  1.11403E+01  1.04357E+01  1.11162E+01  3.97322E+00  7.19715E+00
   3.80440E+00  1.07738E+01  5.63851E+00  7.35238E+00  1.39318E+01  8.93028E+00  1.03394E+01  5.02326E+00  1.91519E+00  4.41733E+00
   2.81298E+00  5.57462E+00  1.32626E+00  1.30110E+01  1.32733E+01  1.38831E+01  2.41384E+01  1.50696E+01  1.75808E+01  1.40012E+01
   1.06850E+01  7.98549E+00  3.68278E+00  5.85413E+00  5.97472E+00  7.19230E+00  1.24030E+01  1.41957E+01  1.22470E+01  1.10366E+01
   1.40974E+01  1.17479E+01  1.73350E+01  1.56965E+01  1.92238E+01  1.75356E+01  1.20891E+01  1.37567E+01  1.98155E+01  1.78037E+01
   1.20595E+01  1.44699E+01  3.80030E+00  8.25735E+00  1.03602E+01  1.13498E+01  1.52069E+01  2.26298E+01  2.12658E+01  2.42407E+01
   2.89582E+01  2.76092E+01  3.77210E+01  4.43179E+01  5.15412E+01  5.91104E+01  6.17362E+01  8.13839E+01  9.43028E+01  1.10459E+02
   1.14053E+02  1.09904E+02  9.88695E+01  8.45682E+01  7.21791E+01  5.56445E+01  4.50423E+01  3.36437E+01  2.56697E+01  2.00604E+01
   1.66916E+01  1.60228E+01  1.49786E+01  1.11140E+01  1.47524E+01  1.17164E+01  1.28632E+01  1.20299E+01  1.46571E+01  1.07782E+01
   1.63970E+01  1.30522E+01  1.07139E+01  1.09253E+01  1.18485E+01  6.17092E+00  1.27252E+01  1.07864E+01  9.02360E+00  7.29798E+00
   8.22479E+00  1.12495E+01  5.60460E+00  9.29744E+00  8.86906E+00  1.25978E+01  1.03766E+01  6.49336E+00  1.14087E+01  1.07148E+01
   1.05039E+01  6.97649E+00  1.47546E+01  7.20288E+00  1.52677E+01  1.42595E+01  1.26328E+01  8.03076E+00  6.69490E+00  1.56827E+01
   1.41022E+01  1.12283E+01  9.97725E+00  1.28299E+01  8.89099E+00  4.93076E+00  5.95871E+00  4.88602E+00  3.16210E+00  1.12600E+01
  -6.37128E-02  3.44604E+00  2.60624E+00  4.08775E+00  1.06236E+00  2.27643E+00  4.92859E+00  3.95462E+00  6.56689E+00  2.49089E+00
   1.80131E+00  2.74695E+00  5.26857E-01  9.38704E+00  1.39937E+00  5.37593E+00  4.68951E+00  3.89960E+00 -7.83319E-01  3.37515E+00
   1.90175E+00  3.20695E+00 -2.66104E+00  4.57120E+00  1.51138E+00  7.03312E-01  1.98561E+00  6.84846E-01  4.68146E-01 -4.31670E-02
  -1.91371E-01  8.12636E-01 -3.20868E+00 -2.61405E+00 -7.93114E-03 -2.76816E+00 -1.17787E+00  4.91997E-02  2.73749E+00  1.36066E+00
  -2.79888E+00  1.47549E+00 -2.71351E+00 -3.45542E-01  1.87446E-01 -3.71700E+00 -3.03805E+00  2.30660E+00  2.23584E+00 -7.71737E+00
   2.94932E-01 -4.06342E+00 -7.59404E+00 -3.85988E+00 -7.69768E+00 -6.09772E+00 -5.31785E+00 -1.01502E+00 -8.17642E+00 -2.89313E+00
  -5.03408E+00 -7.14577E+00 -3.99382E+00 -7.24106E+00 -6.90824E+00 -6.40379E+00 -4.29702E+00 -3.84024E+00 -3.66330E+00 -5.28300E+00
  -5.46635E+00 -5.64444E+00 -6.09420E+00 -2.36453E+00  6.63382E-01 -6.25196E+00  6.49327E-01 -1.84044E+00 -5.82974E-01  1.64977E+00
   3.28992E+00  1.84099E+00  1.38082E+00 -1.57882E+00 -1.03193E+00 -1.65208E+00  2.61153E+00  2.47545E+00  1.01947E-01  1.37100E+00
  -2.36370E+00  2.90908E+00  2.13246E+00  6.38164E-01  1.62117E+00 -3.24907E+00 -4.19650E+00 -2.96693E+00  6.56904E-01 -4.84405E+00
  -3.49453E+00 -4.61714E+00 -2.31318E+00 -6.36213E+00 -3.54352E+00 -3.22715E-01 -1.91120E+00 -6.59811E-01 -3.23566E+00 -3.85306E+00
  -5.53809E+00 -4.53037E+00 -5.35348E+00 -2.39284E+00 -5.36395E+00 -2.37802E+00 -6.53445E-01 -5.44774E+00 -4.06827E+00  1.81938E-01
  -5.02697E+00 -2.58658E+00 -6.16850E-02 -2.29159E+00 -4.34899E+00 -2.51128E+00 -7.33873E-01 -9.14383E-01 -2.53696E+00  2.90724E-01
  -5.80468E+00 -6.51139E+00 -4.52955E+00 -2.50770E+00 -5.46648E+00 -1.14917E+00 -1.36843E+00  3.04282E+00 -3.97030E+00  8.89163E-01
   1.60886E+00  6.82988E+00 -4.83469E+00 -3.17623E+00 -3.71563E+00 -1.29172E+00 -3.57424E+00  3.92013E+00 -7.93102E-01  2.27960E+00
  -8.78001E-01 -1.92032E+00 -1.22436E+00 -2.90840E+00 -3.74302E+00 -2.66383E+00  3.04624E+00 -1.11995E+00 -2.66213E+00 -3.65674E+00
   1.71281E+00  9.65135E-01 -4.00851E+00  5.72555E-01  2.29739E-01 -1.15634E+00  3.78577E+00  9.96135E-01  8.64588E-01 -2.71821E+00
  -2.56860E+00 -3.00569E+00 -1.10705E+00 -4.40446E-03  9.39914E-01  3.55845E+00  3.85653E-01 -2.96398E+00
 NY points of the fit to the data follow
   2.81670E+01  2.87386E+01  3.05001E+01  3.26105E+01  3.47390E+01  3.75864E+01  4.23534E+01  4.92496E+01  5.70232E+01  6.35594E+01
   6.70571E+01  6.70211E+01  6.41429E+01  5.95915E+01  5.44226E+01  4.92904E+01  4.45233E+01  4.02754E+01  3.65038E+01  3.35055E+01
   3.14029E+01  2.99908E+01  2.93762E+01  2.89328E+01  2.83370E+01  2.77926E+01  2.77942E+01  2.86470E+01  3.01089E+01  3.18234E+01
   3.34046E+01  3.44553E+01  3.47887E+01  3.42541E+01  3.28808E+01  3.10216E+01  2.89825E+01  2.71061E+01  2.57418E+01  2.51138E+01
   2.51568E+01  2.54019E+01  2.58117E+01  2.64997E+01  2.74497E+01  2.84865E+01  2.91947E+01  2.93277E+01  2.88977E+01  2.79739E+01
   2.67536E+01  2.54675E+01  2.42248E+01  2.31253E+01  2.21926E+01  2.13605E+01  2.07120E+01  2.03716E+01  2.02459E+01  2.01105E+01
   1.98288E+01  1.93588E+01  1.87133E+01  1.80119E+01  1.73830E+01  1.68720E+01  1.65007E+01  1.62622E+01  1.61394E+01  1.61177E+01
   1.61378E+01  1.61240E+01  1.60248E+01  1.58235E+01  1.55464E+01  1.52268E+01  1.48970E+01  1.46073E+01  1.44869E+01  1.45545E+01
   1.44808E+01  1.43293E+01  1.44162E+01  1.48993E+01  1.56259E+01  1.62525E+01  1.64617E+01  1.61393E+01  1.54558E+01  1.46217E+01
   1.37931E+01  1.30892E+01  1.25813E+01  1.23452E+01  1.29740E+01  1.63949E+01  2.07305E+01  2.34348E+01  2.64490E+01  3.33389E+01
   4.54052E+01  6.01887E+01  7.30506E+01  7.98687E+01  7.95060E+01  7.36093E+01  6.45754E+01  5.44051E+01  4.44789E+01  3.55136E+01
   2.79337E+01  2.17145E+01  1.65229E+01  1.34531E+01  1.23175E+01  1.17533E+01  1.13981E+01  1.12423E+01  1.17409E+01  1.44408E+01
   1.81996E+01  2.06841E+01  2.32877E+01  2.89053E+01  3.87564E+01  5.10413E+01  6.20015E+01  6.80847E+01  6.82407E+01  6.38094E+01
   5.67174E+01  4.85660E+01  4.03584E+01  3.25860E+01  2.56321E+01  1.96835E+01  1.47372E+01  1.17558E+01  1.08203E+01  1.07015E+01
   1.08608E+01  1.10470E+01  1.11066E+01  1.10347E+01  1.08766E+01  1.06154E+01  1.02598E+01  9.85799E+00  9.45462E+00  9.07344E+00
   8.69626E+00  8.31514E+00  7.90600E+00  7.43754E+00  7.09906E+00  7.01165E+00  7.06184E+00  7.04402E+00  6.67316E+00  5.98015E+00
   5.30458E+00  4.93458E+00  4.88176E+00  4.99181E+00  5.00118E+00  4.71375E+00  4.14140E+00  3.39399E+00  2.61643E+00  2.04921E+00
   1.81556E+00  1.59477E+00  1.11911E+00  3.41581E-01 -4.15358E-01 -7.24153E-01 -5.58175E-01 -2.62901E-01 -1.24282E-01 -2.09813E-01
  -2.34809E-01  5.80268E-02  5.76366E-01  1.12990E+00  1.67934E+00  2.28563E+00  3.10792E+00  4.31101E+00  5.85954E+00  7.45950E+00
   8.66450E+00  9.31600E+00  9.46232E+00  9.24213E+00  8.78642E+00  8.29158E+00  8.11647E+00  8.30205E+00  8.85711E+00  9.76432E+00
   1.08043E+01  1.17844E+01  1.25834E+01  1.31090E+01  1.28990E+01  1.15245E+01  9.24854E+00  6.77112E+00  4.74676E+00  3.57173E+00
   2.99634E+00  3.26187E+00  4.73238E+00  7.37472E+00  1.04887E+01  1.30102E+01  1.44239E+01  1.46383E+01  1.34215E+01  1.07900E+01
   7.36033E+00  4.27534E+00  2.46287E+00  2.17147E+00  3.26200E+00  5.29739E+00  7.69528E+00  9.90289E+00  1.14646E+01  1.24720E+01
   1.30376E+01  1.32961E+01  1.34634E+01  1.35726E+01  1.36944E+01  1.40909E+01  1.47362E+01  1.53599E+01  1.55832E+01  1.50908E+01
   1.39831E+01  1.27081E+01  1.17630E+01  1.14275E+01  1.17312E+01  1.25410E+01  1.37055E+01  1.54671E+01  1.80481E+01  2.01702E+01
   2.18385E+01  2.48584E+01  3.27191E+01  4.40239E+01  5.32632E+01  6.04521E+01  6.90133E+01  8.13517E+01  9.58592E+01  1.08042E+02
   1.13304E+02  1.10008E+02  1.00005E+02  8.63553E+01  7.14928E+01  5.72482E+01  4.50031E+01  3.48800E+01  2.66195E+01  1.96705E+01
   1.51410E+01  1.34218E+01  1.26967E+01  1.22916E+01  1.20023E+01  1.17529E+01  1.14434E+01  1.10652E+01  1.06531E+01  1.02330E+01
   9.82827E+00  9.47695E+00  9.18447E+00  8.94019E+00  8.75517E+00  8.62062E+00  8.50539E+00  8.39951E+00  8.32078E+00  8.29298E+00
   8.32600E+00  8.40117E+00  8.51022E+00  8.65046E+00  8.80512E+00  8.95796E+00  9.10739E+00  9.25509E+00  9.40467E+00  9.55885E+00
   9.70877E+00  9.84122E+00  9.94810E+00  1.00158E+01  1.00304E+01  9.98302E+00  9.86952E+00  9.69149E+00  9.45264E+00  9.15591E+00
   8.81234E+00  8.43342E+00  8.03040E+00  7.61521E+00  7.19954E+00  6.79355E+00  6.40570E+00  6.04293E+00  5.71057E+00  5.41209E+00
   5.14896E+00  4.92076E+00  4.72570E+00  4.56099E+00  4.42300E+00  4.30755E+00  4.20994E+00  4.12523E+00  4.04867E+00  3.97605E+00
   3.90366E+00  3.82821E+00  3.74682E+00  3.65724E+00  3.55823E+00  3.44974E+00  3.33313E+00  3.21193E+00  3.09571E+00  3.00156E+00
   2.88278E+00  2.70316E+00  2.52783E+00  2.40136E+00  2.29163E+00  2.10975E+00  1.78558E+00  1.35916E+00  8.72344E-01  3.43703E-01
  -1.65129E-01 -5.61053E-01 -7.69651E-01 -7.83876E-01 -6.64280E-01 -5.11099E-01 -4.04407E-01 -3.55127E-01 -3.69518E-01 -4.59617E-01
  -6.01037E-01 -7.73308E-01 -9.59715E-01 -1.15217E+00 -1.35635E+00 -1.54510E+00 -1.70537E+00 -1.85180E+00 -1.99090E+00 -2.12497E+00
  -2.25474E+00 -2.38025E+00 -2.50101E+00 -2.61613E+00 -2.72432E+00 -2.82418E+00 -2.91425E+00 -2.99314E+00 -3.05934E+00 -3.11121E+00
  -3.14700E+00 -3.16500E+00 -3.16363E+00 -3.14137E+00 -3.09662E+00 -3.02775E+00 -2.93323E+00 -2.81181E+00 -2.66262E+00 -2.48514E+00
  -2.27921E+00 -2.04522E+00 -1.78435E+00 -1.49872E+00 -1.19147E+00 -8.66684E-01 -5.29358E-01 -1.85433E-01  1.58183E-01  4.93774E-01
   8.13155E-01  1.10806E+00  1.37048E+00  1.59288E+00  1.76853E+00  1.89181E+00  1.95868E+00  1.96690E+00  1.91608E+00  1.80761E+00
   1.64454E+00  1.43155E+00  1.17475E+00  8.81409E-01  5.59480E-01  2.17159E-01 -1.37463E-01 -4.96616E-01 -8.53053E-01 -1.20032E+00
  -1.53298E+00 -1.84678E+00 -2.13853E+00 -2.40604E+00 -2.64793E+00 -2.86367E+00 -3.05350E+00 -3.21830E+00 -3.35934E+00 -3.47811E+00
  -3.57618E+00 -3.65528E+00 -3.71721E+00 -3.76378E+00 -3.79667E+00 -3.81732E+00 -3.82704E+00 -3.82708E+00 -3.81863E+00 -3.80275E+00
  -3.78030E+00 -3.75196E+00 -3.71835E+00 -3.68009E+00 -3.63778E+00 -3.59190E+00 -3.54280E+00 -3.49077E+00 -3.43608E+00 -3.37907E+00
  -3.32008E+00 -3.25931E+00 -3.19691E+00 -3.13297E+00 -3.06764E+00 -3.00111E+00 -2.93351E+00 -2.86491E+00 -2.79529E+00 -2.72470E+00
  -2.65326E+00 -2.58110E+00 -2.50828E+00 -2.43479E+00 -2.36060E+00 -2.28576E+00 -2.21039E+00 -2.13457E+00 -2.05831E+00 -1.98157E+00
  -1.90433E+00 -1.82667E+00 -1.74867E+00 -1.67039E+00 -1.59178E+00 -1.51280E+00 -1.43347E+00 -1.35387E+00 -1.27407E+00 -1.19408E+00
  -1.11384E+00 -1.03332E+00 -9.52560E-01 -8.71650E-01 -7.90626E-01 -7.09452E-01 -6.28068E-01 -5.46468E-01 -4.64716E-01 -3.82877E-01
  -3.00952E-01 -2.18878E-01 -1.36604E-01 -5.41475E-02  2.84298E-02  1.11098E-01  1.93902E-01  2.76929E-01
 NY background values follow
     2.645E+01    2.626E+01    2.608E+01    2.589E+01    2.570E+01    2.552E+01    2.533E+01    2.515E+01    2.496E+01    2.477E+01
     2.459E+01    2.440E+01    2.422E+01    2.403E+01    2.384E+01    2.366E+01    2.347E+01    2.329E+01    2.310E+01    2.292E+01
     2.273E+01    2.255E+01    2.237E+01    2.218E+01    2.200E+01    2.182E+01    2.163E+01    2.145E+01    2.127E+01    2.109E+01
     2.091E+01    2.073E+01    2.055E+01    2.037E+01    2.019E+01    2.001E+01    1.983E+01    1.966E+01    1.948E+01    1.930E+01
     1.913E+01    1.896E+01    1.878E+01    1.861E+01    1.844E+01    1.827E+01    1.810E+01    1.793E+01    1.776E+01    1.759E+01
     1.742E+01    1.726E+01    1.709E+01    1.693E+01    1.676E+01    1.660E+01    1.644E+01    1.628E+01    1.612E+01    1.596E+01
     1.581E+01    1.565E+01    1.549E+01    1.534E+01    1.519E+01    1.504E+01    1.488E+01    1.474E+01    1.459E+01    1.444E+01
     1.429E+01    1.415E+01    1.401E+01    1.386E+01    1.372E+01    1.358E+01    1.344E+01    1.331E+01    1.317E+01    1.304E+01
     1.290E+01    1.277E+01    1.264E+01    1.251E+01    1.239E+01    1.226E+01    1.214E+01    1.201E+01    1.189E+01    1.177E+01
     1.165E+01    1.153E+01    1.142E+01    1.131E+01    1.119E+01    1.108E+01    1.097E+01    1.086E+01    1.076E+01    1.065E+01
     1.055E+01    1.045E+01    1.035E+01    1.025E+01    1.015E+01    1.005E+01    9.955E+00    9.860E+00    9.767E+00    9.675E+00
     9.585E+00    9.496E+00    9.408E+00    9.321E+00    9.235E+00    9.151E+00    9.068E+00    8.985E+00    8.905E+00    8.825E+00
     8.746E+00    8.668E+00    8.592E+00    8.516E+00    8.442E+00    8.368E+00    8.296E+00    8.225E+00    8.154E+00    8.085E+00
     8.016E+00    7.949E+00    7.882E+00    7.817E+00    7.752E+00    7.688E+00    7.625E+00    7.563E+00    7.501E+00    7.441E+00
     7.382E+00    7.323E+00    7.266E+00    7.210E+00    7.154E+00    7.100E+00    7.047E+00    6.995E+00    6.945E+00    6.895E+00
     6.847E+00    6.800E+00    6.755E+00    6.711E+00    6.668E+00    6.626E+00    6.586E+00    6.548E+00    6.511E+00    6.475E+00
     6.441E+00    6.409E+00    6.378E+00    6.349E+00    6.322E+00    6.296E+00    6.272E+00    6.249E+00    6.229E+00    6.210E+00
     6.194E+00    6.179E+00    6.166E+00    6.155E+00    6.145E+00    6.138E+00    6.133E+00    6.130E+00    6.129E+00    6.131E+00
     6.134E+00    6.139E+00    6.147E+00    6.157E+00    6.169E+00    6.182E+00    6.198E+00    6.215E+00    6.234E+00    6.255E+00
     6.277E+00    6.301E+00    6.326E+00    6.352E+00    6.380E+00    6.408E+00    6.438E+00    6.468E+00    6.500E+00    6.532E+00
     6.565E+00    6.599E+00    6.633E+00    6.668E+00    6.703E+00    6.738E+00    6.774E+00    6.810E+00    6.846E+00    6.881E+00
     6.917E+00    6.953E+00    6.988E+00    7.023E+00    7.058E+00    7.092E+00    7.125E+00    7.158E+00    7.190E+00    7.222E+00
     7.252E+00    7.281E+00    7.310E+00    7.337E+00    7.363E+00    7.388E+00    7.411E+00    7.433E+00    7.453E+00    7.472E+00
     7.489E+00    7.505E+00    7.519E+00    7.532E+00    7.543E+00    7.552E+00    7.560E+00    7.566E+00    7.571E+00    7.573E+00
     7.574E+00    7.574E+00    7.571E+00    7.567E+00    7.561E+00    7.553E+00    7.543E+00    7.531E+00    7.518E+00    7.502E+00
     7.485E+00    7.466E+00    7.444E+00    7.421E+00    7.396E+00    7.368E+00    7.339E+00    7.308E+00    7.274E+00    7.239E+00
     7.201E+00    7.161E+00    7.119E+00    7.075E+00    7.028E+00    6.980E+00    6.929E+00    6.876E+00    6.820E+00    6.763E+00
     6.702E+00    6.640E+00    6.575E+00    6.508E+00    6.439E+00    6.367E+00    6.293E+00    6.217E+00    6.139E+00    6.058E+00
     5.976E+00    5.891E+00    5.805E+00    5.716E+00    5.626E+00    5.533E+00    5.439E+00    5.343E+00    5.245E+00    5.145E+00
     5.044E+00    4.941E+00    4.836E+00    4.730E+00    4.622E+00    4.512E+00    4.401E+00    4.288E+00    4.174E+00    4.059E+00
     3.942E+00    3.824E+00    3.704E+00    3.583E+00    3.461E+00    3.338E+00    3.213E+00    3.088E+00    2.961E+00    2.833E+00
     2.705E+00    2.575E+00    2.444E+00    2.312E+00    2.180E+00    2.046E+00    1.912E+00    1.777E+00    1.641E+00    1.505E+00
     1.368E+00    1.230E+00    1.093E+00    9.541E-01    8.155E-01    6.765E-01    5.374E-01    3.981E-01    2.588E-01    1.195E-01
    -1.966E-02   -1.587E-01   -2.975E-01   -4.361E-01   -5.743E-01   -7.120E-01   -8.493E-01   -9.860E-01   -1.122E+00   -1.258E+00
    -1.392E+00   -1.526E+00   -1.659E+00   -1.791E+00   -1.922E+00   -2.052E+00   -2.180E+00   -2.308E+00   -2.434E+00   -2.559E+00
    -2.682E+00   -2.804E+00   -2.924E+00   -3.043E+00   -3.160E+00   -3.275E+00   -3.388E+00   -3.500E+00   -3.609E+00   -3.716E+00
    -3.822E+00   -3.925E+00   -4.026E+00   -4.124E+00   -4.221E+00   -4.315E+00   -4.406E+00   -4.496E+00   -4.583E+00   -4.667E+00
    -4.750E+00   -4.830E+00   -4.907E+00   -4.982E+00   -5.055E+00   -5.125E+00   -5.193E+00   -5.259E+00   -5.322E+00   -5.382E+00
    -5.440E+00   -5.496E+00   -5.549E+00   -5.600E+00   -5.648E+00   -5.694E+00   -5.737E+00   -5.777E+00   -5.815E+00   -5.850E+00
    -5.883E+00   -5.913E+00   -5.941E+00   -5.966E+00   -5.988E+00   -6.008E+00   -6.025E+00   -6.039E+00   -6.051E+00   -6.060E+00
    -6.067E+00   -6.070E+00   -6.071E+00   -6.069E+00   -6.065E+00   -6.058E+00   -6.048E+00   -6.035E+00   -6.019E+00   -6.001E+00
    -5.980E+00   -5.957E+00   -5.931E+00   -5.902E+00   -5.871E+00   -5.838E+00   -5.803E+00   -5.765E+00   -5.725E+00   -5.683E+00
    -5.638E+00   -5.592E+00   -5.544E+00   -5.494E+00   -5.442E+00   -5.388E+00   -5.333E+00   -5.275E+00   -5.217E+00   -5.156E+00
    -5.094E+00   -5.031E+00   -4.966E+00   -4.900E+00   -4.832E+00   -4.764E+00   -4.694E+00   -4.623E+00   -4.551E+00   -4.478E+00
    -4.404E+00   -4.329E+00   -4.253E+00   -4.177E+00   -4.099E+00   -4.021E+00   -3.943E+00   -3.864E+00   -3.784E+00   -3.704E+00
    -3.623E+00   -3.543E+00   -3.462E+00   -3.380E+00   -3.299E+00   -3.217E+00   -3.135E+00   -3.053E+00   -2.970E+00   -2.888E+00
    -2.805E+00   -2.722E+00   -2.639E+00   -2.556E+00   -2.472E+00   -2.389E+00   -2.305E+00   -2.221E+00   -2.137E+00   -2.053E+00
    -1.969E+00   -1.885E+00   -1.801E+00   -1.717E+00   -1.632E+00   -1.548E+00   -1.463E+00   -1.379E+00   -1.294E+00   -1.209E+00
    -1.125E+00   -1.040E+00   -9.556E-01   -8.710E-01   -7.863E-01   -7.017E-01   -6.172E-01   -5.327E-01   -4.482E-01   -3.637E-01
    -2.794E-01   -1.951E-01   -1.109E-01   -2.676E-02    5.727E-02    1.412E-01    2.250E-01    3.087E-01
 Cr       Conc. = 6.73E+02
