 LCModel (Version 6.3-1L) Copyright: S.W. Provencher.          Ref.: Magn. Reson. Med. 30:672-679 (1993).                
 Slice#1 Row#11 Col#4  PD_24_press_1_raw_act
 36 lines in following concentration table = NCONC+1
    Conc.  %SD /Cr+PCr  Metabolite                                         
  449.274  29%   0.663 Ala                                                 
  172.118 105%   0.254 Asp                                                 
  503.386  44%   0.742 Cr                                                  
  174.676 132%   0.258 PCr                                                 
   10.911 999% 1.6E-02 GABA                                                
   24.674 495% 3.6E-02 Glc                                                 
  849.710  38%   1.253 Gln                                                 
 1.43E+03  26%   2.115 Glu                                                 
  379.811   6%   0.560 GPC                                                 
    0.000 999%   0.000 PCh                                                 
  325.605  24%   0.480 GSH                                                 
  986.715  29%   1.455 Ins                                                 
    0.000 999%   0.000 Lac                                                 
 1.73E+03   8%   2.556 NAA                                                 
  140.838 114%   0.208 NAAG                                                
  154.501  18%   0.228 Scyllo                                              
  422.327  44%   0.623 Tau                                                 
  193.263  56%   0.285 -CrCH2                                              
  379.811   6%   0.560 GPC+PCh                                             
 1.87E+03   4%   2.764 NAA+NAAG                                            
  678.062   8%   1.000 Cr+PCr                                              
 2.28E+03  26%   3.368 Glu+Gln                                             
 2.91E+03  27%   4.291 Lip13a                                              
    0.000 999%   0.000 Lip13b                                              
  731.855  45%   1.079 Lip09                                               
  493.701  62%   0.728 MM09                                                
  442.647  49%   0.653 Lip20                                               
 1.05E+03  39%   1.548 MM20                                                
  178.220 117%   0.263 MM12                                                
  847.810  45%   1.250 MM14                                                
  427.510  54%   0.630 MM17                                                
 2.91E+03  27%   4.291 Lip13a+Lip13b                                       
 3.94E+03  17%   5.804 MM14+Lip13a+Lip13b+MM12                             
 1.23E+03  19%   1.807 MM09+Lip09                                          
 1.49E+03  26%   2.201 MM20+Lip20                                          
   6 lines in following misc. output table
  FWHM = 0.076 ppm    S/N =   9                                            
  Data shift =-0.023 ppm                                                   
  Ph: -89 deg     -24.3 deg/ppm                                            
  alphaB,S = 3.9E-01,   2.5E+02                                            
   14 spline knots.   Ns = 9(1)                                            
  ( 8) 4 infls.   ( 1) 1 extrs.                                            
  498 points on ppm-axis = NY
      4.000000     3.992357     3.984714     3.977070     3.969427     3.961784     3.954141     3.946497     3.938854     3.931211
      3.923568     3.915925     3.908281     3.900638     3.892995     3.885352     3.877708     3.870065     3.862422     3.854779
      3.847136     3.839492     3.831849     3.824206     3.816563     3.808919     3.801276     3.793633     3.785990     3.778347
      3.770703     3.763060     3.755417     3.747774     3.740130     3.732487     3.724844     3.717201     3.709558     3.701914
      3.694271     3.686628     3.678985     3.671341     3.663698     3.656055     3.648412     3.640769     3.633125     3.625482
      3.617839     3.610196     3.602552     3.594909     3.587266     3.579623     3.571980     3.564336     3.556693     3.549050
      3.541407     3.533763     3.526120     3.518477     3.510834     3.503191     3.495547     3.487904     3.480261     3.472618
      3.464974     3.457331     3.449688     3.442045     3.434402     3.426758     3.419115     3.411472     3.403829     3.396185
      3.388542     3.380899     3.373256     3.365613     3.357969     3.350326     3.342683     3.335040     3.327396     3.319753
      3.312110     3.304467     3.296824     3.289180     3.281537     3.273894     3.266251     3.258607     3.250964     3.243321
      3.235678     3.228034     3.220391     3.212748     3.205105     3.197462     3.189818     3.182175     3.174532     3.166889
      3.159245     3.151602     3.143959     3.136316     3.128673     3.121029     3.113386     3.105743     3.098100     3.090456
      3.082813     3.075170     3.067527     3.059884     3.052240     3.044597     3.036954     3.029311     3.021667     3.014024
      3.006381     2.998738     2.991095     2.983451     2.975808     2.968165     2.960522     2.952878     2.945235     2.937592
      2.929949     2.922306     2.914662     2.907019     2.899376     2.891733     2.884089     2.876446     2.868803     2.861160
      2.853517     2.845873     2.838230     2.830587     2.822944     2.815300     2.807657     2.800014     2.792371     2.784728
      2.777084     2.769441     2.761798     2.754155     2.746511     2.738868     2.731225     2.723582     2.715939     2.708295
      2.700652     2.693009     2.685366     2.677722     2.670079     2.662436     2.654793     2.647150     2.639506     2.631863
      2.624220     2.616577     2.608933     2.601290     2.593647     2.586004     2.578361     2.570717     2.563074     2.555431
      2.547788     2.540144     2.532501     2.524858     2.517215     2.509572     2.501928     2.494285     2.486642     2.478999
      2.471355     2.463712     2.456069     2.448426     2.440783     2.433139     2.425496     2.417853     2.410210     2.402566
      2.394923     2.387280     2.379637     2.371994     2.364350     2.356707     2.349064     2.341421     2.333777     2.326134
      2.318491     2.310848     2.303205     2.295561     2.287918     2.280275     2.272632     2.264988     2.257345     2.249702
      2.242059     2.234416     2.226772     2.219129     2.211486     2.203843     2.196199     2.188556     2.180913     2.173270
      2.165627     2.157983     2.150340     2.142697     2.135054     2.127410     2.119767     2.112124     2.104481     2.096838
      2.089194     2.081551     2.073908     2.066265     2.058621     2.050978     2.043335     2.035692     2.028049     2.020405
      2.012762     2.005119     1.997476     1.989833     1.982190     1.974546     1.966903     1.959260     1.951617     1.943974
      1.936331     1.928688     1.921045     1.913402     1.905759     1.898115     1.890472     1.882829     1.875186     1.867543
      1.859900     1.852257     1.844614     1.836971     1.829327     1.821684     1.814041     1.806398     1.798755     1.791112
      1.783469     1.775826     1.768183     1.760540     1.752896     1.745253     1.737610     1.729967     1.722324     1.714681
      1.707038     1.699395     1.691752     1.684108     1.676465     1.668822     1.661179     1.653536     1.645893     1.638250
      1.630607     1.622964     1.615321     1.607677     1.600034     1.592391     1.584748     1.577105     1.569462     1.561819
      1.554176     1.546533     1.538890     1.531246     1.523603     1.515960     1.508317     1.500674     1.493031     1.485388
      1.477745     1.470102     1.462458     1.454815     1.447172     1.439529     1.431886     1.424243     1.416600     1.408957
      1.401314     1.393671     1.386027     1.378384     1.370741     1.363098     1.355455     1.347812     1.340169     1.332526
      1.324883     1.317240     1.309596     1.301953     1.294310     1.286667     1.279024     1.271381     1.263738     1.256095
      1.248452     1.240808     1.233165     1.225522     1.217879     1.210236     1.202593     1.194950     1.187307     1.179664
      1.172021     1.164377     1.156734     1.149091     1.141448     1.133805     1.126162     1.118519     1.110876     1.103233
      1.095590     1.087946     1.080303     1.072660     1.065017     1.057374     1.049731     1.042088     1.034445     1.026802
      1.019158     1.011515     1.003872     0.996229     0.988586     0.980943     0.973300     0.965657     0.958014     0.950371
      0.942727     0.935084     0.927441     0.919798     0.912155     0.904512     0.896869     0.889226     0.881583     0.873940
      0.866296     0.858653     0.851010     0.843367     0.835724     0.828081     0.820438     0.812795     0.805152     0.797508
      0.789865     0.782222     0.774579     0.766936     0.759293     0.751650     0.744007     0.736364     0.728721     0.721077
      0.713434     0.705791     0.698148     0.690505     0.682862     0.675219     0.667576     0.659933     0.652290     0.644646
      0.637003     0.629360     0.621717     0.614074     0.606431     0.598788     0.591145     0.583502     0.575858     0.568215
      0.560572     0.552929     0.545286     0.537643     0.530000     0.522357     0.514714     0.507071     0.499427     0.491784
      0.484141     0.476498     0.468855     0.461212     0.453569     0.445925     0.438282     0.430639     0.422996     0.415353
      0.407710     0.400067     0.392424     0.384780     0.377137     0.369494     0.361851     0.354208     0.346565     0.338922
      0.331278     0.323635     0.315992     0.308349     0.300706     0.293063     0.285420     0.277777     0.270133     0.262490
      0.254847     0.247204     0.239561     0.231918     0.224275     0.216631     0.208988     0.201345
 NY phased data points follow
  -7.36154E+01 -7.01658E+01 -7.10640E+01 -6.50164E+01 -6.46092E+01 -6.43363E+01 -6.53643E+01 -6.04546E+01 -6.04541E+01 -5.66301E+01
  -5.76717E+01 -4.89158E+01 -4.88703E+01 -5.44600E+01 -6.04719E+01 -5.26420E+01 -5.88811E+01 -5.25619E+01 -6.11368E+01 -5.31580E+01
  -6.27808E+01 -5.48404E+01 -5.83650E+01 -5.57132E+01 -5.92011E+01 -5.43135E+01 -5.75999E+01 -5.12864E+01 -5.46489E+01 -5.25799E+01
  -4.79962E+01 -4.49983E+01 -4.69605E+01 -4.46321E+01 -4.55605E+01 -4.34761E+01 -4.73782E+01 -4.86980E+01 -4.71342E+01 -4.49646E+01
  -4.38713E+01 -4.03900E+01 -4.68298E+01 -4.12077E+01 -4.35834E+01 -4.03205E+01 -4.19165E+01 -4.44503E+01 -4.46245E+01 -3.98899E+01
  -4.34788E+01 -4.00020E+01 -4.17520E+01 -4.15471E+01 -3.97365E+01 -4.01853E+01 -4.24123E+01 -3.77911E+01 -4.37229E+01 -3.92405E+01
  -4.41017E+01 -3.80780E+01 -3.92939E+01 -3.83061E+01 -3.73612E+01 -3.65692E+01 -4.02060E+01 -3.85330E+01 -3.45294E+01 -3.64379E+01
  -4.00779E+01 -3.92052E+01 -3.99076E+01 -3.62932E+01 -3.52461E+01 -3.42664E+01 -3.62833E+01 -3.39279E+01 -3.51069E+01 -3.24147E+01
  -3.40570E+01 -3.05635E+01 -3.41764E+01 -2.77271E+01 -2.71580E+01 -3.01360E+01 -2.78220E+01 -2.83912E+01 -2.78839E+01 -2.94765E+01
  -2.65715E+01 -2.30688E+01 -2.58727E+01 -2.39143E+01 -2.20496E+01 -1.79333E+01 -1.92114E+01 -1.98139E+01 -1.27577E+01 -1.33441E+01
  -9.06394E+00 -1.85908E+00 -2.80950E+00 -3.02325E+00 -5.69815E+00 -6.27785E+00 -1.05129E+01 -1.52792E+01 -2.10205E+01 -2.10169E+01
  -2.49824E+01 -2.45586E+01 -2.11870E+01 -2.66043E+01 -2.65237E+01 -2.52609E+01 -2.58179E+01 -2.37811E+01 -2.66438E+01 -2.76155E+01
  -2.09526E+01 -2.13749E+01 -2.16461E+01 -1.64645E+01 -1.81980E+01 -1.09150E+01 -1.06160E+01 -3.12777E+00 -9.22693E+00 -6.55978E+00
  -6.45889E+00 -1.18070E+01 -1.68740E+01 -1.31257E+01 -1.98448E+01 -1.86772E+01 -2.27027E+01 -2.15257E+01 -1.90021E+01 -2.07487E+01
  -2.38122E+01 -2.01025E+01 -2.31933E+01 -2.37211E+01 -2.40889E+01 -2.04740E+01 -2.29664E+01 -1.67564E+01 -2.57705E+01 -2.30057E+01
  -2.14175E+01 -1.97173E+01 -2.21098E+01 -2.16341E+01 -1.94809E+01 -2.07387E+01 -2.18623E+01 -2.13616E+01 -1.86856E+01 -2.14358E+01
  -1.58549E+01 -1.62443E+01 -2.45163E+01 -2.21177E+01 -2.20410E+01 -2.43434E+01 -2.23636E+01 -2.27408E+01 -2.28158E+01 -2.22107E+01
  -2.21105E+01 -2.41293E+01 -1.98390E+01 -2.22823E+01 -2.69828E+01 -2.50915E+01 -2.22049E+01 -2.41649E+01 -2.43142E+01 -1.80809E+01
  -2.06405E+01 -1.78224E+01 -1.64107E+01 -1.84692E+01 -1.80836E+01 -1.53236E+01 -1.61037E+01 -1.82327E+01 -1.96986E+01 -2.04933E+01
  -2.14018E+01 -1.67768E+01 -1.39279E+01 -1.75757E+01 -1.79294E+01 -1.78546E+01 -1.52706E+01 -1.62154E+01 -1.09444E+01 -1.57142E+01
  -1.60835E+01 -1.25486E+01 -1.04992E+01 -1.07031E+01 -8.04354E+00 -1.00374E+01 -1.36968E+01 -9.43222E+00 -9.94779E+00 -1.09455E+01
  -1.11971E+01 -7.34640E+00 -9.12060E+00 -5.22869E+00 -7.40715E+00 -8.79550E+00 -3.37043E+00 -4.58929E+00 -7.49431E+00 -1.00126E+01
  -1.06919E+01 -8.95570E+00 -1.30730E+01 -7.21734E+00 -1.01183E+01 -8.57248E+00  4.24536E-01 -2.97814E+00 -8.19265E+00 -2.86361E+00
  -2.83813E+00 -3.66993E+00 -1.35555E+00 -6.15280E+00 -8.51113E-01 -5.39183E+00 -2.54833E+00 -4.06841E+00 -2.98793E+00 -3.92166E+00
  -4.04959E+00 -8.10877E+00 -3.02046E+00 -5.87122E+00 -7.46791E+00 -2.50340E+00  1.18458E-02  1.01225E+00 -2.64016E+00  5.75459E+00
   3.53756E+00  2.70813E+00  6.66830E+00  1.33344E+01  1.83743E+01  2.23678E+01  2.87889E+01  3.76710E+01  4.19810E+01  4.35135E+01
   4.58743E+01  4.72307E+01  4.06738E+01  3.70786E+01  2.97695E+01  2.40733E+01  2.02712E+01  1.11155E+01  4.44175E+00  3.02721E+00
   6.25635E+00  5.80251E+00  2.74942E+00  1.35745E+00 -2.24231E+00 -8.63615E-01  4.17570E-02  9.21099E-01 -7.17242E-01  1.76054E+00
   4.47622E-01  5.78453E-01  9.34676E-03 -5.26971E-01  1.35657E-01  1.34839E+00 -1.02252E+00 -3.78107E-01 -2.27705E+00  3.86687E+00
   7.25131E-01 -2.45452E+00 -2.06871E-01 -1.45722E-01  2.00876E+00  2.04529E+00  4.27341E-01  9.77070E-02  3.21844E+00 -2.26695E+00
   2.95929E+00  2.97294E+00  3.28317E+00  2.30854E+00  3.53698E+00  5.74461E+00  7.06341E+00  3.59897E+00  6.30935E+00  2.52757E+00
   5.11577E+00  6.35455E+00  7.50205E+00  7.31242E+00  9.89108E+00  7.23189E+00  5.62342E+00  6.07712E+00  8.00230E+00  1.11498E+01
   1.02967E+01  7.85629E+00  8.57252E+00  5.15680E+00  9.49770E+00  8.47100E+00  9.96852E+00  8.18967E+00  1.15253E+01  5.49383E+00
   6.25098E+00  7.50168E+00  7.65692E+00  9.20393E+00  8.76870E+00  7.67237E+00  1.20859E+01  8.86674E+00  1.73366E+01  1.15056E+01
   1.48003E+01  1.32454E+01  1.91317E+01  1.71045E+01  1.51000E+01  1.57447E+01  1.93229E+01  1.72141E+01  1.80780E+01  1.41270E+01
   1.31641E+01  1.67990E+01  1.41081E+01  1.79363E+01  1.72991E+01  1.57594E+01  1.34044E+01  1.29937E+01  1.06498E+01  1.10563E+01
   1.71564E+01  9.44160E+00  1.14464E+01  1.42821E+01  1.48115E+01  1.05897E+01  1.43592E+01  1.30648E+01  1.54396E+01  1.14520E+01
   1.39370E+01  1.37771E+01  1.07425E+01  1.35160E+01  1.04799E+01  7.95057E+00  1.12260E+01  1.10237E+01  1.20063E+01  1.08345E+01
   8.13630E+00  1.05635E+01  9.30387E+00  9.50550E+00  6.01549E+00  1.07931E+01  1.04469E+01  1.14511E+01  8.46274E+00  1.26978E+01
   9.89330E+00  1.16214E+01  9.01000E+00  1.31113E+01  1.12445E+01  8.94603E+00  1.15391E+01  9.59946E+00  1.14575E+01  1.16031E+01
   9.77589E+00  1.05784E+01  1.02421E+01  1.20521E+01  1.38319E+01  9.40657E+00  1.45153E+01  1.15151E+01  1.04895E+01  1.02412E+01
   1.06473E+01  1.36930E+01  1.57502E+01  1.14126E+01  1.52328E+01  6.51471E+00  1.10829E+01  7.12200E+00  1.00396E+01  8.10295E+00
   9.34338E+00  5.86899E+00  8.50775E+00  5.50903E+00  8.13904E+00  3.24595E+00  1.11125E+01  1.02948E+01  5.14494E+00  3.07596E+00
   6.18834E+00  8.03210E+00  4.12707E+00  4.11120E+00  1.37321E+00  1.27933E+00  2.04204E+00  5.31742E+00  4.19191E+00  3.96484E+00
   5.42332E+00  4.40748E+00  5.29676E+00  2.30099E+00  3.60510E+00  1.96715E+00  1.35171E+00  1.97993E+00  3.43261E+00  3.48536E+00
   5.37304E+00  2.36311E+00  1.77803E+00  1.93210E+00  4.09124E+00  3.48589E+00  1.33165E+00  5.21359E+00  4.73097E+00  1.39783E+00
   4.50690E+00  1.84720E+00  7.72501E-01  4.90037E+00  1.94139E+00  2.41662E+00  4.48020E+00  1.79288E+00  4.46893E+00  5.73197E+00
   4.98087E+00  4.43656E+00  3.97980E+00  1.03160E+00  3.13734E+00  1.66826E+00  6.20847E-01  3.47060E-01  4.10728E+00  1.37136E+00
   2.71074E+00  2.40854E+00  6.28094E+00 -5.23569E-01  1.70461E+00  3.63723E+00  4.60271E+00 -5.77407E-01  3.75031E+00  4.67450E+00
   3.53892E+00  2.88588E+00  4.84684E+00  2.82289E+00 -1.14381E+00  2.41838E+00  3.51494E+00 -2.00949E-01
 NY points of the fit to the data follow
  -6.81943E+01 -6.79882E+01 -6.74904E+01 -6.65178E+01 -6.52503E+01 -6.38971E+01 -6.24623E+01 -6.08670E+01 -5.91359E+01 -5.74031E+01
  -5.58335E+01 -5.45934E+01 -5.38223E+01 -5.35641E+01 -5.37374E+01 -5.41875E+01 -5.47465E+01 -5.53125E+01 -5.58737E+01 -5.64235E+01
  -5.68834E+01 -5.70819E+01 -5.68568E+01 -5.62256E+01 -5.54482E+01 -5.45898E+01 -5.36174E+01 -5.24790E+01 -5.11579E+01 -4.96978E+01
  -4.82247E+01 -4.69504E+01 -4.60937E+01 -4.57380E+01 -4.58609E+01 -4.63551E+01 -4.70099E+01 -4.75830E+01 -4.78724E+01 -4.77983E+01
  -4.74009E+01 -4.67333E+01 -4.58036E+01 -4.47044E+01 -4.35650E+01 -4.25037E+01 -4.16741E+01 -4.11885E+01 -4.10967E+01 -4.13470E+01
  -4.17785E+01 -4.22340E+01 -4.26121E+01 -4.28451E+01 -4.29152E+01 -4.28197E+01 -4.25581E+01 -4.21438E+01 -4.16047E+01 -4.10374E+01
  -4.05256E+01 -4.01335E+01 -3.98465E+01 -3.96016E+01 -3.93506E+01 -3.90747E+01 -3.87314E+01 -3.82773E+01 -3.77603E+01 -3.72416E+01
  -3.67385E+01 -3.62663E+01 -3.58372E+01 -3.54586E+01 -3.51442E+01 -3.49165E+01 -3.47795E+01 -3.46524E+01 -3.43168E+01 -3.37767E+01
  -3.31308E+01 -3.24157E+01 -3.15787E+01 -3.05953E+01 -2.95653E+01 -2.86471E+01 -2.79496E+01 -2.75421E+01 -2.74906E+01 -2.77388E+01
  -2.81330E+01 -2.85358E+01 -2.86301E+01 -2.76813E+01 -2.56930E+01 -2.32079E+01 -2.04618E+01 -1.73200E+01 -1.36756E+01 -9.88168E+00
  -6.46385E+00 -3.92154E+00 -2.71924E+00 -3.09851E+00 -4.93769E+00 -7.82814E+00 -1.12566E+01 -1.47816E+01 -1.81272E+01 -2.10541E+01
  -2.33956E+01 -2.51783E+01 -2.64164E+01 -2.69310E+01 -2.70239E+01 -2.70007E+01 -2.68940E+01 -2.66439E+01 -2.59256E+01 -2.44908E+01
  -2.26638E+01 -2.07179E+01 -1.86407E+01 -1.63198E+01 -1.38113E+01 -1.13426E+01 -9.23531E+00 -7.85794E+00 -7.48105E+00 -8.13562E+00
  -9.61937E+00 -1.16081E+01 -1.38054E+01 -1.59958E+01 -1.80320E+01 -1.97804E+01 -2.11614E+01 -2.21470E+01 -2.26228E+01 -2.26117E+01
  -2.24039E+01 -2.21191E+01 -2.18165E+01 -2.15429E+01 -2.13242E+01 -2.11613E+01 -2.10641E+01 -2.10381E+01 -2.10569E+01 -2.10932E+01
  -2.11300E+01 -2.11598E+01 -2.12118E+01 -2.12771E+01 -2.13262E+01 -2.13420E+01 -2.13153E+01 -2.12804E+01 -2.12703E+01 -2.12780E+01
  -2.12703E+01 -2.12209E+01 -2.11247E+01 -2.09941E+01 -2.08587E+01 -2.07560E+01 -2.07163E+01 -2.07615E+01 -2.08737E+01 -2.09848E+01
  -2.10627E+01 -2.11289E+01 -2.12354E+01 -2.13613E+01 -2.14433E+01 -2.14375E+01 -2.13307E+01 -2.11770E+01 -2.10290E+01 -2.08701E+01
  -2.06530E+01 -2.03564E+01 -1.99715E+01 -1.94974E+01 -1.89520E+01 -1.83617E+01 -1.77270E+01 -1.70602E+01 -1.63702E+01 -1.57217E+01
  -1.51967E+01 -1.48054E+01 -1.45256E+01 -1.43204E+01 -1.41468E+01 -1.39275E+01 -1.35808E+01 -1.30892E+01 -1.24971E+01 -1.18168E+01
  -1.11447E+01 -1.06713E+01 -1.04298E+01 -1.04100E+01 -1.06784E+01 -1.12444E+01 -1.19444E+01 -1.25164E+01 -1.28671E+01 -1.29503E+01
  -1.26512E+01 -1.18951E+01 -1.08167E+01 -9.72589E+00 -8.85463E+00 -8.26828E+00 -8.04542E+00 -8.29079E+00 -8.96059E+00 -9.81762E+00
  -1.06078E+01 -1.11343E+01 -1.11978E+01 -1.07368E+01 -9.84112E+00 -8.65689E+00 -7.38034E+00 -6.19988E+00 -5.25658E+00 -4.54341E+00
  -4.03705E+00 -3.72812E+00 -3.54273E+00 -3.45336E+00 -3.41996E+00 -3.32615E+00 -3.13876E+00 -2.91805E+00 -2.74034E+00 -2.66257E+00
  -2.70915E+00 -2.85773E+00 -3.03160E+00 -3.12342E+00 -3.03581E+00 -2.73323E+00 -2.21809E+00 -1.46721E+00 -5.01277E-01  6.12868E-01
   2.01862E+00  4.60403E+00  8.91232E+00  1.39903E+01  1.90748E+01  2.42095E+01  2.96200E+01  3.51036E+01  4.00857E+01  4.38824E+01
   4.57599E+01  4.51628E+01  4.20722E+01  3.70495E+01  3.09432E+01  2.45385E+01  1.83906E+01  1.29169E+01  8.39632E+00  4.87441E+00
   2.28093E+00  8.27168E-01  3.80021E-01  2.40396E-01  1.90553E-01  1.77607E-01  1.61044E-01  1.33424E-01  1.01369E-01  6.68241E-02
   3.56883E-02  1.62605E-02  1.24651E-02  2.71113E-02  6.48526E-02  1.26272E-01  2.06824E-01  3.02887E-01  4.12757E-01  5.36899E-01
   6.75851E-01  8.28959E-01  9.96941E-01  1.18087E+00  1.38066E+00  1.59538E+00  1.82345E+00  2.06424E+00  2.31669E+00  2.57921E+00
   2.85035E+00  3.12791E+00  3.40863E+00  3.68963E+00  3.96754E+00  4.23888E+00  4.50083E+00  4.75138E+00  4.98950E+00  5.21516E+00
   5.42922E+00  5.63429E+00  5.83440E+00  6.03504E+00  6.24395E+00  6.47186E+00  6.73551E+00  7.06706E+00  7.53069E+00  8.09905E+00
   8.60411E+00  8.98707E+00  9.28159E+00  9.49922E+00  9.56887E+00  9.38577E+00  8.95178E+00  8.42916E+00  7.88861E+00  7.37203E+00
   6.98832E+00  6.89731E+00  7.21042E+00  7.93647E+00  9.01291E+00  1.03244E+01  1.16933E+01  1.29444E+01  1.39907E+01  1.47757E+01
   1.52528E+01  1.54856E+01  1.55434E+01  1.54964E+01  1.54027E+01  1.52852E+01  1.51836E+01  1.51720E+01  1.52138E+01  1.52722E+01
   1.53304E+01  1.53788E+01  1.54110E+01  1.54222E+01  1.54086E+01  1.53675E+01  1.52969E+01  1.51955E+01  1.50629E+01  1.48992E+01
   1.47054E+01  1.44831E+01  1.42344E+01  1.39622E+01  1.36697E+01  1.33606E+01  1.30386E+01  1.27080E+01  1.23727E+01  1.20368E+01
   1.17044E+01  1.13792E+01  1.10647E+01  1.07641E+01  1.04805E+01  1.02165E+01  9.97437E+00  9.75623E+00  9.56384E+00  9.39875E+00
   9.26232E+00  9.15569E+00  9.07983E+00  9.03550E+00  9.02334E+00  9.04373E+00  9.09683E+00  9.18245E+00  9.29998E+00  9.44834E+00
   9.62589E+00  9.83034E+00  1.00586E+01  1.03069E+01  1.05705E+01  1.08441E+01  1.11213E+01  1.13955E+01  1.16594E+01  1.19057E+01
   1.21267E+01  1.23155E+01  1.24655E+01  1.25711E+01  1.26276E+01  1.26319E+01  1.25820E+01  1.24779E+01  1.23207E+01  1.21131E+01
   1.18593E+01  1.15642E+01  1.12340E+01  1.08751E+01  1.04944E+01  1.00987E+01  9.69478E+00  9.28870E+00  8.88609E+00  8.49181E+00
   8.10992E+00  7.74363E+00  7.39536E+00  7.06676E+00  6.75881E+00  6.47190E+00  6.20587E+00  5.96018E+00  5.73397E+00  5.52618E+00
   5.33560E+00  5.16096E+00  5.00091E+00  4.85415E+00  4.71944E+00  4.59559E+00  4.48151E+00  4.37620E+00  4.27872E+00  4.18825E+00
   4.10406E+00  4.02550E+00  3.95200E+00  3.88303E+00  3.81815E+00  3.75695E+00  3.69910E+00  3.64431E+00  3.59231E+00  3.54287E+00
   3.49577E+00  3.45084E+00  3.40793E+00  3.36692E+00  3.32765E+00  3.28997E+00  3.25378E+00  3.21895E+00  3.18541E+00  3.15306E+00
   3.12181E+00  3.09158E+00  3.06231E+00  3.03394E+00  3.00641E+00  2.97967E+00  2.95367E+00  2.92834E+00  2.90365E+00  2.87957E+00
   2.85607E+00  2.83310E+00  2.81063E+00  2.78861E+00  2.76703E+00  2.74588E+00  2.72511E+00  2.70470E+00  2.68462E+00  2.66485E+00
   2.64538E+00  2.62620E+00  2.60727E+00  2.58857E+00  2.57010E+00  2.55183E+00  2.53376E+00  2.51588E+00  2.49818E+00  2.48062E+00
   2.46321E+00  2.44596E+00  2.42885E+00  2.41188E+00  2.39505E+00  2.37834E+00  2.36178E+00  2.34538E+00
 NY background values follow
    -7.132E+01   -7.085E+01   -7.037E+01   -6.989E+01   -6.942E+01   -6.894E+01   -6.846E+01   -6.799E+01   -6.751E+01   -6.703E+01
    -6.656E+01   -6.608E+01   -6.560E+01   -6.513E+01   -6.465E+01   -6.418E+01   -6.371E+01   -6.323E+01   -6.276E+01   -6.229E+01
    -6.182E+01   -6.135E+01   -6.088E+01   -6.042E+01   -5.995E+01   -5.949E+01   -5.902E+01   -5.856E+01   -5.810E+01   -5.764E+01
    -5.718E+01   -5.673E+01   -5.627E+01   -5.582E+01   -5.537E+01   -5.492E+01   -5.448E+01   -5.404E+01   -5.359E+01   -5.315E+01
    -5.272E+01   -5.228E+01   -5.185E+01   -5.142E+01   -5.099E+01   -5.057E+01   -5.015E+01   -4.973E+01   -4.932E+01   -4.890E+01
    -4.849E+01   -4.808E+01   -4.768E+01   -4.728E+01   -4.688E+01   -4.649E+01   -4.609E+01   -4.570E+01   -4.532E+01   -4.493E+01
    -4.455E+01   -4.418E+01   -4.380E+01   -4.343E+01   -4.306E+01   -4.270E+01   -4.233E+01   -4.198E+01   -4.162E+01   -4.127E+01
    -4.092E+01   -4.057E+01   -4.023E+01   -3.989E+01   -3.956E+01   -3.922E+01   -3.889E+01   -3.857E+01   -3.825E+01   -3.793E+01
    -3.761E+01   -3.730E+01   -3.699E+01   -3.668E+01   -3.638E+01   -3.608E+01   -3.579E+01   -3.550E+01   -3.521E+01   -3.493E+01
    -3.465E+01   -3.437E+01   -3.410E+01   -3.383E+01   -3.356E+01   -3.330E+01   -3.304E+01   -3.278E+01   -3.253E+01   -3.228E+01
    -3.203E+01   -3.179E+01   -3.155E+01   -3.131E+01   -3.108E+01   -3.085E+01   -3.062E+01   -3.039E+01   -3.017E+01   -2.995E+01
    -2.973E+01   -2.952E+01   -2.930E+01   -2.909E+01   -2.889E+01   -2.868E+01   -2.848E+01   -2.828E+01   -2.808E+01   -2.788E+01
    -2.769E+01   -2.750E+01   -2.731E+01   -2.712E+01   -2.693E+01   -2.675E+01   -2.656E+01   -2.638E+01   -2.620E+01   -2.602E+01
    -2.585E+01   -2.567E+01   -2.550E+01   -2.533E+01   -2.516E+01   -2.499E+01   -2.482E+01   -2.465E+01   -2.449E+01   -2.432E+01
    -2.416E+01   -2.400E+01   -2.384E+01   -2.368E+01   -2.352E+01   -2.336E+01   -2.320E+01   -2.304E+01   -2.288E+01   -2.273E+01
    -2.257E+01   -2.241E+01   -2.226E+01   -2.210E+01   -2.195E+01   -2.180E+01   -2.164E+01   -2.149E+01   -2.133E+01   -2.118E+01
    -2.102E+01   -2.087E+01   -2.072E+01   -2.056E+01   -2.041E+01   -2.025E+01   -2.010E+01   -1.994E+01   -1.978E+01   -1.963E+01
    -1.947E+01   -1.931E+01   -1.915E+01   -1.899E+01   -1.883E+01   -1.867E+01   -1.851E+01   -1.834E+01   -1.818E+01   -1.802E+01
    -1.785E+01   -1.768E+01   -1.751E+01   -1.734E+01   -1.717E+01   -1.700E+01   -1.683E+01   -1.665E+01   -1.648E+01   -1.631E+01
    -1.613E+01   -1.595E+01   -1.578E+01   -1.560E+01   -1.542E+01   -1.524E+01   -1.506E+01   -1.488E+01   -1.470E+01   -1.453E+01
    -1.435E+01   -1.417E+01   -1.399E+01   -1.381E+01   -1.363E+01   -1.345E+01   -1.327E+01   -1.309E+01   -1.291E+01   -1.274E+01
    -1.256E+01   -1.238E+01   -1.221E+01   -1.203E+01   -1.186E+01   -1.168E+01   -1.151E+01   -1.134E+01   -1.117E+01   -1.100E+01
    -1.083E+01   -1.066E+01   -1.050E+01   -1.033E+01   -1.017E+01   -1.000E+01   -9.844E+00   -9.685E+00   -9.528E+00   -9.372E+00
    -9.217E+00   -9.064E+00   -8.912E+00   -8.762E+00   -8.613E+00   -8.466E+00   -8.319E+00   -8.175E+00   -8.031E+00   -7.889E+00
    -7.748E+00   -7.608E+00   -7.470E+00   -7.333E+00   -7.197E+00   -7.062E+00   -6.928E+00   -6.795E+00   -6.664E+00   -6.534E+00
    -6.404E+00   -6.276E+00   -6.149E+00   -6.023E+00   -5.897E+00   -5.773E+00   -5.650E+00   -5.527E+00   -5.406E+00   -5.285E+00
    -5.165E+00   -5.046E+00   -4.928E+00   -4.811E+00   -4.694E+00   -4.579E+00   -4.463E+00   -4.349E+00   -4.236E+00   -4.123E+00
    -4.010E+00   -3.899E+00   -3.788E+00   -3.677E+00   -3.567E+00   -3.458E+00   -3.350E+00   -3.242E+00   -3.134E+00   -3.028E+00
    -2.922E+00   -2.816E+00   -2.712E+00   -2.607E+00   -2.504E+00   -2.401E+00   -2.299E+00   -2.198E+00   -2.097E+00   -1.997E+00
    -1.897E+00   -1.798E+00   -1.700E+00   -1.603E+00   -1.506E+00   -1.410E+00   -1.315E+00   -1.220E+00   -1.126E+00   -1.033E+00
    -9.406E-01   -8.488E-01   -7.577E-01   -6.673E-01   -5.777E-01   -4.887E-01   -4.005E-01   -3.131E-01   -2.263E-01   -1.403E-01
    -5.507E-02    2.944E-02    1.132E-01    1.962E-01    2.785E-01    3.600E-01    4.407E-01    5.207E-01    5.998E-01    6.783E-01
     7.559E-01    8.327E-01    9.087E-01    9.838E-01    1.058E+00    1.132E+00    1.204E+00    1.276E+00    1.347E+00    1.417E+00
     1.486E+00    1.554E+00    1.622E+00    1.688E+00    1.754E+00    1.818E+00    1.882E+00    1.944E+00    2.006E+00    2.067E+00
     2.126E+00    2.185E+00    2.243E+00    2.299E+00    2.355E+00    2.409E+00    2.463E+00    2.515E+00    2.567E+00    2.617E+00
     2.666E+00    2.714E+00    2.761E+00    2.807E+00    2.852E+00    2.896E+00    2.938E+00    2.980E+00    3.020E+00    3.059E+00
     3.096E+00    3.133E+00    3.168E+00    3.203E+00    3.236E+00    3.267E+00    3.298E+00    3.328E+00    3.356E+00    3.383E+00
     3.409E+00    3.434E+00    3.458E+00    3.481E+00    3.502E+00    3.523E+00    3.543E+00    3.561E+00    3.579E+00    3.595E+00
     3.611E+00    3.625E+00    3.639E+00    3.651E+00    3.663E+00    3.673E+00    3.683E+00    3.692E+00    3.700E+00    3.707E+00
     3.713E+00    3.718E+00    3.722E+00    3.726E+00    3.728E+00    3.730E+00    3.731E+00    3.731E+00    3.731E+00    3.729E+00
     3.727E+00    3.724E+00    3.720E+00    3.716E+00    3.711E+00    3.705E+00    3.698E+00    3.691E+00    3.683E+00    3.674E+00
     3.665E+00    3.655E+00    3.645E+00    3.634E+00    3.622E+00    3.610E+00    3.597E+00    3.584E+00    3.571E+00    3.557E+00
     3.542E+00    3.527E+00    3.512E+00    3.496E+00    3.480E+00    3.464E+00    3.448E+00    3.431E+00    3.414E+00    3.396E+00
     3.379E+00    3.361E+00    3.343E+00    3.325E+00    3.307E+00    3.288E+00    3.270E+00    3.251E+00    3.233E+00    3.214E+00
     3.195E+00    3.177E+00    3.158E+00    3.140E+00    3.121E+00    3.103E+00    3.084E+00    3.066E+00    3.048E+00    3.031E+00
     3.013E+00    2.996E+00    2.978E+00    2.962E+00    2.945E+00    2.928E+00    2.912E+00    2.896E+00    2.881E+00    2.865E+00
     2.850E+00    2.834E+00    2.819E+00    2.805E+00    2.790E+00    2.775E+00    2.761E+00    2.746E+00    2.732E+00    2.718E+00
     2.704E+00    2.690E+00    2.677E+00    2.663E+00    2.649E+00    2.635E+00    2.622E+00    2.608E+00    2.595E+00    2.581E+00
     2.568E+00    2.554E+00    2.541E+00    2.527E+00    2.514E+00    2.500E+00    2.486E+00    2.473E+00    2.459E+00    2.445E+00
     2.431E+00    2.417E+00    2.403E+00    2.389E+00    2.374E+00    2.360E+00    2.345E+00    2.330E+00
 Ala      Conc. = 4.49E+02
