 LCModel (Version 6.3-1L) Copyright: S.W. Provencher.          Ref.: Magn. Reson. Med. 30:672-679 (1993).                
 Slice#2 Row#4 Col#7  PD_24_press_1_raw_act
 36 lines in following concentration table = NCONC+1
    Conc.  %SD /Cr+PCr  Metabolite                                         
   56.217 197% 3.3E-02 Ala                                                 
    0.000 999%   0.000 Asp                                                 
  636.333  32%   0.378 Cr                                                  
 1.05E+03  20%   0.622 PCr                                                 
    0.000 999%   0.000 GABA                                                
    0.000 999%   0.000 Glc                                                 
  635.131  34%   0.377 Gln                                                 
 1.70E+03  14%   1.010 Glu                                                 
  799.860   3%   0.475 GPC                                                 
    0.000 999%   0.000 PCh                                                 
  518.612  13%   0.308 GSH                                                 
  746.951  34%   0.444 Ins                                                 
  269.769  63%   0.160 Lac                                                 
 2.21E+03   4%   1.312 NAA                                                 
   18.917 480% 1.1E-02 NAAG                                                
   92.818  30% 5.5E-02 Scyllo                                              
    0.000 999%   0.000 Tau                                                 
    0.000 999%   0.000 -CrCH2                                              
  799.860   3%   0.475 GPC+PCh                                             
 2.23E+03   4%   1.323 NAA+NAAG                                            
 1.68E+03   3%   1.000 Cr+PCr                                              
 2.33E+03  15%   1.387 Glu+Gln                                             
    0.000 999%   0.000 Lip13a                                              
 1.25E+03  41%   0.743 Lip13b                                              
  195.311  99%   0.116 Lip09                                               
 1.80E+03  16%   1.069 MM09                                                
  201.698  60%   0.120 Lip20                                               
 4.57E+03  10%   2.715 MM20                                                
  390.475  51%   0.232 MM12                                                
 3.03E+03  19%   1.799 MM14                                                
 1.69E+03  20%   1.006 MM17                                                
 1.25E+03  41%   0.743 Lip13a+Lip13b                                       
 4.67E+03  11%   2.774 MM14+Lip13a+Lip13b+MM12                             
 1.99E+03  13%   1.185 MM09+Lip09                                          
 4.77E+03  10%   2.835 MM20+Lip20                                          
   6 lines in following misc. output table
  FWHM = 0.046 ppm    S/N =  13                                            
  Data shift =-0.023 ppm                                                   
  Ph: -33 deg      -7.6 deg/ppm                                            
  alphaB,S = 5.2E-01,   1.0E+02                                            
   14 spline knots.   Ns = 6(1)                                            
  (11) 4 infls.   ( 5) 1 extrs.                                            
  498 points on ppm-axis = NY
      4.000000     3.992357     3.984714     3.977070     3.969427     3.961784     3.954141     3.946497     3.938854     3.931211
      3.923568     3.915925     3.908281     3.900638     3.892995     3.885352     3.877708     3.870065     3.862422     3.854779
      3.847136     3.839492     3.831849     3.824206     3.816563     3.808919     3.801276     3.793633     3.785990     3.778347
      3.770703     3.763060     3.755417     3.747774     3.740130     3.732487     3.724844     3.717201     3.709558     3.701914
      3.694271     3.686628     3.678985     3.671341     3.663698     3.656055     3.648412     3.640769     3.633125     3.625482
      3.617839     3.610196     3.602552     3.594909     3.587266     3.579623     3.571980     3.564336     3.556693     3.549050
      3.541407     3.533763     3.526120     3.518477     3.510834     3.503191     3.495547     3.487904     3.480261     3.472618
      3.464974     3.457331     3.449688     3.442045     3.434402     3.426758     3.419115     3.411472     3.403829     3.396185
      3.388542     3.380899     3.373256     3.365613     3.357969     3.350326     3.342683     3.335040     3.327396     3.319753
      3.312110     3.304467     3.296824     3.289180     3.281537     3.273894     3.266251     3.258607     3.250964     3.243321
      3.235678     3.228034     3.220391     3.212748     3.205105     3.197462     3.189818     3.182175     3.174532     3.166889
      3.159245     3.151602     3.143959     3.136316     3.128673     3.121029     3.113386     3.105743     3.098100     3.090456
      3.082813     3.075170     3.067527     3.059884     3.052240     3.044597     3.036954     3.029311     3.021667     3.014024
      3.006381     2.998738     2.991095     2.983451     2.975808     2.968165     2.960522     2.952878     2.945235     2.937592
      2.929949     2.922306     2.914662     2.907019     2.899376     2.891733     2.884089     2.876446     2.868803     2.861160
      2.853517     2.845873     2.838230     2.830587     2.822944     2.815300     2.807657     2.800014     2.792371     2.784728
      2.777084     2.769441     2.761798     2.754155     2.746511     2.738868     2.731225     2.723582     2.715939     2.708295
      2.700652     2.693009     2.685366     2.677722     2.670079     2.662436     2.654793     2.647150     2.639506     2.631863
      2.624220     2.616577     2.608933     2.601290     2.593647     2.586004     2.578361     2.570717     2.563074     2.555431
      2.547788     2.540144     2.532501     2.524858     2.517215     2.509572     2.501928     2.494285     2.486642     2.478999
      2.471355     2.463712     2.456069     2.448426     2.440783     2.433139     2.425496     2.417853     2.410210     2.402566
      2.394923     2.387280     2.379637     2.371994     2.364350     2.356707     2.349064     2.341421     2.333777     2.326134
      2.318491     2.310848     2.303205     2.295561     2.287918     2.280275     2.272632     2.264988     2.257345     2.249702
      2.242059     2.234416     2.226772     2.219129     2.211486     2.203843     2.196199     2.188556     2.180913     2.173270
      2.165627     2.157983     2.150340     2.142697     2.135054     2.127410     2.119767     2.112124     2.104481     2.096838
      2.089194     2.081551     2.073908     2.066265     2.058621     2.050978     2.043335     2.035692     2.028049     2.020405
      2.012762     2.005119     1.997476     1.989833     1.982190     1.974546     1.966903     1.959260     1.951617     1.943974
      1.936331     1.928688     1.921045     1.913402     1.905759     1.898115     1.890472     1.882829     1.875186     1.867543
      1.859900     1.852257     1.844614     1.836971     1.829327     1.821684     1.814041     1.806398     1.798755     1.791112
      1.783469     1.775826     1.768183     1.760540     1.752896     1.745253     1.737610     1.729967     1.722324     1.714681
      1.707038     1.699395     1.691752     1.684108     1.676465     1.668822     1.661179     1.653536     1.645893     1.638250
      1.630607     1.622964     1.615321     1.607677     1.600034     1.592391     1.584748     1.577105     1.569462     1.561819
      1.554176     1.546533     1.538890     1.531246     1.523603     1.515960     1.508317     1.500674     1.493031     1.485388
      1.477745     1.470102     1.462458     1.454815     1.447172     1.439529     1.431886     1.424243     1.416600     1.408957
      1.401314     1.393671     1.386027     1.378384     1.370741     1.363098     1.355455     1.347812     1.340169     1.332526
      1.324883     1.317240     1.309596     1.301953     1.294310     1.286667     1.279024     1.271381     1.263738     1.256095
      1.248452     1.240808     1.233165     1.225522     1.217879     1.210236     1.202593     1.194950     1.187307     1.179664
      1.172021     1.164377     1.156734     1.149091     1.141448     1.133805     1.126162     1.118519     1.110876     1.103233
      1.095590     1.087946     1.080303     1.072660     1.065017     1.057374     1.049731     1.042088     1.034445     1.026802
      1.019158     1.011515     1.003872     0.996229     0.988586     0.980943     0.973300     0.965657     0.958014     0.950371
      0.942727     0.935084     0.927441     0.919798     0.912155     0.904512     0.896869     0.889226     0.881583     0.873940
      0.866296     0.858653     0.851010     0.843367     0.835724     0.828081     0.820438     0.812795     0.805152     0.797508
      0.789865     0.782222     0.774579     0.766936     0.759293     0.751650     0.744007     0.736364     0.728721     0.721077
      0.713434     0.705791     0.698148     0.690505     0.682862     0.675219     0.667576     0.659933     0.652290     0.644646
      0.637003     0.629360     0.621717     0.614074     0.606431     0.598788     0.591145     0.583502     0.575858     0.568215
      0.560572     0.552929     0.545286     0.537643     0.530000     0.522357     0.514714     0.507071     0.499427     0.491784
      0.484141     0.476498     0.468855     0.461212     0.453569     0.445925     0.438282     0.430639     0.422996     0.415353
      0.407710     0.400067     0.392424     0.384780     0.377137     0.369494     0.361851     0.354208     0.346565     0.338922
      0.331278     0.323635     0.315992     0.308349     0.300706     0.293063     0.285420     0.277777     0.270133     0.262490
      0.254847     0.247204     0.239561     0.231918     0.224275     0.216631     0.208988     0.201345
 NY phased data points follow
   4.49167E+01  4.76653E+01  4.38544E+01  4.62721E+01  4.95373E+01  5.24857E+01  5.82926E+01  7.48082E+01  7.78447E+01  8.41585E+01
   8.43617E+01  8.68859E+01  7.86849E+01  7.41114E+01  6.63292E+01  6.70976E+01  5.93746E+01  5.63583E+01  5.42656E+01  5.21634E+01
   4.71991E+01  4.75559E+01  4.46895E+01  4.26458E+01  3.93636E+01  4.74369E+01  4.37541E+01  4.41995E+01  4.96891E+01  5.28187E+01
   4.94506E+01  5.26598E+01  4.83736E+01  4.67762E+01  4.32285E+01  4.19992E+01  3.98374E+01  3.53291E+01  3.77879E+01  4.00635E+01
   3.46283E+01  3.97746E+01  3.59577E+01  4.36570E+01  3.87503E+01  4.76721E+01  4.56481E+01  4.50079E+01  4.27635E+01  4.28891E+01
   3.88247E+01  3.69004E+01  3.37824E+01  3.36177E+01  3.28607E+01  3.62987E+01  3.38760E+01  3.37927E+01  3.62627E+01  2.84828E+01
   2.65002E+01  2.82614E+01  2.49608E+01  2.31439E+01  1.80558E+01  1.91091E+01  1.73950E+01  1.90572E+01  1.80501E+01  2.20778E+01
   1.66107E+01  2.52586E+01  2.34372E+01  2.52983E+01  2.30518E+01  2.52959E+01  2.92198E+01  2.05824E+01  2.13426E+01  2.69322E+01
   2.37297E+01  2.37995E+01  2.43844E+01  2.57291E+01  1.90042E+01  2.36256E+01  2.42124E+01  2.43728E+01  2.10459E+01  2.30960E+01
   2.42248E+01  2.55532E+01  2.29368E+01  2.60398E+01  2.38503E+01  2.05629E+01  1.84945E+01  1.96203E+01  2.68374E+01  3.66550E+01
   5.53121E+01  7.87758E+01  8.71390E+01  9.62072E+01  9.22753E+01  8.17292E+01  6.20213E+01  5.07214E+01  4.59080E+01  4.30875E+01
   3.70548E+01  3.29360E+01  2.90325E+01  2.65460E+01  2.29174E+01  2.23783E+01  2.07010E+01  2.14594E+01  1.51176E+01  1.75173E+01
   1.25716E+01  1.64537E+01  2.19283E+01  3.10509E+01  4.26872E+01  5.82905E+01  6.96510E+01  6.89403E+01  6.80188E+01  6.31724E+01
   5.14416E+01  4.32689E+01  3.82288E+01  3.58469E+01  2.38118E+01  2.25839E+01  2.30289E+01  1.90425E+01  1.10044E+01  1.82292E+01
   1.13337E+01  1.55672E+01  9.53212E+00  1.60474E+01  9.44442E+00  8.52231E+00  1.54368E+01  1.31240E+01  9.81281E+00  1.10175E+01
   1.25060E+01  7.15885E+00  1.12996E+01  1.12743E+01  1.08190E+01  1.42287E+01  1.00397E+01  1.05629E+01  1.00208E+01  8.89047E+00
   5.26171E+00  9.24795E+00  5.85779E+00  4.95688E+00  3.32599E+00  7.71787E+00  5.76012E+00  5.53190E+00  7.09586E+00  4.79083E+00
  -1.22498E+00 -4.57137E+00 -2.24688E+00 -2.51924E+00  1.29565E+00 -6.19466E-01 -4.59447E+00  1.18631E+00 -2.17072E+00  5.01375E+00
   2.97317E+00 -2.63941E+00 -1.01012E+00 -4.94932E+00 -1.36280E+00 -5.71834E+00  1.22990E+00  3.31142E+00 -1.65750E-01  6.03816E+00
   1.00325E+01  1.32469E+01  1.15699E+01  1.38988E+01  5.20082E+00  1.07163E+01  7.90726E+00  8.28412E+00  5.72288E+00  5.48194E+00
   3.52817E+00  9.83385E+00  1.34723E+01  1.45483E+01  1.01419E+01  1.35287E+01  1.09730E+01  8.49203E+00  1.36995E+01  4.33539E+00
   6.27594E+00  7.36033E+00  9.66601E+00  1.25450E+01  2.10819E+01  2.86596E+01  2.03684E+01  1.82558E+01  1.74572E+01  1.02738E+01
   6.70959E+00  4.22838E+00  1.03373E+01  9.45737E+00  1.14839E+01  1.99537E+01  1.95805E+01  1.55021E+01  1.54691E+01  1.94589E+01
   2.08644E+01  1.94804E+01  1.59180E+01  1.79400E+01  2.03417E+01  1.68458E+01  1.93409E+01  1.84495E+01  1.75313E+01  1.48377E+01
   1.36688E+01  1.50868E+01  1.77982E+01  1.51787E+01  1.84154E+01  2.01993E+01  2.22343E+01  2.31354E+01  2.33395E+01  2.70144E+01
   2.19401E+01  2.67924E+01  2.82682E+01  2.64909E+01  2.62693E+01  3.40325E+01  3.98440E+01  5.37158E+01  7.20626E+01  9.00935E+01
   9.72275E+01  9.40480E+01  8.46308E+01  6.80810E+01  5.94383E+01  4.38122E+01  4.55616E+01  3.81017E+01  2.82177E+01  2.50359E+01
   1.56045E+01  1.66664E+01  1.72866E+01  1.95554E+01  1.57883E+01  1.70435E+01  1.38849E+01  1.64733E+01  7.14651E+00  1.54322E+01
   1.21552E+01  7.54745E+00  1.22069E+01  1.04449E+01  1.21469E+01  1.24155E+01  1.13537E+01  1.09992E+01  1.03306E+01  8.43197E+00
   1.02036E+01  8.68985E+00  7.74376E+00  9.68386E+00  1.13438E+01  1.29290E+01  1.50352E+01  1.16810E+01  5.53262E+00  1.09621E+01
   1.24985E+01  1.39809E+01  1.47579E+01  1.61888E+01  1.41910E+01  1.56456E+01  1.15432E+01  1.63614E+01  1.78041E+01  1.27289E+01
   2.18202E+01  1.38909E+01  1.84627E+01  1.96960E+01  1.61169E+01  1.53501E+01  1.06807E+01  1.99419E+01  1.59964E+01  1.26517E+01
   1.17972E+01  1.48085E+01  1.48056E+01  1.36111E+01  1.53892E+01  1.40852E+01  1.48536E+01  1.53137E+01  1.68880E+01  1.64867E+01
   1.34304E+01  1.60854E+01  1.90317E+01  1.86418E+01  1.80904E+01  2.48901E+01  1.75087E+01  1.99098E+01  2.02961E+01  2.30941E+01
   1.99863E+01  2.22171E+01  1.99590E+01  2.29373E+01  2.38413E+01  2.28624E+01  2.60182E+01  2.88097E+01  2.03389E+01  2.44379E+01
   2.13231E+01  2.29737E+01  2.16236E+01  2.11063E+01  1.74270E+01  2.16382E+01  1.60613E+01  2.17761E+01  1.37965E+01  1.51934E+01
   1.26930E+01  1.31397E+01  1.09435E+01  7.21235E+00  1.01907E+01  3.99665E+00 -5.19401E-01  6.69355E-01  2.32781E+00  8.26217E-01
  -2.00881E-01  3.41558E+00  2.23473E+00  4.73171E-01  1.72155E+00 -2.31107E+00 -2.99162E-01 -8.75769E-02 -3.40609E+00 -5.48573E+00
  -1.45655E+00  5.84703E-01 -2.76774E+00 -1.26063E+00  5.24439E+00 -2.66625E+00  3.29164E+00  2.80284E+00 -9.83760E-01  5.21977E+00
   4.23863E+00  5.36231E+00  6.93672E+00  1.82238E+00  6.34853E+00  5.63956E+00  6.36077E+00  3.79796E+00  5.86560E+00  6.18942E+00
   9.67940E+00  2.68898E+00  1.00458E+01  8.69145E+00  9.02174E+00  1.29076E+01  1.05417E+01  1.55745E+01  1.29086E+01  9.85029E+00
   9.00594E+00  8.39623E+00  1.09743E+01  1.06723E+01  5.16558E+00  5.48966E+00  4.20195E+00  5.38481E+00  4.69857E+00  1.05859E+00
   2.34961E+00  4.33997E+00 -1.98892E+00 -8.83301E-01 -8.30038E-01 -1.70652E+00 -7.66198E-02  3.85601E-01 -7.21259E-01 -4.11775E+00
   1.62016E+00 -8.55930E-01 -4.01389E+00 -1.19807E+00 -4.67408E+00 -2.82848E+00 -4.20010E+00 -6.05605E+00 -3.02920E+00 -2.66978E+00
  -7.12371E+00 -2.33386E+00 -7.83144E+00 -6.09104E+00 -4.47837E+00 -5.70125E+00 -2.99727E+00 -2.76818E+00 -1.05697E+00 -3.70695E+00
  -7.05532E+00 -6.60466E+00  4.36584E-01 -1.64071E+00 -6.35941E+00 -7.94721E+00 -3.79453E+00 -8.13468E-01 -1.83060E+00 -6.25717E+00
  -2.27270E+00 -2.54423E+00 -2.67745E+00 -9.54334E-01 -7.01573E+00 -4.57199E+00 -4.99837E+00 -5.50894E+00 -7.14872E+00 -2.52030E-01
  -1.67099E+00  1.46016E+00 -5.23101E+00 -3.60699E+00  8.01572E-01 -4.36858E+00 -5.48930E+00 -2.48938E+00 -8.89204E+00 -4.89925E+00
  -1.09088E+00 -6.13980E+00 -6.57022E+00 -3.93368E-01 -6.45288E+00 -4.87981E+00 -2.78902E+00 -6.56835E+00 -2.07715E+00 -5.06981E+00
  -1.20581E-01 -4.11678E+00 -4.48260E+00 -1.05600E+00 -6.80408E+00 -4.31150E+00 -1.44784E-03 -5.13409E+00
 NY points of the fit to the data follow
   4.65380E+01  4.63193E+01  4.63645E+01  4.68938E+01  4.87798E+01  5.28741E+01  5.95282E+01  6.79740E+01  7.63094E+01  8.22693E+01
   8.42715E+01  8.21094E+01  7.70200E+01  7.11357E+01  6.62354E+01  6.26198E+01  5.90584E+01  5.47154E+01  5.08228E+01  4.79778E+01
   4.63519E+01  4.52885E+01  4.42929E+01  4.31581E+01  4.22512E+01  4.21583E+01  4.33107E+01  4.55847E+01  4.83617E+01  5.08946E+01
   5.24470E+01  5.24348E+01  5.07250E+01  4.80665E+01  4.54353E+01  4.31901E+01  4.08759E+01  3.88081E+01  3.81054E+01  3.80482E+01
   3.80012E+01  3.81470E+01  3.86853E+01  3.97383E+01  4.09733E+01  4.20166E+01  4.22727E+01  4.14958E+01  4.02296E+01  3.87918E+01
   3.72358E+01  3.59724E+01  3.51711E+01  3.42454E+01  3.29931E+01  3.21467E+01  3.19856E+01  3.19720E+01  3.17102E+01  3.12706E+01
   3.06175E+01  2.97483E+01  2.87472E+01  2.78239E+01  2.71817E+01  2.67780E+01  2.64834E+01  2.62834E+01  2.61628E+01  2.60781E+01
   2.59854E+01  2.58079E+01  2.55268E+01  2.51424E+01  2.46850E+01  2.42390E+01  2.38453E+01  2.34979E+01  2.31301E+01  2.27679E+01
   2.25835E+01  2.27466E+01  2.33079E+01  2.41169E+01  2.48402E+01  2.51118E+01  2.47532E+01  2.38464E+01  2.26714E+01  2.16072E+01
   2.09627E+01  2.07130E+01  2.04822E+01  1.99282E+01  1.92942E+01  1.90896E+01  1.93127E+01  2.09631E+01  2.67893E+01  3.87543E+01
   5.61403E+01  7.49854E+01  8.95691E+01  9.55682E+01  9.19378E+01  8.08621E+01  6.69752E+01  5.54584E+01  4.83284E+01  4.27421E+01
   3.43425E+01  2.46086E+01  1.98825E+01  1.83967E+01  1.77015E+01  1.72629E+01  1.69435E+01  1.67021E+01  1.65547E+01  1.65711E+01
   1.69445E+01  1.85281E+01  2.32630E+01  3.24110E+01  4.52811E+01  5.89009E+01  6.91938E+01  7.32601E+01  7.05464E+01  6.27509E+01
   5.31463E+01  4.51365E+01  3.97385E+01  3.47034E+01  2.71905E+01  1.90925E+01  1.53341E+01  1.45483E+01  1.47929E+01  1.52287E+01
   1.53782E+01  1.52623E+01  1.50616E+01  1.47320E+01  1.43390E+01  1.39624E+01  1.35234E+01  1.29984E+01  1.23880E+01  1.17530E+01
   1.12339E+01  1.07990E+01  1.04551E+01  1.02148E+01  1.00589E+01  9.91859E+00  9.68246E+00  9.27322E+00  8.67047E+00  8.00837E+00
   7.54183E+00  7.42940E+00  7.62246E+00  7.89763E+00  8.00549E+00  7.76219E+00  7.16892E+00  6.46156E+00  5.95654E+00  5.70558E+00
   5.41832E+00  4.90702E+00  4.11125E+00  3.27986E+00  2.76352E+00  2.57037E+00  2.62947E+00  2.80971E+00  2.95351E+00  2.94735E+00
   2.77309E+00  2.51454E+00  2.30484E+00  2.28628E+00  2.47903E+00  2.80779E+00  3.53311E+00  4.91040E+00  6.74176E+00  8.47313E+00
   9.46050E+00  9.56483E+00  9.01653E+00  8.17999E+00  7.48777E+00  7.09504E+00  6.91812E+00  7.11895E+00  7.78052E+00  8.88029E+00
   1.03270E+01  1.18584E+01  1.31044E+01  1.37908E+01  1.35803E+01  1.22600E+01  1.00397E+01  7.51042E+00  5.39505E+00  4.32232E+00
   4.70235E+00  6.52699E+00  9.46643E+00  1.28655E+01  1.56695E+01  1.70305E+01  1.66642E+01  1.46525E+01  1.10364E+01  7.05844E+00
   4.32342E+00  3.33584E+00  3.73517E+00  5.25221E+00  7.98364E+00  1.11142E+01  1.33605E+01  1.44991E+01  1.51019E+01  1.57833E+01
   1.63916E+01  1.66018E+01  1.68320E+01  1.75546E+01  1.84969E+01  1.92941E+01  1.97454E+01  1.97985E+01  1.95310E+01  1.89050E+01
   1.81002E+01  1.77096E+01  1.81080E+01  1.91241E+01  2.02463E+01  2.13314E+01  2.22583E+01  2.27317E+01  2.28553E+01  2.31158E+01
   2.38613E+01  2.46868E+01  2.54650E+01  2.63130E+01  2.77845E+01  3.20068E+01  4.14814E+01  5.65493E+01  7.42461E+01  8.92111E+01
   9.66271E+01  9.46108E+01  8.45190E+01  7.04395E+01  5.77456E+01  4.94801E+01  4.37361E+01  3.58843E+01  2.55303E+01  1.91272E+01
   1.69164E+01  1.58041E+01  1.51609E+01  1.47595E+01  1.43339E+01  1.38686E+01  1.33532E+01  1.28140E+01  1.23093E+01  1.18632E+01
   1.14276E+01  1.10020E+01  1.06394E+01  1.03529E+01  1.01154E+01  9.90972E+00  9.74426E+00  9.63865E+00  9.59397E+00  9.59132E+00
   9.63804E+00  9.74112E+00  9.90104E+00  1.01165E+01  1.03876E+01  1.07140E+01  1.10901E+01  1.15075E+01  1.19619E+01  1.24454E+01
   1.29458E+01  1.34503E+01  1.39441E+01  1.44121E+01  1.48396E+01  1.52141E+01  1.55246E+01  1.57622E+01  1.59210E+01  1.59979E+01
   1.59934E+01  1.59133E+01  1.57672E+01  1.55668E+01  1.53270E+01  1.50653E+01  1.48010E+01  1.45541E+01  1.43448E+01  1.41932E+01
   1.41226E+01  1.41614E+01  1.43157E+01  1.45534E+01  1.48177E+01  1.50548E+01  1.52475E+01  1.54195E+01  1.56143E+01  1.58918E+01
   1.63155E+01  1.69017E+01  1.75991E+01  1.83199E+01  1.90124E+01  1.96700E+01  2.02061E+01  2.05568E+01  2.07742E+01  2.09539E+01
   2.11827E+01  2.15206E+01  2.20137E+01  2.26585E+01  2.33210E+01  2.37119E+01  2.36266E+01  2.30719E+01  2.22130E+01  2.13215E+01
   2.07559E+01  2.07428E+01  2.11642E+01  2.15860E+01  2.15946E+01  2.11702E+01  2.03745E+01  1.88716E+01  1.67938E+01  1.45840E+01
   1.25861E+01  1.08085E+01  8.99972E+00  7.21226E+00  5.82165E+00  4.76995E+00  3.95496E+00  3.31701E+00  2.81247E+00  2.40767E+00
   2.07723E+00  1.80271E+00  1.57127E+00  1.37436E+00  1.20666E+00  1.06530E+00  9.49184E-01  8.58403E-01  7.93801E-01  7.56738E-01
   7.49063E-01  7.73109E-01  8.31598E-01  9.27441E-01  1.06357E+00  1.24290E+00  1.46830E+00  1.74250E+00  2.06783E+00  2.44585E+00
   2.87703E+00  3.36058E+00  3.89427E+00  4.47419E+00  5.09442E+00  5.74678E+00  6.42081E+00  7.10399E+00  7.78205E+00  8.43926E+00
   9.05886E+00  9.62364E+00  1.01167E+01  1.05223E+01  1.08269E+01  1.10194E+01  1.10920E+01  1.10403E+01  1.08639E+01  1.05664E+01
   1.01552E+01  9.64083E+00  9.03674E+00  8.35820E+00  7.62185E+00  6.84495E+00  6.04454E+00  5.23667E+00  4.43580E+00  3.65451E+00
   2.90330E+00  2.19054E+00  1.52230E+00  9.02479E-01  3.32960E-01 -1.85959E-01 -6.55231E-01 -1.07679E+00 -1.45339E+00 -1.78838E+00
  -2.08539E+00 -2.34806E+00 -2.57991E+00 -2.78428E+00 -2.96437E+00 -3.12317E+00 -3.26339E+00 -3.38732E+00 -3.49693E+00 -3.59395E+00
  -3.68001E+00 -3.75652E+00 -3.82467E+00 -3.88538E+00 -3.93944E+00 -3.98757E+00 -4.03049E+00 -4.06882E+00 -4.10301E+00 -4.13340E+00
  -4.16029E+00 -4.18404E+00 -4.20500E+00 -4.22345E+00 -4.23956E+00 -4.25343E+00 -4.26521E+00 -4.27513E+00 -4.28339E+00 -4.29012E+00
  -4.29535E+00 -4.29912E+00 -4.30153E+00 -4.30276E+00 -4.30293E+00 -4.30207E+00 -4.30018E+00 -4.29727E+00 -4.29348E+00 -4.28891E+00
  -4.28363E+00 -4.27761E+00 -4.27084E+00 -4.26335E+00 -4.25527E+00 -4.24669E+00 -4.23760E+00 -4.22797E+00 -4.21779E+00 -4.20714E+00
  -4.19611E+00 -4.18475E+00 -4.17304E+00 -4.16091E+00 -4.14840E+00 -4.13560E+00 -4.12257E+00 -4.10932E+00 -4.09581E+00 -4.08199E+00
  -4.06792E+00 -4.05369E+00 -4.03933E+00 -4.02481E+00 -4.01007E+00 -3.99510E+00 -3.97997E+00 -3.96474E+00
 NY background values follow
     4.516E+01    4.484E+01    4.452E+01    4.419E+01    4.387E+01    4.354E+01    4.322E+01    4.290E+01    4.257E+01    4.225E+01
     4.192E+01    4.159E+01    4.127E+01    4.094E+01    4.062E+01    4.029E+01    3.997E+01    3.965E+01    3.932E+01    3.900E+01
     3.867E+01    3.835E+01    3.803E+01    3.770E+01    3.738E+01    3.706E+01    3.674E+01    3.642E+01    3.610E+01    3.578E+01
     3.546E+01    3.514E+01    3.483E+01    3.451E+01    3.420E+01    3.388E+01    3.357E+01    3.326E+01    3.295E+01    3.264E+01
     3.233E+01    3.202E+01    3.171E+01    3.141E+01    3.110E+01    3.080E+01    3.050E+01    3.020E+01    2.990E+01    2.960E+01
     2.930E+01    2.901E+01    2.872E+01    2.842E+01    2.813E+01    2.784E+01    2.756E+01    2.727E+01    2.699E+01    2.670E+01
     2.642E+01    2.614E+01    2.586E+01    2.558E+01    2.531E+01    2.503E+01    2.476E+01    2.449E+01    2.422E+01    2.395E+01
     2.368E+01    2.342E+01    2.316E+01    2.289E+01    2.263E+01    2.237E+01    2.212E+01    2.186E+01    2.161E+01    2.135E+01
     2.110E+01    2.085E+01    2.061E+01    2.036E+01    2.012E+01    1.987E+01    1.963E+01    1.939E+01    1.916E+01    1.892E+01
     1.869E+01    1.846E+01    1.823E+01    1.800E+01    1.777E+01    1.755E+01    1.732E+01    1.710E+01    1.688E+01    1.666E+01
     1.645E+01    1.623E+01    1.602E+01    1.581E+01    1.560E+01    1.540E+01    1.519E+01    1.499E+01    1.479E+01    1.459E+01
     1.439E+01    1.420E+01    1.400E+01    1.381E+01    1.362E+01    1.344E+01    1.325E+01    1.307E+01    1.289E+01    1.271E+01
     1.253E+01    1.236E+01    1.219E+01    1.202E+01    1.185E+01    1.168E+01    1.152E+01    1.136E+01    1.120E+01    1.104E+01
     1.089E+01    1.073E+01    1.058E+01    1.043E+01    1.029E+01    1.014E+01    1.000E+01    9.863E+00    9.726E+00    9.591E+00
     9.459E+00    9.329E+00    9.201E+00    9.076E+00    8.952E+00    8.832E+00    8.713E+00    8.597E+00    8.483E+00    8.372E+00
     8.263E+00    8.157E+00    8.052E+00    7.951E+00    7.851E+00    7.754E+00    7.660E+00    7.568E+00    7.478E+00    7.391E+00
     7.306E+00    7.223E+00    7.144E+00    7.066E+00    6.991E+00    6.919E+00    6.849E+00    6.781E+00    6.716E+00    6.654E+00
     6.594E+00    6.536E+00    6.481E+00    6.429E+00    6.379E+00    6.332E+00    6.287E+00    6.245E+00    6.205E+00    6.168E+00
     6.134E+00    6.102E+00    6.073E+00    6.046E+00    6.022E+00    6.000E+00    5.980E+00    5.962E+00    5.947E+00    5.933E+00
     5.922E+00    5.912E+00    5.904E+00    5.898E+00    5.893E+00    5.890E+00    5.889E+00    5.888E+00    5.889E+00    5.891E+00
     5.895E+00    5.899E+00    5.904E+00    5.910E+00    5.917E+00    5.925E+00    5.933E+00    5.942E+00    5.951E+00    5.961E+00
     5.971E+00    5.981E+00    5.992E+00    6.002E+00    6.013E+00    6.023E+00    6.033E+00    6.043E+00    6.053E+00    6.062E+00
     6.071E+00    6.079E+00    6.086E+00    6.093E+00    6.099E+00    6.104E+00    6.108E+00    6.111E+00    6.113E+00    6.113E+00
     6.113E+00    6.112E+00    6.109E+00    6.106E+00    6.101E+00    6.096E+00    6.089E+00    6.081E+00    6.073E+00    6.063E+00
     6.052E+00    6.040E+00    6.027E+00    6.013E+00    5.998E+00    5.981E+00    5.964E+00    5.946E+00    5.926E+00    5.906E+00
     5.884E+00    5.861E+00    5.838E+00    5.813E+00    5.787E+00    5.760E+00    5.732E+00    5.703E+00    5.672E+00    5.641E+00
     5.609E+00    5.575E+00    5.541E+00    5.505E+00    5.468E+00    5.430E+00    5.392E+00    5.352E+00    5.311E+00    5.268E+00
     5.225E+00    5.181E+00    5.135E+00    5.089E+00    5.041E+00    4.993E+00    4.943E+00    4.893E+00    4.841E+00    4.788E+00
     4.734E+00    4.680E+00    4.624E+00    4.567E+00    4.510E+00    4.451E+00    4.391E+00    4.331E+00    4.270E+00    4.207E+00
     4.144E+00    4.080E+00    4.015E+00    3.949E+00    3.882E+00    3.815E+00    3.746E+00    3.677E+00    3.607E+00    3.536E+00
     3.464E+00    3.392E+00    3.318E+00    3.244E+00    3.170E+00    3.094E+00    3.018E+00    2.941E+00    2.863E+00    2.784E+00
     2.705E+00    2.625E+00    2.545E+00    2.464E+00    2.382E+00    2.299E+00    2.216E+00    2.132E+00    2.048E+00    1.963E+00
     1.878E+00    1.792E+00    1.705E+00    1.618E+00    1.531E+00    1.443E+00    1.355E+00    1.267E+00    1.178E+00    1.089E+00
     1.000E+00    9.107E-01    8.212E-01    7.316E-01    6.418E-01    5.520E-01    4.622E-01    3.723E-01    2.825E-01    1.927E-01
     1.030E-01    1.344E-02   -7.598E-02   -1.652E-01   -2.542E-01   -3.430E-01   -4.315E-01   -5.197E-01   -6.076E-01   -6.951E-01
    -7.822E-01   -8.688E-01   -9.550E-01   -1.041E+00   -1.126E+00   -1.211E+00   -1.295E+00   -1.378E+00   -1.461E+00   -1.543E+00
    -1.624E+00   -1.705E+00   -1.785E+00   -1.864E+00   -1.942E+00   -2.019E+00   -2.096E+00   -2.172E+00   -2.247E+00   -2.321E+00
    -2.394E+00   -2.466E+00   -2.537E+00   -2.608E+00   -2.677E+00   -2.745E+00   -2.813E+00   -2.879E+00   -2.945E+00   -3.010E+00
    -3.073E+00   -3.136E+00   -3.197E+00   -3.258E+00   -3.317E+00   -3.375E+00   -3.432E+00   -3.488E+00   -3.543E+00   -3.597E+00
    -3.650E+00   -3.701E+00   -3.752E+00   -3.801E+00   -3.849E+00   -3.896E+00   -3.941E+00   -3.985E+00   -4.029E+00   -4.070E+00
    -4.111E+00   -4.150E+00   -4.188E+00   -4.225E+00   -4.260E+00   -4.294E+00   -4.327E+00   -4.358E+00   -4.388E+00   -4.417E+00
    -4.444E+00   -4.470E+00   -4.494E+00   -4.518E+00   -4.540E+00   -4.561E+00   -4.581E+00   -4.599E+00   -4.617E+00   -4.633E+00
    -4.648E+00   -4.662E+00   -4.675E+00   -4.687E+00   -4.698E+00   -4.708E+00   -4.717E+00   -4.725E+00   -4.732E+00   -4.738E+00
    -4.743E+00   -4.747E+00   -4.751E+00   -4.753E+00   -4.755E+00   -4.756E+00   -4.756E+00   -4.755E+00   -4.754E+00   -4.751E+00
    -4.748E+00   -4.745E+00   -4.740E+00   -4.736E+00   -4.730E+00   -4.724E+00   -4.717E+00   -4.710E+00   -4.702E+00   -4.693E+00
    -4.684E+00   -4.675E+00   -4.665E+00   -4.655E+00   -4.644E+00   -4.633E+00   -4.621E+00   -4.609E+00   -4.597E+00   -4.584E+00
    -4.571E+00   -4.557E+00   -4.543E+00   -4.529E+00   -4.515E+00   -4.500E+00   -4.485E+00   -4.470E+00   -4.454E+00   -4.438E+00
    -4.422E+00   -4.406E+00   -4.389E+00   -4.373E+00   -4.356E+00   -4.339E+00   -4.322E+00   -4.304E+00   -4.287E+00   -4.269E+00
    -4.251E+00   -4.233E+00   -4.216E+00   -4.198E+00   -4.179E+00   -4.161E+00   -4.143E+00   -4.125E+00   -4.107E+00   -4.089E+00
    -4.071E+00   -4.053E+00   -4.034E+00   -4.016E+00   -3.998E+00   -3.981E+00   -3.963E+00   -3.945E+00
 Ala      Conc. = 5.62E+01
