 LCModel (Version 6.3-1L) Copyright: S.W. Provencher.          Ref.: Magn. Reson. Med. 30:672-679 (1993).                
 Slice#1 Row#11 Col#2  PD_24_press_1_raw_act
 36 lines in following concentration table = NCONC+1
    Conc.  %SD /Cr+PCr  Metabolite                                         
    0.000 999%   0.000 Ala                                                 
   10.988 100%   0.101 Asp                                                 
   60.398  92%   0.555 Cr                                                  
   48.485 112%   0.445 PCr                                                 
    5.812 114% 5.3E-02 GABA                                                
    6.360 104% 5.8E-02 Glc                                                 
   12.421 623%   0.114 Gln                                                 
   77.577 111%   0.712 Glu                                                 
    5.449 145% 5.0E-02 GPC                                                 
    0.000 999%   0.000 PCh                                                 
    8.616 326% 7.9E-02 GSH                                                 
   73.118 127%   0.672 Ins                                                 
    0.000 999%   0.000 Lac                                                 
   79.544  29%   0.731 NAA                                                 
    0.000 999%   0.000 NAAG                                                
    0.953 230% 8.7E-03 Scyllo                                              
    6.556 168% 6.0E-02 Tau                                                 
    0.000 999%   0.000 -CrCH2                                              
    5.449 145% 5.0E-02 GPC+PCh                                             
   79.544  29%   0.731 NAA+NAAG                                            
  108.883  20%   1.000 Cr+PCr                                              
   89.999 123%   0.827 Glu+Gln                                             
    0.000 999%   0.000 Lip13a                                              
  222.914  22%   2.047 Lip13b                                              
   22.694 166%   0.208 Lip09                                               
    0.000 999%   0.000 MM09                                                
   33.939  82%   0.312 Lip20                                               
    0.000 999%   0.000 MM20                                                
 1.00E-04 999% 9.2E-07 MM12                                                
 7.24E-03 999% 6.6E-05 MM14                                                
 4.16E-04 999% 3.8E-06 MM17                                                
  222.914  22%   2.047 Lip13a+Lip13b                                       
  222.921  22%   2.047 MM14+Lip13a+Lip13b+MM12                             
   22.694 166%   0.208 MM09+Lip09                                          
   33.939  82%   0.312 MM20+Lip20                                          
   6 lines in following misc. output table
  FWHM = 0.046 ppm    S/N =   1                                            
  Data shift =-0.015 ppm                                                   
  Ph: 165 deg     -22.7 deg/ppm                                            
  alphaB,S = 1.5E+00,   2.4E+01                                            
   14 spline knots.   Ns = 5(1)                                            
  ( 4) 2 infls.   ( 3) 1 extrs.                                            
  498 points on ppm-axis = NY
      4.000000     3.992357     3.984714     3.977070     3.969427     3.961784     3.954141     3.946497     3.938854     3.931211
      3.923568     3.915925     3.908281     3.900638     3.892995     3.885352     3.877708     3.870065     3.862422     3.854779
      3.847136     3.839492     3.831849     3.824206     3.816563     3.808919     3.801276     3.793633     3.785990     3.778347
      3.770703     3.763060     3.755417     3.747774     3.740130     3.732487     3.724844     3.717201     3.709558     3.701914
      3.694271     3.686628     3.678985     3.671341     3.663698     3.656055     3.648412     3.640769     3.633125     3.625482
      3.617839     3.610196     3.602552     3.594909     3.587266     3.579623     3.571980     3.564336     3.556693     3.549050
      3.541407     3.533763     3.526120     3.518477     3.510834     3.503191     3.495547     3.487904     3.480261     3.472618
      3.464974     3.457331     3.449688     3.442045     3.434402     3.426758     3.419115     3.411472     3.403829     3.396185
      3.388542     3.380899     3.373256     3.365613     3.357969     3.350326     3.342683     3.335040     3.327396     3.319753
      3.312110     3.304467     3.296824     3.289180     3.281537     3.273894     3.266251     3.258607     3.250964     3.243321
      3.235678     3.228034     3.220391     3.212748     3.205105     3.197462     3.189818     3.182175     3.174532     3.166889
      3.159245     3.151602     3.143959     3.136316     3.128673     3.121029     3.113386     3.105743     3.098100     3.090456
      3.082813     3.075170     3.067527     3.059884     3.052240     3.044597     3.036954     3.029311     3.021667     3.014024
      3.006381     2.998738     2.991095     2.983451     2.975808     2.968165     2.960522     2.952878     2.945235     2.937592
      2.929949     2.922306     2.914662     2.907019     2.899376     2.891733     2.884089     2.876446     2.868803     2.861160
      2.853517     2.845873     2.838230     2.830587     2.822944     2.815300     2.807657     2.800014     2.792371     2.784728
      2.777084     2.769441     2.761798     2.754155     2.746511     2.738868     2.731225     2.723582     2.715939     2.708295
      2.700652     2.693009     2.685366     2.677722     2.670079     2.662436     2.654793     2.647150     2.639506     2.631863
      2.624220     2.616577     2.608933     2.601290     2.593647     2.586004     2.578361     2.570717     2.563074     2.555431
      2.547788     2.540144     2.532501     2.524858     2.517215     2.509572     2.501928     2.494285     2.486642     2.478999
      2.471355     2.463712     2.456069     2.448426     2.440783     2.433139     2.425496     2.417853     2.410210     2.402566
      2.394923     2.387280     2.379637     2.371994     2.364350     2.356707     2.349064     2.341421     2.333777     2.326134
      2.318491     2.310848     2.303205     2.295561     2.287918     2.280275     2.272632     2.264988     2.257345     2.249702
      2.242059     2.234416     2.226772     2.219129     2.211486     2.203843     2.196199     2.188556     2.180913     2.173270
      2.165627     2.157983     2.150340     2.142697     2.135054     2.127410     2.119767     2.112124     2.104481     2.096838
      2.089194     2.081551     2.073908     2.066265     2.058621     2.050978     2.043335     2.035692     2.028049     2.020405
      2.012762     2.005119     1.997476     1.989833     1.982190     1.974546     1.966903     1.959260     1.951617     1.943974
      1.936331     1.928688     1.921045     1.913402     1.905759     1.898115     1.890472     1.882829     1.875186     1.867543
      1.859900     1.852257     1.844614     1.836971     1.829327     1.821684     1.814041     1.806398     1.798755     1.791112
      1.783469     1.775826     1.768183     1.760540     1.752896     1.745253     1.737610     1.729967     1.722324     1.714681
      1.707038     1.699395     1.691752     1.684108     1.676465     1.668822     1.661179     1.653536     1.645893     1.638250
      1.630607     1.622964     1.615321     1.607677     1.600034     1.592391     1.584748     1.577105     1.569462     1.561819
      1.554176     1.546533     1.538890     1.531246     1.523603     1.515960     1.508317     1.500674     1.493031     1.485388
      1.477745     1.470102     1.462458     1.454815     1.447172     1.439529     1.431886     1.424243     1.416600     1.408957
      1.401314     1.393671     1.386027     1.378384     1.370741     1.363098     1.355455     1.347812     1.340169     1.332526
      1.324883     1.317240     1.309596     1.301953     1.294310     1.286667     1.279024     1.271381     1.263738     1.256095
      1.248452     1.240808     1.233165     1.225522     1.217879     1.210236     1.202593     1.194950     1.187307     1.179664
      1.172021     1.164377     1.156734     1.149091     1.141448     1.133805     1.126162     1.118519     1.110876     1.103233
      1.095590     1.087946     1.080303     1.072660     1.065017     1.057374     1.049731     1.042088     1.034445     1.026802
      1.019158     1.011515     1.003872     0.996229     0.988586     0.980943     0.973300     0.965657     0.958014     0.950371
      0.942727     0.935084     0.927441     0.919798     0.912155     0.904512     0.896869     0.889226     0.881583     0.873940
      0.866296     0.858653     0.851010     0.843367     0.835724     0.828081     0.820438     0.812795     0.805152     0.797508
      0.789865     0.782222     0.774579     0.766936     0.759293     0.751650     0.744007     0.736364     0.728721     0.721077
      0.713434     0.705791     0.698148     0.690505     0.682862     0.675219     0.667576     0.659933     0.652290     0.644646
      0.637003     0.629360     0.621717     0.614074     0.606431     0.598788     0.591145     0.583502     0.575858     0.568215
      0.560572     0.552929     0.545286     0.537643     0.530000     0.522357     0.514714     0.507071     0.499427     0.491784
      0.484141     0.476498     0.468855     0.461212     0.453569     0.445925     0.438282     0.430639     0.422996     0.415353
      0.407710     0.400067     0.392424     0.384780     0.377137     0.369494     0.361851     0.354208     0.346565     0.338922
      0.331278     0.323635     0.315992     0.308349     0.300706     0.293063     0.285420     0.277777     0.270133     0.262490
      0.254847     0.247204     0.239561     0.231918     0.224275     0.216631     0.208988     0.201345
 NY phased data points follow
   1.83243E+01  1.53335E+01  1.48905E+01  1.92880E+01  1.60294E+01  1.42676E+01  1.62640E+01  1.61929E+01  1.44925E+01  1.91717E+01
   1.50515E+01  1.46191E+01  1.53468E+01  1.54408E+01  1.57595E+01  1.44879E+01  1.54657E+01  1.21009E+01  8.63789E+00  9.36460E+00
   1.11202E+01  1.00511E+01  9.91109E+00  9.72561E+00  7.40816E+00  8.00903E+00  1.03489E+01  5.65541E+00  7.96642E+00  8.22543E+00
   6.15722E+00  8.12220E+00  7.07618E+00  5.42628E+00  8.76529E+00  7.08866E+00  4.42932E+00  4.66715E+00  8.34497E+00  1.83603E+00
   3.97158E+00  6.09259E+00  4.08072E+00  6.16158E+00  6.78247E+00  2.06969E+00  5.11013E+00  9.04542E+00  3.38658E+00  4.61971E+00
   2.24902E+00  2.45456E+00  3.02999E+00  3.22321E+00  4.63777E+00  3.00923E+00  7.00940E+00  2.20054E+00  1.36888E+00  3.99825E+00
   5.27722E+00  2.58115E+00  3.30149E+00 -8.26690E-01 -1.42495E+00  1.19593E+00  9.80985E-01  4.45484E-01 -2.17506E+00 -2.89808E+00
   1.58528E-01 -4.23120E-01  2.92639E+00  5.29938E-02 -1.78561E-01  3.40200E-01  2.48539E+00  2.26679E+00 -1.05653E+00 -5.16640E-02
   2.43349E-01  1.85114E+00 -2.05382E+00  3.27385E-02 -2.21895E-01 -3.10617E+00 -2.45004E+00 -5.34121E+00 -3.04158E+00 -3.98492E+00
  -5.54936E+00 -4.26849E+00 -9.14757E-02  6.90385E-01 -2.99375E+00 -1.82418E+00 -4.52674E+00 -3.50899E+00 -5.91094E+00 -3.50834E+00
  -4.95037E+00 -2.23752E+00 -3.76896E+00 -2.57624E+00 -4.00603E+00 -3.95194E+00 -3.19069E+00 -3.46264E+00 -5.86302E+00 -4.53776E+00
  -6.60003E+00 -6.63190E+00 -7.19856E+00 -7.13251E+00 -3.64346E+00 -5.59905E+00 -5.69693E+00 -7.87150E+00 -6.53962E+00 -4.60550E+00
  -5.13760E+00 -7.97506E+00 -6.87649E+00 -5.07695E+00 -8.66496E+00 -7.19184E+00 -6.49893E+00 -5.70319E+00 -1.51148E+00 -4.43336E+00
  -3.25881E+00 -6.37817E+00 -3.41452E+00 -5.03443E+00 -6.86862E+00 -6.12538E+00 -7.84566E+00 -9.93672E+00 -6.58910E+00 -7.59589E+00
  -7.00218E+00 -7.22771E+00 -7.03652E+00 -3.27324E+00 -7.58256E+00 -5.53509E+00 -9.48120E+00 -8.59687E+00 -6.18190E+00 -5.96219E+00
  -7.16946E+00 -8.90847E+00 -6.59059E+00 -1.16345E+01 -1.14515E+01 -1.10125E+01 -5.55482E+00 -9.25187E+00 -8.99950E+00 -1.03507E+01
  -9.58589E+00 -8.29845E+00 -7.60629E+00 -1.27810E+01 -9.87417E+00 -1.02476E+01 -6.38438E+00 -9.61787E+00 -1.16894E+01 -9.61617E+00
  -8.85716E+00 -1.00316E+01 -1.06282E+01 -1.00978E+01 -7.96063E+00 -1.04218E+01 -1.16495E+01 -8.17359E+00 -1.10621E+01 -9.73783E+00
  -1.18781E+01 -1.21257E+01 -1.17816E+01 -9.52646E+00 -9.09236E+00 -1.04677E+01 -8.45202E+00 -9.63899E+00 -1.06002E+01 -1.02867E+01
  -1.04461E+01 -8.43830E+00 -8.08258E+00 -9.98730E+00 -1.07290E+01 -9.20725E+00 -1.23055E+01 -9.74021E+00 -1.29373E+01 -9.48223E+00
  -8.82505E+00 -9.19842E+00 -1.01577E+01 -1.12715E+01 -9.79700E+00 -1.07646E+01 -8.43866E+00 -8.01398E+00 -8.29362E+00 -9.60918E+00
  -1.11757E+01 -1.31792E+01 -1.06174E+01 -7.32357E+00 -1.13411E+01 -9.49511E+00 -1.17210E+01 -1.26797E+01 -1.12978E+01 -1.00060E+01
  -1.15770E+01 -1.01214E+01 -1.41537E+01 -9.73718E+00 -1.10349E+01 -1.13517E+01 -1.13044E+01 -1.23653E+01 -1.03500E+01 -1.06746E+01
  -1.05785E+01 -6.91585E+00 -1.06755E+01 -9.68900E+00 -9.55839E+00 -1.03986E+01 -1.14436E+01 -9.17027E+00 -1.06550E+01 -8.08982E+00
  -1.01147E+01 -9.80777E+00 -1.13655E+01 -1.37525E+01 -1.38526E+01 -1.02621E+01 -1.34092E+01 -1.03356E+01 -9.53983E+00 -1.28014E+01
  -1.38360E+01 -9.16811E+00 -9.64447E+00 -8.65708E+00 -1.09325E+01 -1.22925E+01 -1.42813E+01 -1.11216E+01 -1.39042E+01 -8.75750E+00
  -9.88635E+00 -4.81026E+00 -9.72268E+00 -9.28006E+00 -8.69987E+00 -9.31790E+00 -1.09755E+01 -1.30957E+01 -1.03703E+01 -1.13760E+01
  -1.33453E+01 -1.20744E+01 -1.14133E+01 -8.78846E+00 -1.23243E+01 -1.49427E+01 -1.15171E+01 -1.26285E+01 -8.96918E+00 -1.20911E+01
  -1.28644E+01 -1.01289E+01 -1.23498E+01 -1.33495E+01 -1.15416E+01 -1.04160E+01 -1.13681E+01 -1.04453E+01 -1.48703E+01 -1.07441E+01
  -1.03229E+01 -1.28267E+01 -1.22004E+01 -8.33899E+00 -1.14868E+01 -1.18174E+01 -1.09546E+01 -1.09958E+01 -1.13281E+01 -1.17484E+01
  -1.24464E+01 -9.45762E+00 -1.12455E+01 -1.30606E+01 -1.07066E+01 -1.06378E+01 -1.40560E+01 -1.25168E+01 -1.27313E+01 -1.28854E+01
  -1.30723E+01 -9.70126E+00 -1.28733E+01 -1.02714E+01 -1.14605E+01 -1.14326E+01 -1.04352E+01 -1.20007E+01 -1.28444E+01 -9.77913E+00
  -1.32642E+01 -9.57489E+00 -1.17931E+01 -1.08521E+01 -1.01928E+01 -8.49206E+00 -1.07278E+01 -9.23146E+00 -1.22353E+01 -1.11263E+01
  -8.71285E+00 -1.10763E+01 -1.00569E+01 -1.00036E+01 -1.06521E+01 -7.69203E+00 -1.34122E+01 -1.21941E+01 -8.28621E+00 -1.05723E+01
  -1.33711E+01 -1.04651E+01 -1.30528E+01 -1.41837E+01 -1.15625E+01 -1.13987E+01 -1.07431E+01 -1.09013E+01 -9.72131E+00 -9.06986E+00
  -9.99860E+00 -9.45272E+00 -7.78894E+00 -3.97189E+00 -8.60202E+00 -8.68111E+00 -8.95702E+00 -8.24381E+00 -9.02291E+00 -8.59058E+00
  -9.16919E+00 -9.08555E+00 -1.25691E+01 -7.83049E+00 -1.19555E+01 -1.32555E+01 -9.94072E+00 -1.10896E+01 -9.82679E+00 -9.01243E+00
  -1.06698E+01 -8.46777E+00 -1.06544E+01 -1.25984E+01 -1.02545E+01 -1.17630E+01 -1.13860E+01 -1.00807E+01 -1.03964E+01 -8.90545E+00
  -1.07462E+01 -1.09376E+01 -1.34629E+01 -1.07535E+01 -8.52115E+00 -1.40541E+01 -1.37137E+01 -1.14060E+01 -1.08128E+01 -9.72180E+00
  -1.03070E+01 -8.73427E+00 -9.17177E+00 -1.20939E+01 -1.29078E+01 -1.18250E+01 -9.95684E+00 -7.33521E+00 -1.08097E+01 -1.10691E+01
  -1.14719E+01 -9.14086E+00 -1.09216E+01 -1.29063E+01 -1.12315E+01 -1.05763E+01 -1.17601E+01 -1.32416E+01 -1.12717E+01 -1.01970E+01
  -1.16112E+01 -1.19739E+01 -6.86847E+00 -1.05168E+01 -9.40377E+00 -8.95118E+00 -1.26827E+01 -1.13082E+01 -1.11967E+01 -1.05199E+01
  -1.07614E+01 -1.34333E+01 -1.07897E+01 -1.10180E+01 -1.09056E+01 -1.02391E+01 -1.11237E+01 -9.52318E+00 -8.74691E+00 -1.00214E+01
  -1.00534E+01 -9.17623E+00 -8.44594E+00 -8.96768E+00 -1.08487E+01 -1.03444E+01 -1.04167E+01 -1.21039E+01 -1.01747E+01 -8.43533E+00
  -1.06328E+01 -9.49803E+00 -1.14952E+01 -9.05323E+00 -1.08891E+01 -1.10823E+01 -1.07684E+01 -8.39164E+00 -9.36032E+00 -9.03270E+00
  -1.27911E+01 -9.83377E+00 -1.08142E+01 -6.73439E+00 -7.72341E+00 -7.00275E+00 -9.60913E+00 -6.50456E+00 -5.24556E+00 -9.64436E+00
  -5.33114E+00 -1.04679E+01 -8.95314E+00 -9.19470E+00 -9.43568E+00 -1.05806E+01 -7.26651E+00 -9.01156E+00 -1.01222E+01 -9.56685E+00
  -9.78995E+00 -6.83981E+00 -9.55781E+00 -7.70485E+00 -9.85829E+00 -6.16014E+00 -6.71341E+00 -8.25809E+00 -6.84353E+00 -9.50606E+00
  -9.19492E+00 -7.10598E+00 -6.74656E+00 -7.74707E+00 -9.09880E+00 -8.02611E+00 -4.83896E+00 -5.50743E+00 -8.48723E+00 -7.15470E+00
  -7.33089E+00 -9.22463E+00 -7.33522E+00 -6.39804E+00 -9.36781E+00 -7.40424E+00 -1.79793E+00 -6.46972E+00
 NY points of the fit to the data follow
   1.36824E+01  1.34404E+01  1.32154E+01  1.30191E+01  1.28414E+01  1.26987E+01  1.26380E+01  1.27045E+01  1.29297E+01  1.32838E+01
   1.36577E+01  1.39122E+01  1.39259E+01  1.36223E+01  1.30259E+01  1.22648E+01  1.15147E+01  1.08352E+01  1.02851E+01  9.96734E+00
   9.75043E+00  9.55949E+00  9.38334E+00  9.21961E+00  9.05753E+00  8.87891E+00  8.67462E+00  8.45568E+00  8.25463E+00  8.09989E+00
   7.99232E+00  7.91189E+00  7.83980E+00  7.75089E+00  7.59953E+00  7.35341E+00  7.04378E+00  6.72351E+00  6.41389E+00  6.14027E+00
   5.92337E+00  5.75566E+00  5.61124E+00  5.48445E+00  5.39676E+00  5.35674E+00  5.34584E+00  5.32756E+00  5.24012E+00  5.05181E+00
   4.77494E+00  4.43466E+00  4.06019E+00  3.70467E+00  3.43253E+00  3.25419E+00  3.12811E+00  3.02329E+00  2.93371E+00  2.85042E+00
   2.75170E+00  2.61763E+00  2.44268E+00  2.23423E+00  2.00142E+00  1.76399E+00  1.55267E+00  1.37906E+00  1.24028E+00  1.12552E+00
   1.01808E+00  9.06612E-01  7.81797E-01  6.41317E-01  4.91566E-01  3.34295E-01  1.69534E-01 -8.61496E-03 -1.91024E-01 -3.65279E-01
  -5.34801E-01 -7.00694E-01 -8.57277E-01 -1.00384E+00 -1.15216E+00 -1.31470E+00 -1.49790E+00 -1.69802E+00 -1.89831E+00 -2.07878E+00
  -2.22954E+00 -2.35036E+00 -2.44322E+00 -2.51685E+00 -2.59394E+00 -2.69203E+00 -2.81396E+00 -2.95474E+00 -3.10244E+00 -3.22730E+00
  -3.29863E+00 -3.30743E+00 -3.27993E+00 -3.26761E+00 -3.32422E+00 -3.45798E+00 -3.65010E+00 -3.89215E+00 -4.16477E+00 -4.40663E+00
  -4.56407E+00 -4.68439E+00 -4.79614E+00 -4.90399E+00 -5.01049E+00 -5.11485E+00 -5.21865E+00 -5.32249E+00 -5.42553E+00 -5.52589E+00
  -5.62078E+00 -5.70708E+00 -5.77975E+00 -5.76791E+00 -5.50121E+00 -4.84487E+00 -3.85562E+00 -2.83134E+00 -2.17076E+00 -2.09496E+00
  -2.54502E+00 -3.39223E+00 -4.54596E+00 -5.76899E+00 -6.59293E+00 -6.91840E+00 -7.09182E+00 -7.22730E+00 -7.33802E+00 -7.42606E+00
  -7.49291E+00 -7.54588E+00 -7.59780E+00 -7.65399E+00 -7.71726E+00 -7.78946E+00 -7.86716E+00 -7.94642E+00 -8.02517E+00 -8.10221E+00
  -8.17945E+00 -8.25582E+00 -8.32923E+00 -8.39751E+00 -8.46228E+00 -8.52514E+00 -8.58598E+00 -8.64842E+00 -8.71814E+00 -8.79815E+00
  -8.88531E+00 -8.96897E+00 -9.03720E+00 -9.08578E+00 -9.12033E+00 -9.15006E+00 -9.18292E+00 -9.22626E+00 -9.28703E+00 -9.36039E+00
  -9.43710E+00 -9.50863E+00 -9.56959E+00 -9.63153E+00 -9.69982E+00 -9.76856E+00 -9.82830E+00 -9.87309E+00 -9.90749E+00 -9.94202E+00
  -9.98026E+00 -1.00168E+01 -1.00493E+01 -1.00877E+01 -1.01352E+01 -1.01786E+01 -1.02106E+01 -1.02273E+01 -1.02322E+01 -1.02275E+01
  -1.02168E+01 -1.02073E+01 -1.02068E+01 -1.02249E+01 -1.02666E+01 -1.03201E+01 -1.03732E+01 -1.04238E+01 -1.04675E+01 -1.04998E+01
  -1.05185E+01 -1.05211E+01 -1.05050E+01 -1.04750E+01 -1.04467E+01 -1.04468E+01 -1.04884E+01 -1.05736E+01 -1.06958E+01 -1.08389E+01
  -1.09722E+01 -1.10565E+01 -1.10630E+01 -1.09801E+01 -1.08264E+01 -1.06452E+01 -1.05110E+01 -1.04902E+01 -1.05865E+01 -1.07878E+01
  -1.10779E+01 -1.13886E+01 -1.16127E+01 -1.16670E+01 -1.15868E+01 -1.14302E+01 -1.12394E+01 -1.10512E+01 -1.09180E+01 -1.08904E+01
  -1.09504E+01 -1.10320E+01 -1.10977E+01 -1.11444E+01 -1.11670E+01 -1.11662E+01 -1.11475E+01 -1.11271E+01 -1.11286E+01 -1.11613E+01
  -1.12160E+01 -1.12799E+01 -1.13404E+01 -1.13848E+01 -1.13958E+01 -1.13722E+01 -1.13335E+01 -1.13019E+01 -1.12871E+01 -1.12987E+01
  -1.13392E+01 -1.13777E+01 -1.13919E+01 -1.13820E+01 -1.13576E+01 -1.13240E+01 -1.12469E+01 -1.10100E+01 -1.05007E+01 -9.73317E+00
  -8.90750E+00 -8.32597E+00 -8.16839E+00 -8.39957E+00 -8.93523E+00 -9.72852E+00 -1.06049E+01 -1.11895E+01 -1.13832E+01 -1.14661E+01
  -1.15193E+01 -1.15493E+01 -1.15643E+01 -1.15671E+01 -1.15571E+01 -1.15412E+01 -1.15264E+01 -1.15185E+01 -1.15215E+01 -1.15360E+01
  -1.15561E+01 -1.15753E+01 -1.15914E+01 -1.16031E+01 -1.16092E+01 -1.16106E+01 -1.16090E+01 -1.16065E+01 -1.16048E+01 -1.16035E+01
  -1.16030E+01 -1.16036E+01 -1.16048E+01 -1.16057E+01 -1.16062E+01 -1.16067E+01 -1.16068E+01 -1.16061E+01 -1.16050E+01 -1.16034E+01
  -1.16014E+01 -1.15991E+01 -1.15966E+01 -1.15938E+01 -1.15908E+01 -1.15878E+01 -1.15846E+01 -1.15813E+01 -1.15780E+01 -1.15745E+01
  -1.15709E+01 -1.15670E+01 -1.15631E+01 -1.15589E+01 -1.15546E+01 -1.15502E+01 -1.15456E+01 -1.15410E+01 -1.15362E+01 -1.15312E+01
  -1.15262E+01 -1.15210E+01 -1.15157E+01 -1.15103E+01 -1.15047E+01 -1.14990E+01 -1.14932E+01 -1.14872E+01 -1.14811E+01 -1.14749E+01
  -1.14685E+01 -1.14620E+01 -1.14553E+01 -1.14485E+01 -1.14413E+01 -1.14338E+01 -1.14256E+01 -1.14162E+01 -1.14048E+01 -1.13897E+01
  -1.13684E+01 -1.13370E+01 -1.12900E+01 -1.12200E+01 -1.11181E+01 -1.09747E+01 -1.07806E+01 -1.05297E+01 -1.02213E+01 -9.86247E+00
  -9.46978E+00 -9.06913E+00 -8.69355E+00 -8.37896E+00 -8.15848E+00 -8.05654E+00 -8.08423E+00 -8.23713E+00 -8.49616E+00 -8.83128E+00
  -9.20699E+00 -9.58829E+00 -9.94568E+00 -1.02583E+01 -1.05151E+01 -1.07135E+01 -1.08577E+01 -1.09559E+01 -1.10178E+01 -1.10528E+01
  -1.10690E+01 -1.10729E+01 -1.10689E+01 -1.10603E+01 -1.10488E+01 -1.10357E+01 -1.10215E+01 -1.10067E+01 -1.09914E+01 -1.09756E+01
  -1.09593E+01 -1.09426E+01 -1.09254E+01 -1.09077E+01 -1.08894E+01 -1.08705E+01 -1.08510E+01 -1.08309E+01 -1.08101E+01 -1.07887E+01
  -1.07665E+01 -1.07437E+01 -1.07203E+01 -1.06962E+01 -1.06716E+01 -1.06465E+01 -1.06209E+01 -1.05951E+01 -1.05690E+01 -1.05429E+01
  -1.05169E+01 -1.04910E+01 -1.04655E+01 -1.04405E+01 -1.04160E+01 -1.03922E+01 -1.03690E+01 -1.03466E+01 -1.03250E+01 -1.03041E+01
  -1.02839E+01 -1.02643E+01 -1.02452E+01 -1.02264E+01 -1.02080E+01 -1.01897E+01 -1.01713E+01 -1.01529E+01 -1.01341E+01 -1.01150E+01
  -1.00954E+01 -1.00753E+01 -1.00546E+01 -1.00332E+01 -1.00111E+01 -9.98832E+00 -9.96484E+00 -9.94065E+00 -9.91579E+00 -9.89027E+00
  -9.86411E+00 -9.83735E+00 -9.81001E+00 -9.78213E+00 -9.75374E+00 -9.72485E+00 -9.69550E+00 -9.66572E+00 -9.63552E+00 -9.60494E+00
  -9.57397E+00 -9.54265E+00 -9.51099E+00 -9.47899E+00 -9.44669E+00 -9.41407E+00 -9.38117E+00 -9.34798E+00 -9.31451E+00 -9.28078E+00
  -9.24679E+00 -9.21254E+00 -9.17805E+00 -9.14332E+00 -9.10835E+00 -9.07316E+00 -9.03776E+00 -9.00215E+00 -8.96633E+00 -8.93031E+00
  -8.89411E+00 -8.85772E+00 -8.82117E+00 -8.78444E+00 -8.74754E+00 -8.71049E+00 -8.67329E+00 -8.63594E+00 -8.59846E+00 -8.56084E+00
  -8.52310E+00 -8.48523E+00 -8.44725E+00 -8.40916E+00 -8.37097E+00 -8.33267E+00 -8.29428E+00 -8.25581E+00 -8.21726E+00 -8.17863E+00
  -8.13993E+00 -8.10117E+00 -8.06234E+00 -8.02347E+00 -7.98455E+00 -7.94558E+00 -7.90658E+00 -7.86755E+00 -7.82849E+00 -7.78941E+00
  -7.75032E+00 -7.71121E+00 -7.67211E+00 -7.63300E+00 -7.59390E+00 -7.55482E+00 -7.51575E+00 -7.47670E+00
 NY background values follow
     1.342E+01    1.323E+01    1.304E+01    1.285E+01    1.266E+01    1.247E+01    1.228E+01    1.209E+01    1.189E+01    1.170E+01
     1.151E+01    1.132E+01    1.113E+01    1.094E+01    1.075E+01    1.056E+01    1.037E+01    1.018E+01    9.989E+00    9.800E+00
     9.610E+00    9.421E+00    9.233E+00    9.044E+00    8.856E+00    8.668E+00    8.481E+00    8.294E+00    8.107E+00    7.920E+00
     7.735E+00    7.549E+00    7.364E+00    7.179E+00    6.995E+00    6.812E+00    6.629E+00    6.446E+00    6.264E+00    6.082E+00
     5.902E+00    5.721E+00    5.542E+00    5.363E+00    5.184E+00    5.006E+00    4.829E+00    4.653E+00    4.477E+00    4.302E+00
     4.128E+00    3.955E+00    3.782E+00    3.610E+00    3.439E+00    3.268E+00    3.099E+00    2.930E+00    2.762E+00    2.595E+00
     2.428E+00    2.263E+00    2.098E+00    1.934E+00    1.771E+00    1.609E+00    1.448E+00    1.287E+00    1.128E+00    9.694E-01
     8.119E-01    6.553E-01    4.996E-01    3.449E-01    1.912E-01    3.841E-02   -1.133E-01   -2.641E-01   -4.138E-01   -5.625E-01
    -7.102E-01   -8.568E-01   -1.002E+00   -1.147E+00   -1.290E+00   -1.433E+00   -1.574E+00   -1.714E+00   -1.853E+00   -1.991E+00
    -2.128E+00   -2.263E+00   -2.398E+00   -2.531E+00   -2.663E+00   -2.794E+00   -2.924E+00   -3.053E+00   -3.180E+00   -3.306E+00
    -3.432E+00   -3.556E+00   -3.679E+00   -3.800E+00   -3.921E+00   -4.040E+00   -4.159E+00   -4.276E+00   -4.392E+00   -4.507E+00
    -4.620E+00   -4.733E+00   -4.844E+00   -4.955E+00   -5.064E+00   -5.172E+00   -5.279E+00   -5.384E+00   -5.489E+00   -5.592E+00
    -5.694E+00   -5.795E+00   -5.895E+00   -5.994E+00   -6.092E+00   -6.188E+00   -6.283E+00   -6.377E+00   -6.470E+00   -6.562E+00
    -6.653E+00   -6.743E+00   -6.831E+00   -6.918E+00   -7.004E+00   -7.089E+00   -7.173E+00   -7.256E+00   -7.338E+00   -7.418E+00
    -7.497E+00   -7.576E+00   -7.653E+00   -7.729E+00   -7.804E+00   -7.878E+00   -7.950E+00   -8.022E+00   -8.093E+00   -8.163E+00
    -8.231E+00   -8.299E+00   -8.366E+00   -8.431E+00   -8.496E+00   -8.560E+00   -8.623E+00   -8.684E+00   -8.745E+00   -8.805E+00
    -8.864E+00   -8.922E+00   -8.979E+00   -9.036E+00   -9.091E+00   -9.145E+00   -9.199E+00   -9.252E+00   -9.304E+00   -9.355E+00
    -9.405E+00   -9.454E+00   -9.503E+00   -9.551E+00   -9.598E+00   -9.644E+00   -9.689E+00   -9.734E+00   -9.778E+00   -9.821E+00
    -9.863E+00   -9.905E+00   -9.946E+00   -9.986E+00   -1.003E+01   -1.006E+01   -1.010E+01   -1.014E+01   -1.018E+01   -1.021E+01
    -1.025E+01   -1.028E+01   -1.032E+01   -1.035E+01   -1.038E+01   -1.042E+01   -1.045E+01   -1.048E+01   -1.051E+01   -1.054E+01
    -1.057E+01   -1.060E+01   -1.062E+01   -1.065E+01   -1.068E+01   -1.071E+01   -1.073E+01   -1.076E+01   -1.078E+01   -1.081E+01
    -1.083E+01   -1.086E+01   -1.088E+01   -1.090E+01   -1.092E+01   -1.095E+01   -1.097E+01   -1.099E+01   -1.101E+01   -1.103E+01
    -1.105E+01   -1.107E+01   -1.109E+01   -1.111E+01   -1.112E+01   -1.114E+01   -1.116E+01   -1.118E+01   -1.119E+01   -1.121E+01
    -1.123E+01   -1.124E+01   -1.126E+01   -1.127E+01   -1.129E+01   -1.130E+01   -1.132E+01   -1.133E+01   -1.135E+01   -1.136E+01
    -1.137E+01   -1.139E+01   -1.140E+01   -1.141E+01   -1.142E+01   -1.143E+01   -1.144E+01   -1.146E+01   -1.147E+01   -1.148E+01
    -1.149E+01   -1.150E+01   -1.151E+01   -1.151E+01   -1.152E+01   -1.153E+01   -1.154E+01   -1.155E+01   -1.156E+01   -1.156E+01
    -1.157E+01   -1.158E+01   -1.158E+01   -1.159E+01   -1.160E+01   -1.160E+01   -1.161E+01   -1.161E+01   -1.162E+01   -1.162E+01
    -1.162E+01   -1.163E+01   -1.163E+01   -1.163E+01   -1.164E+01   -1.164E+01   -1.164E+01   -1.165E+01   -1.165E+01   -1.165E+01
    -1.165E+01   -1.165E+01   -1.165E+01   -1.165E+01   -1.165E+01   -1.165E+01   -1.165E+01   -1.165E+01   -1.165E+01   -1.165E+01
    -1.165E+01   -1.165E+01   -1.165E+01   -1.165E+01   -1.165E+01   -1.165E+01   -1.164E+01   -1.164E+01   -1.164E+01   -1.164E+01
    -1.163E+01   -1.163E+01   -1.163E+01   -1.163E+01   -1.162E+01   -1.162E+01   -1.162E+01   -1.161E+01   -1.161E+01   -1.160E+01
    -1.160E+01   -1.160E+01   -1.159E+01   -1.159E+01   -1.158E+01   -1.158E+01   -1.157E+01   -1.157E+01   -1.156E+01   -1.156E+01
    -1.155E+01   -1.155E+01   -1.154E+01   -1.154E+01   -1.153E+01   -1.152E+01   -1.152E+01   -1.151E+01   -1.151E+01   -1.150E+01
    -1.149E+01   -1.149E+01   -1.148E+01   -1.147E+01   -1.147E+01   -1.146E+01   -1.145E+01   -1.144E+01   -1.144E+01   -1.143E+01
    -1.142E+01   -1.141E+01   -1.141E+01   -1.140E+01   -1.139E+01   -1.138E+01   -1.137E+01   -1.136E+01   -1.136E+01   -1.135E+01
    -1.134E+01   -1.133E+01   -1.132E+01   -1.131E+01   -1.130E+01   -1.129E+01   -1.128E+01   -1.127E+01   -1.126E+01   -1.125E+01
    -1.124E+01   -1.123E+01   -1.122E+01   -1.121E+01   -1.120E+01   -1.119E+01   -1.117E+01   -1.116E+01   -1.115E+01   -1.114E+01
    -1.113E+01   -1.111E+01   -1.110E+01   -1.109E+01   -1.108E+01   -1.106E+01   -1.105E+01   -1.104E+01   -1.102E+01   -1.101E+01
    -1.100E+01   -1.098E+01   -1.097E+01   -1.095E+01   -1.094E+01   -1.092E+01   -1.090E+01   -1.089E+01   -1.087E+01   -1.086E+01
    -1.084E+01   -1.082E+01   -1.081E+01   -1.079E+01   -1.077E+01   -1.075E+01   -1.073E+01   -1.071E+01   -1.070E+01   -1.068E+01
    -1.066E+01   -1.064E+01   -1.062E+01   -1.059E+01   -1.057E+01   -1.055E+01   -1.053E+01   -1.051E+01   -1.049E+01   -1.046E+01
    -1.044E+01   -1.042E+01   -1.039E+01   -1.037E+01   -1.034E+01   -1.032E+01   -1.029E+01   -1.027E+01   -1.024E+01   -1.022E+01
    -1.019E+01   -1.016E+01   -1.014E+01   -1.011E+01   -1.008E+01   -1.005E+01   -1.002E+01   -9.995E+00   -9.966E+00   -9.937E+00
    -9.908E+00   -9.878E+00   -9.848E+00   -9.818E+00   -9.787E+00   -9.756E+00   -9.725E+00   -9.694E+00   -9.662E+00   -9.630E+00
    -9.598E+00   -9.565E+00   -9.533E+00   -9.500E+00   -9.467E+00   -9.433E+00   -9.400E+00   -9.366E+00   -9.332E+00   -9.298E+00
    -9.263E+00   -9.228E+00   -9.193E+00   -9.158E+00   -9.123E+00   -9.087E+00   -9.051E+00   -9.016E+00   -8.979E+00   -8.943E+00
    -8.907E+00   -8.870E+00   -8.833E+00   -8.796E+00   -8.759E+00   -8.722E+00   -8.684E+00   -8.647E+00   -8.609E+00   -8.571E+00
    -8.533E+00   -8.495E+00   -8.457E+00   -8.419E+00   -8.381E+00   -8.342E+00   -8.304E+00   -8.265E+00   -8.226E+00   -8.188E+00
    -8.149E+00   -8.110E+00   -8.071E+00   -8.032E+00   -7.993E+00   -7.954E+00   -7.915E+00   -7.876E+00   -7.837E+00   -7.797E+00
    -7.758E+00   -7.719E+00   -7.680E+00   -7.641E+00   -7.601E+00   -7.562E+00   -7.523E+00   -7.484E+00
 Asp      Conc. = 1.10E+01
