 LCModel (Version 6.3-1L) Copyright: S.W. Provencher.          Ref.: Magn. Reson. Med. 30:672-679 (1993).                
 Slice#1 Row#6 Col#11  PD_24_press_1_raw_act
 36 lines in following concentration table = NCONC+1
    Conc.  %SD /Cr+PCr  Metabolite                                         
    0.000 999%   0.000 Ala                                                 
    0.000 999%   0.000 Asp                                                 
  143.967 195%   0.177 Cr                                                  
  671.266  42%   0.823 PCr                                                 
    0.000 999%   0.000 GABA                                                
   24.133 576% 3.0E-02 Glc                                                 
  952.589  36%   1.168 Gln                                                 
 1.26E+03  30%   1.548 Glu                                                 
  343.725   7%   0.422 GPC                                                 
    0.000 999%   0.000 PCh                                                 
  144.183  59%   0.177 GSH                                                 
 1.13E+03  23%   1.392 Ins                                                 
    0.000 999%   0.000 Lac                                                 
 2.37E+03   4%   2.912 NAA                                                 
    0.000 999%   0.000 NAAG                                                
  113.658  25%   0.139 Scyllo                                              
  112.068 169%   0.137 Tau                                                 
  547.114  19%   0.671 -CrCH2                                              
  343.725   7%   0.422 GPC+PCh                                             
 2.37E+03   4%   2.912 NAA+NAAG                                            
  815.233   7%   1.000 Cr+PCr                                              
 2.21E+03  27%   2.716 Glu+Gln                                             
    0.000 999%   0.000 Lip13a                                              
   70.756 158% 8.7E-02 Lip13b                                              
    0.000 999%   0.000 Lip09                                               
 1.97E+03   9%   2.417 MM09                                                
  120.013 153%   0.147 Lip20                                               
 3.64E+03  10%   4.467 MM20                                                
 1.03E+03  10%   1.265 MM12                                                
  260.391  99%   0.319 MM14                                                
 1.84E+03  14%   2.256 MM17                                                
   70.756 158% 8.7E-02 Lip13a+Lip13b                                       
 1.36E+03  21%   1.671 MM14+Lip13a+Lip13b+MM12                             
 1.97E+03   9%   2.417 MM09+Lip09                                          
 3.76E+03   9%   4.614 MM20+Lip20                                          
   6 lines in following misc. output table
  FWHM = 0.069 ppm    S/N =  11                                            
  Data shift = 0.015 ppm                                                   
  Ph: -39 deg      -8.0 deg/ppm                                            
  alphaB,S = 8.5E+01,   2.0E+02                                            
   14 spline knots.   Ns = 9(1)                                            
   2 inflections.     1 extrema                                            
  498 points on ppm-axis = NY
      4.000000     3.992357     3.984714     3.977070     3.969427     3.961784     3.954141     3.946497     3.938854     3.931211
      3.923568     3.915925     3.908281     3.900638     3.892995     3.885352     3.877708     3.870065     3.862422     3.854779
      3.847136     3.839492     3.831849     3.824206     3.816563     3.808919     3.801276     3.793633     3.785990     3.778347
      3.770703     3.763060     3.755417     3.747774     3.740130     3.732487     3.724844     3.717201     3.709558     3.701914
      3.694271     3.686628     3.678985     3.671341     3.663698     3.656055     3.648412     3.640769     3.633125     3.625482
      3.617839     3.610196     3.602552     3.594909     3.587266     3.579623     3.571980     3.564336     3.556693     3.549050
      3.541407     3.533763     3.526120     3.518477     3.510834     3.503191     3.495547     3.487904     3.480261     3.472618
      3.464974     3.457331     3.449688     3.442045     3.434402     3.426758     3.419115     3.411472     3.403829     3.396185
      3.388542     3.380899     3.373256     3.365613     3.357969     3.350326     3.342683     3.335040     3.327396     3.319753
      3.312110     3.304467     3.296824     3.289180     3.281537     3.273894     3.266251     3.258607     3.250964     3.243321
      3.235678     3.228034     3.220391     3.212748     3.205105     3.197462     3.189818     3.182175     3.174532     3.166889
      3.159245     3.151602     3.143959     3.136316     3.128673     3.121029     3.113386     3.105743     3.098100     3.090456
      3.082813     3.075170     3.067527     3.059884     3.052240     3.044597     3.036954     3.029311     3.021667     3.014024
      3.006381     2.998738     2.991095     2.983451     2.975808     2.968165     2.960522     2.952878     2.945235     2.937592
      2.929949     2.922306     2.914662     2.907019     2.899376     2.891733     2.884089     2.876446     2.868803     2.861160
      2.853517     2.845873     2.838230     2.830587     2.822944     2.815300     2.807657     2.800014     2.792371     2.784728
      2.777084     2.769441     2.761798     2.754155     2.746511     2.738868     2.731225     2.723582     2.715939     2.708295
      2.700652     2.693009     2.685366     2.677722     2.670079     2.662436     2.654793     2.647150     2.639506     2.631863
      2.624220     2.616577     2.608933     2.601290     2.593647     2.586004     2.578361     2.570717     2.563074     2.555431
      2.547788     2.540144     2.532501     2.524858     2.517215     2.509572     2.501928     2.494285     2.486642     2.478999
      2.471355     2.463712     2.456069     2.448426     2.440783     2.433139     2.425496     2.417853     2.410210     2.402566
      2.394923     2.387280     2.379637     2.371994     2.364350     2.356707     2.349064     2.341421     2.333777     2.326134
      2.318491     2.310848     2.303205     2.295561     2.287918     2.280275     2.272632     2.264988     2.257345     2.249702
      2.242059     2.234416     2.226772     2.219129     2.211486     2.203843     2.196199     2.188556     2.180913     2.173270
      2.165627     2.157983     2.150340     2.142697     2.135054     2.127410     2.119767     2.112124     2.104481     2.096838
      2.089194     2.081551     2.073908     2.066265     2.058621     2.050978     2.043335     2.035692     2.028049     2.020405
      2.012762     2.005119     1.997476     1.989833     1.982190     1.974546     1.966903     1.959260     1.951617     1.943974
      1.936331     1.928688     1.921045     1.913402     1.905759     1.898115     1.890472     1.882829     1.875186     1.867543
      1.859900     1.852257     1.844614     1.836971     1.829327     1.821684     1.814041     1.806398     1.798755     1.791112
      1.783469     1.775826     1.768183     1.760540     1.752896     1.745253     1.737610     1.729967     1.722324     1.714681
      1.707038     1.699395     1.691752     1.684108     1.676465     1.668822     1.661179     1.653536     1.645893     1.638250
      1.630607     1.622964     1.615321     1.607677     1.600034     1.592391     1.584748     1.577105     1.569462     1.561819
      1.554176     1.546533     1.538890     1.531246     1.523603     1.515960     1.508317     1.500674     1.493031     1.485388
      1.477745     1.470102     1.462458     1.454815     1.447172     1.439529     1.431886     1.424243     1.416600     1.408957
      1.401314     1.393671     1.386027     1.378384     1.370741     1.363098     1.355455     1.347812     1.340169     1.332526
      1.324883     1.317240     1.309596     1.301953     1.294310     1.286667     1.279024     1.271381     1.263738     1.256095
      1.248452     1.240808     1.233165     1.225522     1.217879     1.210236     1.202593     1.194950     1.187307     1.179664
      1.172021     1.164377     1.156734     1.149091     1.141448     1.133805     1.126162     1.118519     1.110876     1.103233
      1.095590     1.087946     1.080303     1.072660     1.065017     1.057374     1.049731     1.042088     1.034445     1.026802
      1.019158     1.011515     1.003872     0.996229     0.988586     0.980943     0.973300     0.965657     0.958014     0.950371
      0.942727     0.935084     0.927441     0.919798     0.912155     0.904512     0.896869     0.889226     0.881583     0.873940
      0.866296     0.858653     0.851010     0.843367     0.835724     0.828081     0.820438     0.812795     0.805152     0.797508
      0.789865     0.782222     0.774579     0.766936     0.759293     0.751650     0.744007     0.736364     0.728721     0.721077
      0.713434     0.705791     0.698148     0.690505     0.682862     0.675219     0.667576     0.659933     0.652290     0.644646
      0.637003     0.629360     0.621717     0.614074     0.606431     0.598788     0.591145     0.583502     0.575858     0.568215
      0.560572     0.552929     0.545286     0.537643     0.530000     0.522357     0.514714     0.507071     0.499427     0.491784
      0.484141     0.476498     0.468855     0.461212     0.453569     0.445925     0.438282     0.430639     0.422996     0.415353
      0.407710     0.400067     0.392424     0.384780     0.377137     0.369494     0.361851     0.354208     0.346565     0.338922
      0.331278     0.323635     0.315992     0.308349     0.300706     0.293063     0.285420     0.277777     0.270133     0.262490
      0.254847     0.247204     0.239561     0.231918     0.224275     0.216631     0.208988     0.201345
 NY phased data points follow
   6.34746E+00  3.52009E+00  9.01772E+00  5.74482E+00  4.27558E-01  5.08853E+00  8.66463E+00  3.36176E+00  4.37520E+00  4.87583E+00
   9.45448E+00  6.57006E+00  8.57624E+00  7.40405E+00  9.18471E+00  3.79494E+00  3.82493E+00  6.33247E+00  4.73619E+00  2.80200E+00
   1.93896E+00  6.78001E+00  2.84865E+00  5.53223E+00  2.69097E+00  5.59117E+00  2.68201E+00  2.57967E+00  5.52933E-01  4.29380E+00
   4.16415E+00  1.41533E+00  7.53063E+00  2.68968E+00  5.69728E+00  9.50898E+00  9.81034E+00  8.93515E+00  8.63808E+00  5.70095E+00
   8.29356E+00  9.76184E+00  3.61273E+00  1.88402E+00  7.86272E+00  1.06112E+01  1.24544E+01  7.01606E+00  8.09359E+00  8.00483E+00
   9.16171E+00  4.90073E+00  6.74898E+00  5.00478E+00  1.04967E+01  5.60715E+00  8.89385E+00  8.16378E+00  3.33640E+00  2.16572E+00
   7.07505E+00  2.11782E+00  2.48471E+00  6.65922E+00  4.29044E+00  1.77504E+00  7.89879E-01  7.59940E-01  2.93649E+00  5.54643E-01
   6.14523E+00 -7.55627E-01  5.59398E+00  2.53733E+00  3.39530E+00  3.96246E+00  2.14806E-01  2.79446E+00  3.23759E+00  5.85380E+00
   2.68905E+00  4.54212E+00  8.29528E+00  3.84502E+00  6.45973E+00  3.78784E+00  2.34856E-01  7.51912E+00  6.07787E+00  2.55721E+00
   5.91669E+00  7.49862E+00  5.53677E+00  9.48913E+00  8.20730E+00  1.06413E+01  1.21726E+01  1.02768E+01  1.38562E+01  1.23097E+01
   2.24737E+01  1.98496E+01  2.66160E+01  2.73321E+01  2.53170E+01  2.19206E+01  2.41386E+01  1.81592E+01  1.24573E+01  7.07874E+00
   6.85713E+00  6.81825E+00  2.20447E+00  5.13436E+00  4.98856E+00  1.95747E+00  3.46312E+00  3.50748E+00  7.67767E+00  1.02966E+01
   6.05743E+00  7.47984E+00  1.26444E+01  1.17721E+01  1.89067E+01  2.24723E+01  2.62733E+01  2.69367E+01  2.52453E+01  2.09389E+01
   1.99290E+01  1.47177E+01  1.31237E+01  1.41344E+01  7.78497E+00  7.48854E+00  9.73594E+00  5.09973E+00  5.56351E+00  4.35302E+00
   4.79831E+00  5.09305E+00  5.34491E+00  2.98581E+00  4.36354E+00  3.40493E+00  4.02655E+00  2.71012E+00  3.25080E+00  9.84995E-01
   4.86378E+00  2.99170E+00  4.55290E+00  1.96324E+00  1.93762E+00 -8.12787E-01  3.54656E+00  5.75174E+00  3.47332E+00  4.76192E+00
   5.19850E+00  5.93833E+00  1.11583E-01 -1.14389E+00  4.88888E+00  3.32369E-01 -6.33584E-01 -5.77138E+00 -8.97400E-01 -5.30792E+00
  -1.12242E+00 -7.19621E+00 -7.72137E+00 -6.88755E+00 -7.38711E+00 -9.12066E+00 -9.19824E+00 -7.21734E+00 -8.62280E+00 -9.27500E+00
  -8.39577E+00 -5.72457E+00 -5.68071E+00 -5.01131E+00  1.09016E+00 -3.24961E+00 -5.26915E+00 -2.49875E+00  2.67081E+00 -1.02022E+00
   1.96569E-01 -1.03434E+00  2.59384E+00 -3.88503E+00  3.76005E+00 -4.81837E+00  7.92988E-01 -1.69001E+00 -2.23996E+00 -2.83354E+00
   3.51225E-01 -6.27398E-01  3.60017E+00 -1.54463E+00  2.65722E+00  2.10799E+00  3.55810E+00  5.24159E+00  6.43368E+00  2.28887E+00
   4.58327E+00  2.68584E+00  5.60027E+00  1.23484E+01  6.91221E+00  1.06122E+01  1.30575E+01  9.32751E+00  9.03826E+00  6.64352E+00
   4.86121E+00  9.55132E+00  4.00052E+00  3.86769E+00  6.59833E+00  7.90000E+00  8.25239E+00  8.95967E+00  8.70209E+00  1.12422E+01
   1.31303E+01  1.02893E+01  1.17290E+01  1.04751E+01  1.36667E+01  1.09747E+01  1.10484E+01  1.25184E+01  1.22633E+01  1.12406E+01
   8.86273E+00  9.53288E+00  9.71289E+00  4.16527E+00  1.00689E+01  1.05173E+01  1.61066E+01  1.18166E+01  1.14859E+01  1.42809E+01
   1.49469E+01  1.91570E+01  2.37496E+01  2.19654E+01  2.85349E+01  3.68931E+01  4.91876E+01  5.53433E+01  6.35838E+01  6.66929E+01
   7.53116E+01  7.53178E+01  7.17766E+01  6.02328E+01  5.20069E+01  4.31651E+01  3.68753E+01  2.66172E+01  2.07369E+01  1.77573E+01
   1.51059E+01  1.26328E+01  1.00435E+01  9.50289E+00  9.78279E+00  9.52586E+00  3.63537E+00  4.51773E+00  6.89908E+00  8.67313E+00
   4.71672E+00  4.30230E+00  4.85689E+00  7.28879E+00  3.69269E+00  5.06425E+00  7.38779E+00  5.91342E+00  3.32158E+00  4.48403E+00
   9.56824E+00  3.91288E+00  4.45106E+00  4.63484E+00  9.08699E+00  6.73028E+00  6.75945E+00  4.90293E+00  9.31045E+00  6.66810E+00
   1.13230E+01  1.07218E+01  1.12579E+01  8.26176E+00  8.17369E+00  9.34429E+00  9.49889E+00  1.17569E+01  1.01603E+01  9.56575E+00
   8.20655E+00  8.17990E+00  1.24124E+01  1.21426E+01  7.85341E+00  1.50269E+01  1.59909E+01  1.55892E+01  1.21488E+01  1.55777E+01
   1.01572E+01  1.36421E+01  1.46387E+01  1.05776E+01  8.41395E+00  8.26453E+00  6.75490E+00  6.94669E+00  1.10461E+01  8.28652E+00
   7.96014E+00  5.97954E+00  5.85508E+00  5.28073E+00  6.58913E+00  9.19216E+00  7.80474E+00  6.79555E+00  5.05450E+00  1.13736E+00
   9.39358E-01  6.10562E-01 -3.20587E+00 -1.38540E+00 -4.84595E+00 -2.06028E+00 -3.24582E-01 -1.98251E+00  2.23567E+00  1.06884E+00
   5.22463E+00  5.41581E+00  9.20602E+00  3.87534E+00  7.19131E+00  8.88670E+00  4.83760E+00  5.90191E+00  7.17736E+00  1.05654E+01
   1.01345E+01  9.06150E+00  1.03691E+01  9.72446E+00  1.38875E+01  9.99547E+00  1.45495E+01  1.49085E+01  9.90212E+00  1.42202E+01
   1.34939E+01  1.41200E+01  1.35928E+01  1.41767E+01  1.27575E+01  1.33495E+01  8.83098E+00  9.95467E+00  9.79895E+00  6.34067E+00
   6.60007E+00  8.46720E+00  8.71933E+00  9.63738E+00  9.32175E+00  5.89008E+00  1.03954E+01  9.56723E+00  7.27086E+00  5.37335E+00
   7.82985E+00  7.45761E+00  5.87057E+00  1.00514E+01  1.08418E+01  9.42510E+00  1.14178E+01  8.83435E+00  1.31994E+01  9.14336E+00
   9.30252E+00  1.03497E+01  1.00036E+01  1.08016E+01  1.29037E+01  1.44630E+01  1.32876E+01  1.41889E+01  1.20034E+01  1.30142E+01
   1.35064E+01  1.09766E+01  1.54034E+01  1.19558E+01  7.22915E+00  8.77437E+00  5.61978E+00  8.71895E+00  3.60766E+00  8.63927E+00
   3.10148E+00  3.02280E+00  5.95035E+00  6.17045E+00  1.94115E+00  4.37257E+00  2.47036E+00  1.35995E+00  2.56974E+00  1.91229E+00
   4.10720E-01  3.39242E+00  4.15770E-01  2.78335E+00  3.76965E+00  3.12718E-01  1.41357E+00  4.53454E+00  5.13425E+00  3.22508E+00
   1.28289E+00 -1.01028E+00  1.71439E+00  3.24391E-01  2.78677E+00  4.09072E+00  1.87023E+00 -1.08784E+00 -1.59191E+00 -1.74688E+00
  -1.34951E-01  6.04355E+00  7.17455E-01  1.59015E+00  5.76884E+00  4.76370E-01 -7.58548E-02  1.27346E+00  1.76445E+00  2.44081E+00
   3.60630E+00  4.81186E-01 -5.36348E-01  3.23897E+00  1.82596E+00 -2.88178E+00  2.60106E+00 -2.28532E-01  7.94575E-01  3.62548E-01
   7.13907E-01  1.76281E+00  1.72601E+00 -2.53401E+00  3.22752E+00  1.48415E+00 -2.81655E+00  8.99516E-01  1.97594E+00  8.15916E-01
   1.16883E+00  2.85250E+00  2.83235E+00  2.57491E+00  3.61669E+00 -2.93429E+00  9.61289E-01  2.11954E+00  5.66291E+00 -6.21453E-02
   4.98385E+00  6.75977E-01  3.18867E+00  1.51967E+00 -4.86133E+00  2.39364E+00  2.63355E+00  5.51710E+00
 NY points of the fit to the data follow
   4.05711E+00  3.82624E+00  3.77769E+00  3.96874E+00  4.38067E+00  4.92392E+00  5.55362E+00  6.23874E+00  6.87519E+00  7.34841E+00
   7.60511E+00  7.64501E+00  7.48243E+00  7.14558E+00  6.69840E+00  6.21841E+00  5.76450E+00  5.32704E+00  4.90720E+00  4.51058E+00
   4.14919E+00  3.83465E+00  3.61391E+00  3.50271E+00  3.46546E+00  3.50776E+00  3.69412E+00  4.06058E+00  4.63881E+00  5.42069E+00
   6.30433E+00  7.09165E+00  7.58610E+00  7.67679E+00  7.36708E+00  6.72929E+00  5.93853E+00  5.20753E+00  4.73235E+00  4.57019E+00
   4.68062E+00  5.03991E+00  5.63826E+00  6.46091E+00  7.39998E+00  8.31533E+00  9.07564E+00  9.51202E+00  9.49065E+00  8.97293E+00
   8.08793E+00  7.04827E+00  6.03490E+00  5.18567E+00  4.56208E+00  4.15639E+00  3.94243E+00  3.88369E+00  3.96395E+00  4.14233E+00
   4.30606E+00  4.33487E+00  4.19543E+00  3.96334E+00  3.70721E+00  3.48288E+00  3.35125E+00  3.34551E+00  3.43498E+00  3.56509E+00
   3.71929E+00  3.88154E+00  4.01474E+00  4.09038E+00  4.07809E+00  3.98074E+00  3.82796E+00  3.70570E+00  3.71743E+00  3.78562E+00
   3.89847E+00  4.11618E+00  4.45103E+00  4.86071E+00  5.25380E+00  5.54778E+00  5.67885E+00  5.58615E+00  5.23839E+00  4.70281E+00
   4.12942E+00  3.62745E+00  3.30431E+00  3.57168E+00  4.70518E+00  6.21351E+00  8.04043E+00  1.04961E+01  1.36626E+01  1.71897E+01
   2.06693E+01  2.37114E+01  2.58476E+01  2.65442E+01  2.55510E+01  2.31736E+01  2.00491E+01  1.67301E+01  1.35346E+01  1.06538E+01
   8.21947E+00  6.19278E+00  4.50406E+00  3.41571E+00  3.05862E+00  2.97146E+00  3.01575E+00  3.39420E+00  4.46409E+00  5.93295E+00
   7.64321E+00  9.78723E+00  1.24598E+01  1.54863E+01  1.85698E+01  2.13791E+01  2.35228E+01  2.45428E+01  2.41488E+01  2.24729E+01
   1.99981E+01  1.72174E+01  1.44364E+01  1.18408E+01  9.55400E+00  7.59713E+00  5.92179E+00  4.68070E+00  4.11533E+00  3.90463E+00
   3.80578E+00  3.74649E+00  3.68681E+00  3.60380E+00  3.49735E+00  3.37834E+00  3.24428E+00  3.09589E+00  2.94318E+00  2.79140E+00
   2.64811E+00  2.51264E+00  2.34288E+00  2.15522E+00  1.97564E+00  1.80254E+00  1.64297E+00  1.45731E+00  1.23075E+00  1.00484E+00
   8.14566E-01  6.75541E-01  5.97194E-01  5.64829E-01  5.25627E-01  4.07648E-01  1.61353E-01 -2.22036E-01 -6.81544E-01 -1.11170E+00
  -1.49648E+00 -1.86497E+00 -2.26685E+00 -2.64721E+00 -2.93004E+00 -3.09557E+00 -3.13014E+00 -3.07396E+00 -2.99425E+00 -2.89683E+00
  -2.77593E+00 -2.64119E+00 -2.46217E+00 -2.19976E+00 -1.84862E+00 -1.42100E+00 -9.05123E-01 -3.21311E-01  3.31309E-01  9.97784E-01
   1.58082E+00  2.02484E+00  2.30779E+00  2.46194E+00  2.56232E+00  2.70631E+00  2.95908E+00  3.32243E+00  3.76081E+00  4.28777E+00
   4.86841E+00  5.30583E+00  5.55206E+00  5.53415E+00  5.07622E+00  4.17242E+00  2.99938E+00  1.82661E+00  8.56699E-01  2.04570E-01
   7.95596E-02  6.04781E-01  1.66838E+00  2.95507E+00  4.17843E+00  5.20039E+00  5.85201E+00  5.91509E+00  5.39636E+00  4.54966E+00
   3.64608E+00  2.85717E+00  2.44509E+00  2.56681E+00  3.19499E+00  4.18899E+00  5.31411E+00  6.40368E+00  7.37982E+00  8.15533E+00
   8.69945E+00  9.06121E+00  9.35063E+00  9.58903E+00  9.75354E+00  9.98143E+00  1.03699E+01  1.08560E+01  1.13267E+01  1.16936E+01
   1.19037E+01  1.19610E+01  1.19109E+01  1.18414E+01  1.18923E+01  1.21394E+01  1.25385E+01  1.30165E+01  1.36049E+01  1.43246E+01
   1.53635E+01  1.78301E+01  2.20722E+01  2.68673E+01  3.22463E+01  3.88604E+01  4.66706E+01  5.49458E+01  6.28009E+01  6.92984E+01
   7.32677E+01  7.34715E+01  6.95313E+01  6.24229E+01  5.37836E+01  4.48905E+01  3.64527E+01  2.89269E+01  2.25816E+01  1.72582E+01
   1.28301E+01  1.00452E+01  8.93942E+00  8.34679E+00  7.91014E+00  7.55116E+00  7.22456E+00  6.89918E+00  6.58279E+00  6.27740E+00
   5.98563E+00  5.71518E+00  5.47231E+00  5.25577E+00  5.06937E+00  4.91930E+00  4.80571E+00  4.72544E+00  4.67730E+00  4.66201E+00
   4.68162E+00  4.73656E+00  4.82678E+00  4.95596E+00  5.12748E+00  5.34319E+00  5.60421E+00  5.91101E+00  6.26352E+00  6.65998E+00
   7.09745E+00  7.57183E+00  8.07719E+00  8.60550E+00  9.14748E+00  9.69208E+00  1.02273E+01  1.07402E+01  1.12177E+01  1.16466E+01
   1.20150E+01  1.23118E+01  1.25283E+01  1.26576E+01  1.26960E+01  1.26428E+01  1.24999E+01  1.22721E+01  1.19671E+01  1.15942E+01
   1.11648E+01  1.06912E+01  1.01861E+01  9.66198E+00  9.13072E+00  8.60296E+00  8.08807E+00  7.59353E+00  7.12528E+00  6.68730E+00
   6.28213E+00  5.91066E+00  5.57281E+00  5.26736E+00  4.99259E+00  4.74622E+00  4.52601E+00  4.32967E+00  4.15543E+00  4.00188E+00
   3.86856E+00  3.75575E+00  3.66512E+00  3.59945E+00  3.56310E+00  3.56154E+00  3.60147E+00  3.68982E+00  3.83338E+00  4.03737E+00
   4.30474E+00  4.63504E+00  5.02436E+00  5.46523E+00  5.94788E+00  6.46112E+00  6.99411E+00  7.53704E+00  8.08196E+00  8.62206E+00
   9.15115E+00  9.66198E+00  1.01456E+01  1.05903E+01  1.09826E+01  1.13074E+01  1.15502E+01  1.16984E+01  1.17435E+01  1.16816E+01
   1.15148E+01  1.12508E+01  1.09027E+01  1.04876E+01  1.00257E+01  9.53887E+00  9.04920E+00  8.57774E+00  8.14369E+00  7.76329E+00
   7.44971E+00  7.21244E+00  7.05771E+00  6.98833E+00  7.00436E+00  7.10320E+00  7.28032E+00  7.52937E+00  7.84285E+00  8.21203E+00
   8.62754E+00  9.07917E+00  9.55634E+00  1.00478E+01  1.05424E+01  1.10282E+01  1.14938E+01  1.19276E+01  1.23189E+01  1.26574E+01
   1.29341E+01  1.31413E+01  1.32732E+01  1.33255E+01  1.32964E+01  1.31860E+01  1.29967E+01  1.27326E+01  1.24001E+01  1.20067E+01
   1.15612E+01  1.10732E+01  1.05528E+01  1.00100E+01  9.45448E+00  8.89527E+00  8.34069E+00  7.79778E+00  7.27264E+00  6.76998E+00
   6.29350E+00  5.84561E+00  5.42791E+00  5.04090E+00  4.68453E+00  4.35794E+00  4.06001E+00  3.78911E+00  3.54354E+00  3.32132E+00
   3.12060E+00  2.93937E+00  2.77587E+00  2.62825E+00  2.49498E+00  2.37445E+00  2.26540E+00  2.16650E+00  2.07673E+00  1.99503E+00
   1.92062E+00  1.85262E+00  1.79044E+00  1.73340E+00  1.68105E+00  1.63283E+00  1.58841E+00  1.54735E+00  1.50940E+00  1.47418E+00
   1.44154E+00  1.41116E+00  1.38293E+00  1.35657E+00  1.33201E+00  1.30903E+00  1.28757E+00  1.26744E+00  1.24861E+00  1.23091E+00
   1.21432E+00  1.19869E+00  1.18404E+00  1.17021E+00  1.15723E+00  1.14495E+00  1.13342E+00  1.12251E+00  1.11225E+00  1.10253E+00
   1.09340E+00  1.08472E+00  1.07658E+00  1.06885E+00  1.06160E+00  1.05472E+00  1.04826E+00  1.04213E+00  1.03640E+00  1.03096E+00
   1.02589E+00  1.02108E+00  1.01661E+00  1.01238E+00  1.00848E+00  1.00481E+00  1.00144E+00  9.98287E-01  9.95433E-01  9.92786E-01
   9.90437E-01  9.88295E-01  9.86452E-01  9.84822E-01  9.83501E-01  9.82411E-01  9.81655E-01  9.81158E-01
 NY background values follow
     5.701E-01    5.712E-01    5.723E-01    5.733E-01    5.744E-01    5.755E-01    5.765E-01    5.776E-01    5.787E-01    5.797E-01
     5.808E-01    5.819E-01    5.829E-01    5.840E-01    5.851E-01    5.861E-01    5.872E-01    5.882E-01    5.893E-01    5.904E-01
     5.914E-01    5.925E-01    5.936E-01    5.946E-01    5.957E-01    5.968E-01    5.978E-01    5.989E-01    6.000E-01    6.010E-01
     6.021E-01    6.031E-01    6.042E-01    6.053E-01    6.063E-01    6.074E-01    6.085E-01    6.095E-01    6.106E-01    6.117E-01
     6.127E-01    6.138E-01    6.149E-01    6.159E-01    6.170E-01    6.180E-01    6.191E-01    6.202E-01    6.212E-01    6.223E-01
     6.234E-01    6.244E-01    6.255E-01    6.266E-01    6.276E-01    6.287E-01    6.297E-01    6.308E-01    6.319E-01    6.329E-01
     6.340E-01    6.351E-01    6.361E-01    6.372E-01    6.383E-01    6.393E-01    6.404E-01    6.414E-01    6.425E-01    6.436E-01
     6.446E-01    6.457E-01    6.468E-01    6.478E-01    6.489E-01    6.499E-01    6.510E-01    6.521E-01    6.531E-01    6.542E-01
     6.553E-01    6.563E-01    6.574E-01    6.584E-01    6.595E-01    6.606E-01    6.616E-01    6.627E-01    6.638E-01    6.648E-01
     6.659E-01    6.669E-01    6.680E-01    6.691E-01    6.701E-01    6.712E-01    6.723E-01    6.733E-01    6.744E-01    6.754E-01
     6.765E-01    6.776E-01    6.786E-01    6.797E-01    6.807E-01    6.818E-01    6.829E-01    6.839E-01    6.850E-01    6.861E-01
     6.871E-01    6.882E-01    6.892E-01    6.903E-01    6.914E-01    6.924E-01    6.935E-01    6.945E-01    6.956E-01    6.967E-01
     6.977E-01    6.988E-01    6.998E-01    7.009E-01    7.020E-01    7.030E-01    7.041E-01    7.051E-01    7.062E-01    7.073E-01
     7.083E-01    7.094E-01    7.104E-01    7.115E-01    7.126E-01    7.136E-01    7.147E-01    7.157E-01    7.168E-01    7.179E-01
     7.189E-01    7.200E-01    7.210E-01    7.221E-01    7.232E-01    7.242E-01    7.253E-01    7.263E-01    7.274E-01    7.284E-01
     7.295E-01    7.306E-01    7.316E-01    7.327E-01    7.337E-01    7.348E-01    7.359E-01    7.369E-01    7.380E-01    7.390E-01
     7.401E-01    7.411E-01    7.422E-01    7.433E-01    7.443E-01    7.454E-01    7.464E-01    7.475E-01    7.485E-01    7.496E-01
     7.507E-01    7.517E-01    7.528E-01    7.538E-01    7.549E-01    7.559E-01    7.570E-01    7.581E-01    7.591E-01    7.602E-01
     7.612E-01    7.623E-01    7.633E-01    7.644E-01    7.655E-01    7.665E-01    7.676E-01    7.686E-01    7.697E-01    7.707E-01
     7.718E-01    7.728E-01    7.739E-01    7.750E-01    7.760E-01    7.771E-01    7.781E-01    7.792E-01    7.802E-01    7.813E-01
     7.823E-01    7.834E-01    7.845E-01    7.855E-01    7.866E-01    7.876E-01    7.887E-01    7.897E-01    7.908E-01    7.918E-01
     7.929E-01    7.939E-01    7.950E-01    7.961E-01    7.971E-01    7.982E-01    7.992E-01    8.003E-01    8.013E-01    8.024E-01
     8.034E-01    8.045E-01    8.055E-01    8.066E-01    8.076E-01    8.087E-01    8.097E-01    8.108E-01    8.118E-01    8.129E-01
     8.139E-01    8.150E-01    8.161E-01    8.171E-01    8.182E-01    8.192E-01    8.203E-01    8.213E-01    8.224E-01    8.234E-01
     8.245E-01    8.255E-01    8.266E-01    8.276E-01    8.287E-01    8.297E-01    8.308E-01    8.318E-01    8.329E-01    8.339E-01
     8.350E-01    8.360E-01    8.371E-01    8.381E-01    8.392E-01    8.402E-01    8.413E-01    8.423E-01    8.433E-01    8.444E-01
     8.454E-01    8.465E-01    8.475E-01    8.486E-01    8.496E-01    8.507E-01    8.517E-01    8.528E-01    8.538E-01    8.549E-01
     8.559E-01    8.570E-01    8.580E-01    8.591E-01    8.601E-01    8.611E-01    8.622E-01    8.632E-01    8.643E-01    8.653E-01
     8.664E-01    8.674E-01    8.685E-01    8.695E-01    8.705E-01    8.716E-01    8.726E-01    8.737E-01    8.747E-01    8.758E-01
     8.768E-01    8.779E-01    8.789E-01    8.799E-01    8.810E-01    8.820E-01    8.831E-01    8.841E-01    8.852E-01    8.862E-01
     8.872E-01    8.883E-01    8.893E-01    8.904E-01    8.914E-01    8.924E-01    8.935E-01    8.945E-01    8.956E-01    8.966E-01
     8.976E-01    8.987E-01    8.997E-01    9.008E-01    9.018E-01    9.028E-01    9.039E-01    9.049E-01    9.060E-01    9.070E-01
     9.080E-01    9.091E-01    9.101E-01    9.112E-01    9.122E-01    9.132E-01    9.143E-01    9.153E-01    9.163E-01    9.174E-01
     9.184E-01    9.194E-01    9.205E-01    9.215E-01    9.226E-01    9.236E-01    9.246E-01    9.257E-01    9.267E-01    9.277E-01
     9.288E-01    9.298E-01    9.308E-01    9.319E-01    9.329E-01    9.339E-01    9.350E-01    9.360E-01    9.370E-01    9.381E-01
     9.391E-01    9.401E-01    9.412E-01    9.422E-01    9.432E-01    9.443E-01    9.453E-01    9.463E-01    9.474E-01    9.484E-01
     9.494E-01    9.505E-01    9.515E-01    9.525E-01    9.536E-01    9.546E-01    9.556E-01    9.566E-01    9.577E-01    9.587E-01
     9.597E-01    9.608E-01    9.618E-01    9.628E-01    9.638E-01    9.649E-01    9.659E-01    9.669E-01    9.680E-01    9.690E-01
     9.700E-01    9.710E-01    9.721E-01    9.731E-01    9.741E-01    9.751E-01    9.762E-01    9.772E-01    9.782E-01    9.793E-01
     9.803E-01    9.813E-01    9.823E-01    9.834E-01    9.844E-01    9.854E-01    9.864E-01    9.875E-01    9.885E-01    9.895E-01
     9.905E-01    9.915E-01    9.926E-01    9.936E-01    9.946E-01    9.956E-01    9.967E-01    9.977E-01    9.987E-01    9.997E-01
     1.001E+00    1.002E+00    1.003E+00    1.004E+00    1.005E+00    1.006E+00    1.007E+00    1.008E+00    1.009E+00    1.010E+00
     1.011E+00    1.012E+00    1.013E+00    1.014E+00    1.015E+00    1.016E+00    1.017E+00    1.018E+00    1.019E+00    1.020E+00
     1.021E+00    1.022E+00    1.023E+00    1.024E+00    1.025E+00    1.026E+00    1.027E+00    1.028E+00    1.029E+00    1.030E+00
     1.031E+00    1.032E+00    1.033E+00    1.034E+00    1.035E+00    1.036E+00    1.037E+00    1.038E+00    1.039E+00    1.040E+00
     1.041E+00    1.042E+00    1.043E+00    1.044E+00    1.045E+00    1.046E+00    1.048E+00    1.049E+00    1.050E+00    1.051E+00
     1.052E+00    1.053E+00    1.054E+00    1.055E+00    1.056E+00    1.057E+00    1.058E+00    1.059E+00    1.060E+00    1.061E+00
     1.062E+00    1.063E+00    1.064E+00    1.065E+00    1.066E+00    1.067E+00    1.068E+00    1.069E+00    1.070E+00    1.071E+00
     1.072E+00    1.073E+00    1.074E+00    1.075E+00    1.076E+00    1.077E+00    1.078E+00    1.079E+00    1.080E+00    1.081E+00
     1.082E+00    1.083E+00    1.084E+00    1.085E+00    1.086E+00    1.087E+00    1.088E+00    1.089E+00
 Cr       Conc. = 1.44E+02
